df_hash,22ZHK4.JCYLLW
device,HZ2X61
project_hash,29R7
project_name,istanbul_aydin_university
person_hash,29R7.AJFP
person_label,V26
date_time_start,2025-08-05_12-01-44.304000_+03
date_time_start_unix,1754377304.304
date_time_end,2025-08-05_12-09-59.263000_+03
length_difference_noticed,no

time,ppg_med
5.840,405
5.865,465
5.890,561
5.915,613
5.940,592
5.965,571
5.990,627
6.015,728
6.040,767
6.065,704
6.090,638
6.115,672
6.140,766
6.165,772
6.190,638
6.215,495
6.240,487
6.265,557
6.290,506
6.315,267
6.340,17
6.365,-53
6.390,-21
6.415,-147
6.440,-519
6.465,-902
6.490,-1047
6.515,-1053
6.540,-1260
6.565,-1777
6.590,-2301
6.615,-2509
6.640,-2529
6.665,-2795
6.690,-3447
6.715,-4093
6.740,-4322
6.765,-4298
6.790,-4570
6.815,-5314
6.840,-6030
6.865,-6204
6.890,-6040
6.915,-6230
6.940,-6989
6.965,-7696
6.990,-7702
7.015,-7265
7.040,-7251
7.065,-7929
7.090,-8521
7.115,-8221
7.140,-7353
7.165,-6994
7.190,-7485
7.215,-7855
7.240,-7100
7.265,-5624
7.290,-4780
7.315,-4994
7.340,-5056
7.365,-3705
7.390,-1448
7.415,7
7.440,109
7.465,387
7.490,2451
7.515,5660
7.540,7816
7.565,8185
7.590,8743
7.615,11604
7.640,15951
7.665,18853
7.690,19290
7.715,19905
7.740,23641
7.765,29423
7.790,32767
7.815,32767
7.840,32767
7.865,32767
7.890,32767
7.915,32767
7.940,32767
7.965,32767
7.990,32767
8.015,32767
8.040,32767
8.065,32767
8.090,10746
8.115,-32768
8.140,-32768
8.165,-32768
8.190,-32768
8.215,-32768
8.240,-32768
8.265,-32768
8.290,-32768
8.315,-32768
8.340,-32768
8.365,-32768
8.390,-32768
8.415,-31328
8.440,-25756
8.465,-20713
8.490,-18971
8.515,-18838
8.540,-16928
8.565,-12734
8.590,-8945
8.615,-7597
8.640,-7511
8.665,-6170
8.690,-3137
8.715,-399
8.740,480
8.765,366
8.790,1177
8.815,3269
8.840,5113
8.865,5494
8.890,5086
8.915,5403
8.940,6732
8.965,7868
8.990,7843
9.015,7191
9.040,7121
9.065,7862
9.090,8454
9.115,8122
9.140,7296
9.165,6951
9.190,7276
9.215,7496
9.240,6976
9.265,6061
9.290,5556
9.315,5659
9.340,5784
9.365,5420
9.390,4786
9.415,4445
9.440,4504
9.465,4504
9.490,4087
9.515,3474
9.540,3122
9.565,3091
9.590,2998
9.615,2565
9.640,1993
9.665,1665
9.690,1629
9.715,1564
9.740,1234
9.765,787
9.790,524
9.815,491
9.840,446
9.865,209
9.890,-108
9.915,-282
9.940,-278
9.965,-282
9.990,-432
10.015,-650
10.040,-771
10.065,-770
10.090,-774
10.115,-871
10.140,-998
10.165,-1043
10.190,-1011
10.215,-1004
10.240,-1065
10.265,-1101
10.290,-991
10.315,-746
10.340,-497
10.365,-346
10.390,-266
10.415,-160
10.440,7
10.465,176
10.490,275
10.515,308
10.540,337
10.565,397
10.590,461
10.615,490
10.640,488
10.665,478
10.690,445
10.715,411
10.740,380
10.765,347
10.790,304
10.815,251
10.840,197
10.865,152
10.890,116
10.915,78
10.940,32
10.965,-19
10.990,-67
11.015,-110
11.040,-158
11.065,-221
11.090,-287
11.115,-317
11.140,-275
11.165,-156
11.190,-1
11.215,133
11.240,221
11.265,276
11.290,332
11.315,399
11.340,455
11.365,475
11.390,456
11.415,427
11.440,416
11.465,424
11.490,427
11.515,407
11.540,369
11.565,330
11.590,299
11.615,265
11.640,217
11.665,159
11.690,105
11.715,63
11.740,25
11.765,-21
11.790,-77
11.815,-123
11.840,-149
11.865,-173
11.890,-220
11.915,-296
11.940,-360
11.965,-355
11.990,-253
12.015,-87
12.040,73
12.065,184
12.090,250
12.115,309
12.140,385
12.165,467
12.190,520
12.215,528
12.240,507
12.265,486
12.290,482
12.315,488
12.340,487
12.365,468
12.390,435
12.415,397
12.440,358
12.465,317
12.490,270
12.515,219
12.540,165
12.565,115
12.590,71
12.615,28
12.640,-18
12.665,-72
12.690,-124
12.715,-166
12.740,-203
12.765,-252
12.790,-326
12.815,-401
12.840,-427
12.865,-361
12.890,-210
12.915,-30
12.940,113
12.965,200
12.990,261
13.015,334
13.040,426
13.065,506
13.090,545
13.115,541
13.140,522
13.165,514
13.190,517
13.215,516
13.240,500
13.265,473
13.290,441
13.315,406
13.340,364
13.365,317
13.390,271
13.415,227
13.440,182
13.465,131
13.490,78
13.515,32
13.540,-3
13.565,-40
13.590,-87
13.615,-139
13.640,-183
13.665,-219
13.690,-265
13.715,-335
13.740,-408
13.765,-436
13.790,-373
13.815,-223
13.840,-43
13.865,103
13.890,195
13.915,259
13.940,332
13.965,422
13.990,502
14.015,543
14.040,542
14.065,524
14.090,514
14.115,517
14.140,519
14.165,510
14.190,487
14.215,456
14.240,419
14.265,375
14.290,326
14.315,278
14.340,234
14.365,192
14.390,146
14.415,98
14.440,55
14.465,16
14.490,-25
14.515,-77
14.540,-134
14.565,-181
14.590,-216
14.615,-255
14.640,-316
14.665,-391
14.690,-430
14.715,-383
14.740,-241
14.765,-56
14.790,101
14.815,199
14.840,258
14.865,321
14.890,404
14.915,483
14.940,525
14.965,522
14.990,503
15.015,496
15.040,506
15.065,515
15.090,505
15.115,479
15.140,446
15.165,412
15.190,373
15.215,326
15.240,277
15.265,234
15.290,197
15.315,159
15.340,117
15.365,72
15.390,29
15.415,-13
15.440,-61
15.465,-111
15.490,-155
15.515,-192
15.540,-233
15.565,-294
15.590,-366
15.615,-407
15.640,-368
15.665,-236
15.690,-57
15.715,101
15.740,202
15.765,261
15.790,317
15.815,393
15.840,469
15.865,512
15.890,513
15.915,494
15.940,484
15.965,492
15.990,500
16.015,491
16.040,465
16.065,432
16.090,399
16.115,364
16.140,322
16.165,278
16.190,236
16.215,198
16.240,156
16.265,109
16.290,62
16.315,22
16.340,-13
16.365,-56
16.390,-109
16.415,-160
16.440,-201
16.465,-238
16.490,-290
16.515,-359
16.540,-413
16.565,-402
16.590,-297
16.615,-126
16.640,49
16.665,176
16.690,252
16.715,310
16.740,380
16.765,458
16.790,516
16.815,533
16.840,519
16.865,504
16.890,505
16.915,517
16.940,522
16.965,506
16.990,476
17.015,443
17.040,414
17.065,383
17.090,343
17.115,297
17.140,250
17.165,209
17.190,170
17.215,127
17.240,81
17.265,38
17.290,0
17.315,-39
17.340,-85
17.365,-136
17.390,-182
17.415,-219
17.440,-260
17.465,-322
17.490,-395
17.515,-436
17.540,-393
17.565,-258
17.590,-75
17.615,86
17.640,188
17.665,247
17.690,303
17.715,375
17.740,448
17.765,490
17.790,494
17.815,478
17.840,468
17.865,473
17.890,481
17.915,479
17.940,461
17.965,432
17.990,398
18.015,362
18.040,325
18.065,284
18.090,240
18.115,191
18.140,145
18.165,104
18.190,67
18.215,27
18.240,-20
18.265,-70
18.290,-109
18.315,-142
18.340,-185
18.365,-251
18.390,-319
18.415,-337
18.440,-266
18.465,-119
18.490,46
18.515,173
18.540,246
18.565,297
18.590,356
18.615,423
18.640,472
18.665,482
18.690,465
18.715,447
18.740,443
18.765,448
18.790,448
18.815,434
18.840,408
18.865,375
18.890,339
18.915,301
18.940,264
18.965,223
18.990,178
19.015,128
19.040,81
19.065,41
19.090,4
19.115,-37
19.140,-86
19.165,-132
19.190,-168
19.215,-205
19.240,-262
19.265,-335
19.290,-383
19.315,-354
19.340,-231
19.365,-59
19.390,94
19.415,191
19.440,247
19.465,304
19.490,379
19.515,453
19.540,497
19.565,502
19.590,487
19.615,476
19.640,474
19.665,472
19.690,461
19.715,438
19.740,408
19.765,373
19.790,335
19.815,295
19.840,253
19.865,209
19.890,162
19.915,114
19.940,70
19.965,31
19.990,-9
20.015,-56
20.040,-105
20.065,-146
20.090,-183
20.115,-232
20.140,-302
20.165,-364
20.190,-368
20.215,-282
20.240,-124
20.265,39
20.290,158
20.315,226
20.340,281
20.365,352
20.390,433
20.415,490
20.440,505
20.465,492
20.490,477
20.515,476
20.540,482
20.565,479
20.590,461
20.615,433
20.640,400
20.665,365
20.690,328
20.715,288
20.740,243
20.765,194
20.790,145
20.815,102
20.840,66
20.865,30
20.890,-12
20.915,-62
20.940,-110
20.965,-149
20.990,-191
21.015,-251
21.040,-322
21.065,-365
21.090,-333
21.115,-215
21.140,-55
21.165,85
21.190,174
21.215,226
21.240,281
21.265,355
21.290,426
21.315,464
21.340,461
21.365,441
21.390,431
21.415,437
21.440,444
21.465,435
21.490,408
21.515,373
21.540,339
21.565,305
21.590,266
21.615,219
21.640,171
21.665,129
21.690,92
21.715,55
21.740,13
21.765,-29
21.790,-69
21.815,-106
21.840,-151
21.865,-215
21.890,-284
21.915,-322
21.940,-290
21.965,-179
21.990,-27
22.015,108
22.040,198
22.065,255
22.090,313
22.115,386
22.140,455
22.165,490
22.190,485
22.215,463
22.240,454
22.265,462
22.290,469
22.315,457
22.340,427
22.365,393
22.390,363
22.415,331
22.440,292
22.465,248
22.490,204
22.515,164
22.540,123
22.565,79
22.590,36
22.615,0
22.640,-35
22.665,-77
22.690,-126
22.715,-172
22.740,-207
22.765,-241
22.790,-293
22.815,-361
22.840,-408
22.865,-384
22.890,-270
22.915,-102
22.940,53
22.965,157
22.990,222
23.015,286
23.040,369
23.065,453
23.090,507
23.115,522
23.140,517
23.165,516
23.190,526
23.215,536
23.240,533
23.265,518
23.290,497
23.315,473
23.340,444
23.365,408
23.390,371
23.415,335
23.440,299
23.465,260
23.490,219
23.515,181
23.540,148
23.565,114
23.590,73
23.615,27
23.640,-17
23.665,-56
23.690,-93
23.715,-135
23.740,-179
23.765,-217
23.790,-250
23.815,-291
23.840,-350
23.865,-408
23.890,-420
23.915,-348
23.940,-199
23.965,-27
23.990,109
24.015,192
24.040,248
24.065,312
24.090,392
24.115,466
24.140,507
24.165,511
24.190,502
24.215,502
24.240,514
24.265,525
24.290,520
24.315,499
24.340,471
24.365,444
24.390,416
24.415,382
24.440,339
24.465,295
24.490,257
24.515,225
24.540,192
24.565,151
24.590,107
24.615,64
24.640,25
24.665,-15
24.690,-63
24.715,-114
24.740,-158
24.765,-194
24.790,-237
24.815,-297
24.840,-360
24.865,-385
24.890,-331
24.915,-202
24.940,-44
24.965,85
24.990,165
25.015,217
25.040,275
25.065,349
25.090,417
25.115,453
25.140,454
25.165,440
25.190,434
25.215,441
25.240,449
25.265,446
25.290,428
25.315,402
25.340,374
25.365,346
25.390,315
25.415,277
25.440,233
25.465,187
25.490,148
25.515,115
25.540,82
25.565,41
25.590,-2
25.615,-41
25.640,-72
25.665,-108
25.690,-163
25.715,-226
25.740,-259
25.765,-220
25.790,-107
25.815,33
25.840,147
25.865,212
25.890,249
25.915,291
25.940,342
25.965,378
25.990,381
26.015,362
26.040,348
26.065,354
26.090,367
26.115,366
26.140,347
26.165,320
26.190,297
26.215,272
26.240,238
26.265,193
26.290,147
26.315,108
26.340,71
26.365,32
26.390,-6
26.415,-42
26.440,-80
26.465,-131
26.490,-189
26.515,-222
26.540,-189
26.565,-84
26.590,53
26.615,168
26.640,234
26.665,270
26.690,315
26.715,375
26.740,424
26.765,435
26.790,410
26.815,381
26.840,373
26.865,381
26.890,383
26.915,364
26.940,333
26.965,303
26.990,275
27.015,239
27.040,191
27.065,140
27.090,96
27.115,58
27.140,18
27.165,-29
27.190,-75
27.215,-111
27.240,-144
27.265,-193
27.290,-262
27.315,-323
27.340,-331
27.365,-258
27.390,-124
27.415,18
27.440,129
27.465,202
27.490,264
27.515,336
27.540,417
27.565,482
27.590,511
27.615,506
27.640,487
27.665,473
27.690,469
27.715,467
27.740,454
27.765,425
27.790,386
27.815,344
27.840,305
27.865,266
27.890,222
27.915,172
27.940,122
27.965,79
27.990,41
28.015,0
28.040,-48
28.065,-97
28.090,-140
28.115,-178
28.140,-226
28.165,-289
28.190,-351
28.215,-373
28.240,-319
28.265,-195
28.290,-43
28.315,87
28.340,176
28.365,241
28.390,312
28.415,399
28.440,480
28.465,527
28.490,532
28.515,515
28.540,504
28.565,508
28.590,513
28.615,505
28.640,479
28.665,445
28.690,413
28.715,384
28.740,348
28.765,304
28.790,257
28.815,216
28.840,180
28.865,143
28.890,100
28.915,57
28.940,18
28.965,-18
28.990,-62
29.015,-111
29.040,-158
29.065,-195
29.090,-231
29.115,-283
29.140,-348
29.165,-395
29.190,-380
29.215,-286
29.240,-141
29.265,2
29.290,107
29.315,181
29.340,251
29.365,335
29.390,421
29.415,483
29.440,507
29.465,503
29.490,492
29.515,488
29.540,489
29.565,486
29.590,471
29.615,443
29.640,408
29.665,374
29.690,348
29.715,326
29.740,299
29.765,262
29.790,222
29.815,185
29.840,155
29.865,122
29.890,78
29.915,28
29.940,-18
29.965,-60
29.990,-106
30.015,-158
30.040,-203
30.065,-221
30.090,-216
30.115,-217
30.140,-253
30.165,-313
30.190,-340
30.215,-282
30.240,-145
30.265,9
30.290,121
30.315,181
30.340,229
30.365,305
30.390,404
30.415,487
30.440,523
30.465,520
30.490,508
30.515,509
30.540,518
30.565,517
30.590,502
30.615,480
30.640,458
30.665,438
30.690,414
30.715,385
30.740,352
30.765,317
30.790,279
30.815,240
30.840,203
30.865,169
30.890,135
30.915,97
30.940,56
30.965,15
30.990,-24
31.015,-68
31.040,-116
31.065,-159
31.090,-193
31.115,-225
31.140,-269
31.165,-331
31.190,-383
31.215,-380
31.240,-296
31.265,-150
31.290,2
31.315,115
31.340,185
31.365,242
31.390,312
31.415,394
31.440,459
31.465,488
31.490,486
31.515,477
31.540,480
31.565,493
31.590,501
31.615,493
31.640,471
31.665,443
31.690,415
31.715,385
31.740,350
31.765,311
31.790,274
31.815,241
31.840,209
31.865,172
31.890,132
31.915,93
31.940,60
31.965,28
31.990,-8
32.015,-54
32.040,-100
32.065,-137
32.090,-169
32.115,-214
32.140,-277
32.165,-338
32.190,-353
32.215,-292
32.240,-164
32.265,-17
32.290,99
32.315,173
32.340,225
32.365,282
32.390,347
32.415,401
32.440,423
32.465,418
32.490,407
32.515,409
32.540,424
32.565,436
32.590,431
32.615,410
32.640,381
32.665,354
32.690,328
32.715,295
32.740,253
32.765,208
32.790,168
32.815,133
32.840,96
32.865,53
32.890,6
32.915,-32
32.940,-62
32.965,-97
32.990,-151
33.015,-220
33.040,-266
33.065,-246
33.090,-150
33.115,-12
33.140,113
33.165,195
33.190,243
33.215,288
33.240,344
33.265,399
33.290,426
33.315,421
33.340,401
33.365,391
33.390,398
33.415,410
33.440,409
33.465,390
33.490,359
33.515,326
33.540,295
33.565,262
33.590,224
33.615,180
33.640,136
33.665,97
33.690,61
33.715,21
33.740,-25
33.765,-72
33.790,-112
33.815,-147
33.840,-192
33.865,-253
33.890,-314
33.915,-332
33.940,-275
33.965,-148
33.990,0
34.015,117
34.040,191
34.065,244
34.090,307
34.115,384
34.140,448
34.165,475
34.190,469
34.215,455
34.240,452
34.265,460
34.290,462
34.315,449
34.340,423
34.365,392
34.390,361
34.415,325
34.440,284
34.465,238
34.490,191
34.515,148
34.540,108
34.565,72
34.590,34
34.615,-8
34.640,-54
34.665,-98
34.690,-136
34.715,-177
34.740,-233
34.765,-301
34.790,-347
34.815,-326
34.840,-224
34.865,-71
34.890,72
34.915,167
34.940,224
34.965,278
34.990,349
35.015,423
35.040,468
35.065,475
35.090,462
35.115,456
35.140,463
35.165,469
35.190,462
35.215,441
35.240,416
35.265,388
35.290,355
35.315,314
35.340,273
35.365,235
35.390,200
35.415,159
35.440,114
35.465,70
35.490,32
35.515,-3
35.540,-45
35.565,-93
35.590,-136
35.615,-170
35.640,-210
35.665,-268
35.690,-332
35.715,-361
35.740,-314
35.765,-189
35.790,-34
35.815,95
35.840,177
35.865,232
35.890,292
35.915,368
35.940,437
35.965,475
35.990,480
36.015,471
36.040,469
36.065,480
36.090,491
36.115,489
36.140,473
36.165,450
36.190,422
36.215,391
36.240,352
36.265,310
36.290,268
36.315,234
36.340,203
36.365,170
36.390,130
36.415,88
36.440,48
36.465,13
36.490,-22
36.515,-66
36.540,-113
36.565,-154
36.590,-187
36.615,-221
36.640,-271
36.665,-333
36.690,-374
36.715,-349
36.740,-243
36.765,-89
36.790,56
36.815,154
36.840,211
36.865,262
36.890,331
36.915,406
36.940,456
36.965,469
36.990,459
37.015,454
37.040,464
37.065,477
37.090,476
37.115,458
37.140,433
37.165,411
37.190,389
37.215,358
37.240,317
37.265,275
37.290,238
37.315,204
37.340,168
37.365,128
37.390,88
37.415,53
37.440,18
37.465,-23
37.490,-70
37.515,-113
37.540,-147
37.565,-181
37.590,-230
37.615,-292
37.640,-336
37.665,-319
37.690,-225
37.715,-81
37.740,57
37.765,153
37.790,211
37.815,261
37.840,326
37.865,398
37.890,449
37.915,464
37.940,454
37.965,445
37.990,451
38.015,464
38.040,466
38.065,452
38.090,428
38.115,403
38.140,378
38.165,346
38.190,305
38.215,264
38.240,228
38.265,197
38.290,162
38.315,122
38.340,81
38.365,44
38.390,10
38.415,-29
38.440,-74
38.465,-117
38.490,-152
38.515,-188
38.540,-239
38.565,-302
38.590,-347
38.615,-332
38.640,-241
38.665,-100
38.690,39
38.715,141
38.740,206
38.765,261
38.790,325
38.815,394
38.840,446
38.865,468
38.890,466
38.915,461
38.940,464
38.965,473
38.990,477
39.015,469
39.040,448
39.065,423
39.090,400
39.115,378
39.140,351
39.165,316
39.190,278
39.215,242
39.240,212
39.265,183
39.290,147
39.315,107
39.340,67
39.365,31
39.390,-4
39.415,-48
39.440,-98
39.465,-144
39.490,-179
39.515,-214
39.540,-264
39.565,-326
39.590,-367
39.615,-341
39.640,-235
39.665,-85
39.690,50
39.715,140
39.740,193
39.765,246
39.790,314
39.815,382
39.840,423
39.865,430
39.890,423
39.915,423
39.940,434
39.965,445
39.990,445
40.015,433
40.040,414
40.065,390
40.090,361
40.115,329
40.140,296
40.165,264
40.190,230
40.215,193
40.240,156
40.265,122
40.290,91
40.315,56
40.340,15
40.365,-24
40.390,-60
40.415,-97
40.440,-148
40.465,-209
40.490,-248
40.515,-225
40.540,-129
40.565,3
40.590,119
40.615,191
40.640,232
40.665,273
40.690,324
40.715,369
40.740,383
40.765,372
40.790,358
40.815,362
40.840,376
40.865,381
40.890,367
40.915,341
40.940,316
40.965,291
40.990,256
41.015,210
41.040,164
41.065,128
41.090,98
41.115,64
41.140,23
41.165,-16
41.190,-47
41.215,-77
41.240,-125
41.265,-190
41.290,-239
41.315,-231
41.340,-150
41.365,-25
41.390,92
41.415,173
41.440,223
41.465,272
41.490,331
41.515,390
41.540,424
41.565,428
41.590,414
41.615,405
41.640,407
41.665,412
41.690,407
41.715,386
41.740,355
41.765,322
41.790,289
41.815,254
41.840,212
41.865,166
41.890,123
41.915,86
41.940,52
41.965,13
41.990,-31
42.015,-77
42.040,-115
42.065,-147
42.090,-187
42.115,-246
42.140,-308
42.165,-335
42.190,-292
42.215,-176
42.240,-29
42.265,98
42.290,181
42.315,235
42.340,294
42.365,370
42.390,445
42.415,491
42.440,499
42.465,486
42.490,479
42.515,486
42.540,494
42.565,489
42.590,467
42.615,439
42.640,412
42.665,384
42.690,348
42.715,302
42.740,255
42.765,214
42.790,180
42.815,144
42.840,104
42.865,63
42.890,26
42.915,-10
42.940,-53
42.965,-102
42.990,-149
43.015,-184
43.040,-216
43.065,-262
43.090,-327
43.115,-384
43.140,-387
43.165,-310
43.190,-170
43.215,-20
43.240,94
43.265,170
43.290,233
43.315,306
43.340,387
43.365,452
43.390,484
43.415,490
43.440,488
43.465,495
43.490,507
43.515,513
43.540,505
43.565,486
43.590,462
43.615,437
43.640,408
43.665,373
43.690,332
43.715,290
43.740,252
43.765,221
43.790,190
43.815,155
43.840,114
43.865,73
43.890,34
43.915,-2
43.940,-44
43.965,-91
43.990,-136
44.015,-170
44.040,-199
44.065,-240
44.090,-300
44.115,-362
44.140,-381
44.165,-324
44.190,-196
44.215,-42
44.240,83
44.265,163
44.290,220
44.315,283
44.340,361
44.365,433
44.390,474
44.415,482
44.440,476
44.465,478
44.490,490
44.515,500
44.540,493
44.565,469
44.590,441
44.615,415
44.640,390
44.665,358
44.690,319
44.715,279
44.740,245
44.765,215
44.790,181
44.815,140
44.840,97
44.865,57
44.890,20
44.915,-19
44.940,-63
44.965,-107
44.990,-142
45.015,-176
45.040,-223
45.065,-287
45.090,-341
45.115,-344
45.140,-269
45.165,-135
45.190,6
45.215,110
45.240,172
45.265,220
45.290,282
45.315,356
45.340,421
45.365,453
45.390,454
45.415,442
45.440,435
45.465,434
45.490,431
45.515,421
45.540,403
45.565,379
45.590,353
45.615,324
45.640,291
45.665,253
45.690,213
45.715,175
45.740,143
45.765,111
45.790,77
45.815,37
45.840,-2
45.865,-37
45.890,-70
45.915,-112
45.940,-169
45.965,-221
45.990,-230
46.015,-171
46.040,-57
46.065,66
46.090,157
46.115,210
46.140,250
46.165,299
46.190,351
46.215,382
46.240,378
46.265,357
46.290,346
46.315,355
46.340,367
46.365,361
46.390,336
46.415,308
46.440,287
46.465,267
46.490,235
46.515,190
46.540,146
46.565,112
46.590,84
46.615,49
46.640,5
46.665,-35
46.690,-65
46.715,-94
46.740,-141
46.765,-206
46.790,-253
46.815,-240
46.840,-153
46.865,-27
46.890,86
46.915,163
46.940,217
46.965,277
46.990,351
47.015,421
47.040,460
47.065,461
47.090,445
47.115,433
47.140,432
47.165,435
47.190,428
47.215,409
47.240,381
47.265,350
47.290,318
47.315,284
47.340,247
47.365,206
47.390,162
47.415,120
47.440,84
47.465,51
47.490,15
47.515,-27
47.540,-72
47.565,-112
47.590,-144
47.615,-182
47.640,-238
47.665,-302
47.690,-338
47.715,-307
47.740,-204
47.765,-67
47.790,51
47.815,131
47.840,189
47.865,258
47.890,343
47.915,423
47.940,467
47.965,473
47.990,464
48.015,462
48.040,472
48.065,479
48.090,468
48.115,444
48.140,416
48.165,392
48.190,364
48.215,327
48.240,284
48.265,243
48.290,209
48.315,177
48.340,139
48.365,97
48.390,56
48.415,20
48.440,-15
48.465,-59
48.490,-106
48.515,-148
48.540,-184
48.565,-225
48.590,-279
48.615,-334
48.640,-353
48.665,-300
48.690,-179
48.715,-31
48.740,90
48.765,168
48.790,223
48.815,289
48.840,372
48.865,448
48.890,491
48.915,500
48.940,495
48.965,497
48.990,508
49.015,514
49.040,507
49.065,488
49.090,465
49.115,442
49.140,414
49.165,380
49.190,344
49.215,309
49.240,276
49.265,242
49.290,207
49.315,173
49.340,140
49.365,104
49.390,64
49.415,24
49.440,-13
49.465,-47
49.490,-84
49.515,-127
49.540,-169
49.565,-203
49.590,-231
49.615,-270
49.640,-326
49.665,-377
49.690,-379
49.715,-302
49.740,-163
49.765,-15
49.790,94
49.815,160
49.840,212
49.865,282
49.890,365
49.915,432
49.940,459
49.965,457
49.990,453
50.015,466
50.040,487
50.065,496
50.090,485
50.115,462
50.140,440
50.165,421
50.190,396
50.215,360
50.240,318
50.265,281
50.290,253
50.315,226
50.340,194
50.365,158
50.390,125
50.415,95
50.440,62
50.465,20
50.490,-25
50.515,-66
50.540,-104
50.565,-152
50.590,-215
50.615,-273
50.640,-283
50.665,-221
50.690,-100
50.715,29
50.740,123
50.765,176
50.790,216
50.815,264
50.840,315
50.865,346
50.890,347
50.915,334
50.940,330
50.965,343
50.990,358
51.015,359
51.040,345
51.065,325
51.090,305
51.115,282
51.140,249
51.165,210
51.190,173
51.215,141
51.240,109
51.265,72
51.290,37
51.315,7
51.340,-23
51.365,-68
51.390,-126
51.415,-170
51.440,-163
51.465,-88
51.490,28
51.515,138
51.540,210
51.565,250
51.590,288
51.615,339
51.640,389
51.665,415
51.690,408
51.715,387
51.740,376
51.765,382
51.790,389
51.815,382
51.840,358
51.865,326
51.890,298
51.915,269
51.940,232
51.965,186
51.990,138
52.015,96
52.040,60
52.065,20
52.090,-24
52.115,-69
52.140,-105
52.165,-134
52.190,-175
52.215,-237
52.240,-301
52.265,-329
52.290,-287
52.315,-178
52.340,-42
52.365,74
52.390,153
52.415,212
52.440,274
52.465,349
52.490,419
52.515,462
52.540,471
52.565,461
52.590,452
52.615,452
52.640,454
52.665,447
52.690,425
52.715,394
52.740,361
52.765,328
52.790,293
52.815,250
52.840,200
52.865,152
52.890,111
52.915,76
52.940,39
52.965,-3
52.990,-48
53.015,-87
53.040,-124
53.065,-169
53.090,-230
53.115,-292
53.140,-318
53.165,-276
53.190,-167
53.215,-31
53.240,84
53.265,161
53.290,218
53.315,282
53.340,362
53.365,437
53.390,479
53.415,484
53.440,471
53.465,463
53.490,468
53.515,474
53.540,468
53.565,448
53.590,421
53.615,392
53.640,360
53.665,322
53.690,281
53.715,240
53.740,202
53.765,163
53.790,119
53.815,76
53.840,39
53.865,4
53.890,-33
53.915,-80
53.940,-127
53.965,-167
53.990,-200
54.015,-241
54.040,-300
54.065,-357
54.090,-372
54.115,-310
54.140,-181
54.165,-31
54.190,88
54.215,164
54.240,220
54.265,287
54.290,369
54.315,441
54.340,481
54.365,489
54.390,485
54.415,486
54.440,496
54.465,503
54.490,500
54.515,486
54.540,466
54.565,441
54.590,412
54.615,378
54.640,343
54.665,306
54.690,270
54.715,233
54.740,199
54.765,166
54.790,133
54.815,98
54.840,60
54.865,22
54.890,-15
54.915,-56
54.940,-103
54.965,-150
54.990,-190
55.015,-225
55.040,-268
55.065,-326
55.090,-379
55.115,-385
55.140,-313
55.165,-173
55.190,-17
55.215,103
55.240,173
55.265,222
55.290,283
55.315,358
55.340,421
55.365,451
55.390,451
55.415,447
55.440,455
55.465,473
55.490,482
55.515,476
55.540,460
55.565,441
55.590,418
55.615,386
55.640,344
55.665,304
55.690,271
55.715,242
55.740,208
55.765,168
55.790,130
55.815,98
55.840,69
55.865,34
55.890,-8
55.915,-51
55.940,-88
55.965,-128
55.990,-180
56.015,-241
56.040,-279
56.065,-256
56.090,-160
56.115,-26
56.140,95
56.165,173
56.190,218
56.215,258
56.240,310
56.265,362
56.290,389
56.315,385
56.340,368
56.365,363
56.390,374
56.415,385
56.440,380
56.465,356
56.490,326
56.515,302
56.540,278
56.565,246
56.590,204
56.615,162
56.640,128
56.665,99
56.690,66
56.715,27
56.740,-12
56.765,-45
56.790,-81
56.815,-134
56.840,-201
56.865,-250
56.890,-242
56.915,-159
56.940,-31
56.965,91
56.990,177
57.015,232
57.040,280
57.065,338
57.090,396
57.115,430
57.140,435
57.165,422
57.190,413
57.215,416
57.240,421
57.265,416
57.290,397
57.315,368
57.340,336
57.365,304
57.390,268
57.415,227
57.440,183
57.465,140
57.490,100
57.515,62
57.540,22
57.565,-22
57.590,-67
57.615,-107
57.640,-140
57.665,-178
57.690,-231
57.715,-292
57.740,-333
57.765,-315
57.790,-223
57.815,-84
57.840,50
57.865,148
57.890,209
57.915,264
57.940,333
57.965,406
57.990,460
58.015,479
58.040,476
58.065,473
58.090,480
58.115,488
58.140,484
58.165,464
58.190,437
58.215,409
58.240,382
58.265,349
58.290,312
58.315,273
58.340,235
58.365,196
58.390,155
58.415,111
58.440,71
58.465,34
58.490,-4
58.515,-49
58.540,-94
58.565,-133
58.590,-166
58.615,-207
58.640,-267
58.665,-334
58.690,-368
58.715,-333
58.740,-225
58.765,-80
58.790,50
58.815,139
58.840,199
58.865,262
58.890,341
58.915,421
58.940,472
58.965,485
58.990,474
59.015,465
59.040,471
59.065,483
59.090,485
59.115,470
59.140,445
59.165,419
59.190,393
59.215,361
59.240,320
59.265,276
59.290,236
59.315,200
59.340,164
59.365,127
59.390,88
59.415,49
59.440,9
59.465,-34
59.490,-81
59.515,-123
59.540,-157
59.565,-193
59.590,-244
59.615,-308
59.640,-357
59.665,-351
59.690,-269
59.715,-132
59.740,10
59.765,118
59.790,186
59.815,241
59.840,307
59.865,383
59.890,445
59.915,475
59.940,477
59.965,470
59.990,472
60.015,482
60.040,486
60.065,476
60.090,453
60.115,426
60.140,399
60.165,369
60.190,334
60.215,296
60.240,260
60.265,228
60.290,196
60.315,158
60.340,118
60.365,80
60.390,46
60.415,10
60.440,-34
60.465,-84
60.490,-129
60.515,-166
60.540,-204
60.565,-258
60.590,-321
60.615,-361
60.640,-338
60.665,-239
60.690,-97
60.715,35
60.740,125
60.765,182
60.790,236
60.815,306
60.840,378
60.865,428
60.890,444
60.915,442
60.940,442
60.965,451
60.990,460
61.015,458
61.040,445
61.065,428
61.090,410
61.115,386
61.140,354
61.165,316
61.190,281
61.215,248
61.240,213
61.265,175
61.290,137
61.315,105
61.340,78
61.365,46
61.390,7
61.415,-32
61.440,-67
61.465,-100
61.490,-146
61.515,-207
61.540,-259
61.565,-261
61.590,-190
61.615,-66
61.640,62
61.665,156
61.690,212
61.715,252
61.740,299
61.765,348
61.790,379
61.815,380
61.840,365
61.865,357
61.890,366
61.915,380
61.940,380
61.965,360
61.990,330
62.015,303
62.040,279
62.065,250
62.090,209
62.115,163
62.140,123
62.165,91
62.190,59
62.215,19
62.240,-23
62.265,-59
62.290,-90
62.315,-130
62.340,-191
62.365,-253
62.390,-274
62.415,-221
62.440,-101
62.465,36
62.490,143
62.515,205
62.540,250
62.565,307
62.590,377
62.615,435
62.640,459
62.665,454
62.690,442
62.715,440
62.740,445
62.765,445
62.790,432
62.815,409
62.840,381
62.865,352
62.890,320
62.915,286
62.940,249
62.965,210
62.990,167
63.015,122
63.040,80
63.065,45
63.090,11
63.115,-26
63.140,-71
63.165,-116
63.190,-158
63.215,-207
63.240,-271
63.265,-340
63.290,-377
63.315,-341
63.340,-225
63.365,-70
63.390,66
63.415,155
63.440,210
63.465,270
63.490,350
63.515,431
63.540,481
63.565,491
63.590,479
63.615,473
63.640,481
63.665,491
63.690,486
63.715,466
63.740,440
63.765,415
63.790,388
63.815,352
63.840,307
63.865,265
63.890,230
63.915,199
63.940,163
63.965,118
63.990,73
64.015,34
64.040,0
64.065,-41
64.090,-88
64.115,-134
64.140,-172
64.165,-209
64.190,-260
64.215,-321
64.240,-360
64.265,-336
64.290,-233
64.315,-83
64.340,54
64.365,145
64.390,198
64.415,249
64.440,320
64.465,399
64.490,454
64.515,469
64.540,459
64.565,452
64.590,462
64.615,477
64.640,479
64.665,462
64.690,436
64.715,411
64.740,386
64.765,354
64.790,315
64.815,275
64.840,241
64.865,212
64.890,178
64.915,139
64.940,97
64.965,58
64.990,21
65.015,-18
65.040,-63
65.065,-106
65.090,-141
65.115,-176
65.140,-224
65.165,-286
65.190,-336
65.215,-334
65.240,-258
65.265,-126
65.290,14
65.315,122
65.340,190
65.365,241
65.390,299
65.415,366
65.440,422
65.465,450
65.490,452
65.515,447
65.540,451
65.565,464
65.590,473
65.615,468
65.640,449
65.665,425
65.690,400
65.715,371
65.740,336
65.765,296
65.790,256
65.815,221
65.840,187
65.865,152
65.890,115
65.915,83
65.940,57
65.965,31
65.990,-3
66.015,-46
66.040,-88
66.065,-122
66.090,-154
66.115,-201
66.140,-265
66.165,-319
66.190,-321
66.215,-244
66.240,-109
66.265,32
66.290,135
66.315,191
66.340,229
66.365,277
66.390,336
66.415,383
66.440,398
66.465,389
66.490,380
66.515,387
66.540,405
66.565,412
66.590,400
66.615,375
66.640,351
66.665,330
66.690,305
66.715,268
66.740,227
66.765,191
66.790,165
66.815,139
66.840,103
66.865,61
66.890,26
66.915,-2
66.940,-38
66.965,-92
66.990,-153
67.015,-179
67.040,-137
67.065,-32
67.090,92
67.115,188
67.140,242
67.165,273
67.190,306
67.215,343
67.240,365
67.265,362
67.290,344
67.315,334
67.340,339
67.365,346
67.390,339
67.415,316
67.440,288
67.465,262
67.490,237
67.515,205
67.540,166
67.565,123
67.590,81
67.615,41
67.640,0
67.665,-35
67.690,-66
67.715,-102
67.740,-155
67.765,-222
67.790,-272
67.815,-264
67.840,-181
67.865,-50
67.890,74
67.915,157
67.940,204
67.965,248
67.990,308
68.015,375
68.040,421
68.065,431
68.090,417
68.115,406
68.140,407
68.165,412
68.190,404
68.215,381
68.240,349
68.265,319
68.290,289
68.315,251
68.340,205
68.365,159
68.390,118
68.415,83
68.440,44
68.465,-1
68.490,-47
68.515,-87
68.540,-126
68.565,-177
68.590,-239
68.615,-291
68.640,-293
68.665,-222
68.690,-95
68.715,39
68.740,142
68.765,208
68.790,261
68.815,327
68.840,403
68.865,464
68.890,490
68.915,485
68.940,472
68.965,469
68.990,474
69.015,474
69.040,460
69.065,435
69.090,408
69.115,381
69.140,348
69.165,308
69.190,266
69.215,228
69.240,194
69.265,157
69.290,117
69.315,75
69.340,38
69.365,3
69.390,-37
69.415,-85
69.440,-133
69.465,-170
69.490,-202
69.515,-246
69.540,-309
69.565,-370
69.590,-385
69.615,-324
69.640,-196
69.665,-49
69.690,69
69.715,149
69.740,212
69.765,282
69.790,360
69.815,428
69.840,466
69.865,477
69.890,480
69.915,489
69.940,502
69.965,507
69.990,494
70.015,468
70.040,438
70.065,410
70.090,384
70.115,354
70.140,318
70.165,279
70.190,243
70.215,208
70.240,174
70.265,136
70.290,97
70.315,59
70.340,21
70.365,-19
70.390,-64
70.415,-107
70.440,-143
70.465,-173
70.490,-210
70.515,-264
70.540,-322
70.565,-347
70.590,-305
70.615,-195
70.640,-55
70.665,65
70.690,145
70.715,202
70.740,265
70.765,343
70.790,417
70.815,461
70.840,473
70.865,469
70.890,469
70.915,478
70.940,487
70.965,484
70.990,470
71.015,451
71.040,429
71.065,403
71.090,372
71.115,338
71.140,304
71.165,272
71.190,242
71.215,212
71.240,179
71.265,141
71.290,101
71.315,61
71.340,24
71.365,-11
71.390,-50
71.415,-92
71.440,-132
71.465,-165
71.490,-196
71.515,-239
71.540,-295
71.565,-344
71.590,-346
71.615,-276
71.640,-150
71.665,-13
71.690,93
71.715,159
71.740,209
71.765,270
71.790,342
71.815,405
71.840,439
71.865,444
71.890,438
71.915,440
71.940,450
71.965,459
71.990,457
72.015,443
72.040,424
72.065,403
72.090,381
72.115,353
72.140,321
72.165,288
72.190,257
72.215,229
72.240,198
72.265,162
72.290,125
72.315,91
72.340,60
72.365,26
72.390,-13
72.415,-54
72.440,-88
72.465,-114
72.490,-147
72.515,-198
72.540,-254
72.565,-276
72.590,-233
72.615,-126
72.640,4
72.665,112
72.690,178
72.715,220
72.740,266
72.765,322
72.790,370
72.815,391
72.840,387
72.865,379
72.890,384
72.915,397
72.940,405
72.965,396
72.990,374
73.015,350
73.040,329
73.065,308
73.090,278
73.115,238
73.140,194
73.165,156
73.190,125
73.215,97
73.240,66
73.265,29
73.290,-9
73.315,-46
73.340,-83
73.365,-130
73.390,-192
73.415,-250
73.440,-270
73.465,-223
73.490,-114
73.515,16
73.540,120
73.565,183
73.590,226
73.615,278
73.640,345
73.665,404
73.690,431
73.715,426
73.740,411
73.765,410
73.790,422
73.815,433
73.840,428
73.865,410
73.890,386
73.915,360
73.940,330
73.965,293
73.990,254
74.015,217
74.040,183
74.065,148
74.090,113
74.115,79
74.140,44
74.165,4
74.190,-41
74.215,-86
74.240,-122
74.265,-152
74.290,-193
74.315,-256
74.340,-321
74.365,-344
74.390,-291
74.415,-167
74.440,-19
74.465,99
74.490,174
74.515,227
74.540,285
74.565,354
74.590,413
74.615,444
74.640,449
74.665,447
74.690,451
74.715,463
74.740,474
74.765,476
74.790,468
74.815,454
74.840,433
74.865,406
74.890,373
74.915,340
74.940,306
74.965,274
74.990,241
75.015,206
75.040,169
75.065,130
75.090,91
75.115,52
75.140,14
75.165,-26
75.190,-74
75.215,-123
75.240,-167
75.265,-205
75.290,-249
75.315,-307
75.340,-366
75.365,-387
75.390,-335
75.415,-208
75.440,-51
75.465,79
75.490,160
75.515,208
75.540,258
75.565,323
75.590,387
75.615,425
75.640,431
75.665,423
75.690,420
75.715,427
75.740,437
75.765,440
75.790,436
75.815,429
75.840,419
75.865,404
75.890,386
75.915,368
75.940,351
75.965,330
75.990,297
76.015,250
76.040,196
76.065,147
76.090,111
76.115,87
76.140,63
76.165,28
76.190,-21
76.215,-76
76.240,-122
76.265,-158
76.290,-194
76.315,-247
76.340,-311
76.365,-355
76.390,-339
76.415,-244
76.440,-97
76.465,48
76.490,152
76.515,211
76.540,255
76.565,308
76.590,369
76.615,416
76.640,434
76.665,428
76.690,417
76.715,416
76.740,423
76.765,425
76.790,416
76.815,402
76.840,391
76.865,382
76.890,370
76.915,345
76.940,310
76.965,271
76.990,237
77.015,206
77.040,175
77.065,140
77.090,103
77.115,67
77.140,32
77.165,-6
77.190,-47
77.215,-86
77.240,-120
77.265,-156
77.290,-206
77.315,-267
77.340,-313
77.365,-303
77.390,-216
77.415,-74
77.440,69
77.465,171
77.490,228
77.515,269
77.540,322
77.565,384
77.590,432
77.615,447
77.640,438
77.665,428
77.690,431
77.715,441
77.740,439
77.765,422
77.790,399
77.815,378
77.840,357
77.865,327
77.890,288
77.915,250
77.940,220
77.965,195
77.990,164
78.015,125
78.040,86
78.065,54
78.090,26
78.115,-5
78.140,-46
78.165,-84
78.190,-115
78.215,-147
78.240,-196
78.265,-257
78.290,-294
78.315,-267
78.340,-165
78.365,-27
78.390,92
78.415,164
78.440,204
78.465,245
78.490,301
78.515,355
78.540,385
78.565,387
78.590,379
78.615,380
78.640,392
78.665,404
78.690,405
78.715,394
78.740,374
78.765,350
78.790,323
78.815,295
78.840,266
78.865,237
78.890,206
78.915,174
78.940,144
78.965,114
78.990,83
79.015,48
79.040,13
79.065,-17
79.090,-45
79.115,-83
79.140,-136
79.165,-186
79.190,-198
79.215,-145
79.240,-36
79.265,83
79.290,171
79.315,219
79.340,248
79.365,285
79.390,328
79.415,356
79.440,355
79.465,338
79.490,328
79.515,336
79.540,350
79.565,352
79.590,338
79.615,314
79.640,292
79.665,269
79.690,238
79.715,197
79.740,156
79.765,121
79.790,91
79.815,57
79.840,17
79.865,-22
79.890,-53
79.915,-80
79.940,-119
79.965,-177
79.990,-233
80.015,-249
80.040,-197
80.065,-85
80.090,44
80.115,147
80.140,209
80.165,251
80.190,301
80.215,364
80.240,420
80.265,447
80.290,446
80.315,434
80.340,431
80.365,438
80.390,443
80.415,435
80.440,414
80.465,388
80.490,360
80.515,328
80.540,289
80.565,249
80.590,210
80.615,173
80.640,134
80.665,92
80.690,51
80.715,15
80.740,-19
80.765,-58
80.790,-102
80.815,-143
80.840,-179
80.865,-220
80.890,-276
80.915,-336
80.940,-364
80.965,-324
80.990,-211
81.015,-67
81.040,58
81.065,140
81.090,196
81.115,255
81.140,328
81.165,396
81.190,438
81.215,450
81.240,450
81.265,457
81.290,473
81.315,488
81.340,492
81.365,485
81.390,471
81.415,452
81.440,428
81.465,398
81.490,366
81.515,334
81.540,303
81.565,272
81.590,241
81.615,210
81.640,176
81.665,136
81.690,91
81.715,47
81.740,7
81.765,-33
81.790,-79
81.815,-128
81.840,-170
81.865,-203
81.890,-240
81.915,-295
81.940,-359
81.965,-391
81.990,-349
82.015,-225
82.040,-65
82.065,72
82.090,156
82.115,204
82.140,256
82.165,327
82.190,401
82.215,453
82.240,471
82.265,471
82.290,473
82.315,482
82.340,491
82.365,493
82.390,484
82.415,467
82.440,445
82.465,416
82.490,383
82.515,350
82.540,319
82.565,288
82.590,255
82.615,222
82.640,190
82.665,158
82.690,126
82.715,91
82.740,55
82.765,19
82.790,-19
82.815,-65
82.840,-112
82.865,-154
82.890,-187
82.915,-222
82.940,-273
82.965,-334
82.990,-373
83.015,-349
83.040,-247
83.065,-99
83.090,42
83.115,139
83.140,197
83.165,245
83.190,307
83.215,377
83.240,429
83.265,447
83.290,440
83.315,432
83.340,439
83.365,455
83.390,464
83.415,458
83.440,439
83.465,418
83.490,399
83.515,378
83.540,348
83.565,312
83.590,277
83.615,246
83.640,217
83.665,183
83.690,146
83.715,110
83.740,79
83.765,48
83.790,9
83.815,-35
83.840,-75
83.865,-108
83.890,-144
83.915,-196
83.940,-258
83.965,-296
83.990,-268
84.015,-167
84.040,-26
84.065,98
84.090,176
84.115,216
84.140,252
84.165,303
84.190,355
84.215,384
84.240,381
84.265,365
84.290,360
84.315,373
84.340,390
84.365,392
84.390,375
84.415,351
84.440,329
84.465,309
84.490,281
84.515,241
84.540,196
84.565,156
84.590,126
84.615,97
84.640,63
84.665,25
84.690,-9
84.715,-38
84.740,-75
84.765,-132
84.790,-197
84.815,-235
84.840,-209
84.865,-114
84.890,15
84.915,128
84.940,200
84.965,241
84.990,280
85.015,330
85.040,378
85.065,404
85.090,402
85.115,389
85.140,383
85.165,391
85.190,400
85.215,396
85.240,377
85.265,347
85.290,316
85.315,287
85.340,256
85.365,220
85.390,179
85.415,138
85.440,100
85.465,67
85.490,33
85.515,-5
85.540,-47
85.565,-85
85.590,-119
85.615,-160
85.640,-216
85.665,-279
85.690,-312
85.715,-278
85.740,-169
85.765,-24
85.790,101
85.815,177
85.840,221
85.865,266
85.890,332
85.915,402
85.940,446
85.965,456
85.990,446
86.015,440
86.040,443
86.065,448
86.090,442
86.115,427
86.140,405
86.165,381
86.190,351
86.215,316
86.240,278
86.265,240
86.290,200
86.315,158
86.340,116
86.365,77
86.390,42
86.415,5
86.440,-38
86.465,-83
86.490,-121
86.515,-156
86.540,-198
86.565,-257
86.590,-315
86.615,-333
86.640,-277
86.665,-153
86.690,-5
86.715,117
86.740,194
86.765,245
86.790,300
86.815,367
86.840,431
86.865,468
86.890,473
86.915,464
86.940,461
86.965,469
86.990,477
87.015,473
87.040,455
87.065,432
87.090,408
87.115,380
87.140,342
87.165,298
87.190,255
87.215,219
87.240,187
87.265,152
87.290,111
87.315,72
87.340,40
87.365,7
87.390,-33
87.415,-83
87.440,-128
87.465,-161
87.490,-192
87.515,-240
87.540,-306
87.565,-358
87.590,-347
87.615,-254
87.640,-108
87.665,32
87.690,128
87.715,183
87.740,229
87.765,290
87.790,356
87.815,404
87.840,421
87.865,416
87.890,409
87.915,409
87.940,414
87.965,414
87.990,404
88.015,385
88.040,363
88.065,339
88.090,313
88.115,283
88.140,248
88.165,211
88.190,179
88.215,153
88.240,127
88.265,95
88.290,57
88.315,21
88.340,-7
88.365,-39
88.390,-88
88.415,-150
88.440,-194
88.465,-178
88.490,-91
88.515,34
88.540,147
88.565,218
88.590,256
88.615,293
88.640,341
88.665,385
88.690,403
88.715,392
88.740,373
88.765,367
88.790,373
88.815,379
88.840,372
88.865,350
88.890,321
88.915,292
88.940,263
88.965,230
88.990,193
89.015,153
89.040,111
89.065,72
89.090,38
89.115,7
89.140,-25
89.165,-63
89.190,-101
89.215,-133
89.240,-167
89.265,-214
89.290,-275
89.315,-321
89.340,-310
89.365,-219
89.390,-74
89.415,68
89.440,164
89.465,216
89.490,261
89.515,324
89.540,398
89.565,452
89.590,469
89.615,461
89.640,453
89.665,457
89.690,464
89.715,462
89.740,448
89.765,423
89.790,394
89.815,360
89.840,323
89.865,285
89.890,248
89.915,212
89.940,171
89.965,128
89.990,89
90.015,55
90.040,20
90.065,-22
90.090,-71
90.115,-114
90.140,-149
90.165,-187
90.190,-242
90.215,-304
90.240,-337
90.265,-303
90.290,-197
90.315,-55
90.340,72
90.365,159
90.390,218
90.415,279
90.440,352
90.465,423
90.490,468
90.515,481
90.540,475
90.565,470
90.590,473
90.615,476
90.640,470
90.665,453
90.690,434
90.715,412
90.740,386
90.765,349
90.790,307
90.815,268
90.840,236
90.865,205
90.890,169
90.915,128
90.940,87
90.965,49
90.990,12
91.015,-32
91.040,-81
91.065,-125
91.090,-159
91.115,-192
91.140,-241
91.165,-304
91.190,-354
91.215,-349
91.240,-268
91.265,-133
91.290,4
91.315,106
91.340,168
91.365,219
91.390,284
91.415,359
91.440,420
91.465,448
91.490,446
91.515,437
91.540,440
91.565,452
91.590,459
91.615,450
91.640,428
91.665,405
91.690,386
91.715,365
91.740,336
91.765,300
91.790,265
91.815,237
91.840,209
91.865,176
91.890,139
91.915,106
91.940,78
91.965,50
91.990,11
92.015,-32
92.040,-71
92.065,-100
92.090,-129
92.115,-177
92.140,-239
92.165,-277
92.190,-250
92.215,-148
92.240,-7
92.265,116
92.290,196
92.315,243
92.340,286
92.365,340
92.390,390
92.415,417
92.440,416
92.465,401
92.490,392
92.515,397
92.540,407
92.565,409
92.590,395
92.615,361
92.640,312
92.665,259
92.690,212
92.715,175
92.740,144
92.765,115
92.790,85
92.815,57
92.840,31
92.865,3
92.890,-27
92.915,-62
92.940,-99
92.965,-141
92.990,-195
93.015,-255
93.040,-291
93.065,-267
93.090,-168
93.115,-26
93.140,105
93.165,190
93.190,235
93.215,278
93.240,339
93.265,408
93.290,454
93.315,463
93.340,450
93.365,440
93.390,444
93.415,449
93.440,445
93.465,430
93.490,410
93.515,389
93.540,362
93.565,326
93.590,284
93.615,244
93.640,208
93.665,173
93.690,135
93.715,97
93.740,63
93.765,31
93.790,-7
93.815,-52
93.840,-96
93.865,-131
93.890,-165
93.915,-214
93.940,-280
93.965,-336
93.990,-333
94.015,-246
94.040,-101
94.065,46
94.090,149
94.115,204
94.140,247
94.165,307
94.190,382
94.215,443
94.240,467
94.265,459
94.290,445
94.315,442
94.340,449
94.365,452
94.390,442
94.415,423
94.440,400
94.465,374
94.490,343
94.515,306
94.540,268
94.565,235
94.590,204
94.615,169
94.640,132
94.665,97
94.690,69
94.715,39
94.740,0
94.765,-50
94.790,-98
94.815,-132
94.840,-161
94.865,-202
94.890,-265
94.915,-327
94.940,-344
94.965,-286
94.990,-162
95.015,-17
95.040,100
95.065,178
95.090,232
95.115,287
95.140,350
95.165,407
95.190,440
95.215,446
95.240,440
95.265,441
95.290,451
95.315,463
95.340,463
95.365,448
95.390,426
95.415,403
95.440,382
95.465,355
95.490,320
95.515,280
95.540,244
95.565,214
95.590,185
95.615,150
95.640,111
95.665,76
95.690,45
95.715,13
95.740,-25
95.765,-67
95.790,-102
95.815,-130
95.840,-165
95.865,-219
95.890,-280
95.915,-308
95.940,-263
95.965,-147
95.990,-4
96.015,113
96.040,182
96.065,221
96.090,263
96.115,316
96.140,365
96.165,389
96.190,388
96.215,380
96.240,382
96.265,394
96.290,404
96.315,400
96.340,383
96.365,362
96.390,341
96.415,319
96.440,289
96.465,251
96.490,211
96.515,175
96.540,144
96.565,112
96.590,73
96.615,30
96.640,-8
96.665,-38
96.690,-69
96.715,-116
96.740,-178
96.765,-227
96.790,-223
96.815,-148
96.840,-25
96.865,95
96.890,179
96.915,225
96.940,262
96.965,310
96.990,361
97.015,395
97.040,401
97.065,390
97.090,383
97.115,387
97.140,394
97.165,392
97.190,377
97.215,353
97.240,325
97.265,296
97.290,265
97.315,232
97.340,196
97.365,158
97.390,120
97.415,84
97.440,51
97.465,16
97.490,-22
97.515,-62
97.540,-98
97.565,-132
97.590,-173
97.615,-229
97.640,-284
97.665,-298
97.690,-241
97.715,-120
97.740,18
97.765,125
97.790,188
97.815,231
97.840,287
97.865,357
97.890,415
97.915,441
97.940,438
97.965,432
97.990,438
98.015,448
98.040,449
98.065,436
98.090,415
98.115,394
98.140,370
98.165,337
98.190,298
98.215,260
98.240,228
98.265,198
98.290,163
98.315,124
98.340,86
98.365,51
98.390,15
98.415,-27
98.440,-71
98.465,-109
98.490,-142
98.515,-186
98.540,-246
98.565,-304
98.590,-317
98.615,-254
98.640,-128
98.665,11
98.690,119
98.715,185
98.740,233
98.765,292
98.790,362
98.815,421
98.840,449
98.865,450
98.890,443
98.915,445
98.940,455
98.965,459
98.990,449
99.015,427
99.040,403
99.065,377
99.090,346
99.115,309
99.140,271
99.165,239
99.190,211
99.215,183
99.240,149
99.265,109
99.290,72
99.315,39
99.340,7
99.365,-30
99.390,-74
99.415,-116
99.440,-153
99.465,-197
99.490,-254
99.515,-313
99.540,-336
99.565,-288
99.590,-171
99.615,-27
99.640,88
99.665,157
99.690,201
99.715,252
99.740,320
99.765,381
99.790,413
99.815,415
99.840,409
99.865,414
99.890,428
99.915,435
99.940,428
99.965,410
99.990,391
100.015,371
100.040,346
100.065,314
100.090,281
100.115,249
100.140,219
100.165,186
100.190,153
100.215,125
100.240,102
100.265,75
100.290,41
100.315,4
100.340,-26
100.365,-55
100.390,-95
100.415,-151
100.440,-197
100.465,-194
100.490,-123
100.515,-5
100.540,107
100.565,183
100.590,225
100.615,260
100.640,304
100.665,344
100.690,363
100.715,357
100.740,345
100.765,345
100.790,357
100.815,367
100.840,365
100.865,348
100.890,325
100.915,302
100.940,277
100.965,248
100.990,216
101.015,180
101.040,143
101.065,107
101.090,74
101.115,43
101.140,10
101.165,-27
101.190,-66
101.215,-99
101.240,-130
101.265,-170
101.290,-226
101.315,-280
101.340,-292
101.365,-233
101.390,-110
101.415,30
101.440,137
101.465,198
101.490,239
101.515,292
101.540,360
101.565,420
101.590,449
101.615,447
101.640,439
101.665,440
101.690,449
101.715,452
101.740,441
101.765,421
101.790,399
101.815,375
101.840,345
101.865,309
101.890,274
101.915,242
101.940,209
101.965,172
101.990,130
102.015,92
102.040,62
102.065,33
102.090,-3
102.115,-48
102.140,-90
102.165,-124
102.190,-160
102.215,-212
102.240,-274
102.265,-314
102.290,-294
102.315,-203
102.340,-70
102.365,54
102.390,142
102.415,196
102.440,245
102.465,305
102.490,370
102.515,418
102.540,439
102.565,438
102.590,435
102.615,441
102.640,453
102.665,460
102.690,453
102.715,434
102.740,411
102.765,389
102.790,364
102.815,333
102.840,295
102.865,256
102.890,222
102.915,193
102.940,164
102.965,130
102.990,94
103.015,59
103.040,26
103.065,-10
103.090,-52
103.115,-93
103.140,-127
103.165,-159
103.190,-203
103.215,-263
103.240,-314
103.265,-315
103.290,-244
103.315,-117
103.340,14
103.365,110
103.390,167
103.415,211
103.440,265
103.465,325
103.490,371
103.515,391
103.540,393
103.565,394
103.590,402
103.615,411
103.640,415
103.665,410
103.690,399
103.715,384
103.740,363
103.765,339
103.790,313
103.815,284
103.840,250
103.865,212
103.890,177
103.915,149
103.940,124
103.965,96
103.990,60
104.015,22
104.040,-10
104.065,-44
104.090,-90
104.115,-145
104.140,-180
104.165,-161
104.190,-82
104.215,24
104.240,116
104.265,169
104.290,199
104.315,231
104.340,270
104.365,299
104.390,301
104.415,284
104.440,273
104.465,282
104.490,301
104.515,312
104.540,305
104.565,285
104.590,263
104.615,245
104.640,226
104.665,201
104.690,166
104.715,128
104.740,90
104.765,59
104.790,33
104.815,7
104.840,-28
104.865,-75
104.890,-113
104.915,-114
104.940,-61
104.965,30
104.990,125
105.015,191
105.040,226
105.065,249
105.090,276
105.115,303
105.140,313
105.165,301
105.190,283
105.215,280
105.240,295
105.265,307
105.290,297
105.315,268
105.340,238
105.365,219
105.390,205
105.415,177
105.440,132
105.465,85
105.490,51
105.515,29
105.540,0
105.565,-50
105.590,-104
105.615,-122
105.640,-80
105.665,11
105.690,111
105.715,183
105.740,220
105.765,242
105.790,266
105.815,292
105.840,304
105.865,296
105.890,278
105.915,266
105.940,265
105.965,269
105.990,264
106.015,247
106.040,222
106.065,196
106.090,170
106.115,139
106.140,100
106.165,59
106.190,23
106.215,-4
106.240,-31
106.265,-70
106.290,-123
106.315,-170
106.340,-178
106.365,-122
106.390,-12
106.415,112
106.440,211
106.465,271
106.490,311
106.515,355
106.540,407
106.565,448
106.590,460
106.615,449
106.640,437
106.665,441
106.690,457
106.715,465
106.740,458
106.765,439
106.790,419
106.815,396
106.840,365
106.865,325
106.890,285
106.915,254
106.940,228
106.965,200
106.990,165
107.015,128
107.040,97
107.065,68
107.090,34
107.115,-8
107.140,-51
107.165,-87
107.190,-119
107.215,-159
107.240,-206
107.265,-250
107.290,-280
107.315,-307
107.340,-350
107.365,-408
107.390,-445
107.415,-411
107.440,-292
107.465,-126
107.490,24
107.515,126
107.540,191
107.565,256
107.590,339
107.615,426
107.640,491
107.665,527
107.690,547
107.715,569
107.740,598
107.765,621
107.790,625
107.815,605
107.840,562
107.865,504
107.890,437
107.915,374
107.940,319
107.965,272
107.990,228
108.015,188
108.040,160
108.065,150
108.090,148
108.115,136
108.140,98
108.165,37
108.190,-28
108.215,-81
108.240,-116
108.265,-138
108.290,-157
108.315,-185
108.340,-230
108.365,-289
108.390,-339
108.415,-346
108.440,-284
108.465,-159
108.490,-14
108.515,108
108.540,193
108.565,257
108.590,324
108.615,396
108.640,454
108.665,483
108.690,485
108.715,480
108.740,485
108.765,497
108.790,503
108.815,493
108.840,470
108.865,446
108.890,427
108.915,409
108.940,383
108.965,345
108.990,303
109.015,267
109.040,245
109.065,227
109.090,200
109.115,152
109.140,87
109.165,22
109.190,-29
109.215,-68
109.240,-102
109.265,-138
109.290,-179
109.315,-221
109.340,-267
109.365,-318
109.390,-362
109.415,-370
109.440,-315
109.465,-196
109.490,-46
109.515,86
109.540,176
109.565,235
109.590,295
109.615,370
109.640,449
109.665,501
109.690,514
109.715,500
109.740,484
109.765,481
109.790,486
109.815,485
109.840,471
109.865,449
109.890,424
109.915,395
109.940,358
109.965,315
109.990,273
110.015,239
110.040,209
110.065,171
110.090,123
110.115,75
110.140,36
110.165,4
110.190,-33
110.215,-83
110.240,-134
110.265,-176
110.290,-213
110.315,-264
110.340,-334
110.365,-391
110.390,-386
110.415,-291
110.440,-131
110.465,31
110.490,146
110.515,209
110.540,255
110.565,312
110.590,377
110.615,426
110.640,443
110.665,436
110.690,425
110.715,425
110.740,432
110.765,438
110.790,437
110.815,427
110.840,407
110.865,379
110.890,346
110.915,312
110.940,275
110.965,234
110.990,188
111.015,144
111.040,109
111.065,79
111.090,47
111.115,9
111.140,-29
111.165,-65
111.190,-106
111.215,-162
111.240,-228
111.265,-268
111.290,-239
111.315,-130
111.340,20
111.365,151
111.390,228
111.415,263
111.440,296
111.465,344
111.490,392
111.515,410
111.540,396
111.565,372
111.590,365
111.615,376
111.640,386
111.665,378
111.690,354
111.715,327
111.740,304
111.765,275
111.790,235
111.815,186
111.840,139
111.865,98
111.890,55
111.915,4
111.940,-48
111.965,-88
111.990,-118
112.015,-157
112.040,-221
112.065,-294
112.090,-329
112.115,-281
112.140,-152
112.165,9
112.190,140
112.215,217
112.240,260
112.265,305
112.290,366
112.315,424
112.340,455
112.365,455
112.390,441
112.415,435
112.440,440
112.465,448
112.490,446
112.515,431
112.540,404
112.565,371
112.590,333
112.615,293
112.640,251
112.665,205
112.690,158
112.715,112
112.740,72
112.765,32
112.790,-11
112.815,-61
112.840,-109
112.865,-147
112.890,-180
112.915,-225
112.940,-292
112.965,-359
112.990,-373
113.015,-296
113.040,-140
113.065,34
113.090,164
113.115,232
113.140,272
113.165,322
113.190,390
113.215,447
113.240,468
113.265,459
113.290,447
113.315,451
113.340,466
113.365,474
113.390,464
113.415,443
113.440,420
113.465,393
113.490,359
113.515,319
113.540,277
113.565,237
113.590,195
113.615,150
113.640,103
113.665,63
113.690,29
113.715,-7
113.740,-54
113.765,-104
113.790,-146
113.815,-183
113.840,-230
113.865,-297
113.890,-362
113.915,-373
113.940,-292
113.965,-135
113.990,37
114.015,165
114.040,235
114.065,276
114.090,326
114.115,389
114.140,441
114.165,460
114.190,451
114.215,441
114.240,444
114.265,456
114.290,462
114.315,454
114.340,437
114.365,416
114.390,388
114.415,352
114.440,310
114.465,268
114.490,228
114.515,183
114.540,129
114.565,73
114.590,27
114.615,-6
114.640,-39
114.665,-81
114.690,-128
114.715,-167
114.740,-194
114.765,-228
114.790,-283
114.815,-340
114.840,-346
114.865,-259
114.890,-94
114.915,82
114.940,202
114.965,253
114.990,277
115.015,320
115.040,388
115.065,449
115.090,473
115.115,467
115.140,459
115.165,464
115.190,475
115.215,471
115.240,451
115.265,429
115.290,413
115.315,398
115.340,369
115.365,327
115.390,285
115.415,251
115.440,222
115.465,181
115.490,125
115.515,62
115.540,2
115.565,-53
115.590,-110
115.615,-169
115.640,-225
115.665,-278
115.690,-334
115.715,-387
115.740,-409
115.765,-360
115.790,-224
115.815,-34
115.840,143
115.865,262
115.890,324
115.915,362
115.940,402
115.965,443
115.990,469
116.015,474
116.040,472
116.065,475
116.090,477
116.115,465
116.140,436
116.165,402
116.190,374
116.215,351
116.240,325
116.265,290
116.290,248
116.315,206
116.340,165
116.365,123
116.390,81
116.415,44
116.440,8
116.465,-33
116.490,-81
116.515,-123
116.540,-152
116.565,-176
116.590,-219
116.615,-285
116.640,-337
116.665,-321
116.690,-209
116.715,-36
116.740,126
116.765,229
116.790,280
116.815,318
116.840,371
116.865,428
116.890,460
116.915,459
116.940,444
116.965,437
116.990,445
117.015,455
117.040,454
117.065,441
117.090,420
117.115,393
117.140,358
117.165,318
117.190,278
117.215,238
117.240,198
117.265,156
117.290,116
117.315,80
117.340,44
117.365,1
117.390,-48
117.415,-93
117.440,-129
117.465,-165
117.490,-222
117.515,-296
117.540,-350
117.565,-329
117.590,-215
117.615,-44
117.640,112
117.665,208
117.690,249
117.715,276
117.740,318
117.765,369
117.790,402
117.815,403
117.840,386
117.865,376
117.890,385
117.915,401
117.940,405
117.965,391
117.990,366
118.015,341
118.040,319
118.065,291
118.090,253
118.115,211
118.140,171
118.165,137
118.190,103
118.215,62
118.240,19
118.265,-16
118.290,-42
118.315,-75
118.340,-130
118.365,-199
118.390,-237
118.415,-199
118.440,-80
118.465,73
118.490,199
118.515,267
118.540,296
118.565,320
118.590,355
118.615,381
118.640,380
118.665,358
118.690,340
118.715,341
118.740,352
118.765,354
118.790,337
118.815,311
118.840,285
118.865,255
118.890,216
118.915,170
118.940,125
118.965,87
118.990,47
119.015,2
119.040,-43
119.065,-80
119.090,-113
119.115,-158
119.140,-223
119.165,-284
119.190,-290
119.215,-209
119.240,-60
119.265,94
119.290,204
119.315,260
119.340,292
119.365,333
119.390,382
119.415,420
119.440,429
119.465,417
119.490,402
119.515,400
119.540,407
119.565,411
119.590,402
119.615,383
119.640,356
119.665,324
119.690,286
119.715,241
119.740,194
119.765,147
119.790,104
119.815,60
119.840,12
119.865,-35
119.890,-76
119.915,-109
119.940,-146
119.965,-203
119.990,-276
120.015,-331
120.040,-319
120.065,-219
120.090,-60
120.115,95
120.140,201
120.165,256
120.190,294
120.215,346
120.240,407
120.265,452
120.290,463
120.315,450
120.340,438
120.365,438
120.390,446
120.415,447
120.440,435
120.465,413
120.490,385
120.515,352
120.540,314
120.565,273
120.590,229
120.615,185
120.640,141
120.665,98
120.690,58
120.715,21
120.740,-20
120.765,-66
120.790,-110
120.815,-147
120.840,-184
120.865,-236
120.890,-305
120.915,-359
120.940,-347
120.965,-243
120.990,-75
121.015,90
121.040,202
121.065,256
121.090,291
121.115,341
121.140,404
121.165,451
121.190,464
121.215,453
121.240,444
121.265,450
121.290,461
121.315,462
121.340,448
121.365,427
121.390,403
121.415,373
121.440,334
121.465,290
121.490,250
121.515,215
121.540,180
121.565,140
121.590,96
121.615,58
121.640,23
121.665,-15
121.690,-63
121.715,-113
121.740,-153
121.765,-184
121.790,-225
121.815,-287
121.840,-348
121.865,-358
121.890,-279
121.915,-126
121.940,41
121.965,164
121.990,229
122.015,267
122.040,316
122.065,381
122.090,434
122.115,454
122.140,444
122.165,431
122.190,434
122.215,448
122.240,456
122.265,448
122.290,428
122.315,404
122.340,376
122.365,342
122.390,303
122.415,268
122.440,240
122.465,212
122.490,177
122.515,134
122.540,91
122.565,54
122.590,18
122.615,-25
122.640,-74
122.665,-119
122.690,-155
122.715,-192
122.740,-248
122.765,-316
122.790,-354
122.815,-318
122.840,-195
122.865,-27
122.890,120
122.915,210
122.940,255
122.965,295
122.990,353
123.015,413
123.040,449
123.065,450
123.090,435
123.115,430
123.140,442
123.165,455
123.190,453
123.215,435
123.240,411
123.265,388
123.290,363
123.315,330
123.340,290
123.365,250
123.390,213
123.415,175
123.440,134
123.465,94
123.490,59
123.515,28
123.540,-7
123.565,-51
123.590,-96
123.615,-132
123.640,-166
123.665,-213
123.690,-281
123.715,-339
123.740,-341
123.765,-254
123.790,-102
123.815,55
123.840,168
123.865,229
123.890,270
123.915,320
123.940,378
123.965,421
123.990,434
124.015,426
124.040,420
124.065,426
124.090,437
124.115,442
124.140,434
124.165,417
124.190,392
124.215,362
124.240,325
124.265,287
124.290,251
124.315,216
124.340,179
124.365,140
124.390,103
124.415,70
124.440,37
124.465,0
124.490,-38
124.515,-73
124.540,-107
124.565,-153
124.590,-215
124.615,-267
124.640,-266
124.665,-185
124.690,-45
124.715,97
124.740,193
124.765,239
124.790,267
124.815,306
124.840,349
124.865,370
124.890,360
124.915,338
124.940,332
124.965,347
124.990,365
125.015,367
125.040,350
125.065,330
125.090,313
125.115,292
125.140,260
125.165,220
125.190,183
125.215,152
125.240,118
125.265,75
125.290,28
125.315,-8
125.340,-34
125.365,-67
125.390,-123
125.415,-187
125.440,-216
125.465,-170
125.490,-52
125.515,89
125.540,199
125.565,258
125.590,286
125.615,314
125.640,352
125.665,383
125.690,388
125.715,371
125.740,352
125.765,352
125.790,369
125.815,384
125.840,381
125.865,357
125.890,323
125.915,288
125.940,251
125.965,208
125.990,160
126.015,116
126.040,78
126.065,40
126.090,-2
126.115,-49
126.140,-90
126.165,-119
126.190,-150
126.215,-199
126.240,-267
126.265,-318
126.290,-307
126.315,-213
126.340,-66
126.365,77
126.390,177
126.415,233
126.440,277
126.465,330
126.490,390
126.515,433
126.540,446
126.565,436
126.590,424
126.615,423
126.640,429
126.665,431
126.690,421
126.715,399
126.740,371
126.765,341
126.790,309
126.815,272
126.840,229
126.865,182
126.890,138
126.915,101
126.940,66
126.965,26
126.990,-18
127.015,-64
127.040,-102
127.065,-137
127.090,-182
127.115,-247
127.140,-311
127.165,-331
127.190,-273
127.215,-144
127.240,8
127.265,129
127.290,201
127.315,247
127.340,300
127.365,368
127.390,430
127.415,461
127.440,461
127.465,452
127.490,454
127.515,466
127.540,474
127.565,466
127.590,447
127.615,426
127.640,407
127.665,382
127.690,347
127.715,304
127.740,265
127.765,234
127.790,206
127.815,172
127.840,131
127.865,90
127.890,53
127.915,17
127.940,-26
127.965,-74
127.990,-117
128.015,-150
128.040,-185
128.065,-239
128.090,-308
128.115,-358
128.140,-343
128.165,-245
128.190,-94
128.215,50
128.240,148
128.265,201
128.290,239
128.315,287
128.340,344
128.365,389
128.390,408
128.415,407
128.440,405
128.465,412
128.490,425
128.515,434
128.540,431
128.565,419
128.590,404
128.615,386
128.640,364
128.665,331
128.690,290
128.715,247
128.740,212
128.765,185
128.790,160
128.815,129
128.840,90
128.865,50
128.890,13
128.915,-20
128.940,-57
128.965,-98
128.990,-138
129.015,-174
129.040,-212
129.065,-260
129.090,-311
129.115,-332
129.140,-287
129.165,-169
129.190,-13
129.215,123
129.240,211
129.265,260
129.290,303
129.315,359
129.340,417
129.365,453
129.390,458
129.415,449
129.440,448
129.465,461
129.490,475
129.515,477
129.540,462
129.565,440
129.590,415
129.615,388
129.640,355
129.665,320
129.690,286
129.715,255
129.740,221
129.765,180
129.790,134
129.815,92
129.840,60
129.865,30
129.890,-6
129.915,-50
129.940,-94
129.965,-130
129.990,-166
130.015,-215
130.040,-279
130.065,-330
130.090,-326
130.115,-244
130.140,-103
130.165,42
130.190,149
130.215,208
130.240,249
130.265,299
130.290,360
130.315,410
130.340,428
130.365,422
130.390,414
130.415,418
130.440,430
130.465,436
130.490,427
130.515,410
130.540,391
130.565,370
130.590,343
130.615,308
130.640,272
130.665,239
130.690,208
130.715,173
130.740,134
130.765,95
130.790,59
130.815,23
130.840,-18
130.865,-60
130.890,-97
130.915,-129
130.940,-168
130.965,-226
130.990,-288
131.015,-313
131.040,-262
131.065,-138
131.090,13
131.115,136
131.140,209
131.165,251
131.190,296
131.215,354
131.240,405
131.265,426
131.290,420
131.315,408
131.340,408
131.365,418
131.390,424
131.415,415
131.440,396
131.465,375
131.490,355
131.515,331
131.540,299
131.565,262
131.590,224
131.615,188
131.640,151
131.665,116
131.690,84
131.715,54
131.740,20
131.765,-20
131.790,-61
131.815,-95
131.840,-124
131.865,-161
131.890,-215
131.915,-270
131.940,-286
131.965,-229
131.990,-108
132.015,29
132.040,136
132.065,195
132.090,231
132.115,272
132.140,325
132.165,369
132.190,383
132.215,373
132.240,364
132.265,370
132.290,385
132.315,391
132.340,378
132.365,354
132.390,333
132.415,317
132.440,296
132.465,264
132.490,225
132.515,191
132.540,165
132.565,140
132.590,107
132.615,70
132.640,39
132.665,15
132.690,-16
132.715,-68
132.740,-124
132.765,-146
132.790,-101
132.815,3
132.840,123
132.865,211
132.890,257
132.915,282
132.940,311
132.965,343
132.990,359
133.015,349
133.040,328
133.065,318
133.090,326
133.115,336
133.140,330
133.165,307
133.190,279
133.215,256
133.240,233
133.265,200
133.290,157
133.315,114
133.340,76
133.365,40
133.390,1
133.415,-38
133.440,-72
133.465,-103
133.490,-146
133.515,-208
133.540,-267
133.565,-280
133.590,-216
133.615,-89
133.640,51
133.665,157
133.690,219
133.715,264
133.740,321
133.765,389
133.790,442
133.815,455
133.840,427
133.865,380
133.890,339
133.915,316
133.940,308
133.965,303
133.990,298
134.015,292
134.040,284
134.065,272
134.090,249
134.115,215
134.140,175
134.165,138
134.190,103
134.215,67
134.240,26
134.265,-16
134.290,-53
134.315,-85
134.340,-125
134.365,-181
134.390,-242
134.415,-268
134.440,-224
134.465,-112
134.490,25
134.515,138
134.540,206
134.565,250
134.590,301
134.615,369
134.640,431
134.665,461
134.690,459
134.715,444
134.740,437
134.765,440
134.790,440
134.815,429
134.840,409
134.865,386
134.890,360
134.915,328
134.940,290
134.965,252
134.990,218
135.015,183
135.040,145
135.065,104
135.090,66
135.115,30
135.140,-6
135.165,-49
135.190,-93
135.215,-130
135.240,-162
135.265,-205
135.290,-268
135.315,-331
135.340,-350
135.365,-289
135.390,-158
135.415,-7
135.440,110
135.465,180
135.490,228
135.515,286
135.540,360
135.565,424
135.590,454
135.615,451
135.640,439
135.665,442
135.690,458
135.715,471
135.740,469
135.765,453
135.790,434
135.815,417
135.840,399
135.865,373
135.890,341
135.915,307
135.940,277
135.965,248
135.990,218
136.015,188
136.040,159
136.065,131
136.090,98
136.115,59
136.140,19
136.165,-15
136.190,-46
136.215,-79
136.240,-119
136.265,-159
136.290,-191
136.315,-218
136.340,-255
136.365,-311
136.390,-366
136.415,-376
136.440,-308
136.465,-167
136.490,-6
136.515,118
136.540,191
136.565,236
136.590,288
136.615,356
136.640,418
136.665,452
136.690,457
136.715,454
136.740,461
136.765,475
136.790,485
136.815,482
136.840,472
136.865,460
136.890,446
136.915,425
136.940,394
136.965,360
136.990,327
137.015,297
137.040,266
137.065,232
137.090,199
137.115,167
137.140,134
137.165,98
137.190,59
137.215,22
137.240,-11
137.265,-48
137.290,-90
137.315,-133
137.340,-166
137.365,-191
137.390,-225
137.415,-278
137.440,-333
137.465,-348
137.490,-284
137.515,-149
137.540,5
137.565,126
137.590,194
137.615,233
137.640,280
137.665,342
137.690,401
137.715,433
137.740,439
137.765,436
137.790,443
137.815,457
137.840,469
137.865,470
137.890,462
137.915,448
137.940,429
137.965,404
137.990,375
138.015,348
138.040,320
138.065,289
138.090,254
138.115,219
138.140,189
138.165,162
138.190,129
138.215,88
138.240,46
138.265,10
138.290,-19
138.315,-54
138.340,-98
138.365,-144
138.390,-179
138.415,-207
138.440,-245
138.465,-302
138.490,-352
138.515,-347
138.540,-256
138.565,-104
138.590,48
138.615,153
138.640,208
138.665,247
138.690,299
138.715,362
138.740,409
138.765,427
138.790,427
138.815,428
138.840,442
138.865,459
138.890,468
138.915,465
138.940,455
138.965,441
138.990,422
139.015,398
139.040,369
139.065,339
139.090,308
139.115,275
139.140,242
139.165,210
139.190,180
139.215,148
139.240,112
139.265,75
139.290,43
139.315,13
139.340,-21
139.365,-65
139.390,-110
139.415,-147
139.440,-175
139.465,-211
139.490,-266
139.515,-324
139.540,-338
139.565,-275
139.590,-141
139.615,12
139.640,133
139.665,202
139.690,241
139.715,283
139.740,338
139.765,390
139.790,417
139.815,420
139.840,416
139.865,423
139.890,438
139.915,451
139.940,451
139.965,439
139.990,422
140.015,406
140.040,385
140.065,355
140.090,316
140.115,277
140.140,243
140.165,213
140.190,181
140.215,145
140.240,107
140.265,71
140.290,37
140.315,0
140.340,-40
140.365,-81
140.390,-116
140.415,-151
140.440,-196
140.465,-256
140.490,-308
140.515,-312
140.540,-239
140.565,-104
140.590,43
140.615,153
140.640,213
140.665,249
140.690,293
140.715,349
140.740,395
140.765,411
140.790,404
140.815,398
140.840,408
140.865,425
140.890,431
140.915,421
140.940,403
140.965,389
140.990,376
141.015,353
141.040,319
141.065,281
141.090,250
141.115,225
141.140,193
141.165,151
141.190,109
141.215,78
141.240,53
141.265,19
141.290,-27
141.315,-77
141.340,-115
141.365,-144
141.390,-183
141.415,-244
141.440,-300
141.465,-302
141.490,-224
141.515,-87
141.540,50
141.565,146
141.590,198
141.615,237
141.640,287
141.665,342
141.690,381
141.715,395
141.740,392
141.765,391
141.790,397
141.815,405
141.840,405
141.865,397
141.890,384
141.915,368
141.940,346
141.965,318
141.990,286
142.015,252
142.040,218
142.065,184
142.090,151
142.115,122
142.140,93
142.165,61
142.190,26
142.215,-4
142.240,-33
142.265,-68
142.290,-118
142.315,-173
142.340,-201
142.365,-169
142.390,-74
142.415,46
142.440,145
142.465,201
142.490,231
142.515,264
142.540,308
142.565,344
142.590,354
142.615,341
142.640,326
142.665,328
142.690,340
142.715,345
142.740,332
142.765,308
142.790,285
142.815,267
142.840,245
142.865,213
142.890,175
142.915,142
142.940,114
142.965,85
142.990,48
143.015,8
143.040,-25
143.065,-50
143.090,-81
143.115,-130
143.140,-190
143.165,-228
143.190,-210
143.215,-127
143.240,-8
143.265,100
143.290,174
143.315,220
143.340,263
143.365,317
143.390,372
143.415,407
143.440,413
143.465,404
143.490,398
143.515,404
143.540,411
143.565,408
143.590,391
143.615,368
143.640,346
143.665,324
143.690,295
143.715,258
143.740,220
143.765,187
143.790,157
143.815,122
143.840,83
143.865,44
143.890,9
143.915,-24
143.940,-60
143.965,-99
143.990,-137
144.015,-171
144.040,-209
144.065,-261
144.090,-317
144.115,-347
144.140,-316
144.165,-219
144.190,-89
144.215,26
144.240,105
144.265,158
144.290,215
144.315,287
144.340,357
144.365,404
144.390,423
144.415,431
144.440,444
144.465,464
144.490,479
144.515,481
144.540,471
144.565,457
144.590,442
144.615,426
144.640,408
144.665,388
144.690,366
144.715,342
144.740,316
144.765,296
144.790,283
144.815,273
144.840,256
144.865,227
144.890,192
144.915,163
144.940,140
144.965,111
144.990,71
145.015,30
145.040,7
145.065,3
145.090,-9
145.115,-64
145.140,-158
145.165,-239
145.190,-249
145.215,-176
145.240,-63
145.265,26
145.290,68
145.315,86
145.340,119
145.365,177
145.390,237
145.415,272
145.440,280
145.465,279
145.490,287
145.515,299
145.540,305
145.565,302
145.590,295
145.615,288
145.640,276
145.665,255
145.690,226
145.715,201
145.740,183
145.765,165
145.790,140
145.815,109
145.840,83
145.865,70
145.890,61
145.915,42
145.940,11
145.965,-22
145.990,-47
146.015,-67
146.040,-97
146.065,-141
146.090,-179
146.115,-175
146.140,-114
146.165,-12
146.190,90
146.215,164
146.240,212
146.265,257
146.290,316
146.315,382
146.340,432
146.365,451
146.390,446
146.415,436
146.440,434
146.465,441
146.490,444
146.515,437
146.540,422
146.565,407
146.590,391
146.615,370
146.640,338
146.665,299
146.690,258
146.715,220
146.740,185
146.765,152
146.790,121
146.815,89
146.840,48
146.865,-9
146.890,-80
146.915,-146
146.940,-187
146.965,-199
146.990,-205
147.015,-233
147.040,-284
147.065,-324
147.090,-303
147.115,-207
147.140,-67
147.165,59
147.190,141
147.215,191
147.240,247
147.265,328
147.290,415
147.315,472
147.340,484
147.365,469
147.390,458
147.415,464
147.440,476
147.465,478
147.490,464
147.515,446
147.540,432
147.565,419
147.590,397
147.615,360
147.640,316
147.665,270
147.690,223
147.715,172
147.740,118
147.765,68
147.790,28
147.815,-8
147.840,-51
147.865,-100
147.890,-146
147.915,-181
147.940,-209
147.965,-246
147.990,-289
148.015,-315
148.040,-286
148.065,-190
148.090,-54
148.115,73
148.140,160
148.165,211
148.190,253
148.215,305
148.240,359
148.265,396
148.290,409
148.315,410
148.340,416
148.365,430
148.390,443
148.415,443
148.440,429
148.465,408
148.490,384
148.515,358
148.540,329
148.565,300
148.590,273
148.615,245
148.640,209
148.665,168
148.690,128
148.715,97
148.740,72
148.765,45
148.790,11
148.815,-24
148.840,-56
148.865,-91
148.890,-139
148.915,-197
148.940,-235
148.965,-218
148.990,-135
149.015,-13
149.040,98
149.065,170
149.090,209
149.115,243
149.140,290
149.165,339
149.190,367
149.215,366
149.240,352
149.265,346
149.290,355
149.315,368
149.340,370
149.365,357
149.390,339
149.415,320
149.440,299
149.465,270
149.490,234
149.515,199
149.540,166
149.565,133
149.590,94
149.615,50
149.640,13
149.665,-14
149.690,-40
149.715,-81
149.740,-133
149.765,-167
149.790,-149
149.815,-69
149.840,39
149.865,131
149.890,182
149.915,206
149.940,232
149.965,271
149.990,305
150.015,317
150.040,307
150.065,298
150.090,306
150.115,326
150.140,341
150.165,336
150.190,319
150.215,299
150.240,280
150.265,254
150.290,217
150.315,176
150.340,137
150.365,102
150.390,67
150.415,31
150.440,1
150.465,-23
150.490,-54
150.515,-104
150.540,-168
150.565,-209
150.590,-191
150.615,-106
150.640,12
150.665,115
150.690,178
150.715,211
150.740,243
150.765,289
150.790,337
150.815,368
150.840,375
150.865,370
150.890,365
150.915,368
150.940,371
150.965,366
150.990,354
151.015,335
151.040,313
151.065,286
151.090,252
151.115,214
151.140,178
151.165,147
151.190,117
151.215,82
151.240,39
151.265,-2
151.290,-36
151.315,-67
151.340,-108
151.365,-165
151.390,-220
151.415,-239
151.440,-193
151.465,-92
151.490,25
151.515,117
151.540,174
151.565,214
151.590,263
151.615,321
151.640,372
151.665,398
151.690,402
151.715,400
151.740,403
151.765,410
151.790,411
151.815,404
151.840,389
151.865,371
151.890,347
151.915,317
151.940,282
151.965,248
151.990,217
152.015,185
152.040,151
152.065,115
152.090,80
152.115,44
152.140,8
152.165,-30
152.190,-65
152.215,-99
152.240,-137
152.265,-187
152.290,-237
152.315,-257
152.340,-219
152.365,-122
152.390,0
152.415,104
152.440,172
152.465,216
152.490,262
152.515,321
152.540,376
152.565,407
152.590,411
152.615,405
152.640,404
152.665,412
152.690,416
152.715,409
152.740,393
152.765,373
152.790,352
152.815,326
152.840,294
152.865,259
152.890,226
152.915,197
152.940,165
152.965,130
152.990,93
153.015,59
153.040,26
153.065,-7
153.090,-47
153.115,-84
153.140,-114
153.165,-141
153.190,-178
153.215,-227
153.240,-271
153.265,-272
153.290,-206
153.315,-89
153.340,34
153.365,126
153.390,181
153.415,225
153.440,280
153.465,344
153.490,395
153.515,415
153.540,412
153.565,408
153.590,414
153.615,425
153.640,426
153.665,416
153.690,399
153.715,383
153.740,365
153.765,338
153.790,303
153.815,267
153.840,236
153.865,210
153.890,183
153.915,154
153.940,126
153.965,98
153.990,66
154.015,28
154.040,-8
154.065,-39
154.090,-67
154.115,-103
154.140,-152
154.165,-197
154.190,-201
154.215,-145
154.240,-41
154.265,68
154.290,149
154.315,196
154.340,231
154.365,273
154.390,316
154.415,345
154.440,350
154.465,341
154.490,339
154.515,349
154.540,361
154.565,360
154.590,342
154.615,318
154.640,298
154.665,281
154.690,259
154.715,223
154.740,180
154.765,139
154.790,109
154.815,84
154.840,56
154.865,23
154.890,-9
154.915,-37
154.940,-67
154.965,-111
154.990,-168
155.015,-209
155.040,-202
155.065,-131
155.090,-20
155.115,88
155.140,165
155.165,213
155.190,255
155.215,305
155.240,357
155.265,391
155.290,399
155.315,393
155.340,388
155.365,389
155.390,391
155.415,388
155.440,376
155.465,358
155.490,336
155.515,309
155.540,277
155.565,246
155.590,216
155.615,185
155.640,153
155.665,121
155.690,90
155.715,59
155.740,23
155.765,-19
155.790,-59
155.815,-91
155.840,-119
155.865,-158
155.890,-213
155.915,-262
155.940,-265
155.965,-198
155.990,-81
156.015,40
156.040,128
156.065,179
156.090,221
156.115,277
156.140,342
156.165,393
156.190,415
156.215,414
156.240,412
156.265,419
156.290,433
156.315,440
156.340,434
156.365,419
156.390,400
156.415,379
156.440,355
156.465,324
156.490,292
156.515,261
156.540,232
156.565,202
156.590,168
156.615,133
156.640,99
156.665,68
156.690,36
156.715,-2
156.740,-46
156.765,-86
156.790,-116
156.815,-144
156.840,-185
156.865,-243
156.890,-294
156.915,-302
156.940,-239
156.965,-120
156.990,11
157.015,112
157.040,173
157.065,215
157.090,265
157.115,328
157.140,384
157.165,412
157.190,415
157.215,410
157.240,415
157.265,431
157.290,444
157.315,441
157.340,425
157.365,404
157.390,385
157.415,367
157.440,342
157.465,309
157.490,274
157.515,242
157.540,214
157.565,184
157.590,148
157.615,108
157.640,70
157.665,37
157.690,3
157.715,-33
157.740,-72
157.765,-106
157.790,-137
157.815,-172
157.840,-219
157.865,-268
157.890,-286
157.915,-243
157.940,-137
157.965,-6
157.990,104
158.015,171
158.040,212
158.065,256
158.090,314
158.115,369
158.140,397
158.165,396
158.190,389
158.215,395
158.240,413
158.265,428
158.290,425
158.315,409
158.340,391
158.365,374
158.390,354
158.415,326
158.440,294
158.465,265
158.490,240
158.515,211
158.540,176
158.565,139
158.590,109
158.615,84
158.640,55
158.665,16
158.690,-23
158.715,-55
158.740,-82
158.765,-120
158.790,-176
158.815,-230
158.840,-241
158.865,-183
158.890,-71
158.915,47
158.940,131
158.965,178
158.990,211
159.015,252
159.040,297
159.065,326
159.090,330
159.115,323
159.140,324
159.165,340
159.190,358
159.215,362
159.240,349
159.265,329
159.290,314
159.315,301
159.340,281
159.365,251
159.390,217
159.415,189
159.440,167
159.465,144
159.490,115
159.515,83
159.540,57
159.565,35
159.590,4
159.615,-44
159.640,-101
159.665,-134
159.690,-116
159.715,-43
159.740,58
159.765,151
159.790,213
159.815,250
159.840,278
159.865,308
159.890,331
159.915,338
159.940,330
159.965,318
159.990,318
160.015,329
160.040,339
160.065,336
160.090,317
160.115,291
160.140,265
160.165,238
160.190,206
160.215,167
160.240,127
160.265,95
160.290,67
160.315,36
160.340,-1
160.365,-40
160.390,-74
160.415,-104
160.440,-143
160.465,-198
160.490,-253
160.515,-271
160.540,-222
160.565,-111
160.590,17
160.615,120
160.640,184
160.665,229
160.690,281
160.715,344
160.740,401
160.765,432
160.790,437
160.815,432
160.840,431
160.865,436
160.890,439
160.915,433
160.940,420
160.965,400
160.990,373
161.015,338
161.040,298
161.065,258
161.090,219
161.115,179
161.140,139
161.165,99
161.190,60
161.215,21
161.240,-21
161.265,-64
161.290,-102
161.315,-137
161.340,-181
161.365,-239
161.390,-299
161.415,-322
161.440,-277
161.465,-169
161.490,-36
161.515,75
161.540,150
161.565,204
161.590,263
161.615,332
161.640,394
161.665,432
161.690,442
161.715,439
161.740,437
161.765,439
161.790,444
161.815,443
161.840,434
161.865,415
161.890,391
161.915,371
161.940,359
161.965,350
161.990,335
162.015,304
162.040,261
162.065,218
162.090,181
162.115,150
162.140,119
162.165,85
162.190,49
162.215,11
162.240,-31
162.265,-77
162.290,-121
162.315,-159
162.340,-201
162.365,-259
162.390,-330
162.415,-380
162.440,-366
162.465,-268
162.490,-119
162.515,22
162.540,118
162.565,175
162.590,228
162.615,299
162.640,376
162.665,432
162.690,455
162.715,457
162.740,457
162.765,464
162.790,472
162.815,473
162.840,465
162.865,449
162.890,429
162.915,401
162.940,370
162.965,338
162.990,310
163.015,282
163.040,254
163.065,225
163.090,197
163.115,169
163.140,138
163.165,100
163.190,60
163.215,22
163.240,-16
163.265,-58
163.290,-103
163.315,-145
163.340,-177
163.365,-210
163.390,-257
163.415,-313
163.440,-347
163.465,-317
163.490,-214
163.515,-70
163.540,59
163.565,144
163.590,197
163.615,248
163.640,314
163.665,381
163.690,426
163.715,441
163.740,442
163.765,446
163.790,459
163.815,471
163.840,473
163.865,466
163.890,454
163.915,440
163.940,420
163.965,393
163.990,362
164.015,332
164.040,303
164.065,275
164.090,244
164.115,210
164.140,173
164.165,133
164.190,93
164.215,56
164.240,21
164.265,-15
164.290,-56
164.315,-97
164.340,-130
164.365,-157
164.390,-192
164.415,-244
164.440,-300
164.465,-322
164.490,-275
164.515,-162
164.540,-26
164.565,80
164.590,142
164.615,180
164.640,224
164.665,281
164.690,333
164.715,358
164.740,358
164.765,355
164.790,361
164.815,376
164.840,385
164.865,384
164.890,374
164.915,361
164.940,346
164.965,326
164.990,301
165.015,275
165.040,249
165.065,220
165.090,187
165.115,154
165.140,124
165.165,95
165.190,64
165.215,31
165.240,0
165.265,-32
165.290,-72
165.315,-123
165.340,-167
165.365,-169
165.390,-106
165.415,8
165.440,128
165.465,215
165.490,263
165.515,300
165.540,347
165.565,394
165.590,418
165.615,410
165.640,392
165.665,390
165.690,408
165.715,428
165.740,433
165.765,425
165.790,414
165.815,399
165.840,361
165.865,295
165.890,215
165.915,149
165.940,109
165.965,82
165.990,52
166.015,16
166.040,-14
166.065,-36
166.090,-58
166.115,-88
166.140,-123
166.165,-154
166.190,-182
166.215,-225
166.240,-287
166.265,-340
166.290,-336
166.315,-250
166.340,-106
166.365,47
166.390,170
166.415,258
166.440,323
166.465,374
166.490,410
166.515,435
166.540,459
166.565,489
166.590,513
166.615,512
166.640,486
166.665,452
166.690,428
166.715,408
166.740,371
166.765,312
166.790,249
166.815,208
166.840,192
166.865,180
166.890,152
166.915,111
166.940,73
166.965,45
166.990,18
167.015,-16
167.040,-54
167.065,-87
167.090,-119
167.115,-166
167.140,-227
167.165,-266
167.190,-239
167.215,-135
167.240,2
167.265,113
167.290,168
167.315,192
167.340,229
167.365,293
167.390,361
167.415,399
167.440,398
167.465,381
167.490,373
167.515,379
167.540,390
167.565,394
167.590,387
167.615,375
167.640,359
167.665,336
167.690,305
167.715,265
167.740,222
167.765,177
167.790,129
167.815,77
167.840,26
167.865,-16
167.890,-47
167.915,-74
167.940,-109
167.965,-160
167.990,-217
168.015,-249
168.040,-226
168.065,-138
168.090,-10
168.115,118
168.140,214
168.165,274
168.190,315
168.215,355
168.240,393
168.265,417
168.290,421
168.315,412
168.340,406
168.365,411
168.390,416
168.415,404
168.440,371
168.465,327
168.490,287
168.515,253
168.540,213
168.565,161
168.590,103
168.615,55
168.640,24
168.665,3
168.690,-22
168.715,-56
168.740,-91
168.765,-123
168.790,-159
168.815,-205
168.840,-248
168.865,-251
168.890,-181
168.915,-49
168.940,97
168.965,210
168.990,279
169.015,336
169.040,411
169.065,498
169.090,561
169.115,567
169.140,526
169.165,475
169.190,449
169.215,453
169.240,463
169.265,456
169.290,425
169.315,377
169.340,318
169.365,250
169.390,173
169.415,94
169.440,26
169.465,-19
169.490,-39
169.515,-41
169.540,-40
169.565,-51
169.590,-80
169.615,-130
169.640,-196
169.665,-267
169.690,-321
169.715,-333
169.740,-281
169.765,-168
169.790,-29
169.815,92
169.840,169
169.865,214
169.890,253
169.915,303
169.940,351
169.965,377
169.990,377
170.015,372
170.040,383
170.065,406
170.090,421
170.115,411
170.140,383
170.165,354
170.190,329
170.215,302
170.240,264
170.265,223
170.290,189
170.315,163
170.340,135
170.365,96
170.390,54
170.415,20
170.440,-4
170.465,-39
170.490,-94
170.515,-148
170.540,-162
170.565,-109
170.590,-8
170.615,96
170.640,167
170.665,204
170.690,233
170.715,270
170.740,310
170.765,332
170.790,330
170.815,314
170.840,303
170.865,303
170.890,308
170.915,307
170.940,294
170.965,273
170.990,249
171.015,224
171.040,196
171.065,164
171.090,129
171.115,96
171.140,73
171.165,57
171.190,37
171.215,3
171.240,-40
171.265,-70
171.290,-58
171.315,1
171.340,88
171.365,169
171.390,225
171.415,259
171.440,287
171.465,311
171.490,321
171.515,312
171.540,290
171.565,275
171.590,273
171.615,279
171.640,277
171.665,262
171.690,235
171.715,208
171.740,182
171.765,157
171.790,129
171.815,97
171.840,63
171.865,31
171.890,4
171.915,-18
171.940,-47
171.965,-91
171.990,-146
172.015,-188
172.040,-185
172.065,-122
172.090,-16
172.115,91
172.140,167
172.165,211
172.190,247
172.215,296
172.240,353
172.265,397
172.290,412
172.315,404
172.340,393
172.365,391
172.390,395
172.415,391
172.440,373
172.465,344
172.490,314
172.515,287
172.540,258
172.565,223
172.590,184
172.615,145
172.640,107
172.665,68
172.690,28
172.715,-9
172.740,-42
172.765,-74
172.790,-114
172.815,-168
172.840,-227
172.865,-259
172.890,-235
172.915,-150
172.940,-32
172.965,76
172.990,152
173.015,201
173.040,248
173.065,305
173.090,359
173.115,394
173.140,403
173.165,400
173.190,401
173.215,412
173.240,423
173.265,425
173.290,416
173.315,400
173.340,376
173.365,345
173.390,308
173.415,269
173.440,234
173.465,201
173.490,167
173.515,130
173.540,95
173.565,62
173.590,29
173.615,-6
173.640,-45
173.665,-80
173.690,-113
173.715,-153
173.740,-208
173.765,-262
173.790,-278
173.815,-225
173.840,-110
173.865,22
173.890,125
173.915,183
173.940,218
173.965,260
173.990,318
174.015,372
174.040,403
174.065,407
174.090,401
174.115,400
174.140,407
174.165,413
174.190,413
174.215,405
174.240,389
174.265,364
174.290,333
174.315,300
174.340,269
174.365,242
174.390,214
174.415,180
174.440,144
174.465,107
174.490,69
174.515,29
174.540,-10
174.565,-46
174.590,-80
174.615,-122
174.640,-178
174.665,-236
174.690,-258
174.715,-214
174.740,-108
174.765,16
174.790,113
174.815,168
174.840,202
174.865,244
174.890,295
174.915,334
174.940,345
174.965,334
174.990,325
175.015,329
175.040,338
175.065,340
175.090,332
175.115,320
175.140,309
175.165,292
175.190,264
175.215,228
175.240,195
175.265,168
175.290,140
175.315,107
175.340,72
175.365,44
175.390,20
175.415,-12
175.440,-61
175.465,-102
175.490,-99
175.515,-34
175.540,70
175.565,169
175.590,231
175.615,263
175.640,290
175.665,323
175.690,350
175.715,352
175.740,330
175.765,306
175.790,295
175.815,298
175.840,302
175.865,295
175.890,278
175.915,254
175.940,225
175.965,191
175.990,155
176.015,120
176.040,86
176.065,46
176.090,2
176.115,-38
176.140,-71
176.165,-103
176.190,-147
176.215,-203
176.240,-241
176.265,-223
176.290,-134
176.315,-3
176.340,118
176.365,198
176.390,239
176.415,273
176.440,320
176.465,373
176.490,408
176.515,412
176.540,397
176.565,384
176.590,384
176.615,390
176.640,388
176.665,374
176.690,351
176.715,326
176.740,298
176.765,264
176.790,222
176.815,179
176.840,143
176.865,112
176.890,79
176.915,38
176.940,-5
176.965,-42
176.990,-74
177.015,-114
177.040,-173
177.065,-239
177.090,-271
177.115,-234
177.140,-128
177.165,8
177.190,124
177.215,196
177.240,241
177.265,284
177.290,337
177.315,384
177.340,409
177.365,410
177.390,400
177.415,396
177.440,400
177.465,405
177.490,401
177.515,386
177.540,362
177.565,333
177.590,303
177.615,273
177.640,240
177.665,203
177.690,162
177.715,122
177.740,88
177.765,58
177.790,25
177.815,-15
177.840,-57
177.865,-90
177.890,-118
177.915,-157
177.940,-216
177.965,-274
177.990,-287
178.015,-221
178.040,-90
178.065,54
178.090,161
178.115,217
178.140,253
178.165,299
178.190,356
178.215,400
178.240,414
178.265,406
178.290,399
178.315,407
178.340,421
178.365,426
178.390,417
178.415,399
178.440,381
178.465,361
178.490,334
178.515,300
178.540,264
178.565,230
178.590,195
178.615,157
178.640,118
178.665,82
178.690,50
178.715,16
178.740,-22
178.765,-61
178.790,-94
178.815,-125
178.840,-167
178.865,-227
178.890,-282
178.915,-289
178.940,-219
178.965,-86
178.990,56
179.015,161
179.040,218
179.065,254
179.090,297
179.115,349
179.140,390
179.165,406
179.190,402
179.215,399
179.240,406
179.265,417
179.290,418
179.315,406
179.340,389
179.365,371
179.390,347
179.415,317
179.440,282
179.465,249
179.490,221
179.515,190
179.540,152
179.565,110
179.590,75
179.615,46
179.640,16
179.665,-20
179.690,-57
179.715,-86
179.740,-113
179.765,-154
179.790,-216
179.815,-272
179.840,-277
179.865,-204
179.890,-72
179.915,63
179.940,158
179.965,208
179.990,242
180.015,284
180.040,334
180.065,371
180.090,383
180.115,377
180.140,371
180.165,375
180.190,385
180.215,391
180.240,387
180.265,372
180.290,351
180.315,330
180.340,309
180.365,285
180.390,254
180.415,217
180.440,182
180.465,155
180.490,131
180.515,101
180.540,62
180.565,22
180.590,-7
180.615,-32
180.640,-68
180.665,-122
180.690,-171
180.715,-172
180.740,-101
180.765,18
180.790,136
180.815,212
180.840,247
180.865,269
180.890,292
180.915,310
180.940,308
180.965,291
180.990,280
181.015,290
181.040,311
181.065,323
181.090,317
181.115,299
181.140,278
181.165,255
181.190,225
181.215,190
181.240,156
181.265,125
181.290,93
181.315,52
181.340,9
181.365,-25
181.390,-56
181.415,-95
181.440,-149
181.465,-194
181.490,-188
181.515,-109
181.540,18
181.565,143
181.590,222
181.615,260
181.640,285
181.665,322
181.690,363
181.715,386
181.740,382
181.765,366
181.790,359
181.815,368
181.840,379
181.865,378
181.890,361
181.915,337
181.940,314
181.965,290
181.990,258
182.015,218
182.040,176
182.065,137
182.090,101
182.115,59
182.140,10
182.165,-38
182.190,-75
182.215,-103
182.240,-141
182.265,-202
182.290,-270
182.315,-305
182.340,-265
182.365,-150
182.390,-1
182.415,128
182.440,209
182.465,254
182.490,293
182.515,340
182.540,387
182.565,415
182.590,418
182.615,407
182.640,399
182.665,401
182.690,407
182.715,406
182.740,394
182.765,373
182.790,347
182.815,320
182.840,288
182.865,249
182.890,205
182.915,160
182.940,121
182.965,87
182.990,51
183.015,7
183.040,-37
183.065,-76
183.090,-108
183.115,-147
183.140,-206
183.165,-267
183.190,-288
183.215,-231
183.240,-102
183.265,47
183.290,162
183.315,225
183.340,260
183.365,303
183.390,359
183.415,407
183.440,424
183.465,416
183.490,404
183.515,406
183.540,417
183.565,422
183.590,413
183.615,392
183.640,369
183.665,345
183.690,318
183.715,284
183.740,244
183.765,202
183.790,159
183.815,120
183.840,85
183.865,51
183.890,10
183.915,-35
183.940,-78
183.965,-110
183.990,-139
184.015,-183
184.040,-247
184.065,-301
184.090,-296
184.115,-208
184.140,-60
184.165,85
184.190,183
184.215,233
184.240,270
184.265,319
184.290,375
184.315,413
184.340,421
184.365,412
184.390,406
184.415,408
184.440,414
184.465,412
184.490,403
184.515,387
184.540,365
184.565,336
184.590,303
184.615,270
184.640,238
184.665,203
184.690,163
184.715,124
184.740,88
184.765,55
184.790,18
184.815,-24
184.840,-65
184.865,-98
184.890,-134
184.915,-187
184.940,-252
184.965,-292
184.990,-264
185.015,-156
185.040,-6
185.065,125
185.090,207
185.115,249
185.140,283
185.165,327
185.190,369
185.215,393
185.240,396
185.265,390
185.290,391
185.315,398
185.340,405
185.365,403
185.390,391
185.415,369
185.440,339
185.465,306
185.490,273
185.515,242
185.540,208
185.565,168
185.590,126
185.615,86
185.640,51
185.665,17
185.690,-18
185.715,-55
185.740,-86
185.765,-118
185.790,-164
185.815,-229
185.840,-285
185.865,-288
185.890,-210
185.915,-68
185.940,80
185.965,186
185.990,243
186.015,278
186.040,319
186.065,367
186.090,399
186.115,401
186.140,383
186.165,369
186.190,373
186.215,385
186.240,390
186.265,378
186.290,355
186.315,332
186.340,313
186.365,290
186.390,257
186.415,216
186.440,177
186.465,146
186.490,119
186.515,89
186.540,55
186.565,24
186.590,0
186.615,-25
186.640,-68
186.665,-125
186.690,-170
186.715,-161
186.740,-83
186.765,40
186.790,159
186.815,235
186.840,271
186.865,293
186.890,320
186.915,347
186.940,356
186.965,345
186.990,331
187.015,328
187.040,334
187.065,332
187.090,313
187.115,285
187.140,265
187.165,255
187.190,246
187.215,226
187.240,194
187.265,159
187.290,127
187.315,95
187.340,60
187.365,21
187.390,-17
187.415,-59
187.440,-106
187.465,-150
187.490,-171
187.515,-150
187.540,-90
187.565,-16
187.590,42
187.615,74
187.640,96
187.665,127
187.690,172
187.715,214
187.740,235
187.765,234
187.790,224
187.815,223
187.840,236
187.865,253
187.890,263
187.915,264
187.940,265
187.965,276
187.990,297
188.015,317
188.040,324
188.065,314
188.090,291
188.115,262
188.140,228
188.165,187
188.190,142
188.215,99
188.240,59
188.265,12
188.290,-53
188.315,-134
188.340,-199
188.365,-204
188.390,-132
188.415,-10
188.440,108
188.465,188
188.490,233
188.515,274
188.540,330
188.565,393
188.590,436
188.615,451
188.640,452
188.665,459
188.690,475
188.715,486
188.740,480
188.765,460
188.790,439
188.815,420
188.840,392
188.865,342
188.890,273
188.915,194
188.940,116
188.965,41
188.990,-33
189.015,-101
189.040,-156
189.065,-197
189.090,-234
189.115,-270
189.140,-296
189.165,-298
189.190,-280
189.215,-262
189.240,-264
189.265,-274
189.290,-252
189.315,-163
189.340,-19
189.365,133
189.390,247
189.415,313
189.440,358
189.465,409
189.490,468
189.515,512
189.540,521
189.565,502
189.590,477
189.615,462
189.640,454
189.665,445
189.690,427
189.715,402
189.740,373
189.765,342
189.790,308
189.815,277
189.840,251
189.865,227
189.890,200
189.915,164
189.940,124
189.965,88
189.990,58
190.015,26
190.040,-14
190.065,-59
190.090,-96
190.115,-125
190.140,-159
190.165,-212
190.190,-276
190.215,-312
190.240,-281
190.265,-173
190.290,-26
190.315,105
190.340,191
190.365,237
190.390,275
190.415,325
190.440,380
190.465,420
190.490,433
190.515,429
190.540,426
190.565,433
190.590,444
190.615,447
190.640,437
190.665,418
190.690,395
190.715,372
190.740,345
190.765,314
190.790,283
190.815,255
190.840,229
190.865,199
190.890,158
190.915,110
190.940,68
190.965,36
190.990,9
191.015,-24
191.040,-69
191.065,-116
191.090,-155
191.115,-190
191.140,-235
191.165,-293
191.190,-337
191.215,-324
191.240,-230
191.265,-80
191.290,67
191.315,167
191.340,218
191.365,253
191.390,302
191.415,359
191.440,399
191.465,406
191.490,395
191.515,388
191.540,396
191.565,409
191.590,414
191.615,405
191.640,392
191.665,377
191.690,358
191.715,332
191.740,302
191.765,273
191.790,244
191.815,210
191.840,173
191.865,137
191.890,109
191.915,84
191.940,52
191.965,13
191.990,-21
192.015,-45
192.040,-70
192.065,-114
192.090,-174
192.115,-216
192.140,-197
192.165,-101
192.190,35
192.215,156
192.240,229
192.265,262
192.290,286
192.315,317
192.340,345
192.365,354
192.390,343
192.415,329
192.440,329
192.465,343
192.490,355
192.515,351
192.540,332
192.565,308
192.590,288
192.615,268
192.640,241
192.665,204
192.690,162
192.715,126
192.740,96
192.765,66
192.790,30
192.815,-9
192.840,-44
192.865,-73
192.890,-107
192.915,-158
192.940,-218
192.965,-253
192.990,-226
193.015,-126
193.040,13
193.065,141
193.090,222
193.115,265
193.140,298
193.165,339
193.190,381
193.215,405
193.240,404
193.265,391
193.290,387
193.315,395
193.340,404
193.365,404
193.390,391
193.415,371
193.440,347
193.465,320
193.490,287
193.515,249
193.540,209
193.565,170
193.590,133
193.615,95
193.640,57
193.665,17
193.690,-23
193.715,-63
193.740,-97
193.765,-129
193.790,-172
193.815,-231
193.840,-293
193.865,-318
193.890,-269
193.915,-143
193.940,15
193.965,148
193.990,226
194.015,265
194.040,304
194.065,361
194.090,421
194.115,456
194.140,455
194.165,440
194.190,435
194.215,445
194.240,456
194.265,452
194.290,433
194.315,411
194.340,389
194.365,363
194.390,327
194.415,285
194.440,244
194.465,211
194.490,177
194.515,138
194.540,95
194.565,54
194.590,14
194.615,-30
194.640,-83
194.665,-135
194.690,-173
194.715,-197
194.740,-228
194.765,-285
194.790,-354
194.815,-385
194.840,-333
194.865,-199
194.890,-31
194.915,107
194.940,193
194.965,243
194.990,291
195.015,349
195.040,406
195.065,442
195.090,454
195.115,456
195.140,463
195.165,477
195.190,491
195.215,495
195.240,487
195.265,468
195.290,445
195.315,420
195.340,393
195.365,359
195.390,317
195.415,272
195.440,231
195.465,199
195.490,171
195.515,137
195.540,94
195.565,47
195.590,7
195.615,-27
195.640,-66
195.665,-111
195.690,-155
195.715,-187
195.740,-214
195.765,-256
195.790,-319
195.815,-371
195.840,-362
195.865,-263
195.890,-100
195.915,62
195.940,174
195.965,234
195.990,277
196.015,333
196.040,397
196.065,445
196.090,463
196.115,461
196.140,461
196.165,472
196.190,486
196.215,490
196.240,480
196.265,459
196.290,430
196.315,396
196.340,359
196.365,322
196.390,285
196.415,251
196.440,219
196.465,186
196.490,153
196.515,119
196.540,85
196.565,56
196.590,33
196.615,10
196.640,-21
196.665,-68
196.690,-118
196.715,-155
196.740,-175
196.765,-193
196.790,-231
196.815,-281
196.840,-304
196.865,-253
196.890,-120
196.915,47
196.940,188
196.965,263
196.990,287
197.015,297
197.040,323
197.065,359
197.090,387
197.115,396
197.140,399
197.165,412
197.190,443
197.215,478
197.240,494
197.265,480
197.290,438
197.315,385
197.340,337
197.365,298
197.390,262
197.415,223
197.440,182
197.465,147
197.490,120
197.515,100
197.540,81
197.565,58
197.590,34
197.615,10
197.640,-15
197.665,-48
197.690,-83
197.715,-117
197.740,-149
197.765,-191
197.790,-247
197.815,-297
197.840,-299
197.865,-222
197.890,-76
197.915,84
197.940,203
197.965,262
197.990,292
198.015,332
198.040,393
198.065,449
198.090,470
198.115,455
198.140,429
198.165,419
198.190,425
198.215,430
198.240,422
198.265,402
198.290,382
198.315,364
198.340,340
198.365,304
198.390,264
198.415,231
198.440,207
198.465,183
198.490,148
198.515,108
198.540,73
198.565,48
198.590,23
198.615,-9
198.640,-48
198.665,-79
198.690,-98
198.715,-120
198.740,-165
198.765,-225
198.790,-259
198.815,-224
198.840,-112
198.865,33
198.890,158
198.915,231
198.940,268
198.965,298
198.990,334
199.015,365
199.040,374
199.065,363
199.090,349
199.115,347
199.140,358
199.165,368
199.190,367
199.215,353
199.240,330
199.265,305
199.290,280
199.315,255
199.340,227
199.365,196
199.390,162
199.415,126
199.440,90
199.465,53
199.490,18
199.515,-13
199.540,-38
199.565,-61
199.590,-96
199.615,-151
199.640,-210
199.665,-234
199.690,-188
199.715,-72
199.740,71
199.765,188
199.790,253
199.815,286
199.840,322
199.865,370
199.890,409
199.915,416
199.940,393
199.965,366
199.990,355
200.015,359
200.040,359
200.065,345
200.090,325
200.115,310
200.140,301
200.165,287
200.190,260
200.215,228
200.240,198
200.265,174
200.290,147
200.315,114
200.340,78
200.365,44
200.390,7
200.415,-35
200.440,-84
200.465,-125
200.490,-151
200.515,-170
200.540,-203
200.565,-250
200.590,-283
200.615,-262
200.640,-170
200.665,-36
200.690,89
200.715,173
200.740,222
200.765,263
200.790,320
200.815,386
200.840,443
200.865,478
200.890,494
200.915,500
200.940,503
200.965,502
200.990,494
201.015,477
201.040,455
201.065,429
201.090,398
201.115,365
201.140,334
201.165,306
201.190,277
201.215,241
201.240,193
201.265,139
201.290,87
201.315,41
201.340,0
201.365,-42
201.390,-89
201.415,-130
201.440,-154
201.465,-161
201.490,-170
201.515,-203
201.540,-259
201.565,-304
201.590,-294
201.615,-207
201.640,-68
201.665,70
201.690,168
201.715,224
201.740,266
201.765,317
201.790,376
201.815,420
201.840,432
201.865,418
201.890,397
201.915,382
201.940,379
201.965,382
201.990,384
202.015,382
202.040,373
202.065,356
202.090,336
202.115,319
202.140,307
202.165,294
202.190,274
202.215,249
202.240,225
202.265,205
202.290,185
202.315,156
202.340,118
202.365,80
202.390,45
202.415,9
202.440,-33
202.465,-81
202.490,-125
202.515,-161
202.540,-202
202.565,-260
202.590,-330
202.615,-371
202.640,-340
202.665,-228
202.690,-72
202.715,66
202.740,154
202.765,200
202.790,238
202.815,294
202.840,358
202.865,407
202.890,426
202.915,424
202.940,422
202.965,433
202.990,449
203.015,458
203.040,451
203.065,436
203.090,419
203.115,402
203.140,379
203.165,346
203.190,307
203.215,269
203.240,237
203.265,207
203.290,175
203.315,142
203.340,109
203.365,78
203.390,44
203.415,6
203.440,-31
203.465,-62
203.490,-91
203.515,-130
203.540,-185
203.565,-236
203.590,-246
203.615,-187
203.640,-69
203.665,61
203.690,162
203.715,219
203.740,253
203.765,289
203.790,333
203.815,369
203.840,382
203.865,375
203.890,365
203.915,366
203.940,376
203.965,383
203.990,376
204.015,354
204.040,325
204.065,297
204.090,271
204.115,244
204.140,212
204.165,174
204.190,134
204.215,99
204.240,67
204.265,33
204.290,-5
204.315,-47
204.340,-84
204.365,-118
204.390,-161
204.415,-218
204.440,-272
204.465,-285
204.490,-228
204.515,-108
204.540,28
204.565,134
204.590,197
204.615,242
204.640,297
204.665,362
204.690,413
204.715,431
204.740,422
204.765,411
204.790,415
204.815,428
204.840,434
204.865,423
204.890,405
204.915,387
204.940,369
204.965,346
204.990,312
205.015,271
205.040,229
205.065,189
205.090,150
205.115,113
205.140,80
205.165,49
205.190,13
205.215,-30
205.240,-75
205.265,-112
205.290,-146
205.315,-191
205.340,-255
205.365,-315
205.390,-330
205.415,-270
205.440,-147
205.465,-8
205.490,100
205.515,169
205.540,222
205.565,283
205.590,354
205.615,415
205.640,450
205.665,459
205.690,459
205.715,462
205.740,469
205.765,473
205.790,468
205.815,456
205.840,439
205.865,418
205.890,392
205.915,362
205.940,327
205.965,291
205.990,255
206.015,220
206.040,185
206.065,148
206.090,111
206.115,73
206.140,39
206.165,6
206.190,-29
206.215,-69
206.240,-110
206.265,-146
206.290,-180
206.315,-221
206.340,-275
206.365,-325
206.390,-334
206.415,-276
206.440,-154
206.465,-12
206.490,103
206.515,178
206.540,227
206.565,278
206.590,337
206.615,390
206.640,419
206.665,423
206.690,416
206.715,409
206.740,407
206.765,405
206.790,401
206.815,399
206.840,397
206.865,391
206.890,370
206.915,331
206.940,276
206.965,215
206.990,162
207.015,131
207.040,124
207.065,135
207.090,148
207.115,150
207.140,135
207.165,106
207.190,67
207.215,21
207.240,-26
207.265,-69
207.290,-106
207.315,-150
207.340,-212
207.365,-284
207.390,-327
207.415,-297
207.440,-184
207.465,-26
207.490,113
207.515,199
207.540,244
207.565,284
207.590,337
207.615,392
207.640,426
207.665,433
207.690,430
207.715,434
207.740,445
207.765,453
207.790,451
207.815,442
207.840,428
207.865,407
207.890,379
207.915,347
207.940,320
207.965,302
207.990,285
208.015,259
208.040,223
208.065,185
208.090,151
208.115,119
208.140,83
208.165,43
208.190,5
208.215,-28
208.240,-61
208.265,-97
208.290,-134
208.315,-169
208.340,-205
208.365,-251
208.390,-304
208.415,-337
208.440,-313
208.465,-219
208.490,-85
208.515,38
208.540,124
208.565,178
208.590,233
208.615,302
208.640,373
208.665,419
208.690,434
208.715,431
208.740,433
208.765,446
208.790,460
208.815,464
208.840,455
208.865,439
208.890,419
208.915,398
208.940,374
208.965,349
208.990,321
209.015,292
209.040,261
209.065,230
209.090,200
209.115,170
209.140,137
209.165,102
209.190,70
209.215,42
209.240,12
209.265,-24
209.290,-63
209.315,-97
209.340,-126
209.365,-161
209.390,-211
209.415,-262
209.440,-280
209.465,-232
209.490,-122
209.515,4
209.540,105
209.565,164
209.590,204
209.615,251
209.640,306
209.665,351
209.690,367
209.715,363
209.740,358
209.765,368
209.790,384
209.815,392
209.840,386
209.865,370
209.890,352
209.915,335
209.940,315
209.965,290
209.990,259
210.015,225
210.040,189
210.065,156
210.090,129
210.115,106
210.140,79
210.165,43
210.190,3
210.215,-34
210.240,-68
210.265,-108
210.290,-159
210.315,-204
210.340,-208
210.365,-148
210.390,-36
210.415,83
210.440,169
210.465,218
210.490,253
210.515,298
210.540,351
210.565,388
210.590,396
210.615,386
210.640,380
210.665,388
210.690,401
210.715,405
210.740,394
210.765,378
210.790,363
210.815,345
210.840,317
210.865,283
210.890,250
210.915,220
210.940,189
210.965,149
210.990,104
211.015,65
211.040,37
211.065,14
211.090,-14
211.115,-51
211.140,-87
211.165,-119
211.190,-154
211.215,-208
211.240,-270
211.265,-308
211.290,-284
211.315,-191
211.340,-62
211.365,55
211.390,141
211.415,208
211.440,282
211.465,366
211.490,435
211.515,462
211.540,441
211.565,394
211.590,349
211.615,321
211.640,310
211.665,305
211.690,301
211.715,298
211.740,297
211.765,299
211.790,308
211.815,322
211.840,338
211.865,344
211.890,327
211.915,285
211.940,227
211.965,170
211.990,128
212.015,100
212.040,77
212.065,43
212.090,-3
212.115,-50
212.140,-83
212.165,-101
212.190,-127
212.215,-180
212.240,-256
212.265,-320
212.290,-327
212.315,-264
212.340,-160
212.365,-60
212.390,13
212.415,75
212.440,154
212.465,261
212.490,376
212.515,468
212.540,522
212.565,548
212.590,559
212.615,567
212.640,570
212.665,567
212.690,558
212.715,544
212.740,525
212.765,502
212.790,476
212.815,451
212.840,418
212.865,368
212.890,294
212.915,203
212.940,112
212.965,34
212.990,-28
213.015,-80
213.040,-125
213.065,-161
213.090,-187
213.115,-207
213.140,-218
213.165,-214
213.190,-193
213.215,-169
213.240,-168
213.265,-203
213.290,-251
213.315,-266
213.340,-210
213.365,-91
213.390,44
213.415,148
213.440,209
213.465,248
213.490,293
213.515,350
213.540,400
213.565,424
213.590,423
213.615,413
213.640,410
213.665,419
213.690,433
213.715,444
213.740,448
213.765,442
213.790,428
213.815,411
213.840,394
213.865,375
213.890,343
213.915,292
213.940,228
213.965,166
213.990,120
214.015,93
214.040,77
214.065,63
214.090,47
214.115,31
214.140,11
214.165,-17
214.190,-54
214.215,-90
214.240,-116
214.265,-138
214.290,-171
214.315,-220
214.340,-262
214.365,-258
214.390,-188
214.415,-68
214.440,55
214.465,146
214.490,204
214.515,254
214.540,316
214.565,384
214.590,435
214.615,457
214.640,454
214.665,444
214.690,435
214.715,426
214.740,413
214.765,396
214.790,380
214.815,367
214.840,354
214.865,340
214.890,326
214.915,308
214.940,279
214.965,233
214.990,177
215.015,129
215.040,102
215.065,96
215.090,92
215.115,78
215.140,52
215.165,25
215.190,0
215.215,-27
215.240,-61
215.265,-94
215.290,-116
215.315,-132
215.340,-159
215.365,-209
215.390,-265
215.415,-284
215.440,-232
215.465,-116
215.490,17
215.515,122
215.540,185
215.565,229
215.590,279
215.615,337
215.640,389
215.665,418
215.690,429
215.715,433
215.740,440
215.765,450
215.790,460
215.815,472
215.840,488
215.865,497
215.890,486
215.915,454
215.940,412
215.965,380
215.990,360
216.015,337
216.040,293
216.065,226
216.090,149
216.115,75
216.140,11
216.165,-46
216.190,-99
216.215,-140
216.240,-168
216.265,-185
216.290,-194
216.315,-195
216.340,-187
216.365,-176
216.390,-178
216.415,-200
216.440,-225
216.465,-215
216.490,-140
216.515,-12
216.540,121
216.565,220
216.590,273
216.615,309
216.640,354
216.665,411
216.690,459
216.715,480
216.740,473
216.765,454
216.790,438
216.815,426
216.840,413
216.865,395
216.890,372
216.915,350
216.940,333
216.965,323
216.990,315
217.015,303
217.040,280
217.065,250
217.090,222
217.115,202
217.140,186
217.165,162
217.190,124
217.215,76
217.240,32
217.265,-4
217.290,-39
217.315,-82
217.340,-129
217.365,-170
217.390,-202
217.415,-232
217.440,-266
217.465,-287
217.490,-267
217.515,-190
217.540,-72
217.565,42
217.590,121
217.615,164
217.640,199
217.665,248
217.690,314
217.715,376
217.740,419
217.765,441
217.790,450
217.815,455
217.840,456
217.865,450
217.890,435
217.915,411
217.940,385
217.965,363
217.990,350
218.015,341
218.040,329
218.065,309
218.090,282
218.115,253
218.140,223
218.165,190
218.190,154
218.215,116
218.240,83
218.265,54
218.290,20
218.315,-22
218.340,-66
218.365,-102
218.390,-134
218.415,-176
218.440,-235
218.465,-287
218.490,-289
218.515,-213
218.540,-78
218.565,61
218.590,156
218.615,199
218.640,220
218.665,251
218.690,297
218.715,338
218.740,359
218.765,358
218.790,352
218.815,350
218.840,356
218.865,365
218.890,373
218.915,375
218.940,367
218.965,351
218.990,330
219.015,313
219.040,298
219.065,283
219.090,261
219.115,229
219.140,191
219.165,151
219.190,113
219.215,75
219.240,37
219.265,-1
219.290,-38
219.315,-71
219.340,-95
219.365,-114
219.390,-138
219.415,-179
219.440,-234
219.465,-274
219.490,-259
219.515,-173
219.540,-42
219.565,84
219.590,172
219.615,225
219.640,272
219.665,333
219.690,400
219.715,446
219.740,458
219.765,449
219.790,445
219.815,455
219.840,472
219.865,480
219.890,476
219.915,463
219.940,449
219.965,434
219.990,413
220.015,386
220.040,356
220.065,326
220.090,293
220.115,247
220.140,186
220.165,115
220.190,49
220.215,-3
220.240,-45
220.265,-84
220.290,-124
220.315,-164
220.340,-198
220.365,-229
220.390,-268
220.415,-318
220.440,-365
220.465,-375
220.490,-319
220.515,-200
220.540,-58
220.565,62
220.590,140
220.615,191
220.640,244
220.665,311
220.690,374
220.715,411
220.740,416
220.765,409
220.790,412
220.815,431
220.840,451
220.865,457
220.890,447
220.915,430
220.940,414
220.965,395
220.990,369
221.015,337
221.040,303
221.065,274
221.090,246
221.115,214
221.140,176
221.165,139
221.190,105
221.215,70
221.240,29
221.265,-13
221.290,-50
221.315,-79
221.340,-110
221.365,-158
221.390,-218
221.415,-259
221.440,-245
221.465,-166
221.490,-48
221.515,60
221.540,134
221.565,178
221.590,217
221.615,266
221.640,315
221.665,345
221.690,350
221.715,343
221.740,344
221.765,355
221.790,366
221.815,364
221.840,347
221.865,328
221.890,315
221.915,304
221.940,285
221.965,255
221.990,219
222.015,187
222.040,160
222.065,132
222.090,100
222.115,68
222.140,41
222.165,15
222.190,-24
222.215,-80
222.240,-136
222.265,-156
222.290,-115
222.315,-22
222.340,85
222.365,170
222.390,219
222.415,249
222.440,281
222.465,318
222.490,345
222.515,352
222.540,342
222.565,334
222.590,337
222.615,348
222.640,351
222.665,341
222.690,320
222.715,299
222.740,279
222.765,256
222.790,224
222.815,186
222.840,149
222.865,119
222.890,91
222.915,60
222.940,21
222.965,-17
222.990,-49
223.015,-75
223.040,-105
223.065,-153
223.090,-214
223.115,-260
223.140,-258
223.165,-193
223.190,-85
223.215,25
223.240,106
223.265,156
223.290,200
223.315,259
223.340,329
223.365,388
223.390,417
223.415,418
223.440,410
223.465,410
223.490,418
223.515,425
223.540,421
223.565,407
223.590,387
223.615,363
223.640,333
223.665,297
223.690,259
223.715,225
223.740,191
223.765,156
223.790,119
223.815,82
223.840,50
223.865,17
223.890,-20
223.915,-61
223.940,-100
223.965,-134
223.990,-173
224.015,-226
224.040,-284
224.065,-317
224.090,-289
224.115,-193
224.140,-61
224.165,59
224.190,139
224.215,191
224.240,242
224.265,309
224.290,382
224.315,436
224.340,460
224.365,464
224.390,466
224.415,475
224.440,486
224.465,488
224.490,481
224.515,467
224.540,449
224.565,426
224.590,396
224.615,362
224.640,330
224.665,300
224.690,272
224.715,242
224.740,212
224.765,183
224.790,154
224.815,120
224.840,81
224.865,38
224.890,-4
224.915,-48
224.940,-95
224.965,-143
224.990,-183
225.015,-215
225.040,-248
225.065,-295
225.090,-354
225.115,-394
225.140,-377
225.165,-288
225.190,-149
225.215,-10
225.240,90
225.265,153
225.290,205
225.315,269
225.340,345
225.365,410
225.390,447
225.415,458
225.440,461
225.465,470
225.490,486
225.515,498
225.540,499
225.565,491
225.590,478
225.615,461
225.640,436
225.665,406
225.690,374
225.715,347
225.740,324
225.765,301
225.790,274
225.815,246
225.840,216
225.865,184
225.890,147
225.915,107
225.940,69
225.965,38
225.990,10
226.015,-22
226.040,-63
226.065,-104
226.090,-137
226.115,-165
226.140,-204
226.165,-260
226.190,-311
226.215,-320
226.240,-260
226.265,-142
226.290,-11
226.315,90
226.340,153
226.365,196
226.390,245
226.415,303
226.440,353
226.465,380
226.490,383
226.515,380
226.540,382
226.565,392
226.590,401
226.615,398
226.640,384
226.665,363
226.690,342
226.715,323
226.740,306
226.765,288
226.790,270
226.815,249
226.840,228
226.865,205
226.890,182
226.915,159
226.940,137
226.965,117
226.990,96
227.015,70
227.040,41
227.065,12
227.090,-12
227.115,-34
227.140,-60
227.165,-91
227.190,-122
227.215,-147
227.240,-170
227.265,-202
227.290,-248
227.315,-286
227.340,-281
227.365,-207
227.390,-79
227.415,57
227.440,161
227.465,226
227.490,275
227.515,334
227.540,403
227.565,462
227.590,495
227.615,509
227.640,520
227.665,539
227.690,562
227.715,577
227.740,580
227.765,573
227.790,558
227.815,536
227.840,508
227.865,474
227.890,437
227.915,397
227.940,351
227.965,300
227.990,248
228.015,198
228.040,148
228.065,96
228.090,44
228.115,-4
228.140,-50
228.165,-97
228.190,-147
228.215,-189
228.240,-211
228.265,-216
228.290,-229
228.315,-271
228.340,-332
228.365,-367
228.390,-330
228.415,-221
228.440,-84
228.465,25
228.490,91
228.515,133
228.540,182
228.565,242
228.590,293
228.615,316
228.640,317
228.665,318
228.690,332
228.715,355
228.740,373
228.765,381
228.790,381
228.815,378
228.840,369
228.865,353
228.890,328
228.915,300
228.940,273
228.965,247
228.990,221
229.015,195
229.040,166
229.065,128
229.090,83
229.115,37
229.140,0
229.165,-32
229.190,-72
229.215,-129
229.240,-190
229.265,-214
229.290,-172
229.315,-72
229.340,42
229.365,127
229.390,173
229.415,206
229.440,249
229.465,301
229.490,340
229.515,350
229.540,342
229.565,336
229.590,343
229.615,357
229.640,364
229.665,362
229.690,351
229.715,336
229.740,314
229.765,285
229.790,251
229.815,213
229.840,168
229.865,113
229.890,51
229.915,-5
229.940,-53
229.965,-100
229.990,-154
230.015,-211
230.040,-254
230.065,-272
230.090,-275
230.115,-286
230.140,-306
230.165,-304
230.190,-240
230.215,-103
230.240,76
230.265,246
230.290,380
230.315,484
230.340,579
230.365,672
230.390,750
230.415,800
230.440,825
230.465,842
230.490,859
230.515,876
230.540,883
230.565,876
230.590,853
230.615,813
230.640,755
230.665,681
230.690,593
230.715,488
230.740,362
230.765,215
230.790,64
230.815,-60
230.840,-140
230.865,-188
230.890,-233
230.915,-300
230.940,-388
230.965,-481
230.990,-569
231.015,-655
231.040,-735
231.065,-783
231.090,-769
231.115,-685
231.140,-561
231.165,-443
231.190,-356
231.215,-284
231.240,-199
231.265,-86
231.290,41
231.315,159
231.340,256
231.365,334
231.390,403
231.415,462
231.440,506
231.465,530
231.490,536
231.515,530
231.540,515
231.565,491
231.590,458
231.615,420
231.640,381
231.665,346
231.690,311
231.715,277
231.740,243
231.765,211
231.790,182
231.815,149
231.840,105
231.865,50
231.890,0
231.915,-17
231.940,15
231.965,90
231.990,172
232.015,230
232.040,259
232.065,284
232.090,324
232.115,375
232.140,410
232.165,410
232.190,384
232.215,359
232.240,354
232.265,360
232.290,360
232.315,350
232.340,337
232.365,327
232.390,315
232.415,289
232.440,251
232.465,210
232.490,172
232.515,134
232.540,89
232.565,43
232.590,10
232.615,-8
232.640,-29
232.665,-73
232.690,-135
232.715,-199
232.740,-258
232.765,-336
232.790,-457
232.815,-595
232.840,-671
232.865,-607
232.890,-399
232.915,-128
232.940,94
232.965,207
232.990,232
233.015,231
233.040,247
233.065,286
233.090,329
233.115,365
233.140,399
233.165,432
233.190,463
233.215,484
233.240,499
233.265,516
233.290,536
233.315,554
233.340,559
233.365,552
233.390,538
233.415,525
233.440,510
233.465,489
233.490,458
233.515,418
233.540,374
233.565,329
233.590,279
233.615,220
233.640,150
233.665,74
233.690,0
233.715,-62
233.740,-121
233.765,-182
233.790,-243
233.815,-280
233.840,-266
233.865,-191
233.890,-79
233.915,26
233.940,98
233.965,136
233.990,167
234.015,207
234.040,250
234.065,280
234.090,286
234.115,278
234.140,272
234.165,273
234.190,280
234.215,286
234.240,289
234.265,289
234.290,285
234.315,273
234.340,255
234.365,238
234.390,226
234.415,218
234.440,210
234.465,201
234.490,195
234.515,197
234.540,202
234.565,202
234.590,185
234.615,153
234.640,113
234.665,75
234.690,41
234.715,1
234.740,-53
234.765,-122
234.790,-186
234.815,-215
234.840,-189
234.865,-116
234.890,-29
234.915,38
234.940,76
234.965,100
234.990,132
235.015,174
235.040,209
235.065,221
235.090,213
235.115,205
235.140,211
235.165,228
235.190,241
235.215,242
235.240,234
235.265,226
235.290,218
235.315,205
235.340,187
235.365,167
235.390,152
235.415,137
235.440,116
235.465,90
235.490,65
235.515,46
235.540,26
235.565,-3
235.590,-35
235.615,-46
235.640,-13
235.665,61
235.690,149
235.715,219
235.740,261
235.765,287
235.790,311
235.815,334
235.840,344
235.865,339
235.890,331
235.915,333
235.940,347
235.965,360
235.990,360
236.015,350
236.040,339
236.065,334
236.090,324
236.115,298
236.140,253
236.165,203
236.190,164
236.215,136
236.240,109
236.265,70
236.290,21
236.315,-20
236.340,-32
236.365,-6
236.390,49
236.415,114
236.440,167
236.465,200
236.490,217
236.515,225
236.540,228
236.565,229
236.590,232
236.615,241
236.640,253
236.665,260
236.690,250
236.715,225
236.740,194
236.765,171
236.790,153
236.815,129
236.840,89
236.865,39
236.890,-2
236.915,-29
236.940,-54
236.965,-96
236.990,-154
237.015,-199
237.040,-196
237.065,-134
237.090,-38
237.115,54
237.140,125
237.165,180
237.190,236
237.215,297
237.240,347
237.265,372
237.290,371
237.315,360
237.340,354
237.365,358
237.390,368
237.415,372
237.440,364
237.465,342
237.490,310
237.515,275
237.540,241
237.565,207
237.590,166
237.615,117
237.640,66
237.665,25
237.690,-4
237.715,-36
237.740,-85
237.765,-147
237.790,-190
237.815,-178
237.840,-102
237.865,10
237.890,113
237.915,181
237.940,224
237.965,267
237.990,322
238.015,376
238.040,408
238.065,411
238.090,396
238.115,383
238.140,379
238.165,379
238.190,371
238.215,353
238.240,325
238.265,289
238.290,246
238.315,200
238.340,153
238.365,108
238.390,65
238.415,22
238.440,-16
238.465,-52
238.490,-89
238.515,-137
238.540,-196
238.565,-251
238.590,-269
238.615,-226
238.640,-127
238.665,-6
238.690,97
238.715,166
238.740,216
238.765,270
238.790,335
238.815,397
238.840,434
238.865,439
238.890,427
238.915,416
238.940,415
238.965,415
238.990,406
239.015,385
239.040,357
239.065,331
239.090,303
239.115,268
239.140,225
239.165,180
239.190,141
239.215,106
239.240,71
239.265,31
239.290,-10
239.315,-47
239.340,-81
239.365,-122
239.390,-178
239.415,-237
239.440,-267
239.465,-238
239.490,-149
239.515,-31
239.540,71
239.565,139
239.590,185
239.615,236
239.640,302
239.665,368
239.690,407
239.715,412
239.740,398
239.765,388
239.790,391
239.815,395
239.840,389
239.865,369
239.890,343
239.915,318
239.940,290
239.965,254
239.990,211
240.015,169
240.040,131
240.065,94
240.090,50
240.115,5
240.140,-33
240.165,-64
240.190,-96
240.215,-145
240.240,-206
240.265,-249
240.290,-241
240.315,-168
240.340,-57
240.365,50
240.390,128
240.415,180
240.440,228
240.465,287
240.490,354
240.515,410
240.540,440
240.565,446
240.590,440
240.615,434
240.640,427
240.665,414
240.690,391
240.715,363
240.740,335
240.765,310
240.790,282
240.815,244
240.840,198
240.865,152
240.890,115
240.915,84
240.940,52
240.965,13
240.990,-27
241.015,-68
241.040,-111
241.065,-164
241.090,-221
241.115,-253
241.140,-230
241.165,-145
241.190,-28
241.215,76
241.240,145
241.265,190
241.290,237
241.315,298
241.340,357
241.365,392
241.390,398
241.415,391
241.440,388
241.465,394
241.490,400
241.515,397
241.540,382
241.565,359
241.590,333
241.615,305
241.640,277
241.665,248
241.690,219
241.715,188
241.740,153
241.765,119
241.790,90
241.815,60
241.840,26
241.865,-13
241.890,-53
241.915,-88
241.940,-126
241.965,-175
241.990,-229
242.015,-260
242.040,-237
242.065,-152
242.090,-37
242.115,65
242.140,134
242.165,182
242.190,234
242.215,297
242.240,356
242.265,389
242.290,395
242.315,389
242.340,387
242.365,394
242.390,401
242.415,397
242.440,381
242.465,357
242.490,332
242.515,305
242.540,274
242.565,238
242.590,199
242.615,163
242.640,130
242.665,100
242.690,66
242.715,28
242.740,-10
242.765,-44
242.790,-75
242.815,-114
242.840,-167
242.865,-219
242.890,-237
242.915,-196
242.940,-102
242.965,9
242.990,100
243.015,160
243.040,206
243.065,258
243.090,316
243.115,360
243.140,377
243.165,375
243.190,372
243.215,379
243.240,394
243.265,403
243.290,400
243.315,388
243.340,371
243.365,351
243.390,327
243.415,300
243.440,269
243.465,237
243.490,208
243.515,183
243.540,161
243.565,137
243.590,106
243.615,71
243.640,38
243.665,8
243.690,-23
243.715,-67
243.740,-121
243.765,-158
243.790,-149
243.815,-84
243.840,15
243.865,110
243.890,178
243.915,224
243.940,266
243.965,310
243.990,340
244.015,336
244.040,299
244.065,252
244.090,222
244.115,218
244.140,232
244.165,250
244.190,261
244.215,264
244.240,261
244.265,253
244.290,238
244.315,214
244.340,181
244.365,145
244.390,116
244.415,98
244.440,87
244.465,71
244.490,46
244.515,15
244.540,-11
244.565,-34
244.590,-65
244.615,-113
244.640,-162
244.665,-177
244.690,-132
244.715,-34
244.740,75
244.765,158
244.790,206
244.815,237
244.840,271
244.865,310
244.890,337
244.915,341
244.940,329
244.965,317
244.990,316
245.015,322
245.040,326
245.065,320
245.090,303
245.115,276
245.140,244
245.165,212
245.190,184
245.215,157
245.240,126
245.265,93
245.290,62
245.315,38
245.340,12
245.365,-26
245.390,-77
245.415,-114
245.440,-106
245.465,-40
245.490,58
245.515,150
245.540,209
245.565,244
245.590,277
245.615,316
245.640,348
245.665,358
245.690,345
245.715,328
245.740,321
245.765,323
245.790,323
245.815,313
245.840,295
245.865,275
245.890,253
245.915,224
245.940,189
245.965,151
245.990,113
246.015,76
246.040,38
246.065,0
246.090,-36
246.115,-76
246.140,-123
246.165,-168
246.190,-185
246.215,-148
246.240,-59
246.265,48
246.290,138
246.315,194
246.340,232
246.365,276
246.390,328
246.415,369
246.440,380
246.465,367
246.490,352
246.515,351
246.540,358
246.565,358
246.590,344
246.615,322
246.640,300
246.665,276
246.690,244
246.715,205
246.740,167
246.765,134
246.790,102
246.815,65
246.840,25
246.865,-11
246.890,-44
246.915,-83
246.940,-137
246.965,-191
246.990,-209
247.015,-166
247.040,-68
247.065,42
247.090,130
247.115,186
247.140,229
247.165,278
247.190,327
247.215,359
247.240,363
247.265,350
247.290,339
247.315,338
247.340,342
247.365,340
247.390,327
247.415,306
247.440,281
247.465,251
247.490,216
247.515,180
247.540,144
247.565,107
247.590,67
247.615,28
247.640,-6
247.665,-38
247.690,-77
247.715,-130
247.740,-181
247.765,-197
247.790,-150
247.815,-50
247.840,61
247.865,147
247.890,198
247.915,236
247.940,285
247.965,341
247.990,380
248.015,388
248.040,373
248.065,361
248.090,363
248.115,371
248.140,370
248.165,354
248.190,330
248.215,306
248.240,279
248.265,245
248.290,205
248.315,166
248.340,132
248.365,99
248.390,61
248.415,19
248.440,-15
248.465,-42
248.490,-73
248.515,-121
248.540,-179
248.565,-213
248.590,-190
248.615,-108
248.640,1
248.665,97
248.690,160
248.715,206
248.740,255
248.765,312
248.790,360
248.815,383
248.840,382
248.865,375
248.890,372
248.915,370
248.940,357
248.965,331
248.990,304
249.015,286
249.040,275
249.065,255
249.090,220
249.115,176
249.140,138
249.165,110
249.190,83
249.215,51
249.240,16
249.265,-11
249.290,-31
249.315,-58
249.340,-104
249.365,-161
249.390,-196
249.415,-179
249.440,-107
249.465,-6
249.490,86
249.515,154
249.540,205
249.565,254
249.590,307
249.615,351
249.640,371
249.665,367
249.690,352
249.715,347
249.740,356
249.765,370
249.790,376
249.815,368
249.840,349
249.865,330
249.890,310
249.915,284
249.940,246
249.965,199
249.990,153
250.015,115
250.040,80
250.065,44
250.090,7
250.115,-26
250.140,-55
250.165,-91
250.190,-143
250.215,-201
250.240,-232
250.265,-206
250.290,-123
250.315,-15
250.340,78
250.365,146
250.390,201
250.415,265
250.440,333
250.465,388
250.490,412
250.515,411
250.540,404
250.565,404
250.590,406
250.615,401
250.640,383
250.665,358
250.690,332
250.715,306
250.740,277
250.765,244
250.790,208
250.815,173
250.840,141
250.865,110
250.890,79
250.915,46
250.940,11
250.965,-22
250.990,-51
251.015,-76
251.040,-107
251.065,-151
251.090,-199
251.115,-223
251.140,-195
251.165,-113
251.190,-5
251.215,89
251.240,152
251.265,195
251.290,242
251.315,300
251.340,352
251.365,382
251.390,387
251.415,382
251.440,383
251.465,391
251.490,397
251.515,394
251.540,382
251.565,365
251.590,347
251.615,326
251.640,299
251.665,266
251.690,228
251.715,190
251.740,158
251.765,131
251.790,105
251.815,75
251.840,39
251.865,4
251.890,-29
251.915,-67
251.940,-118
251.965,-177
251.990,-214
252.015,-197
252.040,-115
252.065,1
252.090,110
252.115,184
252.140,232
252.165,278
252.190,332
252.215,381
252.240,408
252.265,408
252.290,395
252.315,387
252.340,386
252.365,385
252.390,376
252.415,359
252.440,335
252.465,307
252.490,274
252.515,235
252.540,190
252.565,142
252.590,94
252.615,51
252.640,14
252.665,-20
252.690,-60
252.715,-110
252.740,-159
252.765,-198
252.790,-229
252.815,-266
252.840,-314
252.865,-352
252.890,-344
252.915,-264
252.940,-131
252.965,8
252.990,117
253.015,193
253.040,260
253.065,334
253.090,408
253.115,460
253.140,485
253.165,493
253.190,500
253.215,511
253.240,518
253.265,515
253.290,503
253.315,484
253.340,458
253.365,424
253.390,384
253.415,344
253.440,306
253.465,267
253.490,224
253.515,182
253.540,144
253.565,110
253.590,72
253.615,29
253.640,-14
253.665,-57
253.690,-104
253.715,-162
253.740,-223
253.765,-256
253.790,-228
253.815,-139
253.840,-25
253.865,68
253.890,125
253.915,163
253.940,208
253.965,261
253.990,302
254.015,316
254.040,309
254.065,302
254.090,308
254.115,321
254.140,326
254.165,320
254.190,307
254.215,291
254.240,270
254.265,239
254.290,202
254.315,167
254.340,134
254.365,101
254.390,67
254.415,31
254.440,-5
254.465,-46
254.490,-90
254.515,-123
254.540,-119
254.565,-63
254.590,28
254.615,120
254.640,185
254.665,228
254.690,271
254.715,325
254.740,375
254.765,397
254.790,385
254.815,360
254.840,346
254.865,349
254.890,353
254.915,342
254.940,318
254.965,292
254.990,269
255.015,241
255.040,203
255.065,158
255.090,118
255.115,86
255.140,54
255.165,14
255.190,-30
255.215,-68
255.240,-99
255.265,-136
255.290,-192
255.315,-252
255.340,-279
255.365,-240
255.390,-140
255.415,-18
255.440,83
255.465,150
255.490,202
255.515,259
255.540,323
255.565,375
255.590,399
255.615,397
255.640,387
255.665,386
255.690,395
255.715,402
255.740,398
255.765,380
255.790,355
255.815,327
255.840,296
255.865,259
255.890,217
255.915,173
255.940,134
255.965,99
255.990,65
256.015,31
256.040,-4
256.065,-36
256.090,-65
256.115,-101
256.140,-152
256.165,-213
256.190,-257
256.215,-248
256.240,-175
256.265,-58
256.290,58
256.315,144
256.340,204
256.365,261
256.390,331
256.415,402
256.440,450
256.465,463
256.490,456
256.515,451
256.540,456
256.565,462
256.590,455
256.615,435
256.640,411
256.665,388
256.690,361
256.715,324
256.740,280
256.765,241
256.790,209
256.815,180
256.840,144
256.865,102
256.890,61
256.915,25
256.940,-7
256.965,-42
256.990,-78
257.015,-109
257.040,-137
257.065,-178
257.090,-238
257.115,-299
257.140,-323
257.165,-279
257.190,-175
257.215,-51
257.240,48
257.265,116
257.290,170
257.315,231
257.340,299
257.365,358
257.390,390
257.415,399
257.440,399
257.465,402
257.490,410
257.515,415
257.540,413
257.565,400
257.590,378
257.615,351
257.640,318
257.665,282
257.690,244
257.715,207
257.740,173
257.765,141
257.790,109
257.815,74
257.840,36
257.865,0
257.890,-31
257.915,-66
257.940,-116
257.965,-176
257.990,-222
258.015,-218
258.040,-149
258.065,-37
258.090,72
258.115,148
258.140,197
258.165,244
258.190,306
258.215,370
258.240,411
258.265,420
258.290,412
258.315,406
258.340,408
258.365,408
258.390,396
258.415,375
258.440,354
258.465,333
258.490,308
258.515,275
258.540,236
258.565,198
258.590,164
258.615,131
258.640,100
258.665,69
258.690,38
258.715,3
258.740,-34
258.765,-73
258.790,-110
258.815,-148
258.840,-195
258.865,-249
258.890,-283
258.915,-262
258.940,-177
258.965,-55
258.990,58
259.015,135
259.040,187
259.065,241
259.090,310
259.115,376
259.140,415
259.165,423
259.190,417
259.215,417
259.240,428
259.265,437
259.290,432
259.315,417
259.340,395
259.365,369
259.390,339
259.415,304
259.440,268
259.465,234
259.490,200
259.515,162
259.540,122
259.565,87
259.590,56
259.615,24
259.640,-15
259.665,-58
259.690,-94
259.715,-126
259.740,-167
259.765,-223
259.790,-273
259.815,-278
259.840,-213
259.865,-96
259.890,25
259.915,113
259.940,169
259.965,219
259.990,282
260.015,349
260.040,397
260.065,414
260.090,411
260.115,408
260.140,411
260.165,414
260.190,409
260.215,396
260.240,379
260.265,361
260.290,337
260.315,307
260.340,273
260.365,240
260.390,207
260.415,173
260.440,138
260.465,106
260.490,75
260.515,41
260.540,4
260.565,-31
260.590,-63
260.615,-97
260.640,-142
260.665,-196
260.690,-235
260.715,-223
260.740,-149
260.765,-36
260.790,71
260.815,147
260.840,198
260.865,249
260.890,310
260.915,366
260.940,397
260.965,398
260.990,387
261.015,384
261.040,394
261.065,404
261.090,401
261.115,381
261.140,350
261.165,318
261.190,288
261.215,258
261.240,226
261.265,190
261.290,152
261.315,117
261.340,86
261.365,56
261.390,24
