df_hash,22ZHK4.TRV2GV
device,HZ2X61
project_hash,29R7
project_name,istanbul_aydin_university
person_hash,29R7.PCK3
person_label,v118
date_time_start,2026-03-10_17-31-48.958000_+03
date_time_start_unix,1773149508.958
date_time_end,2026-03-10_17-40-36.666000_+03
length_difference_noticed,no

time,ppg_ir,ppg_ambient,ppg_red
5.338,159142,169,198987
5.343,159132,172,198996
5.348,159138,171,198995
5.353,159148,170,198989
5.358,159152,169,199002
5.363,159150,169,199002
5.368,159180,169,199011
5.373,159170,171,199016
5.378,159171,170,199022
5.383,159170,170,199019
5.388,159174,169,199019
5.393,159168,174,199039
5.397,159183,172,199043
5.402,159198,171,199034
5.407,159174,170,199028
5.412,159180,169,199044
5.417,159193,171,199047
5.422,159184,170,199047
5.427,159197,169,199075
5.432,159202,169,199061
5.437,159215,173,199055
5.442,159221,171,199073
5.447,159222,170,199078
5.452,159215,170,199089
5.457,159226,169,199064
5.462,159226,169,199072
5.467,159226,170,199078
5.472,159244,169,199090
5.477,159242,174,199085
5.482,159240,172,199106
5.487,159256,172,199097
5.492,159261,171,199081
5.497,159257,170,199094
5.502,159276,169,199107
5.507,159265,169,199132
5.512,159280,175,199113
5.517,159263,170,199130
5.522,159264,169,199111
5.527,159263,169,199112
5.532,159253,173,199116
5.537,159235,173,199100
5.541,159223,172,199102
5.546,159218,171,199094
5.551,159200,170,199074
5.556,159196,170,199070
5.561,159174,169,199070
5.566,159171,173,199067
5.571,159164,172,199066
5.576,159147,172,199060
5.581,159139,171,199052
5.586,159133,171,199038
5.591,159125,171,199020
5.596,159116,171,199020
5.601,159108,170,199009
5.606,159098,170,199003
5.611,159084,170,198980
5.616,159079,171,199002
5.621,159066,170,199002
5.626,159056,170,198980
5.631,159060,169,198970
5.636,159066,169,198965
5.641,159051,173,198967
5.646,159043,173,198967
5.651,159036,171,198960
5.656,159025,171,198954
5.661,159029,173,198946
5.666,159016,173,198919
5.671,159014,171,198935
5.676,158996,172,198919
5.681,159000,170,198919
5.686,158992,170,198904
5.690,158984,169,198900
5.695,158982,169,198889
5.700,158976,173,198881
5.705,158950,172,198910
5.710,158954,169,198891
5.715,158942,174,198890
5.720,158953,172,198875
5.725,158940,172,198895
5.730,158937,171,198897
5.735,158952,170,198903
5.740,158961,169,198898
5.745,158951,169,198908
5.750,158966,169,198929
5.755,158974,173,198932
5.760,158963,169,198951
5.765,158956,173,198959
5.770,158974,171,198965
5.775,158980,171,198984
5.780,158974,170,198995
5.785,158990,169,198997
5.790,158993,172,199000
5.795,159006,171,199016
5.800,159010,170,199047
5.805,159020,170,199040
5.810,159020,170,199046
5.815,159005,170,199039
5.820,159000,169,199040
5.825,159010,173,199045
5.830,158995,172,199041
5.834,158996,171,199022
5.839,158992,170,199025
5.844,158996,170,199025
5.849,159008,169,199013
5.854,158981,169,199038
5.859,158977,171,199023
5.864,158987,170,199030
5.869,158994,169,199004
5.874,158984,169,199023
5.879,158991,173,199004
5.884,158984,172,198998
5.889,158985,171,199006
5.894,158982,170,198993
5.899,158975,170,198996
5.904,158968,170,198995
5.909,158979,172,198982
5.914,158977,171,198962
5.919,158972,170,198977
5.924,158963,170,198971
5.929,158968,169,198973
5.934,158994,169,198965
5.939,158993,172,198983
5.944,158996,172,198980
5.949,158986,171,198986
5.954,158999,173,198997
5.959,159006,171,198994
5.964,159004,171,198998
5.969,159008,170,198999
5.974,159014,169,199021
5.978,159011,169,199003
5.983,159019,173,199018
5.988,159033,172,198998
5.993,159032,171,199025
5.998,159047,170,199021
6.003,159042,172,199038
6.008,159044,171,199034
6.013,159030,171,199039
6.018,159049,170,199037
6.023,159051,170,199028
6.028,159042,169,199025
6.033,159061,174,199032
6.038,159037,173,199019
6.043,159044,172,199024
6.048,159054,171,199010
6.053,159035,172,199030
6.058,159038,172,199015
6.063,159061,171,199019
6.068,159050,170,199019
6.073,159049,170,199024
6.078,159065,169,199025
6.083,159051,174,199020
6.088,159063,173,199007
6.093,159061,171,199013
6.098,159066,171,199014
6.103,159064,172,199004
6.108,159051,171,198995
6.113,159062,170,198991
6.118,159060,170,198989
6.123,159065,169,198995
6.127,159063,169,198980
6.132,159056,173,198976
6.137,159060,172,198997
6.142,159053,171,198974
6.147,159066,172,198940
6.152,159063,171,198966
6.157,159066,171,198974
6.162,159070,170,198977
6.167,159082,170,198965
6.172,159058,169,198959
6.177,159073,169,198949
6.182,159067,173,198961
6.187,159058,171,198958
6.192,159073,171,198960
6.197,159062,173,198939
6.202,159063,173,198943
6.207,159074,172,198940
6.212,159068,171,198943
6.217,159077,170,198925
6.222,159075,169,198925
6.227,159070,173,198904
6.232,159080,172,198922
6.237,159077,171,198903
6.242,159071,170,198914
6.247,159073,172,198923
6.252,159093,171,198929
6.257,159080,170,198903
6.262,159088,170,198909
6.267,159103,169,198906
6.271,159078,173,198916
6.276,159110,173,198897
6.281,159097,172,198919
6.286,159105,172,198929
6.291,159109,171,198904
6.296,159099,174,198932
6.301,159099,173,198928
6.306,159117,172,198918
6.311,159107,171,198922
6.316,159110,170,198933
6.321,159129,170,198917
6.326,159128,169,198929
6.331,159118,169,198929
6.336,159138,169,198929
6.341,159134,172,198932
6.346,159152,169,198944
6.351,159154,169,198933
6.356,159141,173,198941
6.361,159173,172,198952
6.366,159155,171,198950
6.371,159147,170,198952
6.376,159159,170,198946
6.381,159169,169,198937
6.386,159162,169,198947
6.391,159175,169,198943
6.396,159174,170,198951
6.401,159176,169,198956
6.406,159178,169,198968
6.411,159183,173,198959
6.416,159178,173,198950
6.420,159196,172,198957
6.425,159186,171,198966
6.430,159187,170,198973
6.435,159200,170,198974
6.440,159217,175,198981
6.445,159218,170,198973
6.450,159223,169,198984
6.455,159218,169,198986
6.460,159234,173,198981
6.465,159234,172,198978
6.470,159242,171,198999
6.475,159236,170,198995
6.480,159225,169,199005
6.485,159243,169,199006
6.490,159259,171,199010
6.495,159241,174,198998
6.500,159216,172,198977
6.505,159214,172,198980
6.510,159197,171,198967
6.515,159204,170,198946
6.520,159174,170,198945
6.525,159169,170,198936
6.530,159145,169,198904
6.535,159158,169,198906
6.540,159146,170,198910
6.545,159136,170,198885
6.550,159119,169,198875
6.555,159113,169,198880
6.560,159117,173,198872
6.564,159098,172,198860
6.569,159105,172,198854
6.574,159084,172,198857
6.579,159095,171,198846
6.584,159080,171,198837
6.589,159085,173,198854
6.594,159072,172,198851
6.599,159071,172,198831
6.604,159080,172,198833
6.609,159086,170,198841
6.614,159082,170,198831
6.619,159072,170,198822
6.624,159070,169,198834
6.629,159066,174,198827
6.634,159047,173,198824
6.639,159063,170,198831
6.644,159059,170,198828
6.649,159058,169,198821
6.654,159054,169,198812
6.659,159069,174,198813
6.664,159051,173,198818
6.669,159061,173,198820
6.674,159043,172,198827
6.679,159054,172,198816
6.684,159049,173,198803
6.689,159032,169,198804
6.694,159028,169,198791
6.699,159028,174,198799
6.704,159023,174,198798
6.709,159033,174,198804
6.713,159021,173,198782
6.718,159029,174,198791
6.723,159023,173,198795
6.728,159022,172,198787
6.733,159013,169,198801
6.738,159017,169,198799
6.743,159029,169,198783
6.748,159027,169,198789
6.753,159023,174,198809
6.758,159044,173,198806
6.763,159035,173,198812
6.768,159035,172,198791
6.773,159019,172,198790
6.778,159034,171,198814
6.783,159036,173,198797
6.788,159024,172,198799
6.793,159025,172,198809
6.798,159037,172,198796
6.803,159038,171,198806
6.808,159033,172,198783
6.813,159036,171,198801
6.818,159029,170,198809
6.823,159025,170,198797
6.828,159025,169,198786
6.833,159043,171,198795
6.838,159032,171,198790
6.843,159044,171,198811
6.848,159024,171,198787
6.853,159033,171,198791
6.857,159034,171,198783
6.862,159020,171,198796
6.867,159015,170,198796
6.872,159021,171,198789
6.877,159012,169,198781
6.882,159016,172,198787
6.887,159018,172,198789
6.892,159035,171,198776
6.897,159018,172,198783
6.902,159015,171,198782
6.907,159024,171,198796
6.912,159022,171,198777
6.917,159003,170,198795
6.922,159032,170,198785
6.927,159035,169,198796
6.932,159037,169,198804
6.937,159032,174,198799
6.942,159038,174,198798
6.947,159044,173,198801
6.952,159054,172,198817
6.957,159045,172,198823
6.962,159044,172,198829
6.967,159053,171,198825
6.972,159062,171,198815
6.977,159067,178,198833
6.982,159058,173,198827
6.987,159054,173,198827
6.992,159054,172,198836
6.997,159056,172,198844
7.002,159062,171,198837
7.006,159078,171,198840
7.011,159073,170,198844
7.016,159080,170,198862
7.021,159075,170,198852
7.026,159078,172,198864
7.031,159081,171,198865
7.036,159093,171,198862
7.041,159102,170,198870
7.046,159091,170,198885
7.051,159091,170,198896
7.056,159091,170,198878
7.061,159113,169,198879
7.066,159106,169,198881
7.071,159116,169,198891
7.076,159128,172,198892
7.081,159138,172,198902
7.086,159131,172,198912
7.091,159137,171,198896
7.096,159139,171,198912
7.101,159143,171,198901
7.106,159145,171,198923
7.111,159141,171,198923
7.116,159149,170,198935
7.121,159136,170,198916
7.126,159154,169,198933
7.131,159148,173,198946
7.136,159158,172,198942
7.141,159173,171,198944
7.146,159166,171,198947
7.150,159191,169,198956
7.155,159164,169,198966
7.160,159183,173,198960
7.165,159183,172,198963
7.170,159186,171,198971
7.175,159199,170,198973
7.180,159201,170,198987
7.185,159213,169,198998
7.190,159209,169,198997
7.195,159205,173,198991
7.200,159218,173,198992
7.205,159226,173,199006
7.210,159235,172,199027
7.215,159246,172,199026
7.220,159243,174,199073
7.225,159239,169,199038
7.230,159233,173,199038
7.235,159257,173,199040
7.240,159251,173,199051
7.245,159258,172,199063
7.250,159270,172,199071
7.255,159286,172,199073
7.260,159287,172,199079
7.265,159289,171,199085
7.270,159273,172,199093
7.275,159285,172,199087
7.280,159289,171,199094
7.285,159286,171,199116
7.290,159300,170,199115
7.294,159306,170,199118
7.299,159309,170,199138
7.304,159307,169,199135
7.309,159333,169,199118
7.314,159315,174,199127
7.319,159329,171,199142
7.324,159316,173,199152
7.329,159331,173,199146
7.334,159354,172,199156
7.339,159337,172,199140
7.344,159350,172,199164
7.349,159344,172,199155
7.354,159342,171,199150
7.359,159327,171,199138
7.364,159323,171,199154
7.369,159322,173,199142
7.374,159324,173,199125
7.379,159298,173,199138
7.384,159276,172,199118
7.389,159266,172,199121
7.394,159268,172,199116
7.399,159249,171,199104
7.404,159251,171,199114
7.409,159242,171,199102
7.414,159260,170,199124
7.419,159236,172,199098
7.424,159247,171,199101
7.429,159226,171,199109
7.434,159244,171,199097
7.439,159233,170,199090
7.443,159219,170,199079
7.448,159229,170,199087
7.453,159204,169,199083
7.458,159231,169,199101
7.463,159227,169,199108
7.468,159221,170,199109
7.473,159230,170,199112
7.478,159206,169,199128
7.483,159202,169,199104
7.488,159208,169,199120
7.493,159212,169,199114
7.498,159214,174,199117
7.503,159221,172,199128
7.508,159206,172,199131
7.513,159220,176,199144
7.518,159218,172,199153
7.523,159215,171,199151
7.528,159196,171,199158
7.533,159215,170,199146
7.538,159210,169,199161
7.543,159213,169,199149
7.548,159202,169,199157
7.553,159205,169,199184
7.558,159214,173,199183
7.563,159224,170,199186
7.568,159212,169,199195
7.573,159210,169,199176
7.578,159207,169,199203
7.583,159211,169,199200
7.587,159208,173,199204
7.592,159200,172,199212
7.597,159213,172,199217
7.602,159213,171,199213
7.607,159225,171,199233
7.612,159230,169,199268
7.617,159239,169,199244
7.622,159241,169,199245
7.627,159236,174,199257
7.632,159235,173,199256
7.637,159230,172,199256
7.642,159230,171,199275
7.647,159228,170,199264
7.652,159216,169,199265
7.657,159240,168,199273
7.662,159259,169,199237
7.667,159219,172,199278
7.672,159246,170,199261
7.677,159220,170,199278
7.682,159225,170,199276
7.687,159225,169,199294
7.692,159226,169,199276
7.697,159245,169,199276
7.702,159245,173,199282
7.707,159245,172,199288
7.712,159241,169,199283
7.717,159238,169,199297
7.722,159244,173,199303
7.727,159236,172,199311
7.732,159242,172,199287
7.736,159244,171,199304
7.741,159237,171,199281
7.746,159244,170,199291
7.751,159236,170,199303
7.756,159243,171,199335
7.761,159252,171,199299
7.766,159238,170,199294
7.771,159245,170,199310
7.776,159258,170,199295
7.781,159244,169,199306
7.786,159244,169,199311
7.791,159256,173,199300
7.796,159241,172,199317
7.801,159257,172,199301
7.806,159247,171,199318
7.811,159270,172,199307
7.816,159266,173,199305
7.821,159264,172,199320
7.826,159271,172,199325
7.831,159267,171,199312
7.836,159263,171,199307
7.841,159266,170,199325
7.846,159274,170,199334
7.851,159270,170,199341
7.856,159286,171,199325
7.861,159280,171,199327
7.866,159275,170,199330
7.871,159290,169,199330
7.876,159295,170,199340
7.880,159287,169,199346
7.885,159291,169,199345
7.890,159300,169,199339
7.895,159299,173,199363
7.900,159309,172,199360
7.905,159305,169,199364
7.910,159311,169,199354
7.915,159326,170,199353
7.920,159310,170,199357
7.925,159323,170,199364
7.930,159310,169,199378
7.935,159326,170,199377
7.940,159315,169,199377
7.945,159333,169,199367
7.950,159327,168,199389
7.955,159332,171,199372
7.960,159330,170,199381
7.965,159351,170,199389
7.970,159340,170,199386
7.975,159355,170,199385
7.980,159348,170,199396
7.985,159361,169,199411
7.990,159368,173,199406
7.995,159367,173,199417
8.000,159357,173,199407
8.005,159370,171,199413
8.010,159358,171,199421
8.015,159379,171,199441
8.020,159387,170,199432
8.025,159385,170,199435
8.029,159391,170,199462
8.034,159390,170,199450
8.039,159407,170,199449
8.044,159414,170,199440
8.049,159409,169,199450
8.054,159424,171,199461
8.059,159414,171,199454
8.064,159419,170,199474
8.069,159413,170,199455
8.074,159410,170,199467
8.079,159438,169,199459
8.084,159432,169,199486
8.089,159417,169,199471
8.094,159429,169,199477
8.099,159438,171,199479
8.104,159432,171,199487
8.109,159448,171,199496
8.114,159455,171,199492
8.119,159460,171,199493
8.124,159452,171,199501
8.129,159451,172,199530
8.134,159457,171,199518
8.139,159460,171,199534
8.144,159484,171,199528
8.149,159489,172,199551
8.154,159486,172,199561
8.159,159507,172,199569
8.164,159495,172,199557
8.169,159505,171,199586
8.173,159504,171,199572
8.178,159510,171,199593
8.183,159517,171,199587
8.188,159527,171,199589
8.193,159536,171,199590
8.198,159522,174,199607
8.203,159538,173,199615
8.208,159528,172,199617
8.213,159562,171,199622
8.218,159554,171,199620
8.223,159563,170,199644
8.228,159572,170,199647
8.233,159577,169,199648
8.238,159576,170,199650
8.243,159579,169,199667
8.248,159581,170,199668
8.253,159580,170,199668
8.258,159583,171,199656
8.263,159570,170,199645
8.268,159555,170,199644
8.273,159565,170,199628
8.278,159549,170,199612
8.283,159541,169,199623
8.288,159513,169,199623
8.293,159515,170,199566
8.298,159492,170,199605
8.303,159496,170,199604
8.308,159472,170,199600
8.313,159465,170,199585
8.318,159480,170,199606
8.322,159459,169,199585
8.327,159464,169,199577
8.332,159444,169,199575
8.337,159457,174,199567
8.342,159430,170,199555
8.347,159425,170,199526
8.352,159444,170,199552
8.357,159417,169,199532
8.362,159422,169,199558
8.367,159421,169,199539
8.372,159424,169,199555
8.377,159417,173,199548
8.382,159418,172,199536
8.387,159402,172,199542
8.392,159403,169,199527
8.397,159394,169,199531
8.402,159382,174,199513
8.407,159384,173,199532
8.412,159381,172,199525
8.417,159377,173,199536
8.422,159383,173,199522
8.427,159376,173,199524
8.432,159360,172,199525
8.437,159350,172,199494
8.442,159365,171,199514
8.447,159357,171,199490
8.452,159346,171,199509
8.457,159349,171,199498
8.462,159348,170,199500
8.466,159331,170,199482
8.471,159350,170,199505
8.476,159338,170,199491
8.481,159339,169,199500
8.486,159328,169,199484
8.491,159335,173,199483
8.496,159317,173,199481
8.501,159321,172,199495
8.506,159326,171,199483
8.511,159325,171,199479
8.516,159329,171,199482
8.521,159322,171,199489
8.526,159334,170,199480
8.531,159334,170,199493
8.536,159335,170,199507
8.541,159331,172,199496
8.546,159325,172,199505
8.551,159328,171,199480
8.556,159325,171,199465
8.561,159326,171,199488
8.566,159305,170,199473
8.571,159319,169,199489
8.576,159303,169,199491
8.581,159315,169,199477
8.586,159318,169,199469
8.591,159312,173,199480
8.596,159306,173,199486
8.601,159305,172,199455
8.606,159305,171,199469
8.610,159311,170,199472
8.615,159297,170,199476
8.620,159298,170,199465
8.625,159284,170,199478
8.630,159283,169,199476
8.635,159287,171,199454
8.640,159289,170,199476
8.645,159302,169,199471
8.650,159286,169,199465
8.655,159298,169,199467
8.660,159283,169,199454
8.665,159298,169,199455
8.670,159305,168,199459
8.675,159284,174,199449
8.680,159291,173,199467
8.685,159312,169,199466
8.690,159291,168,199474
8.695,159286,173,199471
8.700,159298,173,199469
8.705,159303,172,199463
8.710,159303,171,199469
8.715,159308,171,199467
8.720,159301,171,199473
8.725,159298,170,199485
8.730,159288,170,199469
8.735,159307,169,199491
8.740,159306,173,199500
8.745,159310,172,199491
8.750,159333,172,199485
8.755,159299,171,199483
8.759,159311,171,199497
8.764,159317,170,199506
8.769,159334,170,199524
8.774,159329,169,199511
8.779,159324,169,199509
8.784,159337,170,199504
8.789,159334,170,199513
8.794,159338,170,199519
8.799,159329,169,199523
8.804,159337,173,199535
8.809,159338,173,199531
8.814,159346,172,199541
8.819,159344,171,199532
8.824,159350,171,199537
8.829,159361,173,199477
8.834,159354,172,199544
8.839,159364,171,199551
8.844,159360,170,199538
8.849,159374,170,199552
8.854,159366,170,199543
8.859,159356,169,199553
8.864,159366,169,199543
8.869,159369,173,199544
8.874,159373,172,199557
8.879,159397,169,199546
8.884,159379,173,199550
8.889,159391,172,199559
8.894,159384,172,199559
8.899,159374,171,199556
8.903,159392,171,199551
8.908,159377,171,199549
8.913,159394,171,199555
8.918,159386,170,199550
8.923,159400,170,199555
8.928,159402,171,199568
8.933,159416,171,199563
8.938,159413,170,199566
8.943,159414,170,199573
8.948,159417,169,199556
8.953,159418,169,199572
8.958,159416,169,199559
8.963,159431,173,199585
8.968,159436,172,199562
8.973,159425,172,199558
8.978,159427,169,199598
8.983,159446,173,199584
8.988,159437,172,199562
8.993,159439,171,199589
8.998,159439,171,199582
9.003,159455,170,199593
9.008,159451,170,199583
9.013,159452,169,199602
9.018,159458,169,199598
9.023,159465,169,199593
9.028,159461,170,199601
9.033,159465,170,199606
9.038,159472,169,199597
9.043,159480,170,199603
9.048,159479,169,199588
9.052,159476,169,199601
9.057,159473,169,199600
9.062,159478,173,199612
9.067,159500,172,199609
9.072,159493,172,199629
9.077,159491,169,199628
9.082,159506,169,199620
9.087,159510,173,199617
9.092,159502,173,199626
9.097,159519,172,199636
9.102,159518,172,199629
9.107,159523,171,199628
9.112,159522,171,199630
9.117,159525,170,199640
9.122,159525,172,199644
9.127,159505,169,199634
9.132,159538,169,199647
9.137,159551,169,199660
9.142,159538,169,199646
9.147,159540,169,199655
9.152,159547,168,199647
9.157,159568,173,199660
9.162,159557,172,199649
9.167,159545,172,199672
9.172,159568,169,199671
9.177,159578,171,199655
9.182,159572,170,199666
9.187,159573,170,199674
9.192,159579,169,199669
9.196,159572,169,199669
9.201,159583,169,199688
9.206,159600,173,199687
9.211,159598,172,199692
9.216,159610,172,199682
9.221,159618,170,199704
9.226,159601,172,199684
9.231,159592,171,199677
9.236,159594,171,199659
9.241,159591,171,199658
9.246,159566,170,199633
9.251,159563,170,199615
9.256,159539,170,199624
9.261,159526,170,199617
9.266,159523,169,199599
9.271,159516,171,199590
9.276,159501,170,199598
9.281,159480,170,199576
9.286,159482,170,199568
9.291,159483,169,199585
9.296,159469,169,199571
9.301,159450,169,199580
9.306,159456,173,199577
9.311,159469,172,199557
9.316,159451,172,199558
9.321,159433,169,199549
9.326,159430,169,199543
9.331,159439,173,199544
9.336,159433,172,199545
9.341,159435,172,199527
9.345,159418,171,199540
9.350,159433,171,199539
9.355,159423,170,199539
9.360,159423,170,199528
9.365,159386,170,199500
9.370,159410,170,199522
9.375,159403,170,199503
9.380,159390,169,199502
9.385,159405,169,199518
9.390,159386,168,199508
9.395,159388,173,199499
9.400,159372,172,199493
9.405,159372,171,199491
9.410,159372,171,199487
9.415,159360,174,199481
9.420,159366,170,199495
9.425,159355,169,199474
9.430,159342,168,199454
9.435,159340,173,199449
9.440,159332,172,199414
9.445,159319,172,199400
9.450,159319,171,199384
9.455,159299,170,199379
9.460,159281,170,199369
9.465,159286,172,199325
9.470,159282,171,199327
9.475,159265,170,199301
9.480,159259,170,199282
9.485,159261,169,199283
9.489,159277,169,199278
9.494,159273,173,199281
9.499,159279,172,199258
9.504,159256,171,199268
9.509,159274,170,199267
9.514,159265,172,199263
9.519,159260,171,199259
9.524,159261,171,199246
9.529,159259,170,199237
9.534,159249,170,199239
9.539,159250,169,199228
9.544,159229,169,199237
9.549,159244,169,199236
9.554,159249,173,199228
9.559,159235,172,199237
9.564,159243,169,199239
9.569,159231,169,199215
9.574,159239,169,199241
9.579,159230,173,199234
9.584,159236,172,199231
9.589,159217,171,199236
9.594,159234,170,199252
9.599,159243,170,199241
9.604,159242,169,199241
9.609,159240,169,199237
9.614,159232,170,199245
9.619,159240,169,199237
9.624,159228,169,199237
9.629,159232,173,199252
9.633,159224,172,199246
9.638,159229,171,199258
9.643,159226,171,199250
9.648,159232,170,199247
9.653,159237,170,199261
9.658,159242,172,199251
9.663,159235,170,199260
9.668,159241,171,199256
9.673,159240,170,199254
9.678,159250,170,199265
9.683,159245,170,199271
9.688,159254,170,199278
9.693,159251,169,199268
9.698,159238,169,199268
9.703,159252,169,199259
9.708,159248,171,199257
9.713,159253,171,199264
9.718,159244,171,199254
9.723,159252,170,199230
9.728,159254,169,199252
9.733,159253,169,199248
9.738,159254,169,199238
9.743,159249,173,199232
9.748,159243,172,199228
9.753,159245,171,199241
9.758,159250,173,199223
9.763,159236,173,199204
9.768,159248,172,199215
9.773,159240,171,199215
9.778,159252,171,199207
9.782,159256,170,199209
9.787,159245,169,199207
9.792,159241,169,199204
9.797,159269,169,199205
9.802,159250,173,199189
9.807,159262,170,199199
9.812,159262,169,199207
9.817,159245,169,199206
9.822,159239,173,199187
9.827,159255,172,199195
9.832,159254,171,199189
9.837,159269,171,199203
9.842,159262,170,199196
9.847,159255,170,199199
9.852,159276,169,199190
9.857,159267,169,199186
9.862,159252,169,199190
9.867,159279,173,199197
9.872,159288,171,199200
9.877,159284,172,199175
9.882,159280,171,199198
9.887,159278,170,199193
9.892,159272,169,199192
9.897,159289,169,199197
9.902,159285,170,199236
9.907,159289,170,199195
9.912,159286,169,199201
9.917,159297,169,199207
9.922,159296,169,199200
9.926,159289,173,199200
9.931,159310,172,199213
9.936,159300,172,199202
9.941,159298,171,199207
9.946,159302,171,199216
9.951,159293,172,199219
9.956,159320,173,199215
9.961,159312,172,199191
9.966,159312,171,199213
9.971,159315,171,199202
9.976,159312,171,199194
9.981,159317,170,199197
9.986,159327,170,199205
9.991,159326,169,199199
9.996,159332,169,199216
10.001,159329,171,199211
10.006,159327,171,199226
10.011,159325,171,199216
10.016,159346,171,199224
10.021,159353,170,199223
10.026,159346,170,199230
10.031,159339,169,199226
10.036,159356,170,199212
10.041,159351,170,199221
10.046,159356,172,199222
10.051,159368,170,199233
10.056,159367,171,199211
10.061,159378,172,199225
10.066,159373,172,199228
10.071,159360,172,199233
10.075,159365,172,199220
10.080,159377,172,199236
10.085,159379,173,199237
10.090,159383,173,199238
10.095,159391,168,199238
10.100,159403,170,199246
10.105,159410,170,199255
10.110,159404,170,199247
10.115,159406,170,199243
10.120,159404,170,199242
10.125,159409,171,199253
10.130,159413,171,199241
10.135,159423,171,199257
10.140,159422,172,199269
10.145,159426,173,199264
10.150,159413,169,199267
10.155,159398,170,199232
10.160,159394,171,199244
10.165,159385,172,199223
10.170,159385,172,199213
10.175,159352,169,199196
10.180,159348,169,199202
10.185,159337,170,199191
10.190,159324,170,199176
10.195,159333,170,199166
10.200,159318,169,199167
10.205,159299,170,199137
10.210,159296,170,199154
10.215,159292,171,199139
10.219,159283,171,199146
10.224,159274,172,199138
10.229,159258,172,199131
10.234,159253,169,199115
10.239,159252,169,199123
10.244,159247,171,199109
10.249,159268,171,199112
10.254,159249,172,199101
10.259,159249,173,199112
10.264,159249,169,199117
10.269,159241,169,199124
10.274,159241,169,199102
10.279,159224,170,199112
10.284,159219,171,199096
10.289,159244,171,199084
10.294,159230,168,199093
10.299,159209,171,199083
10.304,159197,172,199066
10.309,159216,172,199080
10.314,159221,169,199065
10.319,159223,169,199079
10.324,159205,169,199069
10.329,159195,169,199072
10.334,159189,170,199054
10.339,159193,172,199053
10.344,159186,169,199044
10.349,159179,169,199042
10.354,159173,169,199044
10.359,159174,169,199047
10.364,159173,169,199037
10.368,159147,169,199032
10.373,159165,170,199043
10.378,159171,171,199028
10.383,159154,171,199026
10.388,159171,171,199032
10.393,159174,169,199021
10.398,159160,170,199034
10.403,159164,171,199030
10.408,159166,171,199039
10.413,159168,172,199045
10.418,159173,172,199031
10.423,159163,172,199032
10.428,159162,172,199045
10.433,159163,173,199027
10.438,159149,173,199032
10.443,159153,170,199043
10.448,159154,170,199028
10.453,159144,170,199019
10.458,159148,170,199029
10.463,159146,170,199024
10.468,159142,170,199018
10.473,159132,171,199015
10.478,159137,171,199027
10.483,159130,171,199018
10.488,159150,169,199026
10.493,159131,169,199010
10.498,159143,169,199013
10.503,159133,170,199010
10.508,159131,169,199017
10.512,159145,170,199023
10.517,159131,170,199009
10.522,159120,170,199016
10.527,159137,170,199010
10.532,159122,171,199005
10.537,159140,170,199018
10.542,159128,170,199022
10.547,159135,171,199015
10.552,159116,171,199016
10.557,159130,171,199012
10.562,159131,172,199021
10.567,159137,172,199007
10.572,159153,172,199009
10.577,159133,173,199020
10.582,159140,173,199025
10.587,159140,170,199040
10.592,159155,170,199030
10.597,159152,170,199019
10.602,159133,170,199025
10.607,159149,170,199036
10.612,159154,171,199049
10.617,159149,171,199024
10.622,159155,171,199056
10.627,159147,171,199045
10.632,159141,171,199027
10.637,159129,172,199030
10.642,159142,172,199040
10.647,159159,172,199041
10.652,159151,172,199033
10.657,159154,168,199048
10.661,159147,172,199073
10.666,159152,173,199045
10.671,159169,173,199058
10.676,159154,169,199050
10.681,159168,171,199065
10.686,159176,172,199048
10.691,159193,172,199088
10.696,159182,174,199091
10.701,159182,169,199079
10.706,159196,169,199097
10.711,159185,169,199114
10.716,159208,170,199099
10.721,159211,171,199116
10.726,159193,171,199107
10.731,159215,173,199107
10.736,159220,169,199133
10.741,159218,169,199155
10.746,159212,170,199138
10.751,159232,170,199158
10.756,159237,171,199167
10.761,159244,171,199177
10.766,159249,172,199175
10.771,159242,172,199178
10.776,159247,168,199189
10.781,159256,170,199195
10.786,159257,171,199200
10.791,159254,172,199202
10.796,159259,173,199215
10.801,159264,173,199209
10.805,159271,169,199197
10.810,159270,168,199215
10.815,159272,169,199208
10.820,159286,169,199213
10.825,159273,169,199229
10.830,159280,171,199222
10.835,159301,171,199221
10.840,159288,172,199210
10.845,159288,172,199208
10.850,159293,173,199213
10.855,159312,173,199238
10.860,159317,173,199242
10.865,159309,169,199247
10.870,159300,169,199242
10.875,159307,169,199228
10.880,159319,172,199242
10.885,159322,173,199231
10.890,159324,168,199253
10.895,159324,169,199245
10.900,159330,170,199255
10.905,159326,170,199252
10.910,159344,170,199284
10.915,159365,171,199286
10.920,159346,171,199279
10.925,159360,173,199286
10.930,159369,171,199294
10.935,159368,171,199309
10.940,159378,172,199293
10.945,159375,173,199309
10.949,159370,169,199310
10.954,159382,169,199297
10.959,159365,170,199298
10.964,159357,170,199291
10.969,159353,170,199285
10.974,159307,173,199276
10.979,159317,173,199280
10.984,159301,169,199259
10.989,159304,169,199266
10.994,159286,169,199241
10.999,159271,169,199250
11.004,159274,170,199242
11.009,159263,170,199236
11.014,159247,170,199225
11.019,159241,170,199212
11.024,159242,173,199203
11.029,159227,173,199188
11.034,159237,173,199209
11.039,159221,168,199197
11.044,159207,169,199196
11.049,159222,169,199190
11.054,159196,169,199182
11.059,159211,170,199177
11.064,159199,170,199179
11.069,159192,171,199178
11.074,159176,173,199175
11.079,159178,173,199164
11.084,159168,169,199168
11.089,159180,169,199150
11.094,159176,170,199168
11.098,159165,170,199159
11.103,159158,170,199153
11.108,159157,170,199162
11.113,159165,171,199154
11.118,159136,172,199153
11.123,159133,169,199132
11.128,159146,169,199139
11.133,159136,170,199129
11.138,159122,171,199126
11.143,159115,171,199150
11.148,159112,171,199134
11.153,159112,172,199134
11.158,159105,172,199111
11.163,159109,172,199129
11.168,159095,173,199123
11.173,159093,170,199108
11.178,159088,171,199110
11.183,159081,171,199101
11.188,159080,171,199113
11.193,159086,171,199122
11.198,159082,172,199109
11.203,159090,172,199100
11.208,159064,173,199123
11.213,159096,169,199115
11.218,159078,168,199115
11.223,159099,171,199124
11.228,159084,171,199112
11.233,159084,172,199117
11.238,159081,173,199118
11.242,159086,168,199116
11.247,159078,169,199102
11.252,159062,169,199114
11.257,159070,169,199099
11.262,159070,169,199121
11.267,159067,171,199114
11.272,159062,172,199103
11.277,159061,173,199096
11.282,159069,169,199092
11.287,159063,169,199093
11.292,159055,169,199094
11.297,159054,169,199092
11.302,159062,170,199110
11.307,159047,170,199090
11.312,159060,170,199097
11.317,159058,169,199108
11.322,159057,169,199099
11.327,159062,169,199096
11.332,159051,169,199091
11.337,159059,170,199103
11.342,159046,171,199095
11.347,159045,171,199091
11.352,159052,171,199100
11.357,159060,172,199080
11.362,159041,174,199083
11.367,159048,171,199084
11.372,159047,171,199090
11.377,159047,172,199070
11.382,159037,172,199086
11.387,159041,172,199113
11.391,159037,172,199115
11.396,159041,174,199090
11.401,159050,169,199098
11.406,159046,169,199109
11.411,159053,169,199098
11.416,159048,171,199096
11.421,159047,172,199103
11.426,159046,172,199101
11.431,159056,173,199105
11.436,159051,168,199099
11.441,159040,169,199117
11.446,159044,169,199116
11.451,159045,169,199082
11.456,159050,170,199109
11.461,159046,174,199100
11.466,159036,172,199091
11.471,159045,168,199096
11.476,159038,169,199088
11.481,159044,169,199088
11.486,159037,170,199086
11.491,159042,170,199091
11.496,159040,171,199060
11.501,159041,172,199073
11.506,159045,172,199065
11.511,159035,169,199064
11.516,159026,170,199058
11.521,159027,170,199042
11.526,159029,171,199056
11.531,159030,172,199036
11.535,159022,168,199063
11.540,159024,169,199050
11.545,159012,169,199032
11.550,159020,169,199040
11.555,159000,170,199028
11.560,159028,168,199039
11.565,159019,172,199043
11.570,159013,172,199032
11.575,159015,169,199012
11.580,158997,169,199040
11.585,159001,169,199032
11.590,159007,170,199020
11.595,159006,170,199005
11.600,159006,170,199014
11.605,159009,171,199009
11.610,159008,168,198997
11.615,158998,169,198994
11.620,158996,169,198994
11.625,158984,169,198963
11.630,158990,170,198974
11.635,158985,170,198964
11.640,158978,171,198953
11.645,158980,171,198956
11.650,158986,171,198954
11.655,158987,172,198949
11.660,158977,171,198952
11.665,158968,171,198943
11.670,158969,171,198947
11.675,158986,172,198943
11.680,158972,173,198940
11.684,158975,173,198929
11.689,158967,168,198936
11.694,158963,169,198931
11.699,158961,169,198936
11.704,158971,170,198926
11.709,158980,169,198928
11.714,158963,170,198915
11.719,158969,169,198919
11.724,158983,169,198934
11.729,158964,169,198923
11.734,158969,170,198920
11.739,158975,170,198923
11.744,158983,170,198914
11.749,158975,170,198954
11.754,158982,172,198925
11.759,158997,172,198940
11.764,158997,174,198940
11.769,159004,173,198941
11.774,159000,169,198950
11.779,159002,169,198955
11.784,159025,169,198979
11.789,159021,170,198991
11.794,159040,170,198990
11.799,159036,170,198989
11.804,159033,173,199023
11.809,159073,168,199024
11.814,159058,169,199033
11.819,159073,169,199061
11.824,159090,169,199065
11.828,159083,170,199083
11.833,159121,170,199081
11.838,159113,170,199111
11.843,159122,170,199110
11.848,159138,171,199149
11.853,159132,173,199149
11.858,159121,169,199151
11.863,159125,169,199143
11.868,159118,170,199153
11.873,159109,170,199146
11.878,159099,170,199166
11.883,159102,170,199154
11.888,159103,170,199173
11.893,159097,171,199140
11.898,159090,171,199156
11.903,159083,169,199168
11.908,159086,169,199175
11.913,159075,169,199158
11.918,159066,169,199161
11.923,159056,170,199162
11.928,159060,171,199154
11.933,159057,171,199160
11.938,159052,171,199163
11.943,159051,172,199155
11.948,159033,169,199195
11.953,159036,170,199157
11.958,159007,170,199151
11.963,159023,171,199152
11.968,159003,171,199142
11.973,159011,172,199144
11.977,158992,173,199150
11.982,159001,173,199117
11.987,158990,169,199119
11.992,158975,169,199097
11.997,158975,171,199101
12.002,158984,171,199096
12.007,158972,171,199102
12.012,158970,171,199099
12.017,158965,172,199071
12.022,158958,172,199065
12.027,158939,168,199073
12.032,158940,169,199061
12.037,158937,169,199064
12.042,158945,169,199039
12.047,158921,172,199054
12.052,158919,169,199029
12.057,158909,170,199022
12.062,158903,169,199013
12.067,158901,170,199024
12.072,158899,170,199015
12.077,158890,170,198994
12.082,158883,171,199006
12.087,158867,171,199012
12.092,158883,172,199004
12.097,158884,170,198997
12.102,158876,170,199013
12.107,158890,170,199011
12.112,158883,171,199017
12.117,158889,172,199035
12.121,158874,173,199020
12.126,158885,172,199033
12.131,158898,173,199043
12.136,158884,169,199029
12.141,158908,169,199016
12.146,158887,169,199040
12.151,158881,169,199029
12.156,158886,169,199038
12.161,158896,169,199031
12.166,158888,169,199046
12.171,158891,170,199037
12.176,158869,171,199035
12.181,158878,171,199036
12.186,158881,173,199055
12.191,158875,169,199044
12.196,158872,171,199040
12.201,158880,171,199055
12.206,158888,171,199056
12.211,158879,172,199056
12.216,158874,173,199054
12.221,158875,169,199067
12.226,158878,169,199057
12.231,158886,169,199061
12.236,158865,170,199057
12.241,158889,171,199075
12.246,158867,169,199055
12.251,158872,169,199052
12.256,158866,170,199051
12.261,158874,171,199046
12.265,158870,171,199052
12.270,158861,173,199041
12.275,158852,169,199035
12.280,158846,169,199053
12.285,158860,170,199045
12.290,158860,172,199052
12.295,158868,168,199029
12.300,158858,169,199015
12.305,158858,169,199031
12.310,158855,170,199009
12.315,158871,171,199034
12.320,158864,172,199015
12.325,158856,173,199012
12.330,158871,169,199013
12.335,158881,169,199021
12.340,158881,172,199026
12.345,158862,172,199012
12.350,158872,168,199011
12.355,158876,169,199030
12.360,158884,170,199029
12.365,158879,170,199027
12.370,158868,171,199046
12.375,158877,171,199022
12.380,158889,172,199035
12.385,158897,168,199035
12.390,158884,170,199024
12.395,158895,170,199035
12.400,158892,171,199034
12.405,158888,172,199054
12.410,158891,172,199043
12.414,158902,173,199050
12.419,158902,169,199060
12.424,158906,169,199059
12.429,158900,169,199066
12.434,158912,170,199073
12.439,158906,173,199074
12.444,158927,168,199094
12.449,158919,169,199073
12.454,158931,168,199079
12.459,158931,170,199087
12.464,158917,170,199085
12.469,158924,170,199107
12.474,158927,171,199099
12.479,158929,172,199113
12.484,158944,169,199098
12.489,158937,173,199115
12.494,158946,169,199134
12.499,158933,170,199124
12.504,158959,171,199114
12.509,158949,171,199112
12.514,158962,172,199130
12.519,158965,173,199139
12.524,158966,169,199158
12.529,158982,169,199146
12.534,158974,171,199155
12.539,158972,172,199157
12.544,158987,172,199168
12.549,158989,172,199158
12.554,159002,172,199184
12.558,158998,173,199175
12.563,158992,169,199182
12.568,159004,169,199190
12.573,159021,170,199198
12.578,159016,170,199206
12.583,159011,172,199217
12.588,159037,173,199222
12.593,159042,173,199232
12.598,159026,169,199232
12.603,159050,169,199250
12.608,159055,170,199256
12.613,159060,170,199262
12.618,159065,171,199274
12.623,159052,172,199276
12.628,159074,175,199281
12.633,159077,170,199293
12.638,159085,171,199300
12.643,159084,173,199310
12.648,159094,168,199319
12.653,159096,169,199306
12.658,159088,170,199327
12.663,159095,170,199330
12.668,159095,171,199330
12.673,159096,172,199330
12.678,159106,169,199332
12.683,159097,170,199335
12.688,159101,170,199345
12.693,159116,170,199342
12.698,159099,171,199335
12.703,159113,171,199333
12.707,159119,172,199345
12.712,159128,173,199326
12.717,159137,169,199332
12.722,159114,169,199324
12.727,159125,175,199315
12.732,159139,171,199305
12.737,159129,170,199293
12.742,159131,170,199292
12.747,159132,170,199285
12.752,159140,170,199281
12.757,159144,170,199270
12.762,159137,169,199284
12.767,159150,169,199252
12.772,159137,169,199252
12.777,159147,171,199249
12.782,159131,169,199214
12.787,159145,173,199224
12.792,159138,172,199222
12.797,159146,172,199197
12.802,159130,172,199208
12.807,159149,171,199190
12.812,159156,172,199178
12.817,159141,172,199165
12.822,159142,171,199159
12.827,159143,168,199155
12.832,159150,169,199150
12.837,159144,169,199156
12.842,159125,169,199144
12.847,159119,169,199113
12.851,159103,169,199099
12.856,159099,173,199098
12.861,159076,172,199093
12.866,159058,172,199076
12.871,159058,172,199059
12.876,159037,169,199068
12.881,159046,169,199063
12.886,159027,168,199062
12.891,159040,173,199044
12.896,159013,172,199037
12.901,158991,171,199043
12.906,159008,172,199024
12.911,158995,171,199034
12.916,158986,171,199012
12.921,158991,171,199022
12.926,158969,173,199007
12.931,158970,172,198999
12.936,158962,172,198998
12.941,158972,172,198992
12.946,158950,171,198998
12.951,158960,171,199001
12.956,158954,170,198985
12.961,158949,170,198975
12.966,158942,170,198957
12.971,158937,171,199017
12.976,158944,171,198960
12.981,158960,171,198947
12.986,158915,170,198942
12.991,158915,170,198960
12.996,158906,171,198941
13.000,158910,170,198939
13.005,158890,171,198935
13.010,158883,170,198929
13.015,158888,171,198930
13.020,158865,173,198921
13.025,158877,169,198913
13.030,158871,169,198902
13.035,158862,169,198919
13.040,158854,169,198907
13.045,158844,169,198908
13.050,158832,169,198915
13.055,158820,173,198904
13.060,158831,172,198893
13.065,158848,172,198884
13.070,158826,168,198874
13.075,158832,168,198873
13.080,158808,173,198868
13.085,158820,173,198878
13.090,158812,171,198875
13.095,158808,171,198862
13.100,158796,170,198844
13.105,158819,170,198857
13.110,158812,170,198848
13.115,158821,170,198845
13.120,158806,172,198834
13.125,158801,172,198813
13.130,158813,171,198802
13.135,158808,171,198801
13.140,158798,171,198800
13.144,158777,170,198802
13.149,158767,169,198784
13.154,158777,170,198768
13.159,158765,169,198749
13.164,158766,169,198757
13.169,158740,173,198729
13.174,158760,172,198710
13.179,158752,172,198699
13.184,158754,171,198691
13.189,158743,170,198677
13.194,158728,170,198665
13.199,158730,170,198633
13.204,158707,170,198638
13.209,158712,169,198627
13.214,158691,170,198609
13.219,158692,172,198579
13.224,158693,171,198598
13.229,158669,171,198540
13.234,158670,171,198524
13.239,158657,170,198529
13.244,158663,170,198518
13.249,158655,170,198503
13.254,158652,171,198499
13.259,158657,170,198484
13.264,158660,170,198464
13.269,158658,168,198466
13.274,158653,169,198464
13.279,158653,168,198465
13.284,158636,169,198442
13.288,158660,168,198461
13.293,158657,169,198460
13.298,158655,168,198447
13.303,158653,173,198465
13.308,158663,172,198438
13.313,158648,169,198452
13.318,158656,169,198461
13.323,158677,169,198459
13.328,158650,172,198438
13.333,158664,172,198434
13.338,158654,172,198450
13.343,158665,172,198454
13.348,158665,171,198439
13.353,158659,171,198428
13.358,158660,171,198441
13.363,158649,172,198431
13.368,158652,172,198412
13.373,158641,171,198419
13.378,158642,171,198402
13.383,158662,170,198423
13.388,158640,170,198415
13.393,158640,170,198405
13.398,158638,169,198406
13.403,158652,169,198399
13.408,158642,169,198397
13.413,158655,170,198396
13.418,158645,170,198414
13.423,158651,169,198405
13.428,158654,169,198395
13.433,158647,169,198414
13.437,158653,169,198407
13.442,158659,169,198403
13.447,158666,173,198425
13.452,158660,173,198418
13.457,158667,173,198419
13.462,158678,169,198419
13.467,158684,169,198421
13.472,158672,169,198421
13.477,158677,169,198425
13.482,158679,169,198425
13.487,158686,173,198443
13.492,158697,172,198424
13.497,158694,172,198450
13.502,158703,171,198458
13.507,158697,172,198447
13.512,158706,172,198469
13.517,158729,172,198451
13.522,158721,171,198472
13.527,158742,170,198460
13.532,158721,170,198487
13.537,158747,170,198487
13.542,158742,169,198485
13.547,158750,169,198508
13.552,158761,169,198517
13.557,158778,170,198528
13.562,158776,169,198511
13.567,158779,169,198529
13.572,158795,169,198502
13.577,158803,169,198520
13.581,158802,173,198539
13.586,158798,172,198529
13.591,158815,172,198549
13.596,158815,172,198533
13.601,158820,171,198543
13.606,158842,169,198580
13.611,158838,171,198555
13.616,158829,171,198558
13.621,158850,171,198573
13.626,158831,170,198574
13.631,158842,170,198565
13.636,158855,169,198565
13.641,158867,169,198586
13.646,158864,169,198588
13.651,158882,173,198590
13.656,158877,172,198615
13.661,158880,171,198607
13.666,158898,171,198616
13.671,158897,171,198622
13.676,158898,172,198620
13.681,158926,172,198633
13.686,158908,172,198627
13.691,158915,172,198636
13.696,158937,172,198637
13.701,158916,172,198639
13.706,158925,171,198665
13.711,158925,171,198665
13.716,158949,171,198664
13.721,158938,171,198693
13.726,158946,171,198700
13.730,158954,171,198711
13.735,158961,170,198718
13.740,158959,170,198717
13.745,158975,170,198728
13.750,158994,170,198732
13.755,158978,172,198740
13.760,158997,171,198753
13.765,158990,171,198749
13.770,158995,170,198765
13.775,158972,170,198757
13.780,158989,170,198755
13.785,158974,170,198750
13.790,158970,169,198736
13.795,158964,169,198739
13.800,158954,169,198746
13.805,158955,170,198735
13.810,158931,169,198737
13.815,158919,169,198738
13.820,158922,169,198733
13.825,158912,173,198719
13.830,158893,173,198728
13.835,158888,172,198734
13.840,158883,172,198713
13.845,158892,171,198718
13.850,158905,169,198715
13.855,158881,170,198720
13.860,158892,170,198709
13.865,158889,169,198727
13.870,158873,169,198708
13.874,158867,169,198725
13.879,158863,172,198714
13.884,158870,171,198703
13.889,158864,170,198713
13.894,158872,170,198705
13.899,158850,171,198697
13.904,158855,171,198709
13.909,158840,170,198707
13.914,158851,170,198697
13.919,158853,169,198700
13.924,158848,169,198697
13.929,158837,168,198699
13.934,158846,173,198685
13.939,158845,172,198697
13.944,158839,171,198699
13.949,158819,168,198681
13.954,158826,173,198677
13.959,158834,173,198670
13.964,158811,171,198666
13.969,158824,170,198672
13.974,158809,169,198677
13.979,158808,169,198649
13.984,158811,168,198665
13.989,158811,172,198668
13.994,158788,172,198652
13.999,158803,169,198658
14.004,158810,169,198637
14.009,158802,173,198647
14.014,158802,171,198652
14.019,158802,171,198662
14.023,158813,170,198667
14.028,158815,169,198662
14.033,158791,169,198657
14.038,158820,169,198669
14.043,158816,170,198636
14.048,158822,169,198659
14.053,158811,169,198645
14.058,158803,173,198665
14.063,158807,172,198675
14.068,158806,171,198682
14.073,158806,170,198692
14.078,158819,170,198681
14.083,158818,169,198692
14.088,158835,172,198709
14.093,158817,169,198721
14.098,158838,169,198718
14.103,158824,173,198738
14.108,158844,171,198749
14.113,158827,170,198735
14.118,158840,169,198729
14.123,158832,169,198747
14.128,158851,169,198766
14.133,158858,173,198777
14.138,158859,172,198796
14.143,158876,169,198793
14.148,158876,173,198798
14.153,158874,172,198815
14.158,158891,171,198819
14.163,158899,170,198835
14.167,158908,169,198841
14.172,158897,169,198865
14.177,158907,168,198856
14.182,158907,173,198852
14.187,158911,171,198864
14.192,158893,169,198881
14.197,158894,168,198871
14.202,158892,173,198875
14.207,158880,172,198880
14.212,158890,171,198877
14.217,158886,171,198880
14.222,158902,170,198873
14.227,158912,169,198900
14.232,158923,169,198897
14.237,158918,172,198902
14.242,158915,170,198909
14.247,158918,169,198894
14.252,158919,173,198890
14.257,158928,172,198903
14.262,158930,171,198902
14.267,158940,170,198878
14.272,158935,170,198894
14.277,158941,169,198898
14.282,158931,169,198916
14.287,158951,173,198903
14.292,158941,171,198925
14.297,158941,170,198908
14.302,158953,170,198923
14.307,158960,169,198951
14.312,158969,169,198936
14.316,158973,168,198958
14.321,158979,173,198960
14.326,158987,172,198960
14.331,158979,171,198981
14.336,158998,176,198976
14.341,158994,170,198978
14.346,159005,169,198987
14.351,158993,169,198997
14.356,158997,169,199017
14.361,159009,173,199013
14.366,159017,172,199020
14.371,159017,171,199040
14.376,159015,171,199037
14.381,159032,170,199030
14.386,159027,172,199028
14.391,159028,171,199026
14.396,159024,170,199041
14.401,159037,170,199049
14.406,159049,169,199034
14.411,159035,169,199032
14.416,159030,173,199038
14.421,159026,172,199026
14.426,159049,171,199040
14.431,159041,170,199017
14.436,159036,172,199016
14.441,159037,171,198988
14.446,159052,170,198995
14.451,159031,169,198975
14.456,159034,169,198990
14.460,159038,168,198987
14.465,159046,172,198972
14.470,159055,171,198964
14.475,159056,171,198969
14.480,159073,170,198979
14.485,159074,172,198971
14.490,159082,171,198982
14.495,159095,171,198995
14.500,159091,171,198999
14.505,159124,170,199007
14.510,159123,169,199001
14.515,159120,169,198992
14.520,159125,169,199000
14.525,159120,168,199006
14.530,159125,172,199007
14.535,159145,172,199000
14.540,159132,172,199011
14.545,159119,171,199001
14.550,159119,170,199025
14.555,159120,170,199012
14.560,159123,169,199031
14.565,159133,169,199051
14.570,159145,172,199047
14.575,159151,172,199060
14.580,159158,171,199088
14.585,159162,172,199103
14.590,159177,171,199136
14.595,159195,171,199156
14.600,159206,169,199188
14.604,159216,169,199206
14.609,159235,168,199223
14.614,159227,173,199232
14.619,159247,171,199261
14.624,159234,171,199262
14.629,159275,172,199275
14.634,159232,170,199274
14.639,159207,169,199290
14.644,159207,169,199295
14.649,159205,169,199305
14.654,159208,173,199277
14.659,159204,172,199331
14.664,159214,172,199356
14.669,159206,171,199356
14.674,159205,171,199375
14.679,159217,172,199406
14.684,159251,169,199433
14.689,159249,169,199438
14.694,159272,169,199475
14.699,159278,169,199488
14.704,159299,168,199504
14.709,159306,173,199553
14.714,159320,173,199572
14.719,159346,173,199607
14.724,159354,173,199609
14.729,159368,170,199631
14.734,159371,169,199649
14.739,159397,169,199669
14.744,159395,169,199706
14.749,159436,168,199748
14.753,159443,173,199787
14.758,159462,172,199807
14.763,159490,172,199849
14.768,159473,171,199863
14.773,159497,170,199905
14.778,159496,169,199905
14.783,159512,169,199924
14.788,159527,173,199951
14.793,159530,173,199982
14.798,159530,172,199988
14.803,159540,171,199974
14.808,159554,170,199990
14.813,159564,170,200018
14.818,159592,169,200037
14.823,159603,169,200029
14.828,159602,173,200046
14.833,159628,172,200059
14.838,159626,171,200057
14.843,159639,170,200055
14.848,159633,170,200049
14.853,159642,170,200044
14.858,159625,169,200025
14.863,159623,169,200036
14.868,159628,169,200016
14.873,159635,173,200006
14.878,159628,170,200003
14.883,159627,170,199987
14.888,159613,169,199965
14.893,159609,169,199987
14.897,159605,169,199959
14.902,159606,169,199956
14.907,159588,169,199947
14.912,159587,169,199920
14.917,159597,169,199937
14.922,159577,170,199906
14.927,159573,170,199897
14.932,159563,170,199894
14.937,159559,169,199879
14.942,159532,169,199856
14.947,159545,169,199839
14.952,159520,168,199821
14.957,159525,172,199793
14.962,159526,172,199787
14.967,159517,171,199774
14.972,159526,170,199784
14.977,159510,172,199780
14.982,159524,171,199783
14.987,159538,172,199774
14.992,159553,168,199789
14.997,159542,169,199799
15.002,159543,170,199780
15.007,159554,170,199781
15.012,159546,171,199767
15.017,159534,172,199758
15.022,159536,169,199743
15.027,159525,169,199710
15.032,159507,170,199708
15.037,159485,170,199685
15.042,159488,171,199664
15.046,159477,172,199648
15.051,159479,172,199620
15.056,159486,173,199637
15.061,159485,173,199619
15.066,159479,168,199600
15.071,159468,170,199601
15.076,159474,171,199606
15.081,159471,171,199591
15.086,159473,172,199577
15.091,159449,173,199576
15.096,159468,169,199574
15.101,159471,169,199569
15.106,159473,169,199563
15.111,159466,170,199587
15.116,159472,173,199569
15.121,159468,170,199567
15.126,159469,171,199582
15.131,159461,171,199552
15.136,159460,172,199540
15.141,159436,172,199537
15.146,159436,168,199511
15.151,159435,169,199495
15.156,159429,170,199492
15.161,159432,170,199495
15.166,159423,173,199480
15.171,159439,169,199490
15.176,159442,170,199495
15.181,159458,170,199493
15.186,159464,170,199494
15.190,159477,171,199511
15.195,159487,171,199538
15.200,159509,172,199541
15.205,159515,173,199545
15.210,159486,168,199545
15.215,159488,170,199517
15.220,159457,171,199482
15.225,159446,170,199461
15.230,159419,171,199426
15.235,159391,172,199401
15.240,159406,172,199385
15.245,159399,173,199359
15.250,159408,172,199392
15.255,159431,169,199364
15.260,159424,169,199398
15.265,159423,171,199383
15.270,159424,171,199366
15.275,159423,171,199359
15.280,159427,172,199350
15.285,159432,172,199334
15.290,159416,172,199335
15.295,159408,173,199321
15.300,159417,168,199297
15.305,159395,169,199289
15.310,159367,169,199272
15.315,159379,170,199232
15.320,159373,171,199223
15.325,159379,171,199203
15.330,159370,172,199185
15.335,159357,173,199148
15.339,159354,169,199116
15.344,159329,169,199093
15.349,159327,169,199044
15.354,159312,170,199030
15.359,159285,170,198984
15.364,159293,172,198972
15.369,159258,173,198929
15.374,159261,169,198914
15.379,159253,169,198908
15.384,159258,169,198890
15.389,159256,169,198880
15.394,159245,170,198872
15.399,159226,171,198865
15.404,159241,171,198887
15.409,159246,168,198881
15.414,159250,172,198875
15.419,159263,173,198869
15.424,159254,169,198860
15.429,159263,169,198857
15.434,159247,169,198835
15.439,159239,170,198826
15.444,159251,171,198823
15.449,159245,171,198839
15.454,159249,172,198804
15.459,159249,170,198826
15.464,159256,171,198838
15.469,159270,171,198837
15.474,159274,172,198825
15.479,159280,173,198823
15.483,159302,169,198831
15.488,159289,169,198838
15.493,159276,169,198835
15.498,159288,169,198838
15.503,159301,170,198842
15.508,159297,172,198846
15.513,159299,173,198854
15.518,159277,169,198824
15.523,159302,169,198831
15.528,159271,169,198816
15.533,159279,171,198792
15.538,159271,171,198784
15.543,159238,171,198756
15.548,159238,173,198757
15.553,159229,169,198753
15.558,159204,171,198737
15.563,159193,171,198724
15.568,159178,172,198697
15.573,159161,172,198678
15.578,159137,171,198688
15.583,159140,171,198664
15.588,159126,171,198643
15.593,159104,170,198632
15.598,159098,169,198620
15.603,159078,169,198633
15.608,159063,171,198607
15.613,159048,170,198594
15.618,159059,170,198574
15.623,159047,170,198547
15.627,159030,170,198540
15.632,159017,169,198514
15.637,158995,169,198501
15.642,158971,169,198493
15.647,158965,169,198470
15.652,158929,169,198503
15.657,158952,169,198473
15.662,158954,169,198477
15.667,158934,168,198451
15.672,158942,173,198445
15.677,158932,173,198458
15.682,158937,173,198447
15.687,158934,172,198441
15.692,158903,173,198424
15.697,158904,173,198402
15.702,158893,170,198412
15.707,158881,169,198411
15.712,158867,169,198396
15.717,158877,169,198385
15.722,158875,169,198390
15.727,158864,169,198399
15.732,158864,168,198374
15.737,158857,174,198363
15.742,158863,173,198359
15.747,158879,172,198339
15.752,158850,169,198319
15.757,158844,169,198326
15.762,158825,169,198317
15.767,158844,173,198296
15.772,158829,172,198281
15.776,158822,171,198279
15.781,158829,171,198273
15.786,158818,171,198265
15.791,158818,171,198269
15.796,158805,171,198254
15.801,158821,169,198261
15.806,158791,168,198255
15.811,158797,168,198237
15.816,158785,173,198221
15.821,158789,173,198214
15.826,158777,173,198191
15.831,158762,168,198173
15.836,158752,173,198165
15.841,158747,173,198131
15.846,158728,172,198133
15.851,158729,169,198107
15.856,158727,169,198098
15.861,158709,169,198106
15.866,158717,169,198088
15.871,158706,169,198085
15.876,158717,169,198063
15.881,158710,168,198068
15.886,158697,173,198047
15.891,158709,168,198048
15.896,158696,168,198028
15.901,158690,170,198029
15.906,158696,170,197992
15.911,158663,169,197977
15.916,158671,170,197975
15.920,158660,169,197954
15.925,158650,169,197926
15.930,158639,169,197926
15.935,158626,169,197899
15.940,158635,169,197880
15.945,158633,171,197868
15.950,158627,170,197865
15.955,158617,171,197853
15.960,158610,170,197828
15.965,158605,170,197846
15.970,158605,170,197839
15.975,158605,170,197843
15.980,158600,170,197822
15.985,158612,170,197817
15.990,158593,170,197817
15.995,158608,173,197830
16.000,158614,169,197834
16.005,158613,169,197826
16.010,158614,169,197827
16.015,158623,169,197840
16.020,158628,169,197844
16.025,158617,173,197844
16.030,158641,172,197850
16.035,158633,172,197817
16.040,158646,171,197840
16.045,158621,169,197837
16.050,158659,168,197854
16.055,158656,174,197856
16.060,158661,173,197851
16.065,158657,172,197834
16.069,158662,172,197810
16.074,158661,172,197838
16.079,158640,172,197824
16.084,158668,172,197835
16.089,158632,171,197837
16.094,158644,171,197834
16.099,158672,170,197828
16.104,158659,170,197817
16.109,158666,170,197829
16.114,158670,170,197804
16.119,158662,170,197805
16.124,158653,169,197790
16.129,158658,169,197786
16.134,158658,169,197793
16.139,158645,169,197733
16.144,158648,170,197792
16.149,158657,170,197775
16.154,158662,170,197772
16.159,158647,170,197766
16.164,158648,169,197752
16.169,158651,169,197753
16.174,158647,169,197754
16.179,158661,173,197735
16.184,158654,173,197746
16.189,158667,169,197723
16.194,158643,169,197714
16.199,158659,168,197719
16.204,158653,173,197723
16.209,158657,172,197693
16.213,158653,172,197686
16.218,158650,171,197704
16.223,158642,171,197689
16.228,158627,171,197677
16.233,158649,170,197680
16.238,158637,172,197667
16.243,158638,172,197671
16.248,158644,171,197678
16.253,158656,170,197678
16.258,158636,170,197672
16.263,158644,170,197667
16.268,158663,169,197687
16.273,158652,169,197671
16.278,158673,169,197675
16.283,158670,169,197709
16.288,158684,170,197700
16.293,158674,170,197699
16.298,158703,170,197705
16.303,158689,170,197696
16.308,158713,169,197716
16.313,158710,169,197703
16.318,158701,169,197712
16.323,158717,168,197714
16.328,158721,173,197718
16.333,158706,175,197699
16.338,158721,169,197719
16.343,158730,169,197713
16.348,158730,168,197727
16.353,158733,169,197723
16.358,158724,168,197725
16.362,158730,173,197734
16.367,158741,173,197728
16.372,158730,172,197715
16.377,158736,172,197725
16.382,158731,171,197719
16.387,158760,168,197735
16.392,158755,168,197743
16.397,158762,173,197740
16.402,158770,172,197738
16.407,158765,171,197741
16.412,158779,172,197733
16.417,158764,171,197726
16.422,158769,171,197733
16.427,158774,170,197721
16.432,158770,169,197727
16.437,158774,172,197708
16.442,158762,172,197720
16.447,158759,173,197713
16.452,158786,172,197709
16.457,158780,173,197705
16.462,158777,173,197716
16.467,158786,168,197716
16.472,158779,169,197695
16.477,158793,169,197716
16.482,158813,170,197696
16.487,158797,169,197696
16.492,158793,169,197725
16.497,158803,169,197720
16.502,158788,168,197705
16.506,158769,172,197664
16.511,158770,172,197656
16.516,158749,171,197646
16.521,158753,171,197636
16.526,158720,170,197640
16.531,158723,169,197606
16.536,158710,169,197616
16.541,158691,169,197608
16.546,158689,173,197596
16.551,158663,172,197607
16.556,158694,172,197594
16.561,158676,171,197584
16.566,158678,170,197587
16.571,158685,170,197591
16.576,158681,169,197608
16.581,158678,169,197603
16.586,158675,173,197603
16.591,158686,171,197614
16.596,158691,171,197606
16.601,158686,171,197609
16.606,158685,170,197617
16.611,158681,170,197626
16.616,158692,169,197627
16.621,158677,169,197629
16.626,158679,168,197645
16.631,158672,172,197647
16.636,158679,171,197647
16.641,158671,171,197645
16.646,158675,171,197673
16.651,158676,170,197659
16.655,158693,169,197656
16.660,158680,169,197670
16.665,158687,169,197679
16.670,158691,173,197683
16.675,158677,173,197646
16.680,158680,172,197678
16.685,158667,172,197679
16.690,158673,171,197664
16.695,158670,171,197669
16.700,158665,170,197646
16.705,158663,170,197645
16.710,158651,169,197639
16.715,158653,169,197635
16.720,158626,169,197613
16.725,158662,170,197608
16.730,158619,170,197605
16.735,158621,169,197620
16.740,158630,169,197611
16.745,158628,169,197609
16.750,158606,172,197599
16.755,158606,172,197600
16.760,158609,171,197615
16.765,158615,171,197595
16.770,158615,170,197593
16.775,158621,174,197588
16.780,158617,170,197589
16.785,158599,169,197580
16.790,158584,173,197558
16.795,158596,173,197559
16.799,158583,172,197551
16.804,158569,171,197549
16.809,158580,170,197556
16.814,158579,170,197543
16.819,158569,169,197530
16.824,158572,171,197531
16.829,158571,170,197523
16.834,158554,170,197510
16.839,158555,170,197514
16.844,158551,169,197500
16.849,158550,169,197485
16.854,158540,168,197488
16.859,158541,173,197474
16.864,158538,172,197467
16.869,158543,172,197478
16.874,158558,169,197483
16.879,158534,173,197489
16.884,158542,172,197474
16.889,158533,172,197448
16.894,158531,171,197462
16.899,158507,171,197445
16.904,158498,170,197441
16.909,158522,170,197449
16.914,158508,169,197449
16.919,158489,169,197456
16.924,158510,171,197453
16.929,158501,170,197442
16.934,158505,170,197456
16.939,158501,169,197450
16.943,158511,169,197450
16.948,158507,173,197451
16.953,158518,172,197442
16.958,158515,171,197488
16.963,158516,171,197479
16.968,158523,169,197480
16.973,158539,172,197484
16.978,158524,171,197496
16.983,158509,170,197492
16.988,158547,169,197517
16.993,158540,169,197516
16.998,158555,168,197508
17.003,158556,173,197522
17.008,158553,171,197522
17.013,158548,171,197529
17.018,158556,173,197543
17.023,158580,172,197549
17.028,158569,171,197559
17.033,158580,171,197572
17.038,158582,170,197593
17.043,158619,170,197598
17.048,158616,169,197640
17.053,158638,170,197632
17.058,158629,169,197659
17.063,158654,169,197671
17.068,158682,168,197657
17.073,158656,173,197687
17.078,158658,173,197719
17.083,158687,172,197724
17.088,158681,172,197741
17.092,158667,171,197733
17.097,158684,171,197778
17.102,158694,170,197771
17.107,158704,170,197802
17.112,158711,169,197817
17.117,158722,171,197827
17.122,158728,170,197863
17.127,158743,170,197868
17.132,158750,169,197877
17.137,158752,169,197893
17.142,158774,169,197915
17.147,158779,173,197940
17.152,158790,172,197951
17.157,158801,173,197987
17.162,158804,171,197997
17.167,158825,173,198019
17.172,158843,172,198013
17.177,158841,171,198036
17.182,158853,171,198057
17.187,158864,170,198063
17.192,158870,170,198092
17.197,158895,169,198095
17.202,158906,169,198110
17.207,158895,168,198114
17.212,158904,173,198120
17.217,158921,169,198133
17.222,158919,168,198157
17.227,158932,173,198171
17.232,158949,172,198180
17.236,158944,171,198186
17.241,158941,170,198185
17.246,158950,170,198180
17.251,158947,169,198194
17.256,158956,170,198215
17.261,158991,170,198202
17.266,158978,170,198204
17.271,158975,170,198225
17.276,158981,170,198241
17.281,158979,169,198267
17.286,158994,169,198253
17.291,159003,169,198257
17.296,159009,169,198255
17.301,159023,169,198279
17.306,159016,169,198283
17.311,159020,170,198310
17.316,159029,171,198321
17.321,159032,170,198318
17.326,159042,170,198323
17.331,159047,169,198336
17.336,159043,169,198355
17.341,159060,169,198364
17.346,159091,173,198376
17.351,159080,172,198391
17.356,159089,173,198411
17.361,159087,169,198407
17.366,159117,169,198416
17.371,159114,173,198446
17.376,159140,172,198456
17.381,159143,171,198449
17.385,159162,171,198462
17.390,159154,170,198491
17.395,159162,170,198491
17.400,159171,169,198508
17.405,159174,170,198526
17.410,159199,171,198540
17.415,159186,171,198551
17.420,159191,170,198557
17.425,159188,170,198556
17.430,159198,169,198556
17.435,159197,170,198549
17.440,159173,169,198540
17.445,159170,169,198571
17.450,159165,169,198568
17.455,159162,169,198553
17.460,159148,170,198570
17.465,159138,170,198556
17.470,159141,170,198578
17.475,159129,170,198556
17.480,159114,169,198567
17.485,159116,170,198578
17.490,159102,169,198559
17.495,159103,169,198563
17.500,159103,169,198566
17.505,159127,169,198565
17.510,159121,170,198578
17.515,159094,170,198600
17.520,159109,169,198600
17.525,159119,169,198571
17.529,159122,169,198586
17.534,159121,169,198576
17.539,159108,173,198572
17.544,159108,173,198573
17.549,159102,172,198585
17.554,159132,169,198572
17.559,159123,172,198602
17.564,159122,172,198582
17.569,159116,172,198605
17.574,159133,171,198601
17.579,159144,171,198619
17.584,159170,170,198623
17.589,159145,170,198640
17.594,159133,170,198627
17.599,159149,170,198626
17.604,159144,168,198602
17.609,159135,170,198633
17.614,159152,169,198630
17.619,159152,170,198642
17.624,159141,170,198643
17.629,159151,169,198652
17.634,159139,169,198635
17.639,159145,169,198654
17.644,159149,169,198666
17.649,159165,169,198653
17.654,159181,168,198687
17.659,159172,170,198697
17.664,159199,170,198715
17.669,159198,170,198751
17.674,159233,170,198764
17.678,159220,170,198777
17.683,159257,170,198793
17.688,159268,169,198830
17.693,159291,169,198852
17.698,159294,169,198866
17.703,159318,170,198871
17.708,159313,169,198925
17.713,159347,169,198938
17.718,159356,169,198992
17.723,159383,169,199002
17.728,159388,169,199036
17.733,159405,168,199059
17.738,159421,173,199085
17.743,159448,172,199121
17.748,159458,173,199168
17.753,159494,169,199171
17.758,159516,169,199203
17.763,159533,173,199227
17.768,159572,172,199253
17.773,159596,172,199291
17.778,159619,171,199319
17.783,159637,171,199329
17.788,159651,170,199372
17.793,159668,170,199398
17.798,159711,169,199418
17.803,159708,171,199442
17.808,159723,171,199460
17.813,159748,170,199503
17.818,159748,170,199496
17.822,159763,169,199524
17.827,159786,169,199538
17.832,159802,169,199561
17.837,159803,169,199597
17.842,159834,168,199599
17.847,159841,169,199637
17.852,159865,169,199655
17.857,159866,169,199693
17.862,159889,169,199718
17.867,159908,168,199746
17.872,159913,172,199763
17.877,159945,172,199806
17.882,159942,171,199816
17.887,159966,170,199835
17.892,159972,170,199849
17.897,159996,169,199888
17.902,160007,169,199921
17.907,160022,169,199937
17.912,160029,169,199962
17.917,160064,169,199972
17.922,160074,168,199989
17.927,160087,173,200038
17.932,160108,172,200057
17.937,160128,171,200091
17.942,160142,169,200137
17.947,160178,172,200169
17.952,160189,171,200197
17.957,160212,170,200216
17.962,160235,169,200275
17.967,160250,169,200314
17.971,160291,168,200347
17.976,160291,173,200397
17.981,160320,172,200432
17.986,160341,171,200478
17.991,160370,171,200494
17.996,160397,173,200547
18.001,160405,172,200592
18.006,160430,171,200667
18.011,160445,170,200695
18.016,160469,170,200740
18.021,160506,169,200794
18.026,160528,172,200827
18.031,160567,171,200859
18.036,160552,171,200911
18.041,160598,170,200952
18.046,160617,170,200989
18.051,160634,170,201029
18.056,160650,170,201072
18.061,160666,169,201108
18.066,160687,169,201134
18.071,160706,169,201189
18.076,160721,169,201225
18.081,160743,168,201255
18.086,160758,169,201271
18.091,160819,170,201291
18.096,160790,173,201320
18.101,160803,172,201309
18.106,160800,172,201319
18.111,160831,171,201344
18.115,160828,171,201353
18.120,160839,170,201370
18.125,160865,170,201387
18.130,160865,169,201382
18.135,160882,169,201396
18.140,160899,170,201406
18.145,160905,170,201431
18.150,160901,171,201435
18.155,160922,170,201458
18.160,160928,170,201472
18.165,160927,170,201462
18.170,160929,169,201477
18.175,160898,170,201496
18.180,160924,169,201481
18.185,160905,170,201506
18.190,160905,170,201511
18.195,160898,170,201513
18.200,160891,170,201496
18.205,160874,170,201493
18.210,160890,170,201496
18.215,160882,170,201481
18.220,160858,169,201494
18.225,160860,169,201466
18.230,160839,169,201452
18.235,160833,169,201443
18.240,160830,170,201449
18.245,160825,170,201429
18.250,160827,170,201459
18.255,160817,170,201435
18.259,160816,169,201427
18.264,160797,169,201426
18.269,160804,169,201406
18.274,160784,169,201396
18.279,160785,169,201369
18.284,160781,169,201390
18.289,160760,170,201351
18.294,160749,170,201326
18.299,160736,170,201289
18.304,160719,169,201274
18.309,160687,169,201247
18.314,160673,169,201227
18.319,160656,169,201179
18.324,160638,169,201173
18.329,160638,169,201175
18.334,160647,170,201161
18.339,160627,172,201168
18.344,160625,172,201153
18.349,160640,172,201148
18.354,160637,171,201165
18.359,160645,171,201174
18.364,160648,171,201143
18.369,160635,170,201141
18.374,160608,170,201122
18.379,160615,169,201134
18.384,160595,171,201109
18.389,160592,171,201126
18.394,160581,170,201129
18.399,160569,170,201139
18.404,160576,170,201153
18.408,160584,169,201164
18.413,160593,169,201182
18.418,160602,168,201190
18.423,160610,172,201220
18.428,160589,171,201225
18.433,160600,173,201234
18.438,160616,172,201263
18.443,160633,171,201267
18.448,160635,170,201265
18.453,160653,170,201304
18.458,160658,169,201292
18.463,160646,169,201289
18.468,160663,169,201299
18.473,160660,173,201303
18.478,160673,171,201296
18.483,160662,169,201290
18.488,160670,169,201289
18.493,160666,168,201292
18.498,160651,173,201284
18.503,160649,172,201276
18.508,160644,172,201270
18.513,160635,172,201252
18.518,160628,171,201268
18.523,160631,170,201248
18.528,160629,170,201260
18.533,160618,171,201259
18.538,160611,170,201242
18.543,160597,170,201236
18.548,160589,169,201222
18.552,160568,168,201206
18.557,160565,172,201192
18.562,160544,171,201176
18.567,160533,171,201144
18.572,160526,170,201141
18.577,160518,173,201122
18.582,160502,171,201131
18.587,160493,170,201110
18.592,160492,170,201104
18.597,160484,170,201106
18.602,160481,169,201105
18.607,160484,169,201093
18.612,160489,169,201083
18.617,160468,169,201064
18.622,160454,173,201038
18.627,160458,169,201022
18.632,160446,169,201014
18.637,160424,173,200988
18.642,160420,172,200967
18.647,160412,172,200949
18.652,160407,171,200931
18.657,160390,171,200907
18.662,160387,170,200900
18.667,160361,169,200886
18.672,160371,169,200860
18.677,160357,171,200852
18.682,160335,170,200823
18.687,160334,169,200813
18.692,160326,168,200788
18.697,160311,173,200782
18.701,160303,172,200748
18.706,160297,171,200729
18.711,160294,171,200734
18.716,160288,170,200707
18.721,160286,170,200713
18.726,160314,168,200707
18.731,160305,168,200681
18.736,160305,174,200698
18.741,160295,172,200687
18.746,160303,171,200682
18.751,160307,171,200683
18.756,160298,170,200662
18.761,160311,169,200656
18.766,160320,169,200653
18.771,160320,173,200639
18.776,160319,172,200629
18.781,160324,171,200639
18.786,160326,171,200639
18.791,160322,170,200613
18.796,160320,170,200620
18.801,160328,170,200616
18.806,160318,169,200634
18.811,160313,173,200609
18.816,160330,173,200634
18.821,160340,172,200602
18.826,160352,169,200659
18.831,160341,169,200657
18.836,160343,169,200664
18.841,160360,172,200719
18.845,160366,172,200717
18.850,160375,171,200715
18.855,160384,171,200742
18.860,160399,171,200770
18.865,160411,170,200781
18.870,160440,171,200807
18.875,160433,171,200823
18.880,160450,171,200859
18.885,160449,170,200881
18.890,160470,169,200917
18.895,160507,169,200913
18.900,160510,169,200956
18.905,160524,173,200979
18.910,160533,172,201001
18.915,160555,171,201019
18.920,160579,169,201056
18.925,160599,173,201071
18.930,160619,172,201096
18.935,160629,172,201130
18.940,160631,171,201125
18.945,160640,171,201154
18.950,160651,170,201167
18.955,160667,170,201171
18.960,160657,169,201214
18.965,160664,169,201217
18.970,160657,170,201223
18.975,160667,172,201233
18.980,160660,171,201235
18.985,160670,171,201247
18.990,160660,170,201289
18.994,160666,170,201284
18.999,160674,169,201304
19.004,160682,169,201325
19.009,160691,172,201348
19.014,160706,172,201369
19.019,160708,170,201328
19.024,160726,168,201420
19.029,160729,172,201440
19.034,160750,172,201482
19.039,160779,171,201522
19.044,160803,170,201564
19.049,160821,170,201606
19.054,160836,170,201623
19.059,160861,169,201671
19.064,160859,169,201688
19.069,160862,169,201731
19.074,160873,169,201759
19.079,160886,169,201774
19.084,160904,172,201824
19.089,160900,171,201842
19.094,160913,170,201869
19.099,160916,169,201899
19.104,160930,169,201892
19.109,160923,169,201918
19.114,160944,168,201928
19.119,160937,169,201965
19.124,160943,169,201944
19.129,160961,172,201944
19.134,160945,172,201944
19.138,160960,171,201949
19.143,160943,170,201931
19.148,160937,170,201941
19.153,160937,170,201941
19.158,160928,169,201936
19.163,160933,170,201937
19.168,160921,170,201929
19.173,160912,170,201918
19.178,160893,169,201912
19.183,160892,169,201899
19.188,160899,168,201910
19.193,160885,168,201895
19.198,160876,168,201886
19.203,160886,173,201880
19.208,160884,172,201862
19.213,160876,169,201874
19.218,160883,169,201866
19.223,160861,169,201878
19.228,160860,173,201857
19.233,160850,172,201825
19.238,160860,172,201822
19.243,160832,171,201824
19.248,160837,171,201816
19.253,160846,170,201806
19.258,160828,170,201799
19.263,160836,172,201785
19.268,160817,171,201786
19.273,160827,171,201779
19.278,160818,171,201769
19.282,160832,171,201769
19.287,160791,171,201740
19.292,160786,171,201747
19.297,160807,171,201719
19.302,160782,170,201705
19.307,160768,169,201695
19.312,160789,171,201698
19.317,160775,171,201663
19.322,160774,170,201656
19.327,160786,170,201657
19.332,160765,169,201656
19.337,160769,169,201640
19.342,160766,169,201618
19.347,160760,169,201618
19.352,160757,169,201617
19.357,160747,170,201600
19.362,160744,171,201607
19.367,160729,170,201596
19.372,160741,170,201593
19.377,160728,170,201602
19.382,160737,170,201585
19.387,160728,169,201604
19.392,160729,169,201590
19.397,160737,168,201601
19.402,160747,173,201597
19.407,160758,169,201589
19.412,160740,170,201592
19.417,160743,171,201585
19.422,160741,170,201577
19.427,160745,169,201571
19.431,160746,169,201585
19.436,160750,169,201594
19.441,160745,173,201572
19.446,160751,172,201599
19.451,160729,171,201593
19.456,160745,169,201581
19.461,160737,173,201577
19.466,160744,172,201591
19.471,160740,172,201587
19.476,160740,171,201580
19.481,160745,171,201600
19.486,160746,170,201593
19.491,160750,170,201583
19.496,160746,170,201589
19.501,160750,170,201591
19.506,160740,172,201580
19.511,160756,171,201587
19.516,160758,172,201573
19.521,160767,171,201588
19.526,160763,170,201580
19.531,160767,170,201587
19.536,160759,169,201583
19.541,160765,170,201564
19.546,160769,169,201581
19.551,160767,169,201579
19.556,160772,170,201588
19.561,160778,170,201597
19.566,160761,170,201598
19.571,160770,170,201578
19.575,160769,170,201593
19.580,160782,170,201594
19.585,160780,169,201593
19.590,160790,169,201595
19.595,160779,169,201588
19.600,160789,169,201590
19.605,160796,171,201599
19.610,160798,171,201592
19.615,160809,171,201606
19.620,160814,171,201586
19.625,160807,170,201586
19.630,160805,170,201590
19.635,160799,169,201592
19.640,160806,169,201597
19.645,160812,169,201593
19.650,160812,169,201562
19.655,160812,169,201591
19.660,160816,169,201606
19.665,160810,168,201590
19.670,160806,173,201577
19.675,160811,172,201600
19.680,160813,172,201579
19.685,160826,172,201571
19.690,160827,171,201580
19.695,160818,171,201577
19.700,160831,169,201571
19.705,160821,169,201589
19.710,160824,169,201572
19.715,160825,169,201579
19.720,160811,169,201569
19.724,160828,168,201581
19.729,160823,168,201581
19.734,160837,168,201592
19.739,160839,173,201599
19.744,160848,173,201571
19.749,160845,171,201598
19.754,160870,169,201582
19.759,160835,169,201587
19.764,160860,169,201590
19.769,160866,168,201600
19.774,160867,173,201594
19.779,160875,172,201605
19.784,160889,172,201601
19.789,160886,171,201595
19.794,160901,171,201580
19.799,160901,169,201594
19.804,160885,168,201577
19.809,160890,173,201603
19.814,160902,172,201605
19.819,160893,172,201584
19.824,160874,172,201592
19.829,160866,172,201578
19.834,160868,171,201579
19.839,160844,171,201547
19.844,160847,170,201561
19.849,160835,173,201544
19.854,160825,172,201546
19.859,160812,172,201540
19.864,160808,171,201560
19.868,160798,171,201544
19.873,160786,170,201536
19.878,160789,170,201538
19.883,160789,169,201521
19.888,160764,169,201516
19.893,160764,170,201538
19.898,160764,170,201509
19.903,160771,169,201504
19.908,160752,169,201507
19.913,160761,169,201499
19.918,160745,169,201498
19.923,160736,168,201480
19.928,160737,168,201485
19.933,160745,173,201463
19.938,160734,172,201477
19.943,160714,169,201457
19.948,160712,169,201463
19.953,160719,168,201465
19.958,160710,173,201449
19.963,160713,171,201452
19.968,160690,171,201454
19.973,160703,170,201428
19.978,160697,170,201443
19.983,160693,169,201442
19.988,160690,169,201439
19.993,160665,175,201422
19.998,160672,172,201412
20.003,160668,171,201390
20.008,160669,171,201380
20.013,160649,171,201385
20.017,160675,171,201364
20.022,160677,170,201371
20.027,160649,169,201359
20.032,160643,168,201348
20.037,160650,173,201362
20.042,160629,169,201341
20.047,160633,169,201331
20.052,160627,168,201345
20.057,160624,173,201337
20.062,160638,172,201340
20.067,160623,171,201333
20.072,160616,171,201325
20.077,160625,171,201344
20.082,160634,171,201360
20.087,160638,170,201350
20.092,160635,169,201357
20.097,160638,172,201357
20.102,160646,171,201354
20.107,160627,170,201359
20.112,160628,170,201360
20.117,160631,169,201346
20.122,160637,169,201363
20.127,160642,168,201343
20.132,160635,173,201351
20.137,160633,172,201371
20.142,160626,171,201371
20.147,160630,170,201371
20.152,160640,169,201374
20.157,160622,169,201349
20.161,160616,169,201364
20.166,160620,169,201353
20.171,160605,168,201343
20.176,160615,169,201342
20.181,160619,173,201354
20.186,160593,171,201357
20.191,160609,169,201322
20.196,160592,169,201313
20.201,160612,169,201310
20.206,160607,169,201305
20.211,160582,169,201301
20.216,160588,169,201291
20.221,160588,168,201288
20.226,160588,173,201281
20.231,160592,172,201272
20.236,160537,169,201261
20.241,160582,173,201261
20.246,160565,172,201247
20.251,160585,171,201256
20.256,160574,172,201247
20.261,160571,172,201258
20.266,160580,172,201265
20.271,160583,172,201251
20.276,160590,171,201240
20.281,160579,171,201247
20.286,160576,168,201254
20.291,160583,168,201247
20.296,160599,168,201229
20.301,160589,173,201245
20.306,160596,172,201248
20.310,160583,171,201245
20.315,160595,171,201262
20.320,160606,171,201263
20.325,160617,170,201254
20.330,160607,169,201255
20.335,160613,171,201274
20.340,160614,170,201279
20.345,160610,170,201294
20.350,160613,169,201306
20.355,160610,168,201308
20.360,160622,172,201295
20.365,160630,172,201293
20.370,160634,172,201297
20.375,160625,171,201304
20.380,160642,170,201307
20.385,160638,169,201318
20.390,160662,173,201311
20.395,160642,172,201314
20.400,160656,171,201326
20.405,160648,171,201330
20.410,160663,170,201333
20.415,160667,170,201334
20.420,160675,169,201342
20.425,160678,169,201345
20.430,160679,170,201394
20.435,160677,170,201347
20.440,160690,169,201370
20.445,160698,169,201365
20.450,160701,169,201378
20.454,160709,169,201380
20.459,160706,168,201357
20.464,160696,169,201369
20.469,160716,168,201361
20.474,160698,168,201367
20.479,160688,170,201373
20.484,160705,168,201366
20.489,160715,168,201364
20.494,160690,168,201359
20.499,160705,168,201338
20.504,160706,168,201345
20.509,160694,168,201352
20.514,160699,168,201330
20.519,160699,168,201334
20.524,160718,169,201319
20.529,160709,170,201316
20.534,160712,171,201313
20.539,160694,170,201309
20.544,160702,170,201324
20.549,160712,170,201302
20.554,160707,169,201309
20.559,160707,170,201303
20.564,160705,169,201290
20.569,160700,168,201268
20.574,160700,168,201261
20.579,160702,170,201269
20.584,160683,170,201244
20.589,160706,169,201252
20.594,160696,169,201236
20.598,160708,169,201249
20.603,160703,169,201245
20.608,160705,168,201236
20.613,160698,168,201251
20.618,160705,168,201244
20.623,160703,168,201259
20.628,160717,170,201246
20.633,160708,170,201240
20.638,160732,169,201242
20.643,160716,169,201239
20.648,160725,168,201255
20.653,160720,168,201259
20.658,160715,173,201258
20.663,160720,173,201258
20.668,160716,172,201252
20.673,160693,172,201251
20.678,160690,169,201243
20.683,160689,173,201236
20.688,160666,172,201230
20.693,160672,171,201230
20.698,160641,171,201223
20.703,160641,170,201211
20.708,160627,170,201201
20.713,160610,169,201200
20.718,160600,168,201210
20.723,160609,168,201190
20.728,160587,169,201181
20.733,160582,168,201178
20.738,160587,173,201161
20.743,160569,172,201183
20.747,160574,171,201179
20.752,160570,170,201176
20.757,160560,171,201152
20.762,160566,170,201163
20.767,160550,170,201170
20.772,160559,171,201161
20.777,160549,171,201154
20.782,160559,171,201163
20.787,160540,169,201163
20.792,160545,169,201164
20.797,160534,168,201154
20.802,160545,172,201159
20.807,160534,172,201159
20.812,160527,171,201144
20.817,160519,170,201148
20.822,160531,168,201132
20.827,160523,169,201140
20.832,160526,169,201121
20.837,160524,169,201104
20.842,160514,173,201109
20.847,160515,172,201106
20.852,160503,170,201103
20.857,160495,170,201114
20.862,160506,169,201086
20.867,160472,169,201079
20.872,160489,170,201062
20.877,160479,169,201057
20.882,160480,169,201067
20.887,160475,169,201060
20.891,160464,172,201061
20.896,160478,172,201065
20.901,160474,170,201037
20.906,160472,170,201051
20.911,160473,169,201066
20.916,160478,168,201054
20.921,160483,169,201069
20.926,160481,168,201070
20.931,160476,172,201060
20.936,160480,171,201054
20.941,160469,170,201052
20.946,160447,170,201053
20.951,160464,169,201049
20.956,160443,173,201034
20.961,160473,172,201047
20.966,160457,173,201064
20.971,160451,172,201059
20.976,160467,172,201048
20.981,160461,171,201055
20.986,160477,171,201053
20.991,160450,170,201038
20.996,160448,170,201044
21.001,160446,169,201055
21.006,160460,169,201056
21.011,160465,168,201050
21.016,160467,169,201060
21.021,160448,169,201046
21.026,160453,169,201050
21.031,160469,169,201051
21.036,160460,172,201067
21.040,160464,172,201065
21.045,160470,172,201065
21.050,160469,171,201065
21.055,160473,170,201083
21.060,160467,170,201086
21.065,160477,173,201090
21.070,160466,169,201086
21.075,160478,168,201089
21.080,160485,173,201081
21.085,160471,172,201087
21.090,160469,171,201086
21.095,160477,171,201095
21.100,160479,170,201087
21.105,160474,169,201097
21.110,160478,169,201086
21.115,160482,170,201086
21.120,160471,169,201100
21.125,160474,169,201093
21.130,160494,172,201095
21.135,160488,171,201094
21.140,160488,170,201084
21.145,160493,169,201103
21.150,160493,168,201105
21.155,160494,173,201101
21.160,160488,171,201125
21.165,160501,168,201108
21.170,160491,172,201113
21.175,160497,172,201119
21.180,160509,171,201114
21.184,160510,170,201110
21.189,160498,169,201119
21.194,160516,169,201126
21.199,160508,168,201131
21.204,160505,172,201128
21.209,160513,171,201126
21.214,160509,169,201116
21.219,160506,169,201096
21.224,160514,168,201093
21.229,160516,171,201089
21.234,160512,171,201092
21.239,160507,170,201063
21.244,160505,168,201068
21.249,160503,171,201074
21.254,160505,170,201047
21.259,160515,169,201067
21.264,160498,168,201051
21.269,160502,171,201041
21.274,160499,170,201035
21.279,160499,170,201036
21.284,160496,169,201010
21.289,160495,168,201007
21.294,160496,172,201001
21.299,160479,171,200972
21.304,160498,170,201003
21.309,160490,171,200968
21.314,160477,171,200943
21.319,160470,170,200932
21.324,160465,169,200920
21.329,160454,169,200915
21.333,160454,168,200913
21.338,160462,172,200909
21.343,160459,171,200906
21.348,160461,171,200895
21.353,160456,170,200895
21.358,160478,169,200877
21.363,160459,172,200889
21.368,160468,171,200881
21.373,160453,170,200892
21.378,160457,170,200869
21.383,160449,169,200882
21.388,160462,169,200882
21.393,160482,172,200892
21.398,160471,171,200879
21.403,160469,170,200877
21.408,160472,172,200863
21.413,160472,171,200848
21.418,160447,170,200859
21.423,160455,169,200869
21.428,160462,170,200843
21.433,160467,169,200841
21.438,160468,170,200838
21.443,160479,170,200853
21.448,160477,171,200844
21.453,160472,171,200842
21.458,160467,169,200837
21.463,160481,169,200842
21.468,160466,169,200851
21.473,160483,169,200843
21.477,160479,169,200856
21.482,160470,169,200861
21.487,160492,170,200868
21.492,160489,169,200844
21.497,160503,169,200869
21.502,160492,169,200830
21.507,160484,171,200846
21.512,160486,171,200855
21.517,160472,171,200836
21.522,160453,171,200830
21.527,160436,171,200821
21.532,160434,170,200810
21.537,160420,171,200804
21.542,160400,171,200782
21.547,160389,171,200774
21.552,160406,168,200778
21.557,160377,169,200773
21.562,160379,168,200758
21.567,160345,169,200739
21.572,160352,169,200716
21.577,160321,169,200690
21.582,160335,169,200698
21.587,160326,169,200689
21.592,160313,170,200674
21.597,160306,170,200662
21.602,160291,172,200665
21.607,160280,168,200643
21.612,160274,168,200636
21.617,160269,169,200626
21.622,160264,169,200621
21.626,160259,169,200604
21.631,160250,169,200598
21.636,160242,170,200590
21.641,160251,170,200591
21.646,160241,170,200577
21.651,160256,168,200566
21.656,160231,169,200562
21.661,160224,170,200555
21.666,160222,170,200553
21.671,160220,169,200534
21.676,160211,169,200536
21.681,160212,169,200515
21.686,160215,169,200499
21.691,160216,169,200509
21.696,160204,169,200499
21.701,160188,172,200485
21.706,160183,172,200471
21.711,160196,168,200489
21.716,160183,168,200482
21.721,160169,169,200463
21.726,160165,169,200454
21.731,160165,169,200459
21.736,160159,169,200470
21.741,160166,169,200466
21.746,160160,170,200446
21.751,160164,172,200452
21.756,160162,173,200462
21.761,160154,169,200463
21.766,160168,169,200446
21.770,160162,169,200446
21.775,160145,170,200432
21.780,160150,170,200432
21.785,160136,170,200406
21.790,160149,170,200385
21.795,160140,173,200349
21.800,160124,170,200368
21.805,160121,171,200344
21.810,160113,171,200339
21.815,160108,172,200318
21.820,160094,171,200298
21.825,160094,172,200286
21.830,160076,172,200270
21.835,160076,173,200244
21.840,160060,173,200226
21.845,160072,170,200208
21.850,160069,170,200182
21.855,160058,170,200149
21.860,160037,170,200114
21.865,160027,170,200097
21.870,160018,170,200100
21.875,159998,171,200078
21.880,160015,171,200064
21.885,160005,171,200049
21.890,159977,172,200031
21.895,159967,169,200019
21.900,159977,168,199999
21.905,159962,169,199986
21.910,159947,169,199975
21.914,159944,170,199946
21.919,159916,170,199962
21.924,159927,171,199951
21.929,159933,170,199928
21.934,159925,170,199919
21.939,159938,171,199920
21.944,159921,170,199904
21.949,159939,168,199920
21.954,159916,168,199911
21.959,159923,169,199934
21.964,159934,168,199932
21.969,159938,168,199942
21.974,159945,169,199938
21.979,159939,169,199949
21.984,159939,169,199955
21.989,159947,169,199955
21.994,159958,171,199968
21.999,159936,171,199968
22.004,159965,171,199996
22.009,159962,172,199986
22.014,159983,172,200026
22.019,159987,172,200043
22.024,159988,172,200037
22.029,159990,172,200034
22.034,160004,172,200065
22.039,160025,168,200035
22.044,160027,169,200065
22.049,160018,169,200070
22.054,160033,170,200068
22.059,160036,170,200064
22.063,160042,170,200058
22.068,160036,171,200053
22.073,160047,171,200037
22.078,160048,171,200040
22.083,160042,172,200048
22.088,160049,169,200031
22.093,160053,169,200058
22.098,160040,169,200037
22.103,160046,169,200035
22.108,160058,169,200041
22.113,160037,169,200034
22.118,160043,169,200026
22.123,160050,170,200028
22.128,160057,169,200033
22.133,160040,170,200031
22.138,160042,172,200030
22.143,160034,172,200026
22.148,160043,172,200037
22.153,160051,172,200047
22.158,160053,172,200035
22.163,160036,171,200008
22.168,160050,172,200024
22.173,160050,171,200042
22.178,160042,171,200048
22.183,160049,172,200025
22.188,160056,169,200034
22.193,160061,168,200049
22.198,160055,169,200044
22.203,160060,173,200032
22.207,160060,173,200039
22.212,160051,173,200034
22.217,160054,173,200036
22.222,160071,169,200029
22.227,160059,169,200018
22.232,160064,169,200002
22.237,160081,171,200023
22.242,160068,171,200006
22.247,160063,171,200016
22.252,160084,170,199999
22.257,160079,171,200004
22.262,160097,170,199994
22.267,160080,171,200000
22.272,160085,170,200001
22.277,160084,171,200003
22.282,160087,172,200010
22.287,160080,169,199992
22.292,160086,168,199995
22.297,160097,169,199999
22.302,160104,169,199995
22.307,160102,168,199988
22.312,160110,168,199993
22.317,160113,169,200005
22.322,160123,169,199986
22.327,160116,169,200014
22.332,160112,170,199993
22.337,160118,173,200007
22.342,160136,173,200015
22.347,160146,172,200047
22.352,160142,171,200053
22.356,160160,171,200062
22.361,160166,171,200071
22.366,160177,171,200094
22.371,160184,171,200105
22.376,160192,171,200102
22.381,160185,168,200149
22.386,160201,168,200145
22.391,160213,169,200153
22.396,160230,168,200183
22.401,160231,169,200214
22.406,160222,169,200196
22.411,160233,172,200201
22.416,160208,172,200208
22.421,160212,172,200205
22.426,160199,171,200183
22.431,160165,173,200184
22.436,160177,171,200156
22.441,160161,170,200179
22.446,160140,169,200150
22.451,160137,168,200152
22.456,160121,172,200149
22.461,160096,171,200115
22.466,160095,170,200134
22.471,160084,169,200093
22.476,160067,172,200085
22.481,160077,169,200087
22.486,160067,173,200055
22.491,160060,171,200056
22.496,160048,170,200041
22.500,160042,169,200023
22.505,160025,169,200006
22.510,160016,172,200001
22.515,160006,171,199970
22.520,160002,169,199974
22.525,159981,169,199952
22.530,159989,170,199941
22.535,159988,169,199931
22.540,159984,168,199936
22.545,159970,173,199935
22.550,159967,172,199919
22.555,159953,170,199890
22.560,159961,170,199878
22.565,159960,169,199886
22.570,159956,168,199860
22.575,159948,168,199824
22.580,159940,168,199847
22.585,159937,173,199838
22.590,159949,171,199828
22.595,159914,170,199822
22.600,159919,170,199799
22.605,159905,170,199795
22.610,159912,169,199780
22.615,159897,168,199784
22.620,159898,172,199779
22.625,159890,169,199760
22.630,159880,169,199767
22.635,159900,169,199733
22.640,159895,168,199751
22.645,159878,173,199745
22.649,159892,172,199732
22.654,159879,171,199730
22.659,159883,170,199736
22.664,159879,170,199703
22.669,159890,170,199719
22.674,159888,171,199734
22.679,159883,170,199736
22.684,159891,170,199715
22.689,159872,169,199728
22.694,159880,169,199715
22.699,159862,168,199713
22.704,159877,172,199696
22.709,159859,171,199695
22.714,159870,171,199686
22.719,159858,170,199702
22.724,159850,172,199699
22.729,159851,171,199690
22.734,159861,171,199715
22.739,159852,170,199682
22.744,159860,169,199685
22.749,159859,169,199685
22.754,159862,169,199690
22.759,159838,182,199690
22.764,159862,173,199677
22.769,159844,172,199669
22.774,159849,172,199671
22.779,159857,171,199672
22.784,159845,170,199663
22.789,159855,169,199673
22.793,159844,169,199664
22.798,159843,168,199670
22.803,159840,172,199664
22.808,159839,172,199662
22.813,159844,170,199647
22.818,159851,170,199626
22.823,159840,171,199657
22.828,159842,170,199665
22.833,159859,169,199661
22.838,159854,169,199676
22.843,159854,172,199680
22.848,159858,171,199666
22.853,159853,170,199672
22.858,159861,169,199668
22.863,159856,169,199671
22.868,159854,169,199683
22.873,159863,168,199691
22.878,159871,169,199674
22.883,159860,173,199678
22.888,159863,172,199661
22.893,159864,171,199678
22.898,159858,171,199666
22.903,159864,170,199663
22.908,159866,169,199653
22.913,159872,169,199668
22.918,159887,170,199650
22.923,159863,169,199656
22.928,159864,169,199658
22.933,159875,168,199642
22.937,159856,172,199643
22.942,159885,172,199648
22.947,159865,171,199650
22.952,159866,170,199637
22.957,159880,170,199640
22.962,159887,169,199631
22.967,159872,170,199640
22.972,159878,170,199658
22.977,159865,169,199627
22.982,159890,169,199636
22.987,159876,168,199630
22.992,159876,172,199634
22.997,159871,171,199634
23.002,159887,170,199624
23.007,159894,170,199638
23.012,159894,169,199630
23.017,159895,170,199620
23.022,159900,170,199629
23.027,159885,169,199632
23.032,159918,169,199633
23.037,159897,173,199619
23.042,159904,172,199641
23.047,159915,171,199635
23.052,159921,170,199647
23.057,159906,169,199637
23.062,159922,169,199646
23.067,159912,173,199637
23.072,159910,171,199642
23.077,159920,171,199654
23.082,159924,170,199650
23.086,159908,169,199662
23.091,159936,168,199664
23.096,159928,172,199651
23.101,159932,171,199668
23.106,159938,171,199669
23.111,159944,172,199687
23.116,159936,171,199675
23.121,159947,171,199671
23.126,159953,170,199681
23.131,159956,169,199680
23.136,159951,169,199686
23.141,159975,168,199674
23.146,159965,172,199680
23.151,159957,171,199701
23.156,159970,170,199667
23.161,159968,172,199702
23.166,159982,171,199710
23.171,159960,170,199694
23.176,159981,170,199709
23.181,159973,170,199696
23.186,159965,169,199695
23.191,159980,169,199702
23.196,159981,172,199706
23.201,160011,171,199726
23.206,159996,170,199724
23.211,159990,171,199744
23.216,160017,171,199748
23.221,160020,170,199745
23.226,160024,169,199767
23.230,160016,169,199758
23.235,160016,168,199762
23.240,160039,172,199777
23.245,160055,171,199804
23.250,160046,171,199791
23.255,160037,170,199803
23.260,160049,172,199783
23.265,160037,171,199787
23.270,160033,170,199788
23.275,160010,169,199787
23.280,160010,170,199764
23.285,159995,169,199768
23.290,159999,168,199777
23.295,159968,168,199743
23.300,159968,173,199734
23.305,159963,172,199736
23.310,159952,168,199733
23.315,159935,172,199709
23.320,159940,172,199699
23.325,159926,171,199693
23.330,159914,169,199688
23.335,159928,169,199686
23.340,159910,169,199691
23.345,159909,172,199673
23.350,159897,171,199683
23.355,159903,170,199683
23.360,159911,171,199652
23.365,159891,170,199661
23.370,159903,169,199666
23.375,159892,169,199666
23.379,159884,169,199657
23.384,159877,168,199641
23.389,159877,173,199655
23.394,159877,171,199657
23.399,159866,171,199628
23.404,159880,171,199658
23.409,159879,169,199640
23.414,159858,169,199641
23.419,159861,169,199637
23.424,159845,168,199626
23.429,159862,172,199606
23.434,159844,172,199617
23.439,159838,172,199613
23.444,159845,171,199588
23.449,159829,171,199598
23.454,159842,172,199608
23.459,159848,169,199581
23.464,159831,169,199613
23.469,159828,172,199578
23.474,159817,172,199582
23.479,159816,172,199595
23.484,159818,171,199595
23.489,159817,170,199577
23.494,159806,169,199593
23.499,159805,169,199585
23.504,159844,171,199604
23.509,159830,169,199586
23.514,159815,168,199582
23.519,159835,169,199580
23.523,159828,172,199598
23.528,159819,171,199592
23.533,159830,170,199573
23.538,159812,170,199558
23.543,159817,169,199596
23.548,159812,168,199601
23.553,159831,171,199577
23.558,159819,171,199581
23.563,159809,171,199578
23.568,159828,170,199600
23.573,159812,169,199573
23.578,159803,170,199582
23.583,159808,169,199566
23.588,159805,169,199568
23.593,159809,172,199560
23.598,159790,171,199557
23.603,159812,169,199552
23.608,159806,172,199557
23.613,159802,171,199540
23.618,159818,171,199561
23.623,159778,170,199533
23.628,159787,169,199513
23.633,159775,169,199520
23.638,159784,168,199525
23.643,159784,172,199526
23.648,159793,174,199551
23.653,159770,168,199526
23.658,159771,172,199505
23.663,159773,171,199504
23.668,159783,170,199517
23.672,159778,170,199501
23.677,159776,170,199526
23.682,159790,170,199500
23.687,159774,169,199510
23.692,159782,169,199497
23.697,159772,170,199501
23.702,159779,169,199480
23.707,159789,168,199509
23.712,159780,168,199487
23.717,159772,172,199513
23.722,159789,172,199489
23.727,159798,171,199490
23.732,159796,170,199481
23.737,159793,170,199497
23.742,159799,170,199490
23.747,159789,171,199494
23.752,159789,170,199501
23.757,159796,170,199498
23.762,159792,169,199489
23.767,159800,169,199501
23.772,159799,168,199499
23.777,159808,173,199509
23.782,159806,172,199481
23.787,159805,171,199505
23.792,159814,170,199507
23.797,159809,173,199498
23.802,159819,172,199506
23.807,159806,172,199515
23.812,159816,171,199500
23.816,159827,171,199504
23.821,159805,170,199510
23.826,159815,170,199498
23.831,159823,170,199505
23.836,159836,169,199505
23.841,159838,168,199518
23.846,159838,169,199526
23.851,159837,168,199515
23.856,159840,168,199530
23.861,159848,171,199495
23.866,159836,170,199517
23.871,159853,169,199537
23.876,159850,169,199515
23.881,159849,172,199523
23.886,159848,171,199531
23.891,159857,170,199526
23.896,159853,169,199523
23.901,159856,169,199534
23.906,159865,172,199531
23.911,159853,171,199515
23.916,159869,171,199540
23.921,159868,171,199533
23.926,159865,170,199537
23.931,159870,169,199543
23.936,159872,169,199543
23.941,159891,171,199541
23.946,159878,169,199549
23.951,159881,169,199562
23.956,159889,168,199572
23.961,159890,172,199544
23.965,159915,172,199565
23.970,159901,171,199565
23.975,159911,170,199559
23.980,159906,170,199572
23.985,159897,169,199562
23.990,159907,171,199576
23.995,159921,170,199574
24.000,159935,170,199576
24.005,159921,170,199584
24.010,159926,169,199589
24.015,159932,168,199600
24.020,159947,172,199579
24.025,159943,172,199610
24.030,159959,171,199598
24.035,159952,170,199595
24.040,159943,169,199615
24.045,159963,169,199624
24.050,159965,172,199617
24.055,159967,171,199631
24.060,159948,171,199621
24.065,159969,170,199636
24.070,159947,169,199621
24.075,159927,169,199603
24.080,159929,169,199607
24.085,159915,168,199573
24.090,159918,171,199591
24.095,159905,170,199596
24.100,159893,170,199572
24.105,159884,169,199586
24.109,159873,169,199569
24.114,159867,168,199577
24.119,159862,168,199567
24.124,159869,172,199581
24.129,159851,172,199555
24.134,159856,170,199553
24.139,159852,171,199557
24.144,159851,168,199565
24.149,159821,172,199565
24.154,159837,171,199558
24.159,159838,171,199546
24.164,159841,170,199566
24.169,159820,170,199573
24.174,159841,169,199590
24.179,159825,169,199577
24.184,159831,171,199613
24.189,159838,171,199580
24.194,159828,170,199562
24.199,159816,170,199578
24.204,159809,169,199580
24.209,159811,169,199589
24.214,159809,169,199562
24.219,159807,169,199569
24.224,159808,169,199572
24.229,159804,168,199562
24.234,159788,169,199553
24.239,159792,169,199549
24.244,159778,169,199529
24.249,159787,168,199544
24.253,159773,168,199537
24.258,159778,173,199524
24.263,159769,171,199531
24.268,159749,171,199518
24.273,159751,171,199510
24.278,159749,170,199480
24.283,159747,172,199512
24.288,159743,172,199479
24.293,159741,170,199470
24.298,159735,170,199462
24.303,159737,170,199455
24.308,159737,169,199451
24.313,159729,168,199461
24.318,159717,168,199462
24.323,159736,171,199445
24.328,159726,170,199449
24.333,159716,168,199447
24.338,159722,173,199458
24.343,159725,171,199442
24.348,159721,170,199445
24.353,159707,170,199436
24.358,159718,169,199437
24.363,159716,168,199444
24.368,159718,171,199446
24.373,159705,171,199449
24.378,159690,169,199452
24.383,159712,171,199441
24.388,159718,170,199453
24.393,159702,169,199439
24.398,159710,168,199442
24.402,159712,172,199446
24.407,159718,172,199444
24.412,159710,170,199443
24.417,159704,169,199424
24.422,159710,169,199442
24.427,159714,172,199428
24.432,159700,168,199436
24.437,159708,168,199430
24.442,159699,171,199430
24.447,159700,170,199432
24.452,159681,169,199423
24.457,159696,169,199430
24.462,159698,168,199411
24.467,159698,172,199412
24.472,159688,172,199401
24.477,159708,171,199392
24.482,159692,172,199399
24.487,159694,172,199400
24.492,159704,171,199419
24.497,159696,170,199409
24.502,159693,170,199411
24.507,159709,170,199413
24.512,159705,169,199403
24.517,159708,169,199404
24.522,159691,169,199421
24.527,159700,169,199419
24.532,159701,169,199411
24.537,159702,168,199413
24.542,159701,168,199430
24.546,159711,172,199425
24.551,159720,171,199415
24.556,159702,171,199438
24.561,159718,171,199427
24.566,159722,170,199428
24.571,159723,170,199418
24.576,159770,168,199440
24.581,159723,170,199415
24.586,159720,170,199439
24.591,159718,170,199428
24.596,159733,170,199429
24.601,159726,170,199435
24.606,159727,169,199440
24.611,159746,169,199442
24.616,159733,168,199434
24.621,159745,172,199471
24.626,159747,171,199456
24.631,159752,170,199464
24.636,159762,170,199474
24.641,159751,169,199445
24.646,159764,168,199452
24.651,159769,168,199451
24.656,159756,171,199450
24.661,159761,171,199455
24.666,159772,170,199465
24.671,159756,169,199473
24.676,159777,170,199478
24.681,159783,170,199457
24.686,159776,169,199501
24.691,159782,168,199470
24.695,159782,172,199478
24.700,159784,171,199460
24.705,159802,170,199486
24.710,159808,169,199483
24.715,159796,169,199476
24.720,159797,169,199459
24.725,159795,170,199502
24.730,159795,170,199482
24.735,159797,169,199481
24.740,159809,169,199471
24.745,159792,169,199470
24.750,159812,169,199465
24.755,159784,172,199443
24.760,159801,172,199446
24.765,159818,170,199451
24.770,159821,169,199442
24.775,159804,171,199439
24.780,159802,170,199445
24.785,159816,169,199443
24.790,159797,169,199438
24.795,159811,168,199426
24.800,159804,168,199436
24.805,159809,171,199430
24.810,159804,171,199439
24.815,159803,169,199421
24.820,159826,171,199436
24.825,159833,170,199444
24.830,159828,169,199446
24.835,159830,169,199451
24.839,159838,169,199481
24.844,159835,169,199472
24.849,159850,169,199486
24.854,159856,169,199498
24.859,159863,172,199503
24.864,159860,171,199515
24.869,159872,172,199512
24.874,159874,172,199517
24.879,159887,170,199530
24.884,159882,170,199538
24.889,159887,169,199539
24.894,159901,169,199539
24.899,159904,168,199556
24.904,159912,172,199538
24.909,159924,172,199560
24.914,159919,172,199573
24.919,159939,170,199561
24.924,159911,169,199583
24.929,159939,169,199579
24.934,159947,172,199585
24.939,159922,171,199584
24.944,159920,170,199564
24.949,159919,170,199556
24.954,159910,169,199554
24.959,159893,169,199556
24.964,159872,168,199533
24.969,159878,172,199527
24.974,159848,171,199510
24.979,159831,171,199506
24.984,159827,170,199515
24.988,159823,169,199499
24.993,159811,169,199502
24.998,159798,168,199479
25.003,159781,172,199473
25.008,159785,171,199467
25.013,159788,171,199469
25.018,159779,171,199466
25.023,159767,170,199463
25.028,159774,169,199446
25.033,159766,169,199459
25.038,159748,168,199461
25.043,159750,173,199431
25.048,159752,172,199453
25.053,159744,171,199440
25.058,159748,170,199453
25.063,159737,171,199440
25.068,159746,171,199449
25.073,159728,170,199429
25.078,159722,169,199436
25.083,159729,169,199429
25.088,159726,169,199443
25.093,159709,169,199437
25.098,159714,168,199429
25.103,159712,173,199423
25.108,159699,172,199424
25.113,159710,169,199430
25.118,159706,168,199414
25.123,159683,172,199424
25.128,159693,172,199422
25.132,159678,171,199394
25.137,159682,170,199400
25.142,159666,169,199400
25.147,159670,169,199375
25.152,159655,169,199368
25.157,159653,168,199379
25.162,159650,169,199371
25.167,159634,169,199380
25.172,159629,169,199360
25.177,159634,168,199345
25.182,159628,172,199340
25.187,159628,172,199343
25.192,159629,171,199336
25.197,159625,171,199342
25.202,159634,170,199348
25.207,159634,169,199334
25.212,159624,170,199333
25.217,159630,170,199335
25.222,159600,169,199341
25.227,159620,169,199315
25.232,159597,169,199316
25.237,159600,173,199319
25.242,159599,172,199324
25.247,159593,171,199317
25.252,159602,170,199310
25.257,159596,170,199316
25.262,159587,169,199316
25.267,159597,169,199308
25.272,159583,168,199325
25.276,159591,172,199315
25.281,159582,172,199313
25.286,159572,171,199312
25.291,159587,170,199315
25.296,159583,170,199309
25.301,159592,170,199320
25.306,159574,168,199317
25.311,159587,170,199311
25.316,159579,170,199321
25.321,159578,169,199299
25.326,159588,169,199300
25.331,159577,169,199307
25.336,159572,168,199291
25.341,159574,168,199306
25.346,159587,168,199288
25.351,159588,172,199310
25.356,159583,169,199308
25.361,159584,169,199304
25.366,159575,169,199299
25.371,159571,172,199313
25.376,159590,172,199305
25.381,159580,171,199305
25.386,159577,171,199308
25.391,159581,169,199296
25.396,159576,169,199296
25.401,159580,168,199308
25.406,159568,169,199296
25.411,159588,169,199314
25.416,159583,168,199312
25.421,159590,173,199295
25.425,159578,172,199300
25.430,159591,172,199310
25.435,159589,171,199311
25.440,159599,170,199322
25.445,159591,169,199297
25.450,159599,169,199320
25.455,159600,170,199316
25.460,159589,170,199322
25.465,159598,169,199326
25.470,159598,169,199309
25.475,159606,168,199338
25.480,159610,172,199320
25.485,159602,171,199338
25.490,159615,170,199338
25.495,159610,170,199307
25.500,159617,170,199334
25.505,159617,170,199330
25.510,159609,170,199329
25.515,159610,169,199322
25.520,159612,169,199337
25.525,159624,169,199331
25.530,159616,168,199325
25.535,159613,172,199336
25.540,159628,171,199326
25.545,159631,171,199322
25.550,159630,172,199323
25.555,159633,170,199334
25.560,159631,169,199328
25.565,159645,168,199324
25.569,159643,173,199322
25.574,159650,172,199327
25.579,159631,171,199334
25.584,159621,170,199326
25.589,159653,169,199311
25.594,159649,169,199316
25.599,159656,170,199315
25.604,159651,172,199320
25.609,159645,171,199308
25.614,159645,171,199297
25.619,159648,171,199310
25.624,159662,170,199316
25.629,159659,170,199299
25.634,159657,169,199295
25.639,159661,169,199297
25.644,159655,169,199306
25.649,159665,170,199287
25.654,159680,170,199295
25.659,159669,170,199322
25.664,159664,169,199293
25.669,159658,169,199301
25.674,159672,169,199304
25.679,159691,173,199307
25.684,159680,171,199308
25.689,159680,171,199297
25.694,159682,170,199290
25.699,159676,169,199296
25.704,159696,168,199301
25.709,159677,172,199294
25.714,159688,172,199289
25.718,159689,171,199295
25.723,159703,170,199301
25.728,159708,170,199300
25.733,159704,170,199298
25.738,159688,169,199297
25.743,159695,169,199287
25.748,159701,168,199310
25.753,159690,173,199295
25.758,159703,172,199296
25.763,159711,171,199281
25.768,159716,170,199288
25.773,159721,170,199289
25.778,159718,170,199278
25.783,159720,169,199292
25.788,159718,168,199300
25.793,159723,168,199298
25.798,159730,172,199297
25.803,159732,172,199278
25.808,159728,171,199300
25.813,159750,170,199305
25.818,159741,170,199294
25.823,159751,169,199299
25.828,159732,169,199305
25.833,159750,168,199305
25.838,159767,173,199302
25.843,159765,168,199300
25.848,159765,169,199321
25.853,159768,173,199322
25.858,159776,172,199312
25.862,159779,171,199309
25.867,159789,170,199323
25.872,159779,169,199314
25.877,159797,169,199316
25.882,159814,168,199337
25.887,159796,172,199322
25.892,159797,169,199312
25.897,159805,173,199321
25.902,159775,172,199304
25.907,159778,171,199293
25.912,159750,170,199288
25.917,159740,169,199281
25.922,159735,169,199245
25.927,159723,169,199254
25.932,159715,172,199255
25.937,159694,172,199243
25.942,159695,170,199221
25.947,159688,171,199229
25.952,159685,170,199209
25.957,159662,170,199210
25.962,159665,169,199198
25.967,159650,168,199196
25.972,159659,173,199176
25.977,159657,171,199183
25.982,159658,170,199183
25.987,159654,169,199185
25.992,159656,171,199189
25.997,159646,170,199196
26.002,159637,170,199205
26.007,159642,169,199199
26.011,159645,173,199195
26.016,159641,171,199194
26.021,159650,170,199209
26.026,159646,170,199215
26.031,159649,169,199217
26.036,159658,168,199227
26.041,159646,170,199239
26.046,159652,169,199250
26.051,159643,169,199264
26.056,159656,173,199273
26.061,159655,171,199275
26.066,159655,171,199268
26.071,159665,170,199308
26.076,159665,170,199290
26.081,159678,169,199313
26.086,159666,170,199338
26.091,159659,171,199305
26.096,159666,170,199333
26.101,159655,169,199323
26.106,159660,172,199328
26.111,159659,171,199324
26.116,159647,170,199327
26.121,159656,169,199328
26.126,159659,169,199322
26.131,159674,173,199321
26.136,159640,169,199329
26.141,159672,168,199329
26.146,159655,172,199327
26.151,159665,171,199330
26.155,159674,170,199324
26.160,159672,170,199324
26.165,159667,169,199325
26.170,159671,172,199323
26.175,159679,170,199313
26.180,159664,170,199331
26.185,159678,171,199305
26.190,159666,170,199327
26.195,159666,169,199326
26.200,159670,173,199308
26.205,159665,172,199298
26.210,159656,171,199316
26.215,159647,170,199296
26.220,159656,170,199293
26.225,159632,169,199308
26.230,159669,169,199302
26.235,159651,170,199274
26.240,159651,170,199293
26.245,159659,169,199290
26.250,159661,169,199280
26.255,159663,172,199287
26.260,159652,172,199277
26.265,159647,170,199270
26.270,159651,170,199284
26.275,159640,169,199264
26.280,159627,169,199276
26.285,159648,170,199262
26.290,159640,170,199260
26.295,159628,169,199252
26.300,159637,173,199243
26.304,159616,172,199234
26.309,159641,171,199250
26.314,159647,170,199244
26.319,159648,170,199234
26.324,159650,169,199249
26.329,159650,173,199247
26.334,159651,169,199239
26.339,159649,169,199250
26.344,159646,169,199251
26.349,159661,169,199281
26.354,159654,172,199259
26.359,159667,172,199247
26.364,159652,170,199270
26.369,159656,170,199264
26.374,159662,169,199271
26.379,159670,168,199257
26.384,159666,173,199273
26.389,159670,172,199271
26.394,159673,171,199274
26.399,159682,170,199275
26.404,159672,170,199285
26.409,159680,170,199269
26.414,159676,169,199259
26.419,159687,168,199268
26.424,159676,173,199264
26.429,159703,169,199249
26.434,159695,173,199272
26.439,159701,172,199292
26.444,159697,171,199266
26.448,159717,171,199284
26.453,159695,170,199273
26.458,159699,169,199291
26.463,159708,169,199281
26.468,159713,169,199295
26.473,159704,173,199289
26.478,159705,169,199301
26.483,159720,169,199291
26.488,159726,173,199294
26.493,159704,172,199299
26.498,159709,171,199298
26.503,159726,170,199287
26.508,159718,169,199304
26.513,159737,169,199315
26.518,159751,168,199317
26.523,159746,172,199310
26.528,159759,170,199333
26.533,159761,169,199334
26.538,159761,169,199333
26.543,159761,168,199353
26.548,159761,173,199348
26.553,159775,171,199381
26.558,159781,171,199352
26.563,159801,170,199362
26.568,159779,170,199374
26.573,159808,169,199403
26.578,159780,170,199409
26.583,159819,169,199419
26.588,159805,169,199418
26.592,159815,172,199429
26.597,159822,171,199451
26.602,159838,170,199449
26.607,159833,169,199456
26.612,159848,169,199480
26.617,159842,169,199481
26.622,159848,169,199497
26.627,159850,169,199507
26.632,159880,169,199524
26.637,159871,173,199512
26.642,159874,172,199517
26.647,159898,171,199536
26.652,159906,170,199555
26.657,159905,169,199565
26.662,159900,169,199557
26.667,159920,169,199572
26.672,159883,168,199618
26.677,159924,170,199580
26.682,159928,170,199583
26.687,159932,170,199586
26.692,159947,169,199606
26.697,159937,168,199613
26.702,159965,173,199620
26.707,159964,172,199620
26.712,159964,171,199628
26.717,159956,170,199633
26.722,159959,172,199639
26.727,159985,171,199653
26.732,159977,170,199660
26.737,159988,170,199661
26.741,159988,170,199661
26.746,160005,169,199663
26.751,159988,168,199667
26.756,159994,172,199664
26.761,159983,171,199657
26.766,159995,170,199675
26.771,159994,173,199651
26.776,159990,171,199655
26.781,159990,171,199652
26.786,159975,171,199643
26.791,159978,170,199637
26.796,159951,169,199627
26.801,159950,169,199627
26.806,159925,169,199607
26.811,159923,169,199591
26.816,159921,168,199599
26.821,159897,169,199574
26.826,159890,169,199557
26.831,159881,173,199560
26.836,159867,172,199541
26.841,159861,172,199517
26.846,159851,171,199516
26.851,159852,170,199503
26.856,159842,169,199474
26.861,159832,169,199477
26.866,159815,168,199443
26.871,159808,172,199444
26.876,159798,171,199442
26.881,159790,170,199408
26.885,159767,169,199386
26.890,159723,169,199345
26.895,159720,169,199329
26.900,159706,172,199308
26.905,159687,171,199277
26.910,159677,170,199249
26.915,159659,172,199240
26.920,159651,171,199250
26.925,159659,170,199232
26.930,159645,169,199215
26.935,159636,169,199217
26.940,159631,173,199205
26.945,159623,171,199212
26.950,159630,170,199189
26.955,159636,169,199204
26.960,159622,169,199197
26.965,159622,170,199188
26.970,159616,170,199196
26.975,159619,169,199202
26.980,159599,169,199213
26.985,159605,168,199216
26.990,159602,172,199213
26.995,159604,171,199223
27.000,159590,170,199225
27.005,159607,169,199222
27.010,159597,168,199230
27.015,159622,170,199248
27.020,159617,171,199213
27.025,159622,170,199235
27.030,159621,169,199264
27.034,159608,168,199246
27.039,159622,173,199257
27.044,159638,172,199268
27.049,159632,172,199275
27.054,159644,171,199280
27.059,159632,171,199292
27.064,159651,170,199287
27.069,159639,170,199291
27.074,159627,169,199303
27.079,159626,169,199321
27.084,159622,169,199295
27.089,159648,169,199322
27.094,159637,173,199335
27.099,159653,172,199328
27.104,159631,171,199328
27.109,159638,171,199351
27.114,159644,168,199340
27.119,159660,168,199358
27.124,159654,172,199355
27.129,159655,172,199357
27.134,159657,171,199362
27.139,159646,171,199356
27.144,159664,171,199373
27.149,159654,171,199380
27.154,159656,170,199369
27.159,159655,171,199393
27.164,159663,168,199384
27.169,159663,173,199383
27.174,159662,172,199380
27.178,159681,172,199381
27.183,159655,171,199393
27.188,159659,171,199366
27.193,159673,170,199382
27.198,159663,170,199383
27.203,159671,170,199406
27.208,159680,169,199387
27.213,159685,170,199377
27.218,159686,170,199402
27.223,159672,170,199393
27.228,159693,169,199395
27.233,159682,169,199405
27.238,159689,169,199408
27.243,159687,169,199424
27.248,159706,168,199420
27.253,159698,172,199428
27.258,159698,169,199417
27.263,159703,173,199408
27.268,159715,172,199431
27.273,159710,171,199425
27.278,159686,170,199427
27.283,159711,170,199438
27.288,159718,170,199446
27.293,159709,169,199449
27.298,159708,169,199452
27.303,159722,169,199447
27.308,159727,170,199448
27.313,159736,170,199454
27.318,159726,169,199447
27.323,159734,169,199463
27.327,159735,168,199469
27.332,159728,168,199468
27.337,159735,173,199457
27.342,159741,173,199460
27.347,159743,172,199445
27.352,159744,172,199473
27.357,159744,170,199450
27.362,159733,169,199475
27.367,159764,169,199476
27.372,159764,168,199471
27.377,159771,168,199473
27.382,159768,172,199477
27.387,159762,172,199471
27.392,159771,170,199476
27.397,159768,170,199476
27.402,159772,170,199476
27.407,159775,171,199490
27.412,159786,171,199489
27.417,159789,170,199477
27.422,159783,170,199469
27.427,159783,169,199486
27.432,159794,168,199490
27.437,159797,172,199470
27.442,159802,172,199492
27.447,159793,171,199486
27.452,159804,173,199530
27.457,159792,173,199476
27.462,159806,171,199490
27.467,159801,171,199509
27.471,159808,171,199488
27.476,159816,170,199497
27.481,159828,170,199510
27.486,159815,169,199506
27.491,159817,169,199497
27.496,159815,169,199511
27.501,159820,171,199513
27.506,159831,168,199512
27.511,159845,172,199506
27.516,159848,171,199512
27.521,159840,171,199529
27.526,159862,170,199510
27.531,159855,170,199535
27.536,159850,169,199530
27.541,159861,169,199533
27.546,159869,169,199567
27.551,159875,171,199552
27.556,159875,171,199555
27.561,159888,171,199541
27.566,159877,170,199562
27.571,159884,170,199559
27.576,159889,170,199573
27.581,159903,170,199571
27.586,159898,169,199581
27.591,159924,169,199562
27.596,159908,169,199584
27.601,159923,170,199614
27.606,159922,170,199604
27.611,159922,170,199602
27.615,159936,169,199609
27.620,159934,169,199595
27.625,159929,169,199623
27.630,159943,169,199608
27.635,159917,168,199622
27.640,159910,173,199620
27.645,159913,171,199594
27.650,159906,169,199600
27.655,159900,168,199592
27.660,159888,169,199581
27.665,159869,169,199589
27.670,159851,169,199575
27.675,159859,168,199585
27.680,159845,173,199574
27.685,159851,172,199563
27.690,159838,172,199547
27.695,159829,172,199564
27.700,159808,169,199549
27.705,159815,168,199531
27.710,159809,168,199542
27.715,159819,168,199535
27.720,159801,168,199539
27.725,159799,173,199518
27.730,159812,172,199536
27.735,159807,171,199533
27.740,159787,170,199545
27.745,159778,168,199526
27.750,159786,171,199512
27.755,159780,170,199510
27.760,159778,170,199499
27.764,159775,170,199514
27.769,159751,170,199501
27.774,159767,169,199499
27.779,159753,169,199501
27.784,159766,169,199495
27.789,159764,169,199492
27.794,159754,170,199487
27.799,159740,169,199496
27.804,159746,169,199495
27.809,159730,168,199497
27.814,159741,172,199473
27.819,159739,172,199473
27.824,159733,171,199490
27.829,159729,171,199466
27.834,159718,170,199474
27.839,159717,170,199467
27.844,159720,173,199473
27.849,159712,172,199466
27.854,159708,171,199476
27.859,159702,171,199460
27.864,159706,172,199466
27.869,159706,171,199462
27.874,159711,170,199466
27.879,159696,170,199488
27.884,159708,170,199475
27.889,159716,170,199492
27.894,159721,169,199477
27.899,159719,169,199482
27.904,159728,169,199477
27.908,159724,168,199453
27.913,159711,172,199459
27.918,159711,172,199459
27.923,159711,171,199468
27.928,159731,171,199466
27.933,159699,170,199464
27.938,159703,170,199472
27.943,159702,170,199472
27.948,159697,169,199466
27.953,159701,168,199469
27.958,159697,168,199456
27.963,159712,173,199470
27.968,159691,171,199473
27.973,159697,170,199472
27.978,159720,170,199478
27.983,159706,170,199438
27.988,159694,170,199455
27.993,159703,168,199463
27.998,159682,172,199444
28.003,159694,171,199442
28.008,159681,171,199439
28.013,159689,170,199453
28.018,159684,169,199436
28.023,159682,169,199429
28.028,159685,168,199422
28.033,159690,168,199405
28.038,159705,169,199447
28.043,159688,169,199446
28.048,159689,168,199440
28.053,159701,172,199443
28.057,159692,171,199449
28.062,159695,171,199445
28.067,159704,170,199479
28.072,159713,169,199461
28.077,159726,169,199466
28.082,159701,168,199459
28.087,159718,169,199467
28.092,159708,169,199469
28.097,159714,168,199472
28.102,159722,168,199482
28.107,159724,172,199481
28.112,159725,172,199477
28.117,159739,172,199499
28.122,159723,172,199495
28.127,159741,171,199507
28.132,159744,170,199500
28.137,159743,172,199503
28.142,159748,171,199502
28.147,159760,170,199512
28.152,159766,170,199503
28.157,159748,169,199491
28.162,159768,169,199522
28.167,159759,169,199525
28.172,159763,172,199527
28.177,159758,171,199528
28.182,159768,170,199537
28.187,159780,170,199530
28.192,159778,171,199538
28.197,159804,170,199541
28.201,159809,170,199543
28.206,159791,169,199531
28.211,159797,169,199535
28.216,159803,168,199548
28.221,159812,172,199563
28.226,159804,171,199552
28.231,159814,171,199567
28.236,159812,172,199563
28.241,159818,172,199559
28.246,159835,171,199568
28.251,159817,170,199577
28.256,159845,169,199566
28.261,159819,169,199577
28.266,159840,169,199557
28.271,159831,168,199576
28.276,159841,172,199573
28.281,159850,174,199573
28.286,159844,172,199595
28.291,159849,172,199585
28.296,159855,170,199611
28.301,159859,170,199577
28.306,159860,169,199612
28.311,159866,169,199592
28.316,159874,169,199604
28.321,159878,172,199601
28.326,159873,171,199619
28.331,159878,169,199606
28.336,159883,172,199634
28.341,159879,172,199617
28.346,159879,171,199624
28.350,159900,171,199615
28.355,159909,169,199636
28.360,159903,169,199634
28.365,159904,168,199626
28.370,159903,172,199638
28.375,159901,170,199638
28.380,159913,172,199658
28.385,159914,171,199648
28.390,159923,171,199639
28.395,159929,170,199663
28.400,159933,169,199641
28.405,159928,169,199665
28.410,159933,172,199675
28.415,159940,171,199663
28.420,159927,171,199668
28.425,159954,170,199652
28.430,159955,173,199677
28.435,159943,171,199682
28.440,159957,171,199670
28.445,159955,170,199668
28.450,159957,170,199682
28.455,159955,169,199673
28.460,159969,168,199694
28.465,159976,172,199676
28.470,159975,171,199703
28.475,159969,170,199688
28.480,159992,173,199700
28.485,159993,171,199684
28.490,160001,171,199701
28.494,160001,170,199701
28.499,160007,169,199713
28.504,160007,169,199709
28.509,160021,168,199731
28.514,160006,172,199731
28.519,160006,171,199709
28.524,160013,171,199692
28.529,159989,172,199704
28.534,159968,171,199691
28.539,159958,170,199678
28.544,159943,169,199658
28.549,159956,169,199661
28.554,159931,168,199650
28.559,159930,172,199662
28.564,159915,171,199665
28.569,159910,171,199664
28.574,159925,171,199598
28.579,159889,171,199631
28.584,159880,171,199622
28.589,159872,170,199616
28.594,159859,169,199594
28.599,159858,168,199597
28.604,159846,171,199594
28.609,159863,170,199579
28.614,159853,169,199592
28.619,159846,168,199593
28.624,159854,170,199587
28.629,159839,170,199584
28.634,159839,169,199577
28.639,159836,168,199593
28.643,159834,171,199583
28.648,159824,170,199564
28.653,159821,169,199576
28.658,159820,168,199562
28.663,159818,172,199579
28.668,159817,170,199570
28.673,159808,172,199574
28.678,159799,171,199560
28.683,159799,170,199566
28.688,159801,168,199549
28.693,159799,172,199557
28.698,159790,171,199562
28.703,159797,170,199547
28.708,159778,168,199559
28.713,159780,172,199546
28.718,159766,171,199553
28.723,159773,173,199533
28.728,159771,171,199543
28.733,159770,170,199531
28.738,159765,169,199545
28.743,159774,168,199535
28.748,159749,172,199522
28.753,159754,171,199519
28.758,159749,170,199509
28.763,159748,169,199497
28.768,159737,169,199500
28.773,159736,170,199505
28.778,159734,169,199511
28.783,159742,173,199499
28.787,159753,171,199493
28.792,159735,170,199507
28.797,159730,169,199493
28.802,159734,169,199488
28.807,159728,172,199498
28.812,159738,170,199486
28.817,159723,171,199512
28.822,159723,171,199487
28.827,159715,170,199475
28.832,159716,169,199466
28.837,159713,168,199468
28.842,159710,171,199457
28.847,159727,170,199477
28.852,159710,169,199484
28.857,159719,172,199465
28.862,159721,171,199462
28.867,159718,172,199471
28.872,159726,171,199460
28.877,159714,169,199463
28.882,159717,169,199471
28.887,159707,172,199474
28.892,159710,171,199456
28.897,159718,169,199465
28.902,159712,168,199454
28.907,159716,171,199433
28.912,159706,169,199448
28.917,159709,170,199459
28.922,159709,169,199436
28.927,159697,168,199429
28.931,159704,172,199429
28.936,159695,171,199415
28.941,159711,170,199424
28.946,159708,169,199436
28.951,159720,168,199423
28.956,159713,172,199397
28.961,159701,171,199415
28.966,159708,173,199421
28.971,159722,171,199426
28.976,159722,171,199416
28.981,159710,170,199405
28.986,159711,169,199408
28.991,159726,168,199430
28.996,159721,172,199406
29.001,159731,170,199417
29.006,159720,169,199402
29.011,159740,168,199414
29.016,159741,172,199406
29.021,159726,171,199404
29.026,159727,170,199413
29.031,159733,169,199399
29.036,159736,172,199419
29.041,159744,171,199425
29.046,159739,170,199425
29.051,159748,169,199429
29.056,159748,169,199414
29.061,159754,169,199426
29.066,159755,169,199448
29.071,159760,169,199429
29.076,159760,173,199417
29.080,159762,171,199426
29.085,159762,170,199421
29.090,159774,169,199409
29.095,159776,169,199422
29.100,159776,168,199413
29.105,159783,172,199407
29.110,159790,177,199418
29.115,159785,172,199430
29.120,159771,171,199435
29.125,159778,171,199425
29.130,159788,170,199430
29.135,159796,169,199430
29.140,159796,169,199415
29.145,159788,173,199420
29.150,159800,172,199426
29.155,159792,170,199432
29.160,159807,172,199426
29.165,159802,170,199425
29.170,159816,169,199432
29.175,159809,168,199439
29.180,159830,172,199437
29.185,159819,171,199456
29.190,159836,169,199465
29.195,159827,169,199447
29.200,159845,172,199463
29.205,159851,171,199454
29.210,159850,168,199478
29.215,159851,171,199481
29.220,159867,171,199484
29.224,159861,169,199499
29.229,159868,169,199506
29.234,159890,172,199510
29.239,159886,171,199513
29.244,159885,170,199532
29.249,159911,169,199528
29.254,159893,168,199567
29.259,159912,169,199548
29.264,159921,168,199546
29.269,159924,171,199551
29.274,159911,171,199553
29.279,159910,169,199537
29.284,159932,169,199554
29.289,159916,168,199537
