df_hash,22ZHK4.PMY16R
device,HZ2X61
project_hash,29R7
project_name,istanbul_aydin_university
person_hash,29R7.EM1Q
person_label,V41
date_time_start,2025-10-27_13-47-49.203000_+03
date_time_start_unix,1761558469.203
date_time_end,2025-10-27_13-56-02.654000_+03
length_difference_noticed,no

time,ppg_med
6.155,508
6.180,584
6.205,705
6.230,770
6.255,744
6.280,718
6.305,788
6.330,915
6.355,964
6.380,886
6.405,802
6.430,846
6.455,964
6.480,972
6.505,803
6.530,624
6.555,614
6.580,703
6.605,639
6.630,339
6.655,24
6.680,-64
6.705,-23
6.730,-182
6.755,-649
6.780,-1131
6.805,-1313
6.830,-1320
6.855,-1580
6.880,-2231
6.905,-2890
6.930,-3152
6.955,-3176
6.980,-3511
7.005,-4332
7.030,-5145
7.055,-5434
7.080,-5403
7.105,-5746
7.130,-6682
7.155,-7585
7.180,-7805
7.205,-7598
7.230,-7837
7.255,-8794
7.280,-9684
7.305,-9693
7.330,-9144
7.355,-9127
7.380,-9981
7.405,-10728
7.430,-10353
7.455,-9260
7.480,-8810
7.505,-9429
7.530,-9897
7.555,-8950
7.580,-7094
7.605,-6031
7.630,-6302
7.655,-6383
7.680,-4686
7.705,-1846
7.730,-14
7.755,112
7.780,459
7.805,3054
7.830,7092
7.855,9805
7.880,10270
7.905,10969
7.930,14568
7.955,20039
7.980,23693
8.005,24242
8.030,25015
8.055,29714
8.080,32767
8.105,32767
8.130,32767
8.155,32767
8.180,32767
8.205,32767
8.230,32767
8.255,32767
8.280,32767
8.305,32767
8.330,32767
8.355,32767
8.380,32767
8.405,13464
8.430,-32768
8.455,-32768
8.480,-32768
8.505,-32768
8.530,-32768
8.555,-32768
8.580,-32768
8.605,-32768
8.630,-32768
8.655,-32768
8.680,-32768
8.705,-32768
8.730,-32768
8.755,-32315
8.780,-26086
8.805,-23988
8.830,-23944
8.855,-21686
8.880,-16528
8.905,-11810
8.930,-10105
8.955,-9973
8.980,-8288
9.005,-4498
9.030,-1076
9.055,23
9.080,-115
9.105,911
9.130,3560
9.155,5934
9.180,6516
9.205,6136
9.230,6664
9.255,8436
9.280,9939
9.305,9973
9.330,9221
9.355,9194
9.380,10175
9.405,10958
9.430,10583
9.455,9602
9.480,9230
9.505,9694
9.530,10020
9.555,9431
9.580,8369
9.605,7810
9.630,7940
9.655,7978
9.680,7301
9.705,6261
9.730,5641
9.755,5588
9.780,5479
9.805,4820
9.830,3896
9.855,3336
9.880,3262
9.905,3177
9.930,2679
9.955,1975
9.980,1550
10.005,1507
10.030,1471
10.055,1133
10.080,647
10.105,373
10.130,378
10.155,380
10.180,155
10.205,-169
10.230,-320
10.255,-257
10.280,-204
10.305,-333
10.330,-548
10.355,-642
10.380,-585
10.405,-540
10.430,-631
10.455,-780
10.480,-829
10.505,-756
10.530,-691
10.555,-741
10.580,-852
10.605,-898
10.630,-833
10.655,-722
10.680,-632
10.705,-545
10.730,-409
10.755,-226
10.780,-61
10.805,41
10.830,114
10.855,204
10.880,305
10.905,360
10.930,343
10.955,305
10.980,301
11.005,302
11.030,310
11.055,313
11.080,309
11.105,298
11.130,283
11.155,266
11.180,250
11.205,238
11.230,229
11.255,218
11.280,196
11.305,158
11.330,108
11.355,58
11.380,24
11.405,21
11.430,49
11.455,93
11.480,126
11.505,132
11.530,111
11.555,85
11.580,77
11.605,90
11.630,112
11.655,129
11.680,144
11.705,165
11.730,201
11.755,244
11.780,276
11.805,289
11.830,286
11.855,277
11.880,266
11.905,249
11.930,226
11.955,203
11.980,184
12.005,166
12.030,141
12.055,109
12.080,87
12.105,95
12.130,138
12.155,194
12.180,235
12.205,251
12.230,255
12.255,266
12.280,287
12.305,303
12.330,299
12.355,281
12.380,265
12.405,267
12.430,280
12.455,287
12.480,281
12.505,267
12.530,256
12.555,250
12.580,241
12.605,222
12.630,197
12.655,174
12.680,156
12.705,136
12.730,109
12.755,80
12.780,70
12.805,92
12.830,141
12.855,194
12.880,229
12.905,242
12.930,245
12.955,250
12.980,259
13.005,263
13.030,253
13.055,233
13.080,214
13.105,203
13.130,198
13.155,191
13.180,180
13.205,168
13.230,159
13.255,154
13.280,147
13.305,136
13.330,122
13.355,112
13.380,105
13.405,95
13.430,77
13.455,59
13.480,57
13.505,86
13.530,139
13.555,197
13.580,242
13.605,268
13.630,284
13.655,297
13.680,306
13.705,307
13.730,299
13.755,290
13.780,288
13.805,293
13.830,295
13.855,286
13.880,269
13.905,253
13.930,243
13.955,235
13.980,224
14.005,207
14.030,188
14.055,171
14.080,154
14.105,135
14.130,116
14.155,100
14.180,89
14.205,74
14.230,53
14.255,30
14.280,25
14.305,53
14.330,110
14.355,174
14.380,220
14.405,239
14.430,245
14.455,255
14.480,273
14.505,288
14.530,291
14.555,282
14.580,274
14.605,275
14.630,282
14.655,286
14.680,284
14.705,278
14.730,273
14.755,269
14.780,259
14.805,243
14.830,225
14.855,212
14.880,202
14.905,187
14.930,165
14.955,141
14.980,123
15.005,108
15.030,91
15.055,65
15.080,43
15.105,45
15.130,81
15.155,140
15.180,196
15.205,231
15.230,248
15.255,260
15.280,276
15.305,290
15.330,292
15.355,279
15.380,260
15.405,245
15.430,235
15.455,225
15.480,210
15.505,192
15.530,176
15.555,165
15.580,157
15.605,150
15.630,147
15.655,154
15.680,171
15.705,188
15.730,194
15.755,186
15.780,171
15.805,161
15.830,156
15.855,148
15.880,125
15.905,94
15.930,76
15.955,90
15.980,136
16.005,192
16.030,234
16.055,252
16.080,259
16.105,270
16.130,290
16.155,307
16.180,312
16.205,306
16.230,301
16.255,305
16.280,313
16.305,317
16.330,310
16.355,292
16.380,270
16.405,246
16.430,221
16.455,193
16.480,166
16.505,139
16.530,117
16.555,98
16.580,82
16.605,64
16.630,42
16.655,16
16.680,0
16.705,9
16.730,51
16.755,116
16.780,180
16.805,222
16.830,242
16.855,254
16.880,269
16.905,281
16.930,280
16.955,261
16.980,233
17.005,213
17.030,205
17.055,206
17.080,209
17.105,213
17.130,221
17.155,231
17.180,239
17.205,239
17.230,231
17.255,220
17.280,208
17.305,194
17.330,177
17.355,161
17.380,147
17.405,130
17.430,104
17.455,73
17.480,51
17.505,56
17.530,94
17.555,148
17.580,193
17.605,218
17.630,228
17.655,236
17.680,250
17.705,263
17.730,264
17.755,251
17.780,235
17.805,230
17.830,234
17.855,239
17.880,234
17.905,223
17.930,217
17.955,224
17.980,241
18.005,254
18.030,254
18.055,243
18.080,228
18.105,215
18.130,201
18.155,181
18.180,160
18.205,142
18.230,126
18.255,108
18.280,83
18.305,63
18.330,66
18.355,100
18.380,156
18.405,206
18.430,234
18.455,241
18.480,246
18.505,259
18.530,277
18.555,287
18.580,284
18.605,276
18.630,276
18.655,288
18.680,305
18.705,317
18.730,317
18.755,308
18.780,295
18.805,284
18.830,273
18.855,258
18.880,237
18.905,210
18.930,180
18.955,154
18.980,131
19.005,109
19.030,89
19.055,72
19.080,63
19.105,60
19.130,55
19.155,43
19.180,31
19.205,37
19.230,71
19.255,125
19.280,177
19.305,210
19.330,225
19.355,238
19.380,258
19.405,280
19.430,291
19.455,287
19.480,277
19.505,273
19.530,278
19.555,283
19.580,282
19.605,277
19.630,272
19.655,268
19.680,261
19.705,245
19.730,222
19.755,198
19.780,175
19.805,152
19.830,129
19.855,108
19.880,90
19.905,66
19.930,34
19.955,-2
19.980,-25
20.005,-15
20.030,28
20.055,88
20.080,140
20.105,175
20.130,199
20.155,223
20.180,248
20.205,268
20.230,277
20.255,276
20.280,275
20.305,277
20.330,281
20.355,281
20.380,276
20.405,269
20.430,261
20.455,251
20.480,237
20.505,220
20.530,204
20.555,193
20.580,183
20.605,170
20.630,153
20.655,136
20.680,127
20.705,123
20.730,118
20.755,102
20.780,79
20.805,64
20.830,74
20.855,115
20.880,176
20.905,234
20.930,275
20.955,295
20.980,304
21.005,312
21.030,317
21.055,316
21.080,309
21.105,301
21.130,301
21.155,309
21.180,316
21.205,315
21.230,305
21.255,293
21.280,284
21.305,279
21.330,271
21.355,256
21.380,237
21.405,218
21.430,197
21.455,174
21.480,148
21.505,124
21.530,106
21.555,87
21.580,61
21.605,27
21.630,0
21.655,-3
21.680,26
21.705,75
21.730,120
21.755,145
21.780,155
21.805,163
21.830,177
21.855,192
21.880,201
21.905,202
21.930,202
21.955,207
21.980,218
22.005,231
22.030,240
22.055,245
22.080,244
22.105,242
22.130,242
22.155,244
22.180,247
22.205,247
22.230,241
22.255,232
22.280,226
22.305,217
22.330,199
22.355,169
22.380,143
22.405,143
22.430,180
22.455,240
22.480,290
22.505,314
22.530,318
22.555,324
22.580,337
22.605,343
22.630,323
22.655,278
22.680,232
22.705,207
22.730,205
22.755,208
22.780,202
22.805,186
22.830,169
22.855,157
22.880,146
22.905,132
22.930,117
22.955,106
22.980,97
23.005,85
23.030,69
23.055,54
23.080,49
23.105,49
23.130,44
23.155,31
23.180,20
23.205,30
23.230,69
23.255,124
23.280,171
23.305,198
23.330,211
23.355,222
23.380,240
23.405,256
23.430,259
23.455,247
23.480,232
23.505,226
23.530,230
23.555,236
23.580,232
23.605,220
23.630,207
23.655,201
23.680,202
23.705,200
23.730,191
23.755,183
23.780,186
23.805,201
23.830,220
23.855,232
23.880,235
23.905,233
23.930,227
23.955,214
23.980,190
24.005,163
24.030,155
24.055,181
24.080,237
24.105,298
24.130,337
24.155,343
24.180,324
24.205,294
24.230,265
24.255,238
24.280,218
24.305,208
24.330,208
24.355,217
24.380,229
24.405,238
24.430,244
24.455,249
24.480,251
24.505,250
24.530,248
24.555,246
24.580,242
24.605,235
24.630,224
24.655,211
24.680,195
24.705,178
24.730,160
24.755,145
24.780,133
24.805,123
24.830,107
24.855,88
24.880,78
24.905,93
24.930,138
24.955,200
24.980,251
25.005,278
25.030,287
25.055,298
25.080,318
25.105,336
25.130,339
25.155,322
25.180,299
25.205,283
25.230,275
25.255,263
25.280,238
25.305,202
25.330,167
25.355,141
25.380,124
25.405,110
25.430,91
25.455,64
25.480,33
25.505,5
25.530,-13
25.555,-23
25.580,-33
25.605,-50
25.630,-68
25.655,-69
25.680,-34
25.705,37
25.730,122
25.755,192
25.780,236
25.805,259
25.830,275
25.855,287
25.880,290
25.905,280
25.930,266
25.955,258
25.980,261
26.005,267
26.030,268
26.055,261
26.080,254
26.105,248
26.130,242
26.155,227
26.180,203
26.205,177
26.230,153
26.255,132
26.280,114
26.305,97
26.330,84
26.355,75
26.380,67
26.405,59
26.430,57
26.455,72
26.480,108
26.505,161
26.530,215
26.555,256
26.580,280
26.605,295
26.630,310
26.655,327
26.680,344
26.705,356
26.730,363
26.755,366
26.780,369
26.805,371
26.830,370
26.855,362
26.880,349
26.905,336
26.930,329
26.955,324
26.980,317
27.005,302
27.030,279
27.055,256
27.080,237
27.105,218
27.130,193
27.155,159
27.180,122
27.205,89
27.230,61
27.255,32
27.280,3
27.305,-15
27.330,-9
27.355,25
27.380,76
27.405,121
27.430,147
27.455,162
27.480,180
27.505,208
27.530,241
27.555,265
27.580,278
27.605,286
27.630,297
27.655,314
27.680,330
27.705,337
27.730,330
27.755,312
27.780,288
27.805,264
27.830,244
27.855,226
27.880,210
27.905,192
27.930,170
27.955,144
27.980,115
28.005,82
28.030,50
28.055,20
28.080,-5
28.105,-26
28.130,-45
28.155,-55
28.180,-49
28.205,-17
28.230,41
28.255,112
28.280,174
28.305,214
28.330,233
28.355,243
28.380,254
28.405,265
28.430,271
28.455,268
28.480,262
28.505,262
28.530,273
28.555,289
28.580,301
28.605,304
28.630,300
28.655,295
28.680,291
28.705,284
28.730,269
28.755,247
28.780,223
28.805,199
28.830,173
28.855,146
28.880,119
28.905,93
28.930,68
28.955,41
28.980,13
29.005,-2
29.030,5
29.055,41
29.080,92
29.105,136
29.130,160
29.155,171
29.180,185
29.205,209
29.230,237
29.255,253
29.280,255
29.305,252
29.330,258
29.355,275
29.380,296
29.405,309
29.430,310
29.455,305
29.480,302
29.505,302
29.530,304
29.555,300
29.580,289
29.605,273
29.630,256
29.655,244
29.680,235
29.705,223
29.730,206
29.755,187
29.780,174
29.805,164
29.830,149
29.855,120
29.880,83
29.905,60
29.930,70
29.955,114
29.980,165
30.005,198
30.030,208
30.055,210
30.080,224
30.105,249
30.130,273
30.155,282
30.180,279
30.205,276
30.230,278
30.255,282
30.280,281
30.305,273
30.330,263
30.355,254
30.380,244
30.405,232
30.430,217
30.455,203
30.480,188
30.505,171
30.530,151
30.555,131
30.580,117
30.605,109
30.630,102
30.655,93
30.680,85
30.705,79
30.730,72
30.755,54
30.780,26
30.805,4
30.830,11
30.855,55
30.880,117
30.905,171
30.930,200
30.955,213
30.980,225
31.005,243
31.030,260
31.055,265
31.080,258
31.105,250
31.130,252
31.155,266
31.180,282
31.205,290
31.230,288
31.255,281
31.280,272
31.305,263
31.330,251
31.355,235
31.380,217
31.405,197
31.430,180
31.455,165
31.480,151
31.505,134
31.530,114
31.555,95
31.580,80
31.605,67
31.630,53
31.655,41
31.680,40
31.705,61
31.730,108
31.755,166
31.780,215
31.805,240
31.830,250
31.855,258
31.880,274
31.905,289
31.930,290
31.955,273
31.980,249
32.005,235
32.030,235
32.055,243
32.080,252
32.105,258
32.130,264
32.155,271
32.180,273
32.205,266
32.230,254
32.255,244
32.280,243
32.305,245
32.330,241
32.355,227
32.380,204
32.405,178
32.430,155
32.455,134
32.480,116
32.505,103
32.530,91
32.555,75
32.580,51
32.605,27
32.630,21
32.655,48
32.680,106
32.705,173
32.730,226
32.755,254
32.780,266
32.805,279
32.830,298
32.855,316
32.880,324
32.905,322
32.930,320
32.955,324
32.980,333
33.005,340
33.030,339
33.055,330
33.080,319
33.105,309
33.130,299
33.155,287
33.180,269
33.205,243
33.230,208
33.255,168
33.280,127
33.305,90
33.330,60
33.355,38
33.380,22
33.405,15
33.430,16
33.455,16
33.480,8
33.505,-11
33.530,-33
33.555,-36
33.580,-7
33.605,48
33.630,112
33.655,165
33.680,202
33.705,231
33.730,259
33.755,284
33.780,297
33.805,294
33.830,283
33.855,276
33.880,279
33.905,291
33.930,305
33.955,312
33.980,313
34.005,307
34.030,295
34.055,278
34.080,259
34.105,239
34.130,220
34.155,202
34.180,184
34.205,167
34.230,150
34.255,132
34.280,114
34.305,98
34.330,81
34.355,59
34.380,32
34.405,7
34.430,0
34.455,25
34.480,81
34.505,147
34.530,199
34.555,227
34.580,241
34.605,258
34.630,281
34.655,299
34.680,303
34.705,295
34.730,290
34.755,299
34.780,315
34.805,326
34.830,325
34.855,317
34.880,310
34.905,307
34.930,299
34.955,283
34.980,264
35.005,253
35.030,250
35.055,246
35.080,231
35.105,203
35.130,172
35.155,146
35.180,128
35.205,114
35.230,101
35.255,86
35.280,66
35.305,39
35.330,6
35.355,-20
35.380,-20
35.405,15
35.430,77
35.455,142
35.480,188
35.505,214
35.530,232
35.555,252
35.580,273
35.605,285
35.630,284
35.655,274
35.680,267
35.705,269
35.730,277
35.755,283
35.780,284
35.805,283
35.830,282
35.855,280
35.880,274
35.905,262
35.930,249
35.955,238
35.980,227
36.005,213
36.030,193
36.055,171
36.080,153
36.105,140
36.130,129
36.155,113
36.180,94
36.205,77
36.230,65
36.255,54
36.280,38
36.305,21
36.330,18
36.355,46
36.380,104
36.405,169
36.430,217
36.455,239
36.480,247
36.505,257
36.530,273
36.555,285
36.580,286
36.605,279
36.630,274
36.655,279
36.680,288
36.705,293
36.730,291
36.755,285
36.780,280
36.805,276
36.830,268
36.855,255
36.880,239
36.905,221
36.930,200
36.955,174
36.980,146
37.005,120
37.030,101
37.055,86
37.080,73
37.105,60
37.130,49
37.155,34
37.180,14
37.205,-8
37.230,-19
37.255,-2
37.280,46
37.305,110
37.330,164
37.355,196
37.380,212
37.405,227
37.430,249
37.455,271
37.480,281
37.505,280
37.530,278
37.555,285
37.580,300
37.605,312
37.630,313
37.655,305
37.680,295
37.705,287
37.730,279
37.755,268
37.780,255
37.805,243
37.830,236
37.855,232
37.880,229
37.905,228
37.930,227
37.955,223
37.980,212
38.005,195
38.030,178
38.055,164
38.080,151
38.105,132
38.130,109
38.155,92
38.180,101
38.205,140
38.230,197
38.255,246
38.280,271
38.305,276
38.330,277
38.355,284
38.380,292
38.405,289
38.430,270
38.455,244
38.480,223
38.505,215
38.530,214
38.555,212
38.580,208
38.605,207
38.630,214
38.655,227
38.680,240
38.705,246
38.730,244
38.755,234
38.780,224
38.805,216
38.830,211
38.855,206
38.880,196
38.905,178
38.930,153
38.955,129
38.980,106
39.005,82
39.030,51
39.055,12
39.080,-20
39.105,-29
39.130,-4
39.155,42
39.180,92
39.205,126
39.230,145
39.255,158
39.280,178
39.305,202
39.330,222
39.355,232
39.380,237
39.405,246
39.430,261
39.455,276
39.480,283
39.505,279
39.530,272
39.555,268
39.580,266
39.605,261
39.630,247
39.655,227
39.680,208
39.705,192
39.730,175
39.755,153
39.780,127
39.805,105
39.830,91
39.855,81
39.880,68
39.905,48
39.930,32
39.955,38
39.980,73
40.005,130
40.030,187
40.055,228
40.080,252
40.105,269
40.130,287
40.155,303
40.180,310
40.205,306
40.230,294
40.255,285
40.280,284
40.305,288
40.330,294
40.355,297
40.380,295
40.405,289
40.430,279
40.455,268
40.480,257
40.505,242
40.530,224
40.555,203
40.580,182
40.605,168
40.630,159
40.655,149
40.680,133
40.705,113
40.730,91
40.755,70
40.780,47
40.805,24
40.830,13
40.855,29
40.880,75
40.905,137
40.930,190
40.955,222
40.980,238
41.005,256
41.030,285
41.055,315
41.080,332
41.105,333
41.130,325
41.155,320
41.180,324
41.205,330
41.230,335
41.255,334
41.280,328
41.305,319
41.330,305
41.355,288
41.380,270
41.405,252
41.430,231
41.455,205
41.480,179
41.505,157
41.530,137
41.555,116
41.580,89
41.605,59
41.630,35
41.655,17
41.680,2
41.705,-13
41.730,-19
41.755,-3
41.780,42
41.805,102
41.830,155
41.855,189
41.880,209
41.905,232
41.930,262
41.955,290
41.980,305
42.005,307
42.030,307
42.055,315
42.080,327
42.105,336
42.130,335
42.155,327
42.180,319
42.205,314
42.230,309
42.255,302
42.280,290
42.305,275
42.330,256
42.355,233
42.380,207
42.405,181
42.430,156
42.455,133
42.480,110
42.505,87
42.530,63
42.555,37
42.580,9
42.605,-10
42.630,-9
42.655,19
42.680,68
42.705,116
42.730,147
42.755,158
42.780,163
42.805,177
42.830,198
42.855,215
42.880,219
42.905,215
42.930,211
42.955,214
42.980,219
43.005,220
43.030,211
43.055,197
43.080,179
43.105,157
43.130,131
43.155,103
43.180,78
43.205,58
43.230,37
43.255,12
43.280,-9
43.305,-8
43.330,25
43.355,87
43.380,152
43.405,200
43.430,222
43.455,225
43.480,219
43.505,210
43.530,201
43.555,203
43.580,228
43.605,277
43.630,336
43.655,385
43.680,416
43.705,434
43.730,451
43.755,469
43.780,476
43.805,466
43.830,442
43.855,421
43.880,412
43.905,411
43.930,406
43.955,391
43.980,368
44.005,344
44.030,322
44.055,299
44.080,273
44.105,243
44.130,213
44.155,182
44.180,149
44.205,112
44.230,75
44.255,39
44.280,6
44.305,-22
44.330,-42
44.355,-50
44.380,-51
44.405,-54
44.430,-66
44.455,-77
44.480,-69
44.505,-29
44.530,32
44.555,94
44.580,136
44.605,158
44.630,176
44.655,200
44.680,227
44.705,245
44.730,250
44.755,249
44.780,255
44.805,269
44.830,284
44.855,291
44.880,291
44.905,292
44.930,296
44.955,302
44.980,302
45.005,295
45.030,287
45.055,280
45.080,270
45.105,253
45.130,230
45.155,209
45.180,196
45.205,187
45.230,174
45.255,151
45.280,122
45.305,96
45.330,75
45.355,52
45.380,21
45.405,-9
45.430,-24
45.455,-5
45.480,42
45.505,100
45.530,145
45.555,172
45.580,188
45.605,204
45.630,226
45.655,246
45.680,257
45.705,258
45.730,252
45.755,250
45.780,256
45.805,270
45.830,285
45.855,296
45.880,299
45.905,297
45.930,294
45.955,293
45.980,292
46.005,287
46.030,280
46.055,271
46.080,263
46.105,253
46.130,239
46.155,222
46.180,203
46.205,188
46.230,176
46.255,167
46.280,158
46.305,152
46.330,146
46.355,135
46.380,118
46.405,101
46.430,99
46.455,123
46.480,168
46.505,212
46.530,236
46.555,234
46.580,220
46.605,212
46.630,214
46.655,218
46.680,213
46.705,202
46.730,195
46.755,201
46.780,218
46.805,237
46.830,249
46.855,252
46.880,251
46.905,250
46.930,250
46.955,246
46.980,237
47.005,224
47.030,210
47.055,196
47.080,184
47.105,173
47.130,162
47.155,149
47.180,134
47.205,116
47.230,97
47.255,81
47.280,70
47.305,62
47.330,50
47.355,30
47.380,8
47.405,0
47.430,18
47.455,63
47.480,120
47.505,171
47.530,203
47.555,217
47.580,226
47.605,238
47.630,254
47.655,267
47.680,271
47.705,268
47.730,265
47.755,269
47.780,282
47.805,300
47.830,315
47.855,324
47.880,327
47.905,327
47.930,324
47.955,317
47.980,305
48.005,289
48.030,271
48.055,253
48.080,237
48.105,223
48.130,211
48.155,200
48.180,184
48.205,163
48.230,139
48.255,119
48.280,106
48.305,94
48.330,72
48.355,42
48.380,20
48.405,28
48.430,73
48.455,138
48.480,196
48.505,229
48.530,243
48.555,253
48.580,270
48.605,291
48.630,305
48.655,305
48.680,297
48.705,290
48.730,289
48.755,293
48.780,298
48.805,299
48.830,297
48.855,293
48.880,290
48.905,284
48.930,275
48.955,259
48.980,237
49.005,214
49.030,192
49.055,170
49.080,145
49.105,116
49.130,86
49.155,56
49.180,28
49.205,0
49.230,-27
49.255,-38
49.280,-22
49.305,19
49.330,71
49.355,113
49.380,134
49.405,141
49.430,149
49.455,161
49.480,173
49.505,174
49.530,165
49.555,153
49.580,149
49.605,157
49.630,172
49.655,190
49.680,211
49.705,237
49.730,266
49.755,294
49.780,314
49.805,319
49.830,311
49.855,296
49.880,280
49.905,267
49.930,254
49.955,238
49.980,219
50.005,197
50.030,173
50.055,143
50.080,109
50.105,81
50.130,76
50.155,107
50.180,168
50.205,236
50.230,285
50.255,306
50.280,308
50.305,308
50.330,315
50.355,324
50.380,324
50.405,317
50.430,307
50.455,304
50.480,307
50.505,307
50.530,299
50.555,285
50.580,270
50.605,259
50.630,252
50.655,242
50.680,227
50.705,207
50.730,186
50.755,164
50.780,143
50.805,121
50.830,101
50.855,84
50.880,68
50.905,47
50.930,16
50.955,-15
50.980,-29
51.005,-10
51.030,40
51.055,100
51.080,146
51.105,169
51.130,180
51.155,191
51.180,207
51.205,220
51.230,224
51.255,223
51.280,228
51.305,242
51.330,259
51.355,267
51.380,266
51.405,258
51.430,251
51.455,242
51.480,229
51.505,211
51.530,194
51.555,181
51.580,170
51.605,159
51.630,150
51.655,145
51.680,141
51.705,130
51.730,109
51.755,89
51.780,90
51.805,122
51.830,175
51.855,226
51.880,255
51.905,264
51.930,266
51.955,274
51.980,284
52.005,289
52.030,283
52.055,273
52.080,269
52.105,276
52.130,287
52.155,294
52.180,291
52.205,280
52.230,268
52.255,258
52.280,248
52.305,234
52.330,212
52.355,187
52.380,162
52.405,138
52.430,109
52.455,73
52.480,38
52.505,20
52.530,36
52.555,83
52.580,140
52.605,183
52.630,201
52.655,205
52.680,209
52.705,219
52.730,228
52.755,227
52.780,217
52.805,206
52.830,205
52.855,211
52.880,216
52.905,210
52.930,195
52.955,179
52.980,170
53.005,167
53.030,162
53.055,146
53.080,123
53.105,105
53.130,100
53.155,103
53.180,97
53.205,73
53.230,42
53.255,29
53.280,54
53.305,114
53.330,182
53.355,233
53.380,262
53.405,282
53.430,305
53.455,331
53.480,349
53.505,351
53.530,344
53.555,339
53.580,341
53.605,348
53.630,352
53.655,352
53.680,347
53.705,338
53.730,325
53.755,305
53.780,282
53.805,259
53.830,236
53.855,211
53.880,185
53.905,161
53.930,142
53.955,125
53.980,106
54.005,83
54.030,61
54.055,43
54.080,28
54.105,9
54.130,-13
54.155,-27
54.180,-14
54.205,30
54.230,94
54.255,151
54.280,189
54.305,212
54.330,235
54.355,267
54.380,304
54.405,331
54.430,341
54.455,337
54.480,332
54.505,331
54.530,335
54.555,336
54.580,331
54.605,321
54.630,311
54.655,300
54.680,289
54.705,275
54.730,257
54.755,238
54.780,222
54.805,208
54.830,192
54.855,173
54.880,149
54.905,126
54.930,103
54.955,80
54.980,53
55.005,25
55.030,2
55.055,-14
55.080,-31
55.105,-57
55.130,-87
55.155,-103
55.180,-87
55.205,-37
55.230,26
55.255,75
55.280,97
55.305,107
55.330,131
55.355,179
55.380,239
55.405,286
55.430,307
55.455,306
55.480,302
55.505,312
55.530,335
55.555,363
55.580,384
55.605,392
55.630,393
55.655,393
55.680,396
55.705,398
55.730,392
55.755,374
55.780,349
55.805,322
55.830,298
55.855,272
55.880,244
55.905,215
55.930,192
55.955,173
55.980,154
56.005,130
56.030,104
56.055,82
56.080,64
56.105,42
56.130,14
56.155,-8
56.180,-6
56.205,31
56.230,92
56.255,147
56.280,178
56.305,192
56.330,207
56.355,235
56.380,267
56.405,289
56.430,294
56.455,288
56.480,284
56.505,286
56.530,291
56.555,293
56.580,293
56.605,292
56.630,288
56.655,281
56.680,270
56.705,258
56.730,245
56.755,230
56.780,213
56.805,192
56.830,171
56.855,154
56.880,140
56.905,127
56.930,114
56.955,99
56.980,81
57.005,59
57.030,36
57.055,14
57.080,-7
57.105,-32
57.130,-58
57.155,-72
57.180,-54
57.205,3
57.230,89
57.255,171
57.280,224
57.305,249
57.330,265
57.355,286
57.380,313
57.405,333
57.430,336
57.455,329
57.480,322
57.505,323
57.530,329
57.555,335
57.580,339
57.605,340
57.630,340
57.655,336
57.680,329
57.705,321
57.730,313
57.755,301
57.780,281
57.805,251
57.830,215
57.855,178
57.880,144
57.905,113
57.930,88
57.955,72
57.980,62
58.005,49
58.030,29
58.055,13
58.080,18
58.105,57
58.130,120
58.155,182
58.180,221
58.205,235
58.230,241
58.255,255
58.280,275
58.305,288
58.330,286
58.355,275
58.380,267
58.405,267
58.430,270
58.455,265
58.480,252
58.505,236
58.530,224
58.555,215
58.580,204
58.605,187
58.630,166
58.655,146
58.680,131
58.705,118
58.730,105
58.755,89
58.780,70
58.805,48
58.830,19
58.855,-7
58.880,-19
58.905,0
58.930,53
58.955,123
58.980,184
59.005,221
59.030,238
59.055,253
59.080,274
59.105,295
59.130,305
59.155,299
59.180,284
59.205,276
59.230,280
59.255,291
59.280,299
59.305,299
59.330,293
59.355,280
59.380,262
59.405,240
59.430,216
59.455,196
59.480,179
59.505,164
59.530,146
59.555,130
59.580,118
59.605,108
59.630,93
59.655,67
59.680,39
59.705,28
59.730,51
59.755,104
59.780,166
59.805,217
59.830,247
59.855,266
59.880,285
59.905,306
59.930,320
59.955,321
59.980,311
60.005,298
60.030,291
60.055,292
60.080,296
60.105,297
60.130,294
60.155,289
60.180,282
60.205,274
60.230,266
60.255,254
60.280,238
60.305,215
60.330,190
60.355,165
60.380,142
60.405,119
60.430,95
60.455,70
60.480,47
60.505,27
60.530,6
60.555,-20
60.580,-52
60.605,-74
60.630,-67
60.655,-22
60.680,49
60.705,122
60.730,176
60.755,208
60.780,229
60.805,252
60.830,278
60.855,296
60.880,300
60.905,294
60.930,287
60.955,288
60.980,295
61.005,302
61.030,306
61.055,310
61.080,314
61.105,316
61.130,312
61.155,301
61.180,287
61.205,273
61.230,260
61.255,244
61.280,225
61.305,207
61.330,191
61.355,175
61.380,154
61.405,127
61.430,101
61.455,83
61.480,72
61.505,57
61.530,31
61.555,1
61.580,-12
61.605,8
61.630,63
61.655,131
61.680,186
61.705,217
61.730,230
61.755,239
61.780,255
61.805,272
61.830,282
61.855,280
61.880,272
61.905,268
61.930,273
61.955,285
61.980,294
62.005,296
62.030,291
62.055,283
62.080,277
62.105,272
62.130,265
62.155,254
62.180,239
62.205,221
62.230,203
62.255,187
62.280,173
62.305,162
62.330,151
62.355,136
62.380,117
62.405,97
62.430,80
62.455,67
62.480,53
62.505,31
62.530,6
62.555,-7
62.580,5
62.605,51
62.630,115
62.655,172
62.680,207
62.705,225
62.730,240
62.755,260
62.780,280
62.805,291
62.830,288
62.855,279
62.880,275
62.905,281
62.930,291
62.955,299
62.980,300
63.005,295
63.030,288
63.055,277
63.080,265
63.105,253
63.130,242
63.155,231
63.180,216
63.205,199
63.230,182
63.255,168
63.280,157
63.305,143
63.330,126
63.355,112
63.380,103
63.405,96
63.430,83
63.455,59
63.480,36
63.505,35
63.530,69
63.555,130
63.580,196
63.605,242
63.630,263
63.655,269
63.680,273
63.705,281
63.730,286
63.755,282
63.780,268
63.805,253
63.830,248
63.855,253
63.880,262
63.905,267
63.930,265
63.955,257
63.980,247
64.005,235
64.030,223
64.055,209
64.080,194
64.105,179
64.130,162
64.155,143
64.180,126
64.205,115
64.230,108
64.255,98
64.280,77
64.305,48
64.330,28
64.355,37
64.380,82
64.405,149
64.430,211
64.455,251
64.480,268
64.505,274
64.530,277
64.555,279
64.580,273
64.605,258
64.630,240
64.655,228
64.680,224
64.705,225
64.730,224
64.755,220
64.780,213
64.805,207
64.830,203
64.855,202
64.880,201
64.905,197
64.930,189
64.955,176
64.980,160
65.005,143
65.030,128
65.055,115
65.080,103
65.105,90
65.130,75
65.155,56
65.180,41
65.205,42
65.230,69
65.255,122
65.280,182
65.305,230
65.330,254
65.355,262
65.380,268
65.405,277
65.430,287
65.455,289
65.480,283
65.505,276
65.530,277
65.555,286
65.580,296
65.605,300
65.630,297
65.655,291
65.680,285
65.705,281
65.730,275
65.755,268
65.780,258
65.805,245
65.830,229
65.855,210
65.880,191
65.905,174
65.930,159
65.955,140
65.980,119
66.005,99
66.030,84
66.055,73
66.080,57
66.105,33
66.130,9
66.155,6
66.180,39
66.205,104
66.230,178
66.255,235
66.280,266
66.305,281
66.330,295
66.355,313
66.380,326
66.405,326
66.430,313
66.455,299
66.480,290
66.505,288
66.530,284
66.555,277
66.580,268
66.605,263
66.630,259
66.655,251
66.680,234
66.705,211
66.730,190
66.755,174
66.780,160
66.805,143
66.830,124
66.855,109
66.880,104
66.905,105
66.930,104
66.955,95
66.980,80
67.005,64
67.030,49
67.055,27
67.080,-2
67.105,-31
67.130,-35
67.155,2
67.180,79
67.205,168
67.230,238
67.255,279
67.280,299
67.305,317
67.330,340
67.355,359
67.380,362
67.405,352
67.430,339
67.455,334
67.480,337
67.505,338
67.530,330
67.555,314
67.580,297
67.605,283
67.630,271
67.655,257
67.680,238
67.705,216
67.730,193
67.755,169
67.780,146
67.805,126
67.830,111
67.855,97
67.880,82
67.905,66
67.930,50
67.955,38
67.980,25
68.005,6
68.030,-12
68.055,-16
68.080,12
68.105,76
68.130,155
68.155,222
68.180,261
68.205,276
68.230,283
68.255,292
68.280,300
68.305,298
68.330,285
68.355,274
68.380,273
68.405,284
68.430,296
68.455,300
68.480,294
68.505,285
68.530,277
68.555,269
68.580,256
68.605,238
68.630,220
68.655,204
68.680,188
68.705,169
68.730,147
68.755,127
68.780,111
68.805,93
68.830,67
68.855,36
68.880,14
68.905,22
68.930,66
68.955,133
68.980,198
69.005,241
69.030,260
69.055,269
69.080,279
69.105,290
69.130,294
69.155,288
69.180,276
69.205,268
69.230,270
69.255,279
69.280,285
69.305,282
69.330,270
69.355,255
69.380,242
69.405,230
69.430,215
69.455,196
69.480,174
69.505,154
69.530,136
69.555,117
69.580,96
69.605,75
69.630,56
69.655,36
69.680,11
69.705,-14
69.730,-25
69.755,-4
69.780,52
69.805,128
69.830,194
69.855,235
69.880,255
69.905,272
69.930,293
69.955,313
69.980,322
70.005,317
70.030,309
70.055,307
70.080,314
70.105,323
70.130,329
70.155,328
70.180,322
70.205,312
70.230,298
70.255,283
70.280,269
70.305,253
70.330,234
70.355,211
70.380,187
70.405,165
70.430,143
70.455,118
70.480,89
70.505,61
70.530,37
70.555,13
70.580,-16
70.605,-49
70.630,-67
70.655,-50
70.680,4
70.705,79
70.730,145
70.755,186
70.780,209
70.805,230
70.830,253
70.855,272
70.880,279
70.905,273
70.930,266
70.955,266
70.980,273
71.005,282
71.030,287
71.055,288
71.080,284
71.105,277
71.130,268
71.155,256
71.180,244
71.205,232
71.230,221
71.255,208
71.280,194
71.305,178
71.330,159
71.355,141
71.380,125
71.405,111
71.430,92
71.455,67
71.480,45
71.505,44
71.530,75
71.555,133
71.580,197
71.605,245
71.630,272
71.655,287
71.680,299
71.705,309
71.730,308
71.755,297
71.780,282
71.805,275
71.830,278
71.855,282
71.880,282
71.905,276
71.930,270
71.955,266
71.980,260
72.005,248
72.030,230
72.055,211
72.080,194
72.105,178
72.130,162
72.155,144
72.180,122
72.205,100
72.230,79
72.255,62
72.280,46
72.305,27
72.330,2
72.355,-19
72.380,-20
72.405,14
72.430,81
72.455,153
72.480,203
72.505,224
72.530,232
72.555,248
72.580,275
72.605,300
72.630,308
72.655,300
72.680,290
72.705,288
72.730,291
72.755,287
72.780,273
72.805,255
72.830,240
72.855,231
72.880,225
72.905,217
72.930,208
72.955,199
72.980,192
73.005,182
73.030,171
73.055,163
73.080,157
73.105,150
73.130,138
73.155,122
73.180,105
73.205,88
73.230,66
73.255,38
73.280,13
73.305,11
73.330,45
73.355,110
73.380,178
73.405,227
73.430,249
73.455,258
73.480,272
73.505,293
73.530,310
73.555,314
73.580,306
73.605,296
73.630,292
73.655,295
73.680,296
73.705,292
73.730,284
73.755,273
73.780,262
73.805,249
73.830,234
73.855,217
73.880,201
73.905,187
73.930,171
73.955,156
73.980,141
74.005,131
74.030,127
74.055,125
74.080,124
74.105,122
74.130,117
74.155,108
74.180,90
74.205,64
74.230,45
74.255,49
74.280,88
74.305,151
74.330,215
74.355,254
74.380,264
74.405,258
74.430,258
74.455,272
74.480,290
74.505,297
74.530,290
74.555,280
74.580,277
74.605,284
74.630,291
74.655,287
74.680,273
74.705,257
74.730,247
74.755,239
74.780,227
74.805,210
74.830,191
74.855,176
74.880,164
74.905,147
74.930,126
74.955,106
74.980,91
75.005,78
75.030,60
75.055,34
75.080,13
75.105,17
75.130,52
75.155,107
75.180,157
75.205,187
75.230,201
75.255,210
75.280,223
75.305,235
75.330,239
75.355,235
75.380,230
75.405,232
75.430,239
75.455,246
75.480,248
75.505,244
75.530,241
75.555,240
75.580,240
75.605,238
75.630,233
75.655,224
75.680,213
75.705,202
75.730,191
75.755,179
75.780,166
75.805,151
75.830,139
75.855,129
75.880,118
75.905,99
75.930,72
75.955,47
75.980,42
76.005,70
76.030,125
76.055,185
76.080,227
76.105,246
76.130,254
76.155,265
76.180,280
76.205,293
76.230,297
76.255,291
76.280,283
76.305,281
76.330,283
76.355,286
76.380,286
76.405,282
76.430,275
76.455,265
76.480,254
76.505,243
76.530,233
76.555,220
76.580,203
76.605,183
76.630,168
76.655,160
76.680,155
76.705,146
76.730,131
76.755,118
76.780,112
76.805,110
76.830,103
76.855,86
76.880,70
76.905,74
76.930,110
76.955,165
76.980,216
77.005,244
77.030,251
77.055,252
77.080,258
77.105,268
77.130,271
77.155,262
77.180,244
77.205,225
77.230,214
77.255,210
77.280,209
77.305,208
77.330,207
77.355,203
77.380,197
77.405,188
77.430,179
77.455,172
77.480,168
77.505,167
77.530,163
77.555,154
77.580,141
77.605,129
77.630,124
77.655,123
77.680,118
77.705,104
77.730,83
77.755,72
77.780,86
77.805,126
77.830,178
77.855,220
77.880,243
77.905,252
77.930,260
77.955,271
77.980,279
78.005,275
78.030,263
78.055,252
78.080,252
78.105,261
78.130,267
78.155,263
78.180,252
78.205,241
78.230,232
78.255,222
78.280,207
78.305,188
78.330,172
78.355,160
78.380,149
78.405,132
78.430,112
78.455,95
78.480,89
78.505,89
78.530,81
78.555,62
78.580,44
78.605,46
78.630,80
78.655,136
78.680,189
78.705,222
78.730,237
78.755,247
78.780,263
78.805,281
78.830,291
78.855,286
78.880,276
78.905,271
78.930,277
78.955,288
78.980,294
79.005,292
79.030,285
79.055,278
79.080,271
79.105,263
79.130,253
79.155,241
79.180,228
79.205,215
79.230,200
79.255,187
79.280,175
79.305,164
79.330,151
79.355,134
79.380,118
79.405,108
79.430,106
79.455,102
79.480,89
79.505,66
79.530,48
79.555,52
79.580,84
79.605,131
79.630,175
79.655,204
79.680,221
79.705,234
79.730,246
79.755,251
79.780,244
79.805,226
79.830,209
79.855,202
79.880,207
79.905,219
79.930,232
79.955,244
79.980,256
80.005,266
80.030,271
80.055,268
80.080,263
80.105,263
80.130,270
80.155,282
80.180,291
80.205,293
80.230,290
80.255,282
80.280,267
80.305,241
80.330,206
80.355,171
80.380,139
80.405,109
80.430,73
80.455,35
80.480,7
80.505,8
80.530,40
80.555,88
80.580,130
80.605,153
80.630,161
80.655,169
80.680,184
80.705,202
80.730,215
80.755,217
80.780,214
80.805,212
80.830,213
80.855,216
80.880,216
80.905,213
80.930,206
80.955,197
80.980,190
81.005,182
81.030,173
81.055,159
81.080,140
81.105,120
81.130,105
81.155,95
81.180,87
81.205,79
81.230,72
81.255,69
81.280,70
81.305,71
81.330,67
81.355,65
81.380,79
81.405,119
81.430,179
81.455,239
81.480,280
81.505,302
81.530,317
81.555,336
81.580,359
81.605,374
81.630,377
81.655,374
81.680,375
81.705,384
81.730,396
81.755,403
81.780,402
81.805,395
81.830,386
81.855,373
81.880,354
81.905,331
81.930,309
81.955,288
81.980,266
82.005,239
82.030,210
82.055,184
82.080,160
82.105,135
82.130,103
82.155,64
82.180,21
82.205,-19
82.230,-60
82.255,-99
82.280,-127
82.305,-128
82.330,-95
82.355,-40
82.380,14
82.405,54
82.430,79
82.455,103
82.480,137
82.505,176
82.530,210
82.555,231
82.580,244
82.605,259
82.630,277
82.655,295
82.680,306
82.705,310
82.730,312
82.755,314
82.780,315
82.805,310
82.830,299
82.855,283
82.880,265
82.905,247
82.930,230
82.955,213
82.980,193
83.005,171
83.030,149
83.055,131
83.080,118
83.105,104
83.130,83
83.155,56
83.180,39
83.205,48
83.230,89
83.255,145
83.280,194
83.305,222
83.330,234
83.355,241
83.380,250
83.405,254
83.430,248
83.455,235
83.480,225
83.505,226
83.530,234
83.555,240
83.580,241
83.605,239
83.630,238
83.655,235
83.680,228
83.705,218
83.730,208
83.755,200
83.780,191
83.805,176
83.830,160
83.855,146
83.880,137
83.905,128
83.930,113
83.955,101
83.980,107
84.005,145
84.030,206
84.055,266
84.080,303
84.105,314
84.130,317
84.155,326
84.180,340
84.205,343
84.230,327
84.255,298
84.280,270
84.305,253
84.330,243
84.355,232
84.380,214
84.405,196
84.430,181
84.455,172
84.480,165
84.505,156
84.530,147
84.555,137
84.580,125
84.605,108
84.630,90
84.655,77
84.680,68
84.705,57
84.730,37
84.755,12
84.780,-1
84.805,11
84.830,55
84.855,112
84.880,162
84.905,194
84.930,211
84.955,223
84.980,237
85.005,248
85.030,254
85.055,251
85.080,246
85.105,244
85.130,248
85.155,255
85.180,261
85.205,262
85.230,257
85.255,250
85.280,245
85.305,241
85.330,236
85.355,226
85.380,212
85.405,198
85.430,185
85.455,174
85.480,165
85.505,155
85.530,147
85.555,137
85.580,121
85.605,97
85.630,74
85.655,66
85.680,86
85.705,129
85.730,176
85.755,212
85.780,231
85.805,241
85.830,249
85.855,257
85.880,259
85.905,252
85.930,241
85.955,232
85.980,229
86.005,231
86.030,233
86.055,230
86.080,222
86.105,210
86.130,198
86.155,190
86.180,184
86.205,177
86.230,166
86.255,151
86.280,137
86.305,127
86.330,121
86.355,115
86.380,105
86.405,96
86.430,90
86.455,85
86.480,76
86.505,67
86.530,70
86.555,99
86.580,155
86.605,221
86.630,277
86.655,312
86.680,333
86.705,353
86.730,375
86.755,394
86.780,404
86.805,406
86.830,407
86.855,409
86.880,411
86.905,406
86.930,393
86.955,372
86.980,345
87.005,314
87.030,281
87.055,251
87.080,230
87.105,217
87.130,206
87.155,193
87.180,180
87.205,170
87.230,164
87.255,156
87.280,142
87.305,123
87.330,104
87.355,87
87.380,66
87.405,35
87.430,-1
87.455,-26
87.480,-22
87.505,7
87.530,43
87.555,66
87.580,70
87.605,68
87.630,73
87.655,88
87.680,103
87.705,113
87.730,120
87.755,135
87.780,159
87.805,184
87.830,202
87.855,211
87.880,216
87.905,220
87.930,222
87.955,222
87.980,221
88.005,222
88.030,227
88.055,233
88.080,236
88.105,236
88.130,235
88.155,232
88.180,225
88.205,211
88.230,194
88.255,178
88.280,164
88.305,145
88.330,117
88.355,87
88.380,73
88.405,88
88.430,131
88.455,185
88.480,228
88.505,251
88.530,258
88.555,260
88.580,265
88.605,274
88.630,284
88.655,290
88.680,292
88.705,291
88.730,292
88.755,295
88.780,298
88.805,294
88.830,282
88.855,267
88.880,254
88.905,244
88.930,234
88.955,218
88.980,198
89.005,178
89.030,161
89.055,146
89.080,131
89.105,117
89.130,103
89.155,88
89.180,70
89.205,50
89.230,44
89.255,65
89.280,113
89.305,171
89.330,218
89.355,242
89.380,251
89.405,260
89.430,271
89.455,278
89.480,273
89.505,259
89.530,248
89.555,248
89.580,255
89.605,260
89.630,260
89.655,255
89.680,249
89.705,243
89.730,235
89.755,224
89.780,211
89.805,197
89.830,184
89.855,169
89.880,151
89.905,134
89.930,116
89.955,101
89.980,89
90.005,76
90.030,61
90.055,39
90.080,19
90.105,14
90.130,38
90.155,92
90.180,157
90.205,208
90.230,234
90.255,244
90.280,254
90.305,273
90.330,291
90.355,297
90.380,291
90.405,283
90.430,285
90.455,295
90.480,307
90.505,313
90.530,312
90.555,306
90.580,297
90.605,284
90.630,268
90.655,250
90.680,230
90.705,205
90.730,176
90.755,146
90.780,121
90.805,105
90.830,91
90.855,76
90.880,62
90.905,55
90.930,53
90.955,48
90.980,33
91.005,15
91.030,14
91.055,48
91.080,109
91.105,173
91.130,216
91.155,233
91.180,242
91.205,258
91.230,282
91.255,303
91.280,311
91.305,308
91.330,303
91.355,305
91.380,313
91.405,320
91.430,322
91.455,319
91.480,314
91.505,309
91.530,305
91.555,300
91.580,290
91.605,277
91.630,262
91.655,250
91.680,241
91.705,231
91.730,214
91.755,189
91.780,157
91.805,122
91.830,79
91.855,27
91.880,-29
91.905,-72
91.930,-81
91.955,-47
91.980,12
92.005,73
92.030,115
92.055,139
92.080,156
92.105,176
92.130,197
92.155,212
92.180,215
92.205,214
92.230,217
92.255,228
92.280,244
92.305,257
92.330,262
92.355,262
92.380,260
92.405,257
92.430,253
92.455,244
92.480,231
92.505,217
92.530,204
92.555,194
92.580,182
92.605,165
92.630,147
92.655,129
92.680,115
92.705,100
92.730,77
92.755,50
92.780,36
92.805,49
92.830,96
92.855,159
92.880,215
92.905,249
92.930,265
92.955,275
92.980,289
93.005,305
93.030,311
93.055,305
93.080,294
93.105,287
93.130,290
93.155,298
93.180,301
93.205,296
93.230,284
93.255,272
93.280,261
93.305,251
93.330,240
93.355,228
93.380,214
93.405,200
93.430,186
93.455,171
93.480,156
93.505,139
93.530,122
93.555,105
93.580,91
93.605,79
93.630,67
93.655,49
93.680,25
93.705,4
93.730,4
93.755,36
93.780,94
93.805,160
93.830,211
93.855,240
93.880,257
93.905,273
93.930,291
93.955,305
93.980,308
94.005,300
94.030,291
94.055,287
94.080,290
94.105,296
94.130,299
94.155,296
94.180,289
94.205,279
94.230,269
94.255,259
94.280,249
94.305,236
94.330,220
94.355,200
94.380,179
94.405,162
94.430,148
94.455,133
94.480,114
94.505,93
94.530,75
94.555,62
94.580,47
94.605,26
94.630,0
94.655,-22
94.680,-21
94.705,10
94.730,66
94.755,126
94.780,173
94.805,199
94.830,213
94.855,224
94.880,236
94.905,244
94.930,242
94.955,235
94.980,232
95.005,238
95.030,250
95.055,259
95.080,260
95.105,256
95.130,252
95.155,251
95.180,250
95.205,245
95.230,236
95.255,226
95.280,218
95.305,211
95.330,206
95.355,204
95.380,205
95.405,203
95.430,193
95.455,178
95.480,173
95.505,195
95.530,250
95.555,323
95.580,391
95.605,437
95.630,459
95.655,465
95.680,459
95.705,441
95.730,409
95.755,367
95.780,325
95.805,291
95.830,264
95.855,241
95.880,218
95.905,195
95.930,173
95.955,156
95.980,141
96.005,124
96.030,103
96.055,77
96.080,46
96.105,12
96.130,-24
96.155,-64
96.180,-105
96.205,-144
96.230,-177
96.255,-207
96.280,-235
96.305,-261
96.330,-274
96.355,-256
96.380,-195
96.405,-97
96.430,17
96.455,121
96.480,202
96.505,264
96.530,319
96.555,373
96.580,422
96.605,455
96.630,469
96.655,469
96.680,464
96.705,458
96.730,448
96.755,432
96.780,409
96.805,385
96.830,362
96.855,339
96.880,313
96.905,284
96.930,253
96.955,226
96.980,204
97.005,183
97.030,161
97.055,139
97.080,121
97.105,107
97.130,92
97.155,73
97.180,56
97.205,54
97.230,82
97.255,135
97.280,196
97.305,243
97.330,266
97.355,275
97.380,281
97.405,292
97.430,301
97.455,301
97.480,291
97.505,279
97.530,273
97.555,274
97.580,276
97.605,274
97.630,265
97.655,254
97.680,242
97.705,231
97.730,217
97.755,202
97.780,187
97.805,174
97.830,162
97.855,147
97.880,130
97.905,114
97.930,99
97.955,86
97.980,68
98.005,45
98.030,28
98.055,34
98.080,70
98.105,126
98.130,179
98.155,211
98.180,220
98.205,222
98.230,229
98.255,239
98.280,243
98.305,237
98.330,226
98.355,221
98.380,225
98.405,234
98.430,237
98.455,233
98.480,224
98.505,217
98.530,211
98.555,205
98.580,196
98.605,185
98.630,170
98.655,153
98.680,137
98.705,126
98.730,119
98.755,110
98.780,94
98.805,75
98.830,70
98.855,90
98.880,136
98.905,187
98.930,226
98.955,243
98.980,250
99.005,260
99.030,273
99.055,281
99.080,279
99.105,269
99.130,263
99.155,266
99.180,273
99.205,276
99.230,271
99.255,263
99.280,257
99.305,252
99.330,245
99.355,234
99.380,220
99.405,208
99.430,196
99.455,181
99.480,165
99.505,151
99.530,141
99.555,133
99.580,121
99.605,105
99.630,91
99.655,82
99.680,76
99.705,62
99.730,39
99.755,21
99.780,28
99.805,68
99.830,128
99.855,183
99.880,215
99.905,228
99.930,239
99.955,257
99.980,277
100.005,289
100.030,287
100.055,280
100.080,279
100.105,286
100.130,297
100.155,303
100.180,303
100.205,300
100.230,297
100.255,293
100.280,287
100.305,276
100.330,265
100.355,254
100.380,245
100.405,236
100.430,227
100.455,217
100.480,208
100.505,198
100.530,183
100.555,162
100.580,139
100.605,118
100.630,101
100.655,84
100.680,60
100.705,28
100.730,-1
100.755,-12
100.780,8
100.805,54
100.830,106
100.855,141
100.880,154
100.905,158
100.930,167
100.955,184
100.980,202
101.005,211
101.030,210
101.055,208
101.080,214
101.105,226
101.130,239
101.155,245
101.180,246
101.205,245
101.230,244
101.255,241
101.280,237
101.305,231
101.330,228
101.355,227
101.380,228
101.405,228
101.430,226
101.455,222
101.480,217
101.505,212
101.530,207
101.555,202
101.580,192
101.605,174
101.630,149
101.655,132
101.680,136
101.705,166
101.730,210
101.755,249
101.780,269
101.805,275
101.830,278
101.855,285
101.880,288
101.905,280
101.930,260
101.955,240
101.980,234
102.005,245
102.030,263
102.055,273
102.080,270
102.105,256
102.130,238
102.155,220
102.180,201
102.205,181
102.230,160
102.255,140
102.280,122
102.305,105
102.330,91
102.355,81
102.380,74
102.405,66
102.430,53
102.455,34
102.480,18
102.505,19
102.530,47
102.555,99
102.580,157
102.605,200
102.630,221
102.655,229
102.680,238
102.705,252
102.730,267
102.755,272
102.780,265
102.805,257
102.830,255
102.855,261
102.880,270
102.905,272
102.930,268
102.955,259
102.980,248
103.005,236
103.030,223
103.055,212
103.080,202
103.105,189
103.130,171
103.155,151
103.180,135
103.205,126
103.230,118
103.255,101
103.280,75
103.305,57
103.330,67
103.355,107
103.380,158
103.405,197
103.430,216
103.455,225
103.480,237
103.505,252
103.530,262
103.555,261
103.580,256
103.605,257
103.630,265
103.655,273
103.680,272
103.705,263
103.730,253
103.755,243
103.780,231
103.805,215
103.830,200
103.855,190
103.880,180
103.905,163
103.930,135
103.955,106
103.980,86
104.005,75
104.030,64
104.055,50
104.080,43
104.105,63
104.130,112
104.155,170
104.180,214
104.205,233
104.230,243
104.255,260
104.280,283
104.305,298
104.330,296
104.355,283
104.380,275
104.405,280
104.430,289
104.455,290
104.480,283
104.505,274
104.530,268
104.555,261
104.580,249
104.605,234
104.630,224
104.655,221
104.680,217
104.705,203
104.730,179
104.755,155
104.780,137
104.805,120
104.830,98
104.855,72
104.880,62
104.905,81
104.930,128
104.955,178
104.980,211
105.005,222
105.030,226
105.055,236
105.080,252
105.105,262
105.130,256
105.155,241
105.180,229
105.205,226
105.230,230
105.255,229
105.280,220
105.305,205
105.330,191
105.355,181
105.380,171
105.405,159
105.430,145
105.455,131
105.480,120
105.505,107
105.530,88
105.555,67
105.580,47
105.605,36
105.630,32
105.655,27
105.680,20
105.705,17
105.730,34
105.755,81
105.780,153
105.805,230
105.830,292
105.855,330
105.880,348
105.905,355
105.930,353
105.955,341
105.980,322
106.005,301
106.030,287
106.055,281
106.080,277
106.105,270
106.130,260
106.155,254
106.180,253
106.205,253
106.230,246
106.255,230
106.280,210
106.305,191
106.330,174
106.355,154
106.380,132
106.405,112
106.430,101
106.455,95
106.480,86
106.505,64
106.530,37
106.555,23
106.580,40
106.605,87
106.630,145
106.655,191
106.680,216
106.705,227
106.730,235
106.755,248
106.780,262
106.805,269
106.830,268
106.855,262
106.880,260
106.905,264
106.930,270
106.955,273
106.980,269
107.005,260
107.030,247
107.055,234
107.080,221
107.105,206
107.130,192
107.155,181
107.180,174
107.205,170
107.230,168
107.255,165
107.280,162
107.305,161
107.330,159
107.355,155
107.380,147
107.405,143
107.430,155
107.455,191
107.480,250
107.505,315
107.530,367
107.555,393
107.580,395
107.605,380
107.630,358
107.655,331
107.680,298
107.705,258
107.730,218
107.755,184
107.780,161
107.805,144
107.830,129
107.855,112
107.880,96
107.905,86
107.930,86
107.955,91
107.980,94
108.005,93
108.030,95
108.055,107
108.080,129
108.105,151
108.130,160
108.155,154
108.180,141
108.205,128
108.230,111
108.255,87
108.280,57
108.305,38
108.330,49
108.355,92
108.380,147
108.405,188
108.430,206
108.455,208
108.480,211
108.505,220
108.530,228
108.555,229
108.580,223
108.605,222
108.630,231
108.655,245
108.680,253
108.705,247
108.730,230
108.755,210
108.780,194
108.805,184
108.830,180
108.855,180
108.880,181
108.905,182
108.930,183
108.955,183
108.980,184
109.005,182
109.030,178
109.055,173
109.080,168
109.105,162
109.130,147
109.155,125
109.180,107
109.205,109
109.230,143
109.255,198
109.280,252
109.305,285
109.330,297
109.355,300
109.380,307
109.405,316
109.430,319
109.455,311
109.480,298
109.505,292
109.530,295
109.555,303
109.580,305
109.605,299
109.630,291
109.655,284
109.680,278
109.705,268
109.730,252
109.755,231
109.780,211
109.805,192
109.830,175
109.855,157
109.880,136
109.905,117
109.930,100
109.955,87
109.980,74
110.005,56
110.030,34
110.055,16
110.080,15
110.105,40
110.130,89
110.155,145
110.180,191
110.205,218
110.230,231
110.255,240
110.280,251
110.305,261
110.330,264
110.355,259
110.380,251
110.405,244
110.430,243
110.455,245
110.480,245
110.505,240
110.530,233
110.555,224
110.580,215
110.605,208
110.630,202
110.655,196
110.680,187
110.705,173
110.730,155
110.755,141
110.780,131
110.805,123
110.830,105
110.855,74
110.880,36
110.905,11
110.930,15
110.955,51
110.980,103
111.005,152
111.030,184
111.055,201
111.080,213
111.105,224
111.130,233
111.155,236
111.180,231
111.205,225
111.230,223
111.255,228
111.280,237
111.305,244
111.330,244
111.355,240
111.380,233
111.405,225
111.430,217
111.455,208
111.480,199
111.505,189
111.530,178
111.555,166
111.580,154
111.605,145
111.630,139
111.655,131
111.680,119
111.705,103
111.730,97
111.755,117
111.780,168
111.805,238
111.830,303
111.855,345
111.880,362
111.905,367
111.930,372
111.955,378
111.980,380
112.005,377
112.030,374
112.055,379
112.080,390
112.105,400
112.130,400
112.155,392
112.180,383
112.205,374
112.230,362
112.255,338
112.280,301
112.305,257
112.330,213
112.355,172
112.380,135
112.405,100
112.430,66
112.455,29
112.480,-16
112.505,-70
112.530,-122
112.555,-160
112.580,-170
112.605,-153
112.630,-119
112.655,-78
112.680,-39
112.705,-2
112.730,30
112.755,61
112.780,87
112.805,107
112.830,118
112.855,127
112.880,144
112.905,181
112.930,242
112.955,311
112.980,366
113.005,388
113.030,380
113.055,357
113.080,337
113.105,324
113.130,312
113.155,295
113.180,274
113.205,249
113.230,219
113.255,182
113.280,141
113.305,110
113.330,104
113.355,123
113.380,155
113.405,180
113.430,191
113.455,192
113.480,190
113.505,187
113.530,180
113.555,168
113.580,156
113.605,154
113.630,162
113.655,176
113.680,187
113.705,191
113.730,191
113.755,196
113.780,209
113.805,225
113.830,234
113.855,231
113.880,219
113.905,207
113.930,198
113.955,188
113.980,166
114.005,134
114.030,105
114.055,102
114.080,136
114.105,197
114.130,258
114.155,300
114.180,319
114.205,326
114.230,333
114.255,340
114.280,340
114.305,330
114.330,315
114.355,306
114.380,305
114.405,310
114.430,312
114.455,305
114.480,288
114.505,267
114.530,246
114.555,225
114.580,202
114.605,174
114.630,141
114.655,111
114.680,87
114.705,69
114.730,49
114.755,24
114.780,4
114.805,6
114.830,41
114.855,101
114.880,163
114.905,203
114.930,218
114.955,220
114.980,222
115.005,225
115.030,222
115.055,208
115.080,187
115.105,174
115.130,172
115.155,179
115.180,184
115.205,181
115.230,175
115.255,169
115.280,164
115.305,158
115.330,153
115.355,148
115.380,145
115.405,139
115.430,125
115.455,106
115.480,89
115.505,80
115.530,74
115.555,63
115.580,44
115.605,30
115.630,40
115.655,84
115.680,151
115.705,216
115.730,259
115.755,280
115.780,289
115.805,299
115.830,310
115.855,314
115.880,309
115.905,301
115.930,301
115.955,309
115.980,320
116.005,326
116.030,325
116.055,320
116.080,314
116.105,305
116.130,295
116.155,281
116.180,267
116.205,250
116.230,228
116.255,201
116.280,173
116.305,146
116.330,119
116.355,86
116.380,50
116.405,26
116.430,34
116.455,78
116.480,140
116.505,192
116.530,219
116.555,228
116.580,238
116.605,254
116.630,269
116.655,269
116.680,255
116.705,241
116.730,240
116.755,250
116.780,255
116.805,249
116.830,238
116.855,234
116.880,241
116.905,249
116.930,246
116.955,231
116.980,209
117.005,185
117.030,160
117.055,136
117.080,119
117.105,114
117.130,115
117.155,111
117.180,94
117.205,72
117.230,65
117.255,87
117.280,129
117.305,170
117.330,195
117.355,206
117.380,216
117.405,234
117.430,255
117.455,266
117.480,259
117.505,236
117.530,205
117.555,177
117.580,157
117.605,148
117.630,149
117.655,158
117.680,171
117.705,183
117.730,193
117.755,200
117.780,202
117.805,196
117.830,183
117.855,164
117.880,144
117.905,125
117.930,111
117.955,99
117.980,86
118.005,67
118.030,45
118.055,30
118.080,38
118.105,77
118.130,141
118.155,208
118.180,258
118.205,284
118.230,296
118.255,304
118.280,313
118.305,317
118.330,312
118.355,300
118.380,288
118.405,283
118.430,284
118.455,286
118.480,288
118.505,291
118.530,295
118.555,298
118.580,292
118.605,279
118.630,262
118.655,248
118.680,237
118.705,228
118.730,215
118.755,199
118.780,185
118.805,176
118.830,170
118.855,158
118.880,138
118.905,117
118.930,115
118.955,144
118.980,199
119.005,258
119.030,296
119.055,303
119.080,291
119.105,277
119.130,269
119.155,263
119.180,252
119.205,236
119.230,222
119.255,215
119.280,209
119.305,193
119.330,163
119.355,126
119.380,90
119.405,58
119.430,25
119.455,-9
119.480,-41
119.505,-64
119.530,-78
119.555,-88
119.580,-95
119.605,-91
119.630,-67
119.655,-24
119.680,21
119.705,54
119.730,69
119.755,82
119.780,110
119.805,162
119.830,225
119.855,278
119.880,308
119.905,314
119.930,309
119.955,305
119.980,303
120.005,301
120.030,294
120.055,285
120.080,281
120.105,289
120.130,312
120.155,342
120.180,370
120.205,389
120.230,398
120.255,398
120.280,393
120.305,384
120.330,370
120.355,350
120.380,323
120.405,291
120.430,257
120.455,226
120.480,195
120.505,161
120.530,124
120.555,95
120.580,88
120.605,113
120.630,163
120.655,218
120.680,259
120.705,278
120.730,283
120.755,283
120.780,281
120.805,274
120.830,262
120.855,248
120.880,241
120.905,243
120.930,251
120.955,257
120.980,258
121.005,255
121.030,246
121.055,231
121.080,211
121.105,192
121.130,177
121.155,163
121.180,147
121.205,129
121.230,115
121.255,108
121.280,103
121.305,86
121.330,53
121.355,19
121.380,7
121.405,30
121.430,75
121.455,114
121.480,127
121.505,121
121.530,116
121.555,122
121.580,131
121.605,127
121.630,107
121.655,86
121.680,81
121.705,97
121.730,120
121.755,134
121.780,133
121.805,120
121.830,102
121.855,86
121.880,76
121.905,81
121.930,104
121.955,142
121.980,178
122.005,200
122.030,207
122.055,210
122.080,216
122.105,221
122.130,215
122.155,199
122.180,192
122.205,212
122.230,261
122.255,321
122.280,368
122.305,392
122.330,400
122.355,402
122.380,402
122.405,395
122.430,378
122.455,356
122.480,338
122.505,326
122.530,318
122.555,309
122.580,299
122.605,287
122.630,274
122.655,259
122.680,241
122.705,224
122.730,208
122.755,189
122.780,166
122.805,140
122.830,115
122.855,90
122.880,66
122.905,42
122.930,29
122.955,41
122.980,82
123.005,143
123.030,201
123.055,239
123.080,255
123.105,256
123.130,254
123.155,248
123.180,237
123.205,221
123.230,204
123.255,194
123.280,191
123.305,190
123.330,185
123.355,174
123.380,162
123.405,151
123.430,139
123.455,121
123.480,95
123.505,68
123.530,48
123.555,41
123.580,41
123.605,38
123.630,28
123.655,24
123.680,44
123.705,94
123.730,163
123.755,226
123.780,267
123.805,288
123.830,303
123.855,320
123.880,334
123.905,337
123.930,325
123.955,310
123.980,303
124.005,304
124.030,305
124.055,298
124.080,282
124.105,262
124.130,243
124.155,225
124.180,210
124.205,194
124.230,177
124.255,158
124.280,136
124.305,116
124.330,101
124.355,87
124.380,69
124.405,43
124.430,20
124.455,18
124.480,49
124.505,108
124.530,171
124.555,217
124.580,240
124.605,252
124.630,265
124.655,283
124.680,297
124.705,303
124.730,299
124.755,294
124.780,293
124.805,294
124.830,295
124.855,294
124.880,291
124.905,286
124.930,279
124.955,268
124.980,256
125.005,244
125.030,231
125.055,216
125.080,196
125.105,175
125.130,158
125.155,145
125.180,130
125.205,104
125.230,72
125.255,50
125.280,57
125.305,98
125.330,154
125.355,203
125.380,230
125.405,239
125.430,244
125.455,252
125.480,257
125.505,252
125.530,239
125.555,225
125.580,218
125.605,219
125.630,219
125.655,215
125.680,205
125.705,195
125.730,186
125.755,179
125.780,173
125.805,168
125.830,164
125.855,157
125.880,147
125.905,134
125.930,124
125.955,115
125.980,101
126.005,80
126.030,60
126.055,56
126.080,81
126.105,130
126.130,183
126.155,221
126.180,239
126.205,248
126.230,257
126.255,267
126.280,271
126.305,265
126.330,253
126.355,246
126.380,245
126.405,247
126.430,247
126.455,243
126.480,241
126.505,244
126.530,246
126.555,241
126.580,227
126.605,212
126.630,202
126.655,194
126.680,182
126.705,163
126.730,142
126.755,125
126.780,112
126.805,92
126.830,63
126.855,37
126.880,36
126.905,73
126.930,134
126.955,194
126.980,230
127.005,244
127.030,251
127.055,264
127.080,279
127.105,282
127.130,272
127.155,259
127.180,258
127.205,271
127.230,288
127.255,294
127.280,288
127.305,279
127.330,274
127.355,270
127.380,262
127.405,248
127.430,234
127.455,227
127.480,222
127.505,211
127.530,189
127.555,161
127.580,139
127.605,124
127.630,109
127.655,88
127.680,64
127.705,56
127.730,80
127.755,131
127.780,189
127.805,230
127.830,247
127.855,249
127.880,250
127.905,253
127.930,253
127.955,244
127.980,229
128.005,216
128.030,210
128.055,210
128.080,209
128.105,203
128.130,192
128.155,179
128.180,166
128.205,151
128.230,136
128.255,122
128.280,110
128.305,99
128.330,87
128.355,77
128.380,69
128.405,64
128.430,62
128.455,64
128.480,80
128.505,116
128.530,171
128.555,231
128.580,283
128.605,316
128.630,334
128.655,343
128.680,343
128.705,334
128.730,316
128.755,297
128.780,283
128.805,277
128.830,274
128.855,270
128.880,263
128.905,255
128.930,247
128.955,237
128.980,226
129.005,215
129.030,205
129.055,194
129.080,179
129.105,158
129.130,138
129.155,123
129.180,107
129.205,85
129.230,55
129.255,31
129.280,34
129.305,71
129.330,128
129.355,182
129.380,216
129.405,232
129.430,243
129.455,256
129.480,265
129.505,265
129.530,253
129.555,241
129.580,240
129.605,249
129.630,259
129.655,261
129.680,254
129.705,243
129.730,233
129.755,225
129.780,216
129.805,203
129.830,191
129.855,181
129.880,173
129.905,161
129.930,147
129.955,133
129.980,122
130.005,110
130.030,91
130.055,67
130.080,51
130.105,63
130.130,108
130.155,169
130.180,220
130.205,243
130.230,246
130.255,246
130.280,255
130.305,269
130.330,277
130.355,276
130.380,272
130.405,273
130.430,278
130.455,281
130.480,276
130.505,264
130.530,252
130.555,238
130.580,221
130.605,200
130.630,177
130.655,156
130.680,135
130.705,117
130.730,108
130.755,117
130.780,139
130.805,158
130.830,156
130.855,135
130.880,116
130.905,119
130.930,145
130.955,174
130.980,186
131.005,183
131.030,184
131.055,201
131.080,227
131.105,247
131.130,250
131.155,243
131.180,239
131.205,246
131.230,259
131.255,270
131.280,276
131.305,275
131.330,270
131.355,258
131.380,243
131.405,226
131.430,209
131.455,192
131.480,174
131.505,157
131.530,140
131.555,121
131.580,97
131.605,75
131.630,71
131.655,98
131.680,151
131.705,210
131.730,251
131.755,268
131.780,274
131.805,281
131.830,289
131.855,287
131.880,273
131.905,254
131.930,244
131.955,247
131.980,253
132.005,249
132.030,235
132.055,217
132.080,200
132.105,184
132.130,166
132.155,147
132.180,129
132.205,114
132.230,96
132.255,73
132.280,52
132.305,50
132.330,73
132.355,113
132.380,153
132.405,177
132.430,186
132.455,188
132.480,190
132.505,189
132.530,180
132.555,165
132.580,151
132.605,148
132.630,156
132.655,169
132.680,182
132.705,190
132.730,196
132.755,198
132.780,197
132.805,191
132.830,182
132.855,172
132.880,161
132.905,146
132.930,124
132.955,104
132.980,104
133.005,138
133.030,206
133.055,289
133.080,357
133.105,394
133.130,404
133.155,401
133.180,396
133.205,389
133.230,373
133.255,349
133.280,327
133.305,315
133.330,313
133.355,309
133.380,294
133.405,271
133.430,250
133.455,235
133.480,220
133.505,197
133.530,164
133.555,130
133.580,103
133.605,80
133.630,53
133.655,21
133.680,-1
133.705,3
133.730,44
133.755,104
133.780,160
133.805,194
133.830,207
133.855,211
133.880,215
133.905,218
133.930,216
133.955,208
133.980,198
134.005,194
134.030,196
134.055,199
134.080,197
134.105,188
134.130,178
134.155,169
134.180,162
134.205,152
134.230,137
134.255,120
134.280,103
134.305,88
134.330,71
134.355,48
134.380,25
134.405,18
134.430,40
134.455,91
134.480,155
134.505,211
134.530,248
134.555,269
134.580,282
134.605,293
134.630,300
134.655,301
134.680,301
134.705,304
134.730,310
134.755,317
134.780,319
134.805,313
134.830,305
134.855,297
134.880,289
134.905,281
134.930,269
134.955,254
134.980,235
135.005,212
135.030,189
135.055,168
135.080,148
135.105,124
135.130,94
135.155,67
135.180,61
135.205,89
135.230,146
135.255,210
135.280,257
135.305,277
135.330,276
135.355,265
135.380,250
135.405,230
135.430,210
135.455,198
135.480,203
135.505,221
135.530,238
135.555,242
135.580,237
135.605,233
135.630,235
135.655,240
135.680,237
135.705,223
135.730,204
135.755,187
135.780,173
135.805,156
135.830,136
135.855,118
135.880,104
135.905,91
135.930,71
135.955,41
135.980,15
136.005,12
136.030,41
136.055,90
136.080,139
136.105,173
136.130,192
136.155,205
136.180,218
136.205,228
136.230,231
136.255,229
136.280,228
136.305,232
136.330,240
136.355,249
136.380,253
136.405,251
136.430,242
136.455,231
136.480,218
136.505,208
136.530,197
136.555,183
136.580,166
136.605,150
136.630,139
136.655,132
136.680,124
136.705,109
136.730,92
136.755,78
136.780,68
136.805,56
136.830,39
136.855,27
136.880,42
136.905,94
136.930,172
136.955,248
136.980,300
137.005,330
137.030,352
137.055,376
137.080,397
137.105,408
137.130,409
137.155,413
137.180,428
137.205,450
137.230,465
137.255,465
137.280,454
137.305,444
137.330,445
137.355,454
137.380,464
137.405,463
137.430,444
137.455,404
137.480,349
137.505,287
137.530,225
137.555,158
137.580,79
137.605,-10
137.630,-98
137.655,-162
137.680,-193
137.705,-198
137.730,-196
137.755,-199
137.780,-201
137.805,-188
137.830,-151
137.855,-95
137.880,-32
137.905,24
137.930,72
137.955,112
137.980,146
138.005,175
138.030,201
138.055,224
138.080,248
138.105,272
138.130,295
138.155,311
138.180,313
138.205,301
138.230,282
138.255,271
138.280,276
138.305,292
138.330,305
138.355,303
138.380,286
138.405,269
138.430,265
138.455,273
138.480,281
138.505,272
138.530,239
138.555,194
138.580,160
138.605,153
138.630,174
138.655,202
138.680,212
138.705,193
138.730,157
138.755,130
138.780,131
138.805,157
138.830,191
138.855,219
138.880,240
138.905,259
138.930,279
138.955,294
138.980,298
139.005,292
139.030,282
139.055,273
139.080,267
139.105,258
139.130,245
139.155,229
139.180,212
139.205,194
139.230,173
139.255,154
139.280,140
139.305,131
139.330,116
139.355,94
139.380,73
139.405,70
139.430,99
139.455,152
139.480,208
139.505,248
139.530,269
139.555,276
139.580,279
139.605,277
139.630,269
139.655,256
139.680,246
139.705,242
139.730,242
139.755,243
139.780,239
139.805,231
139.830,221
139.855,211
139.880,202
139.905,194
139.930,183
139.955,167
139.980,148
140.005,130
140.030,115
140.055,101
140.080,81
140.105,56
140.130,35
140.155,37
140.180,72
140.205,128
140.230,183
140.255,216
140.280,227
140.305,227
140.330,229
140.355,232
140.380,229
140.405,217
140.430,204
140.455,200
140.480,206
140.505,215
140.530,220
140.555,221
140.580,223
140.605,229
140.630,236
140.655,235
140.680,225
140.705,212
140.730,203
140.755,197
140.780,186
140.805,162
140.830,132
140.855,115
140.880,127
140.905,168
140.930,220
140.955,262
140.980,286
141.005,296
141.030,301
141.055,304
141.080,300
141.105,288
141.130,272
141.155,260
141.180,256
141.205,256
141.230,255
141.255,249
141.280,239
141.305,224
141.330,206
141.355,184
141.380,161
141.405,138
141.430,115
141.455,92
141.480,72
141.505,57
141.530,45
141.555,29
141.580,5
141.605,-16
141.630,-15
141.655,26
141.680,102
141.705,186
141.730,252
141.755,291
141.780,316
141.805,343
141.830,374
141.855,397
141.880,398
141.905,380
141.930,357
141.955,340
141.980,328
142.005,311
142.030,283
142.055,254
142.080,242
142.105,254
142.130,279
142.155,294
142.180,283
142.205,251
142.230,216
142.255,193
142.280,186
142.305,186
142.330,184
142.355,177
142.380,162
142.405,132
142.430,87
142.455,39
142.480,17
142.505,38
142.530,89
142.555,135
142.580,144
142.605,118
142.630,86
142.655,83
142.680,114
142.705,156
142.730,181
142.755,182
142.780,174
142.805,172
142.830,179
142.855,190
142.880,198
142.905,202
142.930,207
142.955,210
142.980,205
143.005,191
143.030,175
143.055,167
143.080,168
143.105,173
143.130,171
143.155,160
143.180,144
143.205,131
143.230,118
143.255,99
143.280,72
143.305,47
143.330,44
143.355,82
143.380,160
143.405,259
143.430,347
143.455,401
143.480,417
143.505,411
143.530,409
143.555,426
143.580,452
143.605,461
143.630,428
143.655,355
143.680,271
143.705,214
143.730,200
143.755,213
143.780,223
143.805,213
143.830,189
143.855,170
143.880,163
143.905,160
143.930,150
143.955,132
143.980,116
144.005,109
144.030,111
144.055,111
144.080,105
144.105,95
144.130,81
144.155,68
144.180,56
144.205,54
144.230,72
144.255,112
144.280,162
144.305,208
144.330,241
144.355,265
144.380,287
144.405,307
144.430,318
144.455,314
144.480,303
144.505,293
144.530,289
144.555,290
144.580,287
144.605,279
144.630,269
144.655,259
144.680,245
144.705,225
144.730,202
144.755,184
144.780,177
144.805,178
144.830,177
144.855,167
144.880,147
144.905,126
144.930,108
144.955,95
144.980,79
145.005,59
145.030,44
145.055,50
145.080,84
145.105,139
145.130,195
145.155,234
145.180,254
145.205,264
145.230,275
145.255,288
145.280,291
145.305,280
145.330,261
145.355,248
145.380,249
145.405,257
145.430,258
145.455,245
145.480,224
145.505,204
145.530,189
145.555,174
145.580,155
145.605,130
145.630,107
145.655,88
145.680,73
145.705,62
145.730,54
145.755,49
145.780,43
145.805,33
145.830,23
145.855,25
145.880,52
145.905,105
145.930,166
145.955,218
145.980,248
146.005,264
146.030,277
146.055,294
146.080,312
146.105,323
146.130,326
146.155,328
146.180,334
146.205,344
146.230,353
146.255,355
146.280,352
146.305,345
146.330,335
146.355,321
146.380,298
146.405,269
146.430,241
146.455,219
146.480,204
146.505,190
146.530,169
146.555,142
146.580,113
146.605,91
146.630,71
146.655,46
146.680,14
146.705,-13
146.730,-18
146.755,11
146.780,66
146.805,125
146.830,166
146.855,188
146.880,199
146.905,212
146.930,226
146.955,239
146.980,249
147.005,259
147.030,274
147.055,291
147.080,305
147.105,315
147.130,325
147.155,333
147.180,335
147.205,324
147.230,303
147.255,279
147.280,256
147.305,235
147.330,211
147.355,185
147.380,164
147.405,151
147.430,145
147.455,138
147.480,127
147.505,112
147.530,92
147.555,67
147.580,40
147.605,24
147.630,37
147.655,84
147.680,151
147.705,213
147.730,252
147.755,273
147.780,286
147.805,300
147.830,309
147.855,304
147.880,290
147.905,276
147.930,272
147.955,276
147.980,279
148.005,275
148.030,267
148.055,259
148.080,254
148.105,250
148.130,244
148.155,234
148.180,221
148.205,205
148.230,188
148.255,170
148.280,153
148.305,135
148.330,116
148.355,97
148.380,82
148.405,70
148.430,54
148.455,32
148.480,13
148.505,16
148.530,55
148.555,126
148.580,201
148.605,253
148.630,273
148.655,276
148.680,283
148.705,298
148.730,309
148.755,304
148.780,284
148.805,264
148.830,256
148.855,259
148.880,261
148.905,253
148.930,237
148.955,224
148.980,217
149.005,214
149.030,207
149.055,193
149.080,175
149.105,155
149.130,136
149.155,116
149.180,96
149.205,76
149.230,55
149.255,29
149.280,0
149.305,-24
149.330,-23
149.355,12
149.380,77
149.405,148
149.430,204
149.455,236
149.480,253
149.505,267
149.530,281
149.555,290
149.580,289
149.605,280
149.630,274
149.655,276
149.680,285
149.705,292
149.730,293
149.755,286
149.780,276
149.805,266
149.830,254
149.855,240
149.880,224
149.905,208
149.930,193
149.955,177
149.980,159
150.005,141
150.030,128
150.055,120
150.080,109
150.105,93
150.130,74
150.155,69
150.180,92
150.205,145
150.230,212
150.255,268
150.280,298
150.305,306
150.330,308
150.355,314
150.380,322
150.405,322
150.430,308
150.455,290
150.480,280
150.505,283
150.530,294
150.555,298
150.580,291
150.605,276
150.630,259
150.655,243
150.680,225
150.705,205
150.730,186
150.755,170
150.780,156
150.805,142
150.830,125
150.855,110
150.880,97
150.905,82
150.930,58
150.955,28
150.980,7
151.005,14
151.030,57
151.055,123
151.080,185
151.105,227
151.130,249
151.155,263
151.180,278
151.205,291
151.230,294
151.255,285
151.280,272
151.305,264
151.330,264
151.355,265
151.380,261
151.405,253
151.430,242
151.455,232
151.480,221
151.505,205
151.530,188
151.555,172
151.580,162
151.605,154
151.630,143
151.655,126
151.680,106
151.705,91
151.730,83
151.755,77
151.780,66
151.805,45
151.830,26
151.855,26
151.880,59
151.905,120
151.930,185
151.955,231
151.980,252
152.005,257
152.030,262
152.055,274
152.080,286
152.105,290
152.130,288
152.155,288
152.180,295
152.205,302
152.230,302
152.255,294
152.280,286
152.305,281
152.330,278
152.355,271
152.380,259
152.405,246
152.430,237
152.455,228
152.480,215
152.505,195
152.530,174
152.555,158
152.580,146
152.605,129
152.630,107
152.655,87
152.680,72
152.705,58
152.730,35
152.755,6
152.780,-10
152.805,11
152.830,80
152.855,172
152.880,253
152.905,304
152.930,329
152.955,346
152.980,363
153.005,375
153.030,371
153.055,354
153.080,334
153.105,321
153.130,315
153.155,309
153.180,302
153.205,295
153.230,287
153.255,278
153.280,263
153.305,244
153.330,225
153.355,208
153.380,190
153.405,168
153.430,145
153.455,127
153.480,118
153.505,112
153.530,102
153.555,86
153.580,70
153.605,56
153.630,44
153.655,28
153.680,10
153.705,7
153.730,36
153.755,95
153.780,162
153.805,213
153.830,238
153.855,247
153.880,254
153.905,263
153.930,267
153.955,258
153.980,240
154.005,225
154.030,218
154.055,218
154.080,216
154.105,210
154.130,201
154.155,191
154.180,179
154.205,162
154.230,143
154.255,125
154.280,112
154.305,102
154.330,96
154.355,94
154.380,95
154.405,93
154.430,79
154.455,57
154.480,44
154.505,59
154.530,104
154.555,157
154.580,196
154.605,215
154.630,230
154.655,260
154.680,307
154.705,352
154.730,377
154.755,387
154.780,396
154.805,414
154.830,434
154.855,442
154.880,433
154.905,418
154.930,409
154.955,407
154.980,400
155.005,381
155.030,349
155.055,316
155.080,285
155.105,257
155.130,224
155.155,187
155.180,150
155.205,117
155.230,87
155.255,59
155.280,36
155.305,21
155.330,12
155.355,4
155.380,-8
155.405,-27
155.430,-43
155.455,-53
155.480,-59
155.505,-69
155.530,-84
155.555,-90
155.580,-68
155.605,-13
155.630,62
155.655,135
155.680,186
155.705,218
155.730,242
155.755,270
155.780,301
155.805,322
155.830,329
155.855,325
155.880,319
155.905,318
155.930,320
155.955,322
155.980,323
156.005,323
156.030,325
156.055,326
156.080,326
156.105,322
156.130,313
156.155,299
156.180,282
156.205,267
156.230,258
156.255,252
156.280,244
156.305,226
156.330,199
156.355,171
156.380,147
156.405,125
156.430,93
156.455,53
156.480,19
156.505,17
156.530,57
156.555,129
156.580,205
156.605,266
156.630,307
156.655,339
156.680,367
156.705,390
156.730,406
156.755,418
156.780,428
156.805,432
156.830,421
156.855,389
156.880,343
156.905,296
156.930,257
156.955,224
156.980,194
157.005,168
157.030,153
157.055,151
157.080,152
157.105,146
157.130,129
157.155,109
157.180,94
157.205,78
157.230,44
157.255,-13
157.280,-79
157.305,-126
157.330,-132
157.355,-98
157.380,-49
157.405,-9
157.430,9
157.455,12
157.480,12
157.505,19
157.530,33
157.555,50
157.580,69
157.605,90
157.630,115
157.655,146
157.680,180
157.705,211
157.730,234
157.755,251
157.780,267
157.805,286
157.830,303
157.855,312
157.880,310
157.905,298
157.930,282
157.955,268
157.980,260
158.005,257
158.030,257
158.055,252
158.080,236
158.105,210
158.130,187
158.155,185
158.180,212
158.205,261
158.230,307
158.255,333
158.280,339
158.305,337
158.330,335
158.355,332
158.380,322
158.405,304
158.430,285
158.455,274
158.480,272
158.505,273
158.530,269
158.555,259
158.580,244
158.605,228
158.630,211
158.655,194
158.680,176
158.705,161
158.730,150
158.755,141
158.780,136
158.805,130
158.830,125
158.855,119
158.880,113
158.905,103
158.930,86
158.955,60
158.980,30
159.005,12
159.030,22
159.055,64
159.080,125
159.105,178
159.130,207
159.155,212
159.180,209
159.205,215
159.230,231
159.255,243
159.280,242
159.305,228
159.330,215
159.355,212
159.380,214
159.405,211
159.430,196
159.455,177
159.480,170
159.505,182
159.530,209
159.555,237
159.580,254
159.605,256
159.630,249
159.655,238
159.680,227
159.705,218
159.730,211
159.755,202
159.780,187
159.805,161
159.830,130
159.855,112
159.880,120
159.905,154
159.930,195
159.955,224
159.980,233
160.005,230
160.030,226
160.055,229
160.080,232
160.105,232
160.130,231
160.155,235
160.180,245
160.205,257
160.230,263
160.255,263
160.280,259
160.305,257
160.330,256
160.355,249
160.380,231
160.405,204
160.430,179
160.455,161
160.480,152
160.505,142
160.530,122
160.555,93
160.580,71
160.605,73
160.630,105
160.655,154
160.680,197
160.705,219
160.730,223
160.755,221
160.780,220
160.805,217
160.830,202
160.855,175
160.880,150
160.905,140
160.930,145
160.955,155
160.980,159
161.005,158
161.030,159
161.055,169
161.080,186
161.105,201
161.130,208
161.155,210
161.180,210
161.205,204
161.230,188
161.255,162
161.280,140
161.305,139
161.330,166
161.355,213
161.380,258
161.405,286
161.430,297
161.455,301
161.480,306
161.505,310
161.530,305
161.555,288
161.580,266
161.605,249
161.630,239
161.655,230
161.680,211
161.705,185
161.730,161
161.755,148
161.780,144
161.805,138
161.830,124
161.855,102
161.880,79
161.905,58
161.930,32
161.955,3
161.980,-18
162.005,-14
162.030,23
162.055,86
162.080,149
162.105,193
162.130,218
162.155,237
162.180,262
162.205,290
162.230,311
162.255,318
162.280,314
162.305,310
162.330,310
162.355,310
162.380,304
162.405,289
162.430,272
162.455,256
162.480,244
162.505,231
162.530,213
162.555,194
162.580,178
162.605,167
162.630,154
162.655,131
162.680,98
162.705,68
162.730,54
162.755,54
162.780,55
162.805,44
162.830,25
162.855,19
162.880,46
162.905,104
162.930,169
162.955,215
162.980,237
163.005,249
163.030,268
163.055,298
163.080,327
163.105,342
163.130,341
163.155,333
163.180,328
163.205,329
163.230,334
163.255,339
163.280,342
163.305,340
163.330,334
163.355,326
163.380,319
163.405,315
163.430,313
163.455,308
163.480,297
163.505,280
163.530,261
163.555,240
163.580,214
163.605,183
163.630,148
163.655,115
163.680,85
163.705,59
163.730,36
163.755,14
163.780,-9
163.805,-37
163.830,-65
163.855,-80
163.880,-68
163.905,-21
163.930,47
163.955,116
163.980,167
164.005,197
164.030,216
164.055,235
164.080,256
164.105,272
164.130,279
164.155,278
164.180,278
164.205,282
164.230,290
164.255,298
164.280,301
164.305,295
164.330,284
164.355,272
164.380,263
164.405,256
164.430,247
164.455,234
164.480,218
164.505,204
164.530,194
164.555,186
164.580,176
164.605,161
164.630,145
164.655,128
164.680,112
164.705,94
164.730,76
164.755,62
164.780,52
164.805,39
164.830,19
164.855,0
164.880,-2
164.905,29
164.930,92
164.955,162
164.980,218
165.005,250
165.030,269
165.055,288
165.080,307
165.105,321
165.130,323
165.155,319
165.180,315
165.205,317
165.230,322
165.255,326
165.280,327
165.305,325
165.330,319
165.355,311
165.380,299
165.405,288
165.430,279
165.455,270
165.480,257
165.505,241
165.530,223
165.555,207
165.580,193
165.605,180
165.630,165
165.655,148
165.680,131
165.705,115
165.730,101
165.755,89
165.780,74
165.805,53
165.830,25
165.855,0
165.880,-3
165.905,27
165.930,88
165.955,155
165.980,205
166.005,228
166.030,238
166.055,250
166.080,268
166.105,283
166.130,285
166.155,277
166.180,270
166.205,271
166.230,277
166.255,280
166.280,277
166.305,272
166.330,267
166.355,261
166.380,251
166.405,236
166.430,219
166.455,203
166.480,190
166.505,177
166.530,165
166.555,154
166.580,145
166.605,133
166.630,117
166.655,100
166.680,88
166.705,82
166.730,74
166.755,56
166.780,33
166.805,23
166.830,45
166.855,102
166.880,172
166.905,232
166.930,270
166.955,290
166.980,301
167.005,309
167.030,310
167.055,303
167.080,295
167.105,291
167.130,292
167.155,291
167.180,284
167.205,272
167.230,263
167.255,260
167.280,260
167.305,256
167.330,248
167.355,238
167.380,229
167.405,216
167.430,198
167.455,175
167.480,153
167.505,135
167.530,120
167.555,103
167.580,88
167.605,75
167.630,63
167.655,44
167.680,17
167.705,-5
167.730,-3
167.755,36
167.780,104
167.805,173
167.830,220
167.855,242
167.880,253
167.905,267
167.930,283
167.955,291
167.980,288
168.005,279
168.030,273
168.055,273
168.080,275
168.105,278
168.130,282
168.155,289
168.180,294
168.205,294
168.230,287
168.255,277
168.280,268
168.305,259
168.330,246
168.355,230
168.380,214
168.405,203
168.430,194
168.455,181
168.480,163
168.505,145
168.530,132
168.555,120
168.580,99
168.605,73
168.630,59
168.655,78
168.680,132
168.705,199
168.730,249
168.755,270
168.780,272
168.805,273
168.830,278
168.855,278
168.880,264
168.905,240
168.930,220
168.955,213
168.980,214
169.005,215
169.030,211
169.055,205
169.080,198
169.105,189
169.130,175
169.155,158
169.180,144
169.205,135
169.230,127
169.255,113
169.280,94
169.305,78
169.330,69
169.355,61
169.380,46
169.405,21
169.430,0
169.455,2
169.480,41
169.505,105
169.530,174
169.555,229
169.580,267
169.605,297
169.630,326
169.655,352
169.680,366
169.705,366
169.730,359
169.755,357
169.780,366
169.805,381
169.830,391
169.855,391
169.880,382
169.905,372
169.930,364
169.955,353
169.980,337
170.005,315
170.030,291
170.055,269
170.080,247
170.105,221
170.130,192
170.155,165
170.180,142
170.205,120
170.230,91
170.255,59
170.280,40
170.305,52
170.330,96
170.355,153
170.380,195
170.405,211
170.430,208
170.455,200
170.480,194
170.505,183
170.530,161
170.555,132
170.580,105
170.605,85
170.630,70
170.655,52
170.680,32
170.705,17
170.730,7
170.755,-1
170.780,-16
170.805,-37
170.830,-54
170.855,-62
170.880,-64
170.905,-67
170.930,-69
170.955,-53
170.980,-7
171.005,57
171.030,113
171.055,132
171.080,120
171.105,111
171.130,140
171.155,212
171.180,298
171.205,363
171.230,393
171.255,404
171.280,420
171.305,450
171.330,482
171.355,501
171.380,500
171.405,487
171.430,472
171.455,458
171.480,440
171.505,416
171.530,388
171.555,363
171.580,343
171.605,325
171.630,306
171.655,286
171.680,265
171.705,242
171.730,220
171.755,199
171.780,185
171.805,176
171.830,165
171.855,149
171.880,134
171.905,134
171.930,161
171.955,207
171.980,254
172.005,281
172.030,287
172.055,281
172.080,272
172.105,260
172.130,235
172.155,198
172.180,160
172.205,133
172.230,123
172.255,123
172.280,126
172.305,130
172.330,135
172.355,139
172.380,135
172.405,120
172.430,100
172.455,83
172.480,71
172.505,58
172.530,42
172.555,27
172.580,21
172.605,21
172.630,19
172.655,8
172.680,-2
172.705,8
172.730,53
172.755,121
172.780,186
172.805,229
172.830,252
172.855,272
172.880,297
172.905,320
172.930,326
172.955,310
172.980,286
173.005,272
173.030,273
173.055,280
173.080,279
173.105,269
173.130,256
173.155,246
173.180,240
173.205,231
173.230,217
173.255,197
173.280,174
173.305,148
173.330,122
173.355,104
173.380,98
173.405,99
173.430,94
173.455,73
173.480,45
173.505,34
173.530,58
173.555,114
173.580,178
173.605,225
173.630,247
173.655,257
173.680,268
173.705,284
173.730,296
173.755,297
173.780,290
173.805,285
173.830,287
173.855,294
173.880,301
173.905,302
173.930,296
173.955,285
173.980,273
174.005,263
174.030,255
174.055,245
174.080,232
174.105,214
174.130,192
174.155,169
174.180,145
174.205,121
174.230,100
174.255,83
174.280,69
174.305,53
174.330,33
174.355,18
174.380,24
174.405,60
174.430,118
174.455,172
174.480,202
174.505,209
174.530,213
174.555,225
174.580,242
174.605,249
174.630,243
174.655,232
174.680,232
174.705,247
174.730,267
174.755,280
174.780,283
174.805,283
174.830,283
174.855,281
174.880,272
174.905,257
174.930,240
174.955,225
174.980,211
175.005,194
175.030,173
175.055,154
175.080,138
175.105,124
175.130,111
175.155,98
175.180,82
175.205,61
175.230,36
175.255,15
175.280,15
175.305,45
175.330,99
175.355,155
175.380,195
175.405,213
175.430,219
175.455,226
175.480,236
175.505,241
175.530,237
175.555,228
175.580,224
175.605,227
175.630,234
175.655,238
175.680,236
175.705,231
175.730,227
175.755,226
175.780,229
175.805,233
175.830,234
175.855,228
175.880,215
175.905,200
175.930,186
175.955,174
175.980,163
176.005,148
176.030,130
176.055,114
176.080,102
176.105,92
176.130,86
176.155,92
176.180,121
176.205,175
176.230,242
176.255,299
176.280,336
176.305,358
176.330,379
176.355,406
176.380,430
176.405,440
176.430,436
176.455,427
176.480,423
176.505,422
176.530,414
176.555,390
176.580,354
176.605,316
176.630,280
176.655,244
176.680,203
176.705,159
176.730,117
176.755,81
176.780,47
176.805,16
176.830,-11
176.855,-31
176.880,-43
176.905,-49
176.930,-53
176.955,-52
176.980,-45
177.005,-36
177.030,-32
177.055,-34
177.080,-29
177.105,0
177.130,56
177.155,121
177.180,170
177.205,192
177.230,196
177.255,201
177.280,215
177.305,229
177.330,232
177.355,226
177.380,225
177.405,238
177.430,257
177.455,272
177.480,275
177.505,271
177.530,265
177.555,259
177.580,246
177.605,225
177.630,203
177.655,188
177.680,180
177.705,174
177.730,163
177.755,149
177.780,140
177.805,140
177.830,150
177.855,163
177.880,175
177.905,181
177.930,179
177.955,170
177.980,164
178.005,175
178.030,212
178.055,268
178.080,323
178.105,359
178.130,368
178.155,360
178.180,347
178.205,335
178.230,324
178.255,311
178.280,300
178.305,298
178.330,305
178.355,317
178.380,324
178.405,321
178.430,309
178.455,293
178.480,277
178.505,263
178.530,247
178.555,230
178.580,213
178.605,198
178.630,182
178.655,162
178.680,135
178.705,104
178.730,77
178.755,55
178.780,37
178.805,14
178.830,-13
178.855,-34
178.880,-31
178.905,4
178.930,62
178.955,120
178.980,161
179.005,181
179.030,191
179.055,203
179.080,216
179.105,222
179.130,217
179.155,207
179.180,205
179.205,215
179.230,232
179.255,247
179.280,254
179.305,255
179.330,256
179.355,256
179.380,249
179.405,233
179.430,214
179.455,199
179.480,191
179.505,184
179.530,170
179.555,151
179.580,131
179.605,118
179.630,108
179.655,91
179.680,66
179.705,46
179.730,52
179.755,91
179.780,154
179.805,215
179.830,257
179.855,279
179.880,293
179.905,307
179.930,316
179.955,314
179.980,302
180.005,290
180.030,288
180.055,297
180.080,307
180.105,308
180.130,297
180.155,281
180.180,266
180.205,255
180.230,245
180.255,235
180.280,226
180.305,216
180.330,203
180.355,182
180.380,157
180.405,134
180.430,121
180.455,113
180.480,98
180.505,69
180.530,37
180.555,24
180.580,47
180.605,100
180.630,159
180.655,199
180.680,213
180.705,212
180.730,213
180.755,220
180.780,226
180.805,224
180.830,215
180.855,209
180.880,210
180.905,216
180.930,220
180.955,220
180.980,217
181.005,215
181.030,214
181.055,211
181.080,205
181.105,194
181.130,180
181.155,162
181.180,144
181.205,132
181.230,126
181.255,118
181.280,100
181.305,69
181.330,44
181.355,45
181.380,86
181.405,151
181.430,214
181.455,255
181.480,276
181.505,288
181.530,300
181.555,309
181.580,307
181.605,295
181.630,285
181.655,282
181.680,283
181.705,282
181.730,276
181.755,269
181.780,267
181.805,266
181.830,260
181.855,246
181.880,230
181.905,216
181.930,202
181.955,183
181.980,157
182.005,132
182.030,115
182.055,101
182.080,79
182.105,47
182.130,20
182.155,22
182.180,63
182.205,127
182.230,187
182.255,223
182.280,240
182.305,251
182.330,266
182.355,281
182.380,287
182.405,280
182.430,268
182.455,261
182.480,265
182.505,273
182.530,278
182.555,276
182.580,268
182.605,258
182.630,246
182.655,233
182.680,219
182.705,206
182.730,193
182.755,180
182.780,163
182.805,141
182.830,119
182.855,102
182.880,92
182.905,83
182.930,66
182.955,41
182.980,22
183.005,30
183.030,71
183.055,132
183.080,188
183.105,219
183.130,227
183.155,228
183.180,236
183.205,250
183.230,260
183.255,258
183.280,251
183.305,247
183.330,252
183.355,263
183.380,271
183.405,275
183.430,274
183.455,270
183.480,260
183.505,244
183.530,224
183.555,206
183.580,194
183.605,184
183.630,172
183.655,158
183.680,142
183.705,126
183.730,107
183.755,81
183.780,48
183.805,20
183.830,13
183.855,40
183.880,94
183.905,156
183.930,203
183.955,230
183.980,244
184.005,259
184.030,279
184.055,295
184.080,298
184.105,290
184.130,281
184.155,281
184.180,291
184.205,302
184.230,305
184.255,300
184.280,292
184.305,284
184.330,275
184.355,263
184.380,248
184.405,235
184.430,223
184.455,211
184.480,194
184.505,175
184.530,157
184.555,142
184.580,129
184.605,113
184.630,96
184.655,81
184.680,67
184.705,49
184.730,26
184.755,5
184.780,5
184.805,37
184.830,95
184.855,157
184.880,202
184.905,226
184.930,241
184.955,260
184.980,284
185.005,303
185.030,308
185.055,300
185.080,291
185.105,288
185.130,293
185.155,298
185.180,296
185.205,288
185.230,278
185.255,269
185.280,257
185.305,241
185.330,221
185.355,201
185.380,186
185.405,175
185.430,164
185.455,153
185.480,141
185.505,131
185.530,119
185.555,105
185.580,86
185.605,66
185.630,44
185.655,21
185.680,-5
185.705,-29
185.730,-38
185.755,-16
185.780,34
185.805,96
185.830,144
185.855,168
185.880,174
185.905,179
185.930,192
185.955,207
185.980,211
186.005,205
186.030,197
186.055,199
186.080,209
186.105,217
186.130,216
186.155,210
186.180,208
186.205,214
186.230,224
186.255,230
186.280,231
186.305,234
186.330,242
186.355,249
186.380,248
186.405,237
186.430,220
186.455,202
186.480,183
186.505,164
186.530,150
186.555,147
186.580,155
186.605,163
186.630,166
186.655,168
186.680,188
186.705,242
186.730,320
186.755,399
186.780,461
186.805,511
186.830,567
186.855,640
186.880,711
186.905,755
186.930,757
186.955,726
186.980,680
187.005,633
187.030,581
187.055,514
187.080,428
187.105,324
187.130,213
187.155,110
187.180,35
187.205,2
187.230,9
187.255,38
187.280,62
187.305,66
187.330,53
187.355,28
187.380,-2
187.405,-38
187.430,-76
187.455,-107
187.480,-126
187.505,-140
187.530,-157
187.555,-179
187.580,-193
187.605,-187
187.630,-164
187.655,-141
187.680,-128
187.705,-120
187.730,-102
187.755,-71
187.780,-38
187.805,-16
187.830,0
187.855,28
187.880,82
187.905,153
187.930,219
187.955,264
187.980,289
188.005,304
188.030,319
188.055,331
188.080,335
188.105,327
188.130,313
188.155,295
188.180,278
188.205,261
188.230,248
188.255,236
188.280,228
188.305,223
188.330,226
188.355,234
188.380,242
188.405,242
188.430,233
188.455,227
188.480,240
188.505,278
188.530,327
188.555,367
188.580,388
188.605,395
188.630,396
188.655,394
188.680,382
188.705,352
188.730,313
188.755,281
188.780,269
188.805,275
188.830,286
188.855,289
188.880,279
188.905,260
188.930,237
188.955,212
188.980,187
189.005,165
189.030,148
189.055,136
189.080,125
189.105,110
189.130,91
189.155,74
189.180,67
189.205,70
189.230,75
189.255,69
189.280,52
189.305,37
189.330,47
189.355,90
189.380,155
189.405,213
189.430,244
189.455,251
189.480,252
189.505,261
189.530,278
189.555,289
189.580,287
189.605,279
189.630,275
189.655,284
189.680,300
189.705,313
189.730,316
189.755,310
189.780,300
189.805,289
189.830,278
189.855,267
189.880,256
189.905,245
189.930,235
189.955,224
189.980,207
190.005,185
190.030,157
190.055,131
190.080,109
190.105,91
190.130,67
190.155,37
190.180,9
190.205,5
190.230,36
190.255,98
190.280,164
190.305,211
190.330,232
190.355,240
190.380,248
190.405,259
190.430,265
190.455,259
190.480,248
190.505,242
190.530,249
190.555,262
190.580,273
190.605,275
190.630,270
190.655,264
190.680,259
190.705,251
190.730,239
190.755,222
190.780,204
190.805,188
190.830,174
190.855,161
190.880,147
190.905,131
190.930,114
190.955,98
190.980,87
191.005,81
191.030,75
191.055,65
191.080,48
191.105,33
191.130,33
191.155,59
191.180,108
191.205,166
191.230,216
191.255,253
191.280,276
191.305,290
191.330,296
191.355,291
191.380,274
191.405,250
191.430,228
191.455,214
191.480,213
191.505,220
191.530,229
191.555,233
191.580,230
191.605,221
191.630,204
191.655,176
191.680,135
191.705,86
191.730,41
191.755,15
191.780,13
191.805,24
191.830,30
191.855,21
191.880,1
191.905,-19
191.930,-32
191.955,-41
191.980,-48
192.005,-50
192.030,-34
192.055,8
192.080,71
192.105,138
192.130,193
192.155,233
192.180,267
192.205,303
192.230,339
192.255,367
192.280,378
192.305,376
192.330,375
192.355,386
192.380,411
192.405,439
192.430,455
192.455,456
192.480,450
192.505,454
192.530,477
192.555,516
192.580,559
192.605,597
192.630,623
192.655,639
192.680,646
192.705,647
192.730,643
192.755,634
192.780,614
192.805,573
192.830,507
192.855,430
192.880,366
192.905,339
192.930,343
192.955,349
192.980,320
193.005,244
193.030,142
193.055,44
193.080,-32
193.105,-96
193.130,-160
193.155,-221
193.180,-263
193.205,-272
193.230,-250
193.255,-216
193.280,-188
193.305,-174
193.330,-170
193.355,-173
193.380,-181
193.405,-189
193.430,-187
193.455,-167
193.480,-130
193.505,-90
193.530,-59
193.555,-39
193.580,-27
193.605,-21
193.630,-20
193.655,-21
193.680,-6
193.705,42
193.730,128
193.755,232
193.780,322
193.805,382
193.830,415
193.855,436
193.880,446
193.905,440
193.930,412
193.955,374
193.980,348
194.005,345
194.030,358
194.055,369
194.080,370
194.105,362
194.130,350
194.155,331
194.180,302
194.205,260
194.230,212
194.255,165
194.280,118
194.305,69
194.330,18
194.355,-29
194.380,-70
194.405,-106
194.430,-137
194.455,-153
194.480,-129
194.505,-45
194.530,97
194.555,267
194.580,420
194.605,524
194.630,576
194.655,591
194.680,589
194.705,580
194.730,561
194.755,533
194.780,503
194.805,482
194.830,476
194.855,474
194.880,459
194.905,425
194.930,380
194.955,338
194.980,307
195.005,282
195.030,253
195.055,218
195.080,181
195.105,143
195.130,97
195.155,39
195.180,-17
195.205,-48
195.230,-34
195.255,16
195.280,75
195.305,116
195.330,135
195.355,143
195.380,154
195.405,167
195.430,172
195.455,167
195.480,158
195.505,157
195.530,166
195.555,178
195.580,185
195.605,182
195.630,172
195.655,159
195.680,149
195.705,142
195.730,140
195.755,141
195.780,142
195.805,141
195.830,136
195.855,123
195.880,105
195.905,93
195.930,102
195.955,136
195.980,180
196.005,206
196.030,198
196.055,168
196.080,146
196.105,155
196.130,184
196.155,209
196.180,217
196.205,221
196.230,242
196.255,282
196.280,321
196.305,342
196.330,352
196.355,378
196.380,434
196.405,501
196.430,550
196.455,565
196.480,555
196.505,538
196.530,516
196.555,478
196.580,424
196.605,374
196.630,352
196.655,361
196.680,376
196.705,367
196.730,328
196.755,276
196.780,233
196.805,199
196.830,162
196.855,110
196.880,51
196.905,2
196.930,-30
196.955,-59
196.980,-94
197.005,-133
197.030,-162
197.055,-172
197.080,-176
197.105,-195
197.130,-240
197.155,-301
197.180,-352
197.205,-376
197.230,-378
197.255,-369
197.280,-349
197.305,-304
197.330,-216
197.355,-89
197.380,54
197.405,184
197.430,281
197.455,345
197.480,382
197.505,401
197.530,408
197.555,408
197.580,405
197.605,398
197.630,384
197.655,365
197.680,350
197.705,348
197.730,359
197.755,374
197.780,382
197.805,385
197.830,389
197.855,396
197.880,396
197.905,377
197.930,344
197.955,318
197.980,321
198.005,352
198.030,390
198.055,411
198.080,412
198.105,406
198.130,404
198.155,407
198.180,406
198.205,396
198.230,380
198.255,365
198.280,356
198.305,349
198.330,343
198.355,333
198.380,319
198.405,297
198.430,269
198.455,243
198.480,225
198.505,217
198.530,208
198.555,190
198.580,159
198.605,125
198.630,96
198.655,77
198.680,64
198.705,50
198.730,33
198.755,13
198.780,-8
198.805,-29
198.830,-46
198.855,-60
198.880,-74
198.905,-95
198.930,-117
198.955,-125
198.980,-97
199.005,-33
199.030,47
199.055,114
199.080,155
199.105,178
199.130,205
199.155,243
199.180,281
199.205,302
199.230,305
199.255,304
199.280,312
199.305,330
199.330,345
199.355,349
199.380,345
199.405,340
199.430,338
199.455,336
199.480,330
199.505,319
199.530,306
199.555,292
199.580,276
199.605,256
199.630,235
199.655,216
199.680,201
199.705,187
199.730,172
199.755,156
199.780,139
199.805,121
199.830,101
199.855,79
199.880,59
199.905,43
199.930,28
199.955,5
199.980,-24
200.005,-48
200.030,-46
200.055,-7
200.080,58
200.105,124
200.130,169
200.155,192
200.180,208
200.205,230
200.230,258
200.255,280
200.280,289
200.305,284
200.330,277
200.355,275
200.380,280
200.405,290
200.430,297
200.455,297
200.480,288
200.505,274
200.530,260
200.555,252
200.580,250
200.605,250
200.630,245
200.655,239
200.680,234
200.705,233
200.730,230
200.755,222
200.780,209
200.805,194
200.830,183
200.855,171
200.880,154
200.905,133
200.930,112
200.955,91
200.980,62
201.005,23
201.030,-13
201.055,-25
201.080,5
201.105,71
201.130,144
201.155,198
201.180,227
201.205,244
201.230,261
201.255,275
201.280,278
201.305,269
201.330,253
201.355,238
201.380,220
201.405,197
201.430,171
201.455,154
201.480,153
201.505,163
201.530,172
201.555,174
201.580,170
201.605,163
201.630,152
201.655,131
201.680,109
201.705,100
201.730,117
201.755,157
201.780,200
201.805,230
201.830,241
201.855,244
201.880,248
201.905,250
201.930,242
201.955,215
201.980,172
202.005,129
202.030,106
202.055,119
202.080,171
202.105,246
202.130,319
202.155,366
202.180,378
202.205,366
202.230,352
202.255,353
202.280,378
202.305,424
202.330,478
202.355,523
202.380,544
202.405,534
202.430,502
202.455,464
202.480,428
202.505,390
202.530,340
202.555,278
202.580,223
202.605,191
202.630,186
202.655,189
202.680,179
202.705,148
202.730,104
202.755,63
202.780,29
202.805,0
202.830,-38
202.855,-87
202.880,-141
202.905,-184
202.930,-199
202.955,-177
202.980,-121
203.005,-52
203.030,8
203.055,50
203.080,81
203.105,112
203.130,146
203.155,171
203.180,180
203.205,178
203.230,180
203.255,193
203.280,211
203.305,221
203.330,220
203.355,219
203.380,225
203.405,239
203.430,251
203.455,254
203.480,247
203.505,234
203.530,215
203.555,190
203.580,166
203.605,150
203.630,143
203.655,134
203.680,116
203.705,102
203.730,116
203.755,176
203.780,269
203.805,356
203.830,409
203.855,433
203.880,455
203.905,489
203.930,525
203.955,537
203.980,515
204.005,478
204.030,453
204.055,450
204.080,454
204.105,444
204.130,413
204.155,375
204.180,345
204.205,332
204.230,332
204.255,337
204.280,343
204.305,344
204.330,333
204.355,304
204.380,257
204.405,200
204.430,148
204.455,111
204.480,99
204.505,114
204.530,149
204.555,194
204.580,226
204.605,228
204.630,191
204.655,120
204.680,35
204.705,-42
204.730,-101
204.755,-142
204.780,-171
204.805,-197
204.830,-225
204.855,-258
204.880,-300
204.905,-351
204.930,-408
204.955,-462
204.980,-512
205.005,-556
205.030,-596
205.055,-615
205.080,-582
205.105,-468
205.130,-273
205.155,-36
205.180,183
205.205,345
205.230,446
205.255,512
205.280,572
205.305,632
205.330,681
205.355,707
205.380,715
205.405,716
205.430,716
205.455,711
205.480,691
205.505,654
205.530,606
205.555,560
205.580,522
205.605,492
205.630,471
205.655,457
205.680,442
205.705,417
205.730,379
205.755,337
205.780,311
205.805,318
205.830,353
205.855,390
205.880,405
205.905,394
205.930,369
205.955,350
205.980,339
206.005,328
206.030,307
206.055,278
206.080,251
206.105,232
206.130,222
206.155,215
206.180,209
206.205,203
206.230,193
206.255,175
206.280,147
206.305,113
206.330,83
206.355,56
206.380,26
206.405,-11
206.430,-47
206.455,-58
206.480,-29
206.505,31
206.530,99
206.555,150
206.580,178
206.605,196
206.630,212
206.655,227
206.680,228
206.705,212
206.730,189
206.755,173
206.780,171
206.805,177
206.830,181
206.855,177
206.880,168
206.905,158
206.930,145
206.955,130
206.980,113
207.005,98
207.030,86
207.055,68
207.080,37
207.105,-2
207.130,-31
207.155,-24
207.180,24
207.205,98
207.230,167
207.255,212
207.280,237
207.305,256
207.330,276
207.355,290
207.380,292
207.405,284
207.430,275
207.455,273
207.480,277
207.505,279
207.530,277
207.555,272
207.580,265
207.605,253
207.630,232
207.655,203
207.680,176
207.705,154
207.730,133
207.755,107
207.780,76
207.805,47
207.830,26
207.855,6
207.880,-21
207.905,-54
207.930,-71
207.955,-48
207.980,19
208.005,110
208.030,190
208.055,242
208.080,272
208.105,297
208.130,326
208.155,353
208.180,367
208.205,366
208.230,361
208.255,360
208.280,366
208.305,371
208.330,367
208.355,355
208.380,342
208.405,331
208.430,319
208.455,302
208.480,279
208.505,253
208.530,229
208.555,205
208.580,177
208.605,146
208.630,117
208.655,96
208.680,78
208.705,55
208.730,19
208.755,-18
208.780,-33
208.805,-7
208.830,55
208.855,132
208.880,196
208.905,235
208.930,255
208.955,266
208.980,274
209.005,275
209.030,268
209.055,258
209.080,254
209.105,258
209.130,267
209.155,273
209.180,274
209.205,270
209.230,266
209.255,261
209.280,254
209.305,242
209.330,226
209.355,209
209.380,192
209.405,173
209.430,148
209.455,119
209.480,91
209.505,72
209.530,59
209.555,45
209.580,20
209.605,-12
209.630,-33
209.655,-21
209.680,31
209.705,111
209.730,188
209.755,241
209.780,269
209.805,281
209.830,288
209.855,289
209.880,280
209.905,259
209.930,236
209.955,221
209.980,221
210.005,228
210.030,233
210.055,230
210.080,220
210.105,211
210.130,213
210.155,228
210.180,254
210.205,281
210.230,294
210.255,287
210.280,259
210.305,222
210.330,188
210.355,162
210.380,137
210.405,106
210.430,69
210.455,41
210.480,42
210.505,82
210.530,148
210.555,215
210.580,263
210.605,287
210.630,296
210.655,297
210.680,291
210.705,275
210.730,254
210.755,238
210.780,235
210.805,245
210.830,255
210.855,257
210.880,248
210.905,234
210.930,220
210.955,207
210.980,192
211.005,175
211.030,159
211.055,147
211.080,138
211.105,129
211.130,117
211.155,99
211.180,78
211.205,62
211.230,63
211.255,89
211.280,138
211.305,196
211.330,243
211.355,269
211.380,277
211.405,277
211.430,276
211.455,273
211.480,265
211.505,254
211.530,244
211.555,241
211.580,242
211.605,244
211.630,244
211.655,244
211.680,243
211.705,239
211.730,229
211.755,216
211.780,206
211.805,200
211.830,192
211.855,174
211.880,150
211.905,135
211.930,147
211.955,188
211.980,239
212.005,278
212.030,293
212.055,290
212.080,280
212.105,267
212.130,246
212.155,215
212.180,179
212.205,151
212.230,135
212.255,128
212.280,119
212.305,104
212.330,83
212.355,60
212.380,34
212.405,6
212.430,-14
212.455,-20
212.480,-8
212.505,8
212.530,11
212.555,-4
212.580,-20
212.605,-8
212.630,42
212.655,114
212.680,173
212.705,199
212.730,199
212.755,194
212.780,190
212.805,179
212.830,152
212.855,119
212.880,102
212.905,115
212.930,145
212.955,164
212.980,158
213.005,141
213.030,141
213.055,168
213.080,210
213.105,243
213.130,258
213.155,265
213.180,283
213.205,315
213.230,345
213.255,356
213.280,344
213.305,323
213.330,318
213.355,340
213.380,383
213.405,428
213.430,459
213.455,467
213.480,461
213.505,449
213.530,436
213.555,421
213.580,400
213.605,377
213.630,360
213.655,352
213.680,350
213.705,347
213.730,339
213.755,325
213.780,306
213.805,281
213.830,249
213.855,212
213.880,176
213.905,142
213.930,108
213.955,71
213.980,32
214.005,1
214.030,-17
214.055,-30
214.080,-48
214.105,-71
214.130,-85
214.155,-69
214.180,-19
214.205,48
214.230,106
214.255,141
214.280,160
214.305,174
214.330,190
214.355,200
214.380,198
214.405,185
214.430,175
214.455,177
214.480,190
214.505,203
214.530,207
214.555,202
214.580,194
214.605,190
214.630,192
214.655,195
214.680,195
214.705,189
214.730,177
214.755,160
214.780,141
214.805,125
214.830,117
214.855,119
214.880,122
214.905,114
214.930,89
214.955,54
214.980,29
215.005,32
215.030,66
215.055,113
215.080,151
215.105,170
215.130,179
215.155,192
215.180,214
215.205,239
215.230,257
215.255,265
215.280,267
215.305,269
215.330,271
215.355,273
215.380,277
215.405,285
215.430,296
215.455,299
215.480,286
215.505,258
215.530,227
215.555,206
215.580,195
215.605,186
215.630,172
215.655,152
215.680,137
215.705,133
215.730,136
215.755,136
215.780,125
215.805,109
215.830,105
215.855,125
215.880,174
215.905,239
215.930,301
215.955,345
215.980,368
216.005,377
216.030,383
216.055,390
216.080,393
216.105,388
216.130,374
216.155,361
216.180,355
216.205,354
216.230,349
216.255,332
216.280,306
216.305,281
216.330,266
216.355,258
216.380,248
216.405,230
216.430,206
216.455,181
216.480,153
216.505,117
216.530,74
216.555,30
216.580,-7
216.605,-39
216.630,-72
216.655,-105
216.680,-123
216.705,-108
216.730,-60
216.755,3
216.780,58
216.805,95
216.830,121
216.855,149
216.880,176
216.905,187
216.930,177
216.955,160
216.980,156
217.005,174
217.030,200
217.055,215
217.080,216
217.105,217
217.130,233
217.155,261
217.180,281
217.205,280
217.230,264
217.255,247
217.280,237
217.305,232
217.330,225
217.355,214
217.380,198
217.405,174
217.430,142
217.455,109
217.480,96
217.505,120
217.530,176
217.555,241
217.580,285
217.605,302
217.630,305
217.655,312
217.680,324
217.705,331
217.730,324
217.755,309
217.780,297
217.805,293
217.830,290
217.855,282
217.880,269
217.905,257
217.930,251
217.955,246
217.980,235
218.005,218
218.030,198
218.055,175
218.080,148
218.105,117
218.130,84
218.155,55
218.180,26
218.205,-5
218.230,-39
218.255,-62
218.280,-52
218.305,-2
218.330,73
218.355,148
218.380,202
218.405,232
218.430,246
218.455,255
218.480,259
218.505,259
218.530,252
218.555,242
218.580,233
218.605,226
218.630,222
218.655,218
218.680,214
218.705,207
218.730,202
218.755,199
218.780,198
218.805,191
218.830,172
218.855,146
218.880,121
218.905,103
218.930,87
218.955,61
218.980,26
219.005,0
219.030,7
219.055,55
219.080,128
219.105,199
219.130,250
219.155,281
219.180,299
219.205,308
219.230,307
219.255,296
219.280,284
219.305,278
219.330,280
219.355,287
219.380,292
219.405,296
219.430,300
219.455,300
219.480,291
219.505,275
219.530,261
219.555,254
219.580,251
219.605,246
219.630,232
219.655,212
219.680,189
219.705,161
219.730,130
219.755,104
219.780,98
219.805,122
219.830,168
219.855,214
219.880,241
219.905,243
219.930,229
219.955,209
219.980,184
220.005,157
220.030,132
220.055,118
220.080,120
220.105,134
220.130,152
220.155,167
220.180,180
220.205,187
220.230,189
220.255,187
220.280,185
220.305,188
220.330,195
220.355,202
220.380,205
220.405,203
220.430,198
220.455,192
220.480,187
220.505,193
220.530,218
220.555,264
220.580,315
220.605,350
220.630,357
220.655,343
220.680,324
220.705,305
220.730,281
220.755,244
220.780,198
220.805,164
220.830,161
220.855,187
220.880,220
220.905,238
220.930,235
220.955,217
220.980,193
221.005,165
221.030,128
221.055,84
221.080,41
221.105,8
221.130,-7
221.155,-12
221.180,-16
221.205,-25
221.230,-35
221.255,-31
221.280,0
221.305,60
221.330,134
221.355,197
221.380,236
221.405,251
221.430,256
221.455,263
221.480,270
221.505,271
221.530,261
221.555,246
221.580,233
221.605,228
221.630,228
221.655,228
221.680,226
221.705,220
221.730,210
221.755,198
221.780,187
221.805,184
221.830,187
221.855,188
221.880,180
221.905,164
221.930,149
221.955,144
221.980,142
222.005,136
222.030,125
222.055,122
222.080,147
222.105,201
222.130,264
222.155,310
222.180,324
222.205,318
222.230,309
222.255,307
222.280,306
222.305,298
222.330,284
222.355,272
222.380,265
222.405,259
222.430,245
222.455,224
222.480,203
222.505,190
222.530,182
222.555,172
222.580,157
222.605,142
222.630,134
222.655,135
222.680,136
222.705,132
222.730,123
222.755,116
222.780,112
222.805,106
222.830,92
222.855,78
222.880,78
222.905,106
222.930,160
222.955,219
222.980,263
223.005,283
223.030,287
223.055,287
223.080,289
223.105,290
223.130,283
223.155,267
223.180,251
223.205,241
223.230,240
223.255,242
223.280,240
223.305,232
223.330,222
223.355,211
223.380,202
223.405,192
223.430,179
223.455,166
223.480,157
223.505,151
223.530,144
223.555,133
223.580,118
223.605,107
223.630,104
223.655,107
223.680,106
223.705,98
223.730,91
223.755,102
223.780,139
223.805,196
223.830,250
223.855,284
223.880,297
223.905,298
223.930,301
223.955,305
223.980,305
224.005,295
224.030,280
224.055,268
224.080,265
224.105,267
224.130,269
224.155,269
224.180,266
224.205,258
224.230,244
224.255,225
224.280,205
224.305,189
224.330,181
224.355,174
224.380,162
224.405,143
224.430,123
224.455,109
224.480,101
224.505,88
224.530,65
224.555,36
224.580,21
224.605,36
224.630,81
224.655,134
224.680,172
224.705,185
224.730,183
224.755,181
224.780,186
224.805,192
224.830,190
224.855,179
224.880,166
224.905,161
224.930,163
224.955,168
224.980,169
225.005,169
225.030,171
225.055,175
225.080,177
225.105,174
225.130,168
225.155,163
225.180,159
225.205,152
225.230,139
225.255,121
225.280,107
225.305,100
225.330,97
225.355,91
225.380,82
225.405,82
225.430,107
225.455,161
225.480,230
225.505,291
225.530,332
225.555,359
225.580,385
225.605,415
225.630,443
225.655,463
225.680,477
225.705,492
225.730,514
225.755,537
225.780,550
225.805,550
225.830,542
225.855,535
225.880,528
225.905,514
225.930,489
225.955,457
225.980,423
226.005,385
226.030,331
226.055,255
226.080,162
226.105,65
226.130,-24
226.155,-108
226.180,-190
226.205,-266
226.230,-319
226.255,-329
226.280,-292
226.305,-217
226.330,-129
226.355,-49
226.380,5
226.405,31
226.430,36
226.455,32
226.480,33
226.505,45
226.530,68
226.555,96
226.580,126
226.605,159
226.630,193
226.655,225
226.680,250
226.705,265
226.730,273
226.755,280
226.780,288
226.805,295
226.830,297
226.855,288
226.880,263
226.905,225
226.930,183
226.955,152
226.980,143
227.005,152
227.030,161
227.055,154
227.080,131
227.105,108
227.130,109
227.155,142
227.180,198
227.205,254
227.230,294
227.255,314
227.280,324
227.305,336
227.330,356
227.355,377
227.380,391
227.405,394
227.430,388
227.455,382
227.480,381
227.505,379
227.530,370
227.555,345
227.580,302
227.605,242
227.630,172
227.655,103
227.680,50
227.705,24
227.730,22
227.755,30
227.780,31
227.805,23
227.830,16
227.855,20
227.880,30
227.905,34
227.930,32
227.955,40
227.980,81
228.005,160
228.030,252
228.055,324
228.080,358
228.105,365
228.130,364
228.155,363
228.180,357
228.205,339
228.230,313
228.255,292
228.280,281
228.305,277
228.330,271
228.355,260
228.380,246
228.405,233
228.430,219
228.455,200
228.480,173
228.505,144
228.530,117
228.555,92
228.580,67
228.605,39
228.630,14
228.655,-7
228.680,-26
228.705,-52
228.730,-90
228.755,-136
228.780,-175
228.805,-188
228.830,-166
228.855,-115
228.880,-54
228.905,-4
228.930,23
228.955,35
228.980,46
229.005,61
229.030,76
229.055,84
229.080,85
229.105,90
229.130,111
229.155,147
229.180,188
229.205,226
229.230,261
229.255,297
229.280,334
229.305,364
229.330,381
229.355,387
229.380,397
229.405,420
229.430,458
229.455,503
229.480,550
229.505,600
229.530,655
229.555,706
229.580,748
229.605,781
229.630,821
229.655,880
229.680,949
229.705,1000
229.730,1005
229.755,960
229.780,882
229.805,793
229.830,699
229.855,592
229.880,469
229.905,344
229.930,233
229.955,148
229.980,80
230.005,19
230.030,-39
230.055,-94
230.080,-143
230.105,-186
230.130,-223
230.155,-251
230.180,-265
230.205,-271
230.230,-280
230.255,-300
230.280,-320
230.305,-325
230.330,-310
230.355,-288
230.380,-279
230.405,-281
230.430,-270
230.455,-227
230.480,-153
230.505,-74
230.530,-13
230.555,26
230.580,59
230.605,94
230.630,127
230.655,148
230.680,159
230.705,170
230.730,190
230.755,216
230.780,242
230.805,261
230.830,275
230.855,283
230.880,283
230.905,276
230.930,269
230.955,277
230.980,303
231.005,336
231.030,358
231.055,360
231.080,347
231.105,323
231.130,292
231.155,260
231.180,241
231.205,249
231.230,290
231.255,343
231.280,376
231.305,371
231.330,334
231.355,285
231.380,240
231.405,201
231.430,165
231.455,131
231.480,104
231.505,87
231.530,80
231.555,78
231.580,77
231.605,74
231.630,65
231.655,53
231.680,43
231.705,43
231.730,55
231.755,69
231.780,79
231.805,86
231.830,103
231.855,133
231.880,165
231.905,186
231.930,197
231.955,215
231.980,258
232.005,319
232.030,375
232.055,406
232.080,413
232.105,410
232.130,408
232.155,405
232.180,397
232.205,390
232.230,392
232.255,401
232.280,403
232.305,383
232.330,343
232.355,300
232.380,267
232.405,244
232.430,220
232.455,192
232.480,165
232.505,146
232.530,133
232.555,118
232.580,99
232.605,75
232.630,47
232.655,16
232.680,-9
232.705,-14
232.730,18
232.755,86
232.780,168
232.805,236
232.830,282
232.855,312
232.880,340
232.905,363
232.930,373
232.955,367
232.980,353
233.005,343
233.030,336
233.055,324
233.080,300
233.105,266
233.130,229
233.155,190
233.180,148
233.205,102
233.230,63
233.255,36
233.280,19
233.305,2
233.330,-18
233.355,-39
233.380,-55
233.405,-68
233.430,-83
233.455,-96
233.480,-90
233.505,-48
233.530,28
233.555,116
233.580,185
233.605,227
233.630,252
233.655,277
233.680,305
233.705,328
233.730,337
233.755,337
233.780,342
233.805,360
233.830,389
233.855,419
233.880,444
233.905,466
233.930,490
233.955,518
233.980,542
234.005,554
234.030,549
234.055,529
234.080,499
234.105,466
234.130,427
234.155,379
234.180,321
234.205,262
234.230,214
234.255,188
234.280,181
234.305,181
234.330,178
234.355,177
234.380,191
234.405,222
234.430,256
234.455,265
234.480,233
234.505,168
234.530,100
234.555,54
234.580,34
234.605,24
234.630,14
234.655,6
234.680,8
234.705,24
234.730,42
234.755,48
234.780,40
234.805,26
234.830,11
234.855,-6
234.880,-26
234.905,-43
234.930,-49
234.955,-48
234.980,-54
235.005,-80
235.030,-112
235.055,-122
235.080,-94
235.105,-48
235.130,-21
235.155,-27
235.180,-41
235.205,-18
235.230,58
235.255,157
235.280,227
235.305,241
235.330,215
235.355,185
235.380,168
235.405,157
235.430,139
235.455,117
235.480,106
235.505,116
235.530,138
235.555,163
235.580,193
235.605,240
235.630,311
235.655,395
235.680,467
235.705,513
235.730,535
235.755,545
235.780,550
235.805,550
235.830,537
235.855,508
235.880,469
235.905,429
235.930,397
235.955,375
235.980,363
236.005,354
236.030,344
236.055,328
236.080,303
236.105,270
236.130,232
236.155,192
236.180,155
236.205,119
236.230,83
236.255,50
236.280,30
236.305,35
236.330,70
236.355,120
236.380,163
236.405,184
236.430,186
236.455,184
236.480,192
236.505,209
236.530,226
236.555,236
236.580,242
236.605,249
236.630,257
236.655,259
236.680,252
236.705,236
236.730,218
236.755,201
236.780,189
236.805,186
236.830,190
236.855,193
236.880,183
236.905,155
236.930,121
236.955,99
236.980,99
237.005,110
237.030,116
237.055,112
237.080,111
237.105,130
237.130,170
237.155,212
237.180,239
237.205,248
237.230,252
237.255,261
237.280,273
237.305,280
237.330,276
237.355,266
237.380,257
237.405,249
237.430,240
237.455,231
237.480,225
237.505,225
237.530,228
237.555,224
237.580,211
237.605,193
237.630,174
237.655,157
237.680,138
237.705,118
237.730,102
237.755,96
237.780,97
237.805,97
237.830,93
237.855,89
237.880,86
237.905,81
237.930,64
237.955,34
237.980,7
238.005,6
238.030,39
238.055,94
238.080,145
238.105,178
238.130,196
238.155,216
238.180,245
238.205,277
238.230,298
238.255,306
238.280,308
238.305,313
238.330,320
238.355,320
238.380,309
238.405,292
238.430,279
238.455,278
238.480,287
238.505,297
238.530,300
238.555,297
238.580,290
238.605,282
238.630,272
238.655,260
238.680,246
238.705,232
238.730,217
238.755,199
238.780,177
238.805,152
238.830,121
238.855,85
238.880,50
238.905,27
238.930,32
238.955,68
238.980,120
239.005,163
239.030,181
239.055,178
239.080,174
239.105,187
239.130,218
239.155,251
239.180,272
239.205,280
239.230,281
239.255,283
239.280,285
239.305,285
239.330,285
239.355,286
239.380,288
239.405,287
239.430,278
239.455,264
239.480,253
239.505,248
239.530,247
239.555,243
239.580,234
239.605,222
239.630,207
239.655,186
239.680,158
239.705,127
239.730,104
239.755,91
239.780,80
239.805,61
239.830,38
239.855,30
239.880,51
239.905,98
239.930,147
239.955,177
239.980,189
240.005,203
240.030,234
240.055,276
240.080,308
240.105,318
240.130,313
240.155,310
240.180,316
240.205,327
240.230,332
240.255,328
240.280,318
240.305,307
240.330,297
240.355,284
240.380,266
240.405,247
240.430,229
240.455,212
240.480,193
240.505,172
240.530,154
240.555,137
240.580,119
240.605,97
240.630,71
240.655,44
240.680,22
240.705,6
240.730,-12
240.755,-39
240.780,-68
240.805,-81
240.830,-59
240.855,-2
240.880,70
240.905,131
240.930,165
240.955,182
240.980,200
241.005,231
241.030,269
241.055,297
241.080,308
241.105,309
241.130,311
241.155,321
241.180,336
241.205,349
241.230,356
241.255,357
241.280,352
241.305,340
241.330,325
241.355,310
241.380,301
241.405,293
241.430,285
241.455,278
241.480,274
241.505,263
241.530,221
241.555,129
241.580,0
241.605,-121
241.630,-184
241.655,-173
241.680,-115
241.705,-57
241.730,-21
241.755,3
241.780,40
241.805,95
241.830,150
241.855,188
241.880,207
241.905,224
241.930,251
241.955,288
241.980,323
242.005,348
242.030,360
242.055,366
242.080,369
242.105,373
242.130,377
242.155,382
242.180,386
242.205,386
242.230,383
242.255,379
242.280,376
242.305,370
242.330,359
242.355,339
242.380,315
242.405,292
242.430,277
242.455,269
242.480,267
242.505,263
242.530,252
242.555,229
242.580,193
242.605,138
242.630,57
242.655,-48
242.680,-156
242.705,-213
242.730,-175
242.755,-40
242.780,133
242.805,266
242.830,317
242.855,309
242.880,290
242.905,284
242.930,260
242.955,182
242.980,63
243.005,-34
243.030,-42
243.055,43
243.080,168
243.105,261
243.130,291
243.155,281
243.180,264
243.205,255
243.230,247
243.255,229
243.280,205
243.305,184
243.330,170
243.355,157
243.380,143
243.405,131
243.430,124
243.455,120
243.480,110
243.505,88
243.530,57
243.555,28
243.580,18
243.605,39
243.630,90
243.655,159
243.680,222
243.705,266
243.730,290
243.755,307
243.780,328
243.805,350
243.830,358
243.855,347
243.880,325
243.905,307
243.930,303
243.955,309
243.980,313
244.005,309
244.030,298
244.055,285
244.080,270
244.105,253
244.130,234
244.155,212
244.180,190
244.205,166
244.230,143
244.255,124
244.280,109
244.305,92
244.330,69
244.355,41
244.380,21
244.405,14
244.430,13
244.455,7
244.480,-7
244.505,-15
244.530,6
244.555,65
244.580,141
244.605,205
244.630,241
244.655,258
244.680,272
244.705,292
244.730,308
244.755,311
244.780,301
244.805,291
244.830,290
244.855,296
244.880,302
244.905,302
244.930,302
244.955,303
244.980,305
245.005,301
245.030,288
245.055,270
245.080,253
245.105,239
245.130,223
245.155,202
245.180,180
245.205,160
245.230,145
245.255,130
245.280,111
245.305,88
245.330,65
245.355,44
245.380,24
245.405,6
245.430,2
245.455,24
245.480,75
245.505,141
245.530,195
245.555,224
245.580,233
245.605,239
245.630,254
245.655,272
245.680,283
245.705,283
245.730,278
245.755,279
245.780,288
245.805,298
245.830,302
245.855,299
245.880,293
245.905,287
245.930,281
245.955,274
245.980,265
246.005,255
246.030,244
246.055,228
246.080,209
246.105,188
246.130,165
246.155,139
246.180,103
246.205,62
246.230,26
246.255,7
246.280,7
246.305,10
246.330,5
246.355,-5
246.380,-2
246.405,29
246.430,89
246.455,156
246.480,207
246.505,234
246.530,250
246.555,269
246.580,294
246.605,318
246.630,333
246.655,341
246.680,346
246.705,352
246.730,356
246.755,356
246.780,351
246.805,345
246.830,341
246.855,337
246.880,330
246.905,319
246.930,305
246.955,289
246.980,270
247.005,249
247.030,228
247.055,211
247.080,195
247.105,175
247.130,147
247.155,110
247.180,69
247.205,32
247.230,11
247.255,14
247.280,40
247.305,82
247.330,126
247.355,160
247.380,180
247.405,193
247.430,201
247.455,204
247.480,198
247.505,187
247.530,179
247.555,182
247.580,197
247.605,213
247.630,220
247.655,218
247.680,214
247.705,214
247.730,219
247.755,223
247.780,222
247.805,214
247.830,203
247.855,189
247.880,177
247.905,165
247.930,153
247.955,134
247.980,107
248.005,77
248.030,58
248.055,59
248.080,82
248.105,119
248.130,159
248.155,198
248.180,236
248.205,267
248.230,288
248.255,295
248.280,294
248.305,294
248.330,302
248.355,314
248.380,323
248.405,327
248.430,322
248.455,307
248.480,281
248.505,250
248.530,223
248.555,208
248.580,199
248.605,185
248.630,160
248.655,130
248.680,107
248.705,95
248.730,86
248.755,73
248.780,56
248.805,45
248.830,43
248.855,48
248.880,59
248.905,83
248.930,127
248.955,186
248.980,239
249.005,266
249.030,266
249.055,260
249.080,267
249.105,285
249.130,296
249.155,291
249.180,281
249.205,283
249.230,298
249.255,315
249.280,319
249.305,309
249.330,293
249.355,277
249.380,259
249.405,234
249.430,211
249.455,199
249.480,201
249.505,206
249.530,200
249.555,180
249.580,154
249.605,129
249.630,103
249.655,71
249.680,41
249.705,30
249.730,53
249.755,104
249.780,162
249.805,205
249.830,231
249.855,251
249.880,278
249.905,308
249.930,328
249.955,328
249.980,310
250.005,289
250.030,277
250.055,279
250.080,287
250.105,292
250.130,289
250.155,278
250.180,262
250.205,242
250.230,221
250.255,200
250.280,180
250.305,160
250.330,135
250.355,106
250.380,78
250.405,57
250.430,44
250.455,30
250.480,7
250.505,-18
250.530,-30
250.555,-7
250.580,51
250.605,125
250.630,188
250.655,228
250.680,257
250.705,290
250.730,328
250.755,359
250.780,369
250.805,358
250.830,344
250.855,339
250.880,345
250.905,350
250.930,342
250.955,321
250.980,294
251.005,265
251.030,233
251.055,202
251.080,178
251.105,166
251.130,163
251.155,159
251.180,144
251.205,118
251.230,88
251.255,61
251.280,38
251.305,13
251.330,-9
251.355,-16
251.380,6
251.405,63
251.430,136
251.455,200
251.480,238
251.505,253
251.530,259
251.555,268
251.580,277
251.605,283
251.630,282
251.655,280
251.680,284
251.705,293
251.730,303
251.755,306
251.780,302
251.805,293
251.830,281
251.855,263
251.880,239
251.905,209
251.930,176
251.955,144
251.980,117
252.005,98
252.030,86
252.055,75
252.080,56
252.105,26
252.130,-2
252.155,-7
252.180,24
252.205,88
252.230,161
252.255,222
252.280,264
252.305,295
252.330,324
252.355,347
252.380,355
252.405,342
252.430,319
252.455,303
252.480,304
252.505,318
252.530,330
252.555,330
252.580,318
252.605,300
252.630,284
252.655,268
252.680,249
252.705,225
252.730,200
252.755,179
252.780,162
252.805,144
252.830,119
252.855,90
252.880,64
252.905,47
252.930,30
252.955,5
252.980,-27
253.005,-47
253.030,-29
253.055,33
253.080,120
253.105,194
253.130,233
253.155,247
253.180,259
253.205,284
253.230,315
253.255,333
253.280,328
253.305,312
253.330,299
253.355,298
253.380,304
253.405,306
253.430,299
253.455,286
253.480,271
253.505,257
253.530,246
253.555,233
253.580,217
253.605,197
253.630,175
253.655,155
253.680,140
253.705,127
253.730,113
253.755,96
253.780,78
253.805,58
253.830,32
253.855,1
253.880,-19
253.905,-10
253.930,37
253.955,108
253.980,172
254.005,209
254.030,223
254.055,235
254.080,255
254.105,274
254.130,278
254.155,262
254.180,242
254.205,230
254.230,227
254.255,224
254.280,215
254.305,204
254.330,194
254.355,175
254.380,137
254.405,80
254.430,23
254.455,-12
254.480,-23
254.505,-22
254.530,-24
254.555,-34
254.580,-50
254.605,-69
254.630,-90
254.655,-112
254.680,-134
254.705,-155
254.730,-181
254.755,-212
254.780,-236
254.805,-229
254.830,-173
254.855,-76
254.880,32
254.905,129
254.930,213
254.955,302
254.980,406
255.005,518
255.030,621
255.055,709
255.080,793
255.105,879
255.130,966
255.155,1042
255.180,1103
255.205,1153
255.230,1196
255.255,1225
255.280,1234
255.305,1222
255.330,1202
255.355,1181
255.380,1148
255.405,1081
255.430,966
255.455,810
255.480,633
255.505,457
255.530,291
255.555,134
255.580,-9
255.605,-141
255.630,-268
255.655,-397
255.680,-526
255.705,-634
255.730,-696
255.755,-704
255.780,-676
255.805,-640
255.830,-613
255.855,-590
255.880,-560
255.905,-522
255.930,-485
255.955,-458
255.980,-436
256.005,-403
256.030,-350
256.055,-285
256.080,-220
256.105,-167
256.130,-122
256.155,-80
256.180,-34
256.205,15
256.230,63
256.255,103
256.280,133
256.305,155
256.330,183
256.355,227
256.380,288
256.405,350
256.430,397
256.455,421
256.480,429
256.505,431
256.530,431
256.555,422
256.580,410
256.605,409
256.630,439
256.655,501
256.680,572
256.705,624
256.730,646
256.755,648
256.780,646
256.805,642
256.830,622
256.855,578
256.880,519
256.905,465
256.930,427
256.955,405
256.980,389
257.005,370
257.030,353
257.055,339
257.080,325
257.105,307
257.130,283
257.155,256
257.180,228
257.205,198
257.230,162
257.255,121
257.280,77
257.305,35
257.330,-5
257.355,-47
257.380,-91
257.405,-135
257.430,-179
257.455,-221
257.480,-255
257.505,-266
257.530,-244
257.555,-188
257.580,-117
257.605,-55
257.630,-19
257.655,-1
257.680,17
257.705,49
257.730,89
257.755,119
257.780,128
257.805,119
257.830,115
257.855,134
257.880,180
257.905,240
257.930,296
257.955,339
257.980,371
258.005,403
258.030,439
258.055,472
258.080,494
258.105,499
258.130,490
258.155,472
258.180,448
258.205,420
258.230,391
258.255,367
258.280,350
258.305,332
258.330,305
258.355,267
258.380,232
258.405,219
258.430,242
258.455,293
258.480,347
258.505,384
258.530,397
258.555,394
258.580,386
258.605,379
258.630,368
258.655,348
258.680,323
258.705,301
258.730,291
258.755,293
258.780,298
258.805,291
258.830,265
258.855,224
258.880,180
258.905,146
258.930,121
258.955,98
258.980,64
259.005,17
259.030,-33
259.055,-76
259.080,-107
259.105,-124
259.130,-127
259.155,-111
259.180,-69
259.205,-7
259.230,57
259.255,106
259.280,133
259.305,151
259.330,174
259.355,205
259.380,229
259.405,237
259.430,229
259.455,222
259.480,229
259.505,247
259.530,264
259.555,268
259.580,258
259.605,243
259.630,230
259.655,223
259.680,219
259.705,214
259.730,202
259.755,182
259.780,156
259.805,131
259.830,114
259.855,103
259.880,87
259.905,66
259.930,53
259.955,67
259.980,116
260.005,185
260.030,244
260.055,275
260.080,285
260.105,296
260.130,315
260.155,335
260.180,341
260.205,331
260.230,319
260.255,317
260.280,323
260.305,326
260.330,317
260.355,302
260.380,287
260.405,276
260.430,262
260.455,244
260.480,224
260.505,206
260.530,190
260.555,171
260.580,146
260.605,119
260.630,91
260.655,61
260.680,31
260.705,6
260.730,3
260.755,33
260.780,88
260.805,148
260.830,190
260.855,211
260.880,222
260.905,236
260.930,254
260.955,269
260.980,271
261.005,264
261.030,258
261.055,264
261.080,280
261.105,295
261.130,299
261.155,290
261.180,276
261.205,264
261.230,259
261.255,256
261.280,249
261.305,236
261.330,220
261.355,205
261.380,189
261.405,169
261.430,145
261.455,121
261.480,102
261.505,83
261.530,57
261.555,22
261.580,-4
261.605,-1
261.630,41
261.655,110
261.680,178
261.705,224
261.730,248
261.755,266
261.780,289
261.805,314
261.830,328
261.855,328
261.880,320
261.905,316
261.930,322
261.955,335
261.980,345
262.005,346
262.030,341
262.055,332
262.080,323
262.105,315
262.130,307
262.155,296
262.180,278
262.205,255
262.230,232
262.255,213
262.280,196
262.305,176
262.330,149
262.355,118
262.380,88
262.405,63
262.430,37
262.455,6
262.480,-25
262.505,-43
262.530,-32
262.555,8
262.580,65
262.605,120
262.630,157
262.655,178
262.680,189
262.705,199
262.730,211
262.755,224
262.780,239
262.805,254
262.830,269
262.855,280
262.880,288
262.905,288
262.930,282
262.955,269
262.980,252
263.005,234
263.030,214
263.055,195
263.080,176
263.105,157
263.130,141
263.155,126
263.180,113
263.205,102
263.230,93
263.255,84
263.280,71
263.305,49
263.330,25
263.355,14
263.380,29
263.405,73
263.430,130
263.455,180
263.480,213
263.505,232
263.530,250
263.555,269
263.580,285
263.605,294
263.630,299
263.655,309
263.680,332
263.705,364
263.730,391
263.755,405
263.780,407
263.805,403
263.830,397
263.855,389
263.880,377
263.905,360
263.930,337
263.955,311
263.980,280
264.005,246
264.030,210
264.055,175
264.080,141
264.105,102
264.130,58
264.155,16
264.180,-9
264.205,-5
264.230,31
264.255,86
264.280,137
264.305,168
264.330,181
264.355,191
264.380,207
264.405,229
264.430,245
264.455,248
264.480,238
264.505,226
264.530,219
264.555,219
264.580,221
264.605,223
264.630,223
264.655,220
264.680,214
264.705,209
264.730,208
264.755,212
264.780,217
264.805,215
264.830,201
264.855,179
264.880,160
264.905,145
264.930,128
264.955,100
264.980,66
265.005,44
265.030,50
265.055,87
265.080,136
265.105,174
265.130,193
265.155,200
265.180,211
265.205,229
265.230,244
265.255,244
265.280,229
265.305,209
265.330,194
265.355,189
265.380,191
265.405,197
265.430,208
265.455,226
265.480,249
265.505,267
265.530,274
265.555,270
265.580,260
265.605,247
265.630,231
265.655,211
265.680,191
265.705,173
265.730,158
265.755,139
265.780,111
265.805,85
265.830,79
265.855,106
265.880,157
265.905,212
265.930,247
265.955,261
265.980,264
266.005,265
266.030,267
266.055,264
266.080,257
266.105,252
266.130,256
266.155,264
266.180,266
266.205,258
266.230,243
266.255,228
266.280,213
266.305,193
