df_hash,22ZHK4.88EAKA
device,HZ2X61
project_hash,29R7
project_name,istanbul_aydin_university
person_hash,29R7.DTCA
person_label,V13
date_time_start,2025-05-22_10-55-11.049000_+03
date_time_start_unix,1747900511.049
date_time_end,2025-05-22_11-00-22.404000_+03
length_difference_noticed,no

time,ppg_ir,ppg_ambient,ppg_red
5.304,157315,202,204914
5.309,157311,185,204910
5.314,157304,198,204879
5.319,157300,190,204849
5.324,157288,201,204835
5.329,157267,186,204855
5.333,157276,198,204821
5.338,157268,195,204832
5.343,157269,201,204819
5.348,157270,186,204823
5.353,157275,198,204794
5.358,157248,191,204785
5.363,157246,200,204710
5.368,157235,186,204686
5.373,157224,197,204654
5.378,157197,191,204608
5.383,157208,200,204578
5.388,157182,191,204531
5.393,157181,199,204478
5.398,157168,187,204409
5.403,157161,196,204377
5.408,157145,185,204347
5.413,157143,201,204306
5.418,157127,190,204252
5.423,157120,197,204207
5.428,157099,187,204114
5.433,157092,201,204056
5.438,157081,187,203957
5.443,157063,200,203846
5.448,157045,191,203728
5.453,157050,196,203616
5.457,157032,188,203543
5.462,157036,200,203434
5.467,157023,193,203354
5.472,157029,197,203282
5.477,157040,190,203209
5.482,157033,194,203157
5.487,157033,190,203110
5.492,157036,193,203035
5.497,157042,196,202975
5.502,157034,198,202915
5.507,157042,192,202861
5.512,157038,194,202838
5.517,157057,197,202816
5.522,157067,196,202793
5.527,157083,193,202746
5.532,157110,192,202700
5.537,157085,196,202686
5.542,157106,195,202687
5.547,157124,193,202671
5.552,157133,192,202670
5.557,157138,197,202637
5.562,157151,194,202654
5.567,157181,193,202634
5.572,157187,198,202637
5.577,157192,197,202650
5.581,157208,193,202680
5.586,157223,194,202674
5.591,157231,197,202696
5.596,157259,198,202711
5.601,157268,193,202706
5.606,157280,196,202701
5.611,157291,190,202726
5.616,157280,200,202735
5.621,157297,193,202770
5.626,157312,201,202796
5.631,157315,192,202803
5.636,157323,197,202814
5.641,157334,189,202821
5.646,157315,202,202838
5.651,157321,193,202852
5.656,157314,198,202840
5.661,157315,189,202822
5.666,157305,196,202825
5.671,157315,193,202820
5.676,157294,199,202804
5.681,157287,193,202804
5.686,157279,201,202790
5.691,157298,189,202790
5.696,157299,198,202792
5.701,157298,193,202794
5.705,157308,202,202797
5.710,157298,189,202796
5.715,157293,198,202817
5.720,157304,193,202826
5.725,157296,203,202842
5.730,157298,192,202867
5.735,157317,202,202869
5.740,157299,188,202900
5.745,157304,200,202933
5.750,157308,186,202973
5.755,157317,205,203018
5.760,157314,190,203079
5.765,157345,203,203155
5.770,157356,188,203213
5.775,157355,200,203271
5.780,157371,187,203347
5.785,157400,201,203421
5.790,157396,184,203473
5.795,157427,205,203544
5.800,157428,187,203617
5.805,157444,201,203648
5.810,157470,184,203709
5.815,157464,205,203756
5.820,157490,187,203800
5.824,157488,201,203835
5.829,157486,183,203883
5.834,157498,204,203925
5.839,157506,185,203961
5.844,157516,200,203988
5.849,157518,189,204026
5.854,157538,202,204067
5.859,157556,183,204129
5.864,157561,206,204144
5.869,157578,187,204217
5.874,157585,202,204254
5.879,157598,186,204273
5.884,157592,202,204337
5.889,157616,183,204374
5.894,157626,206,204405
5.899,157629,187,204429
5.904,157637,202,204460
5.909,157650,190,204487
5.914,157649,205,204482
5.919,157650,187,204504
5.924,157735,204,204510
5.929,157666,188,204520
5.934,157667,203,204571
5.939,157675,185,204579
5.944,157685,201,204590
5.948,157691,189,204630
5.953,157677,204,204685
5.958,157685,184,204703
5.963,157695,206,204727
5.968,157686,188,204745
5.973,157686,206,204747
5.978,157710,188,204773
5.983,157711,202,204783
5.988,157709,183,204790
5.993,157726,204,204802
5.998,157723,187,204816
6.003,157746,201,204845
6.008,157749,184,204856
6.013,157765,203,204862
6.018,157765,187,204845
6.023,157768,204,204846
6.028,157778,187,204862
6.033,157788,199,204885
6.038,157820,192,204910
6.043,157816,202,204943
6.048,157832,187,204964
6.053,157818,198,205010
6.058,157842,191,205033
6.063,157844,202,205059
6.068,157844,188,205051
6.072,157868,202,205053
6.077,157858,189,205060
6.082,157856,198,205064
6.087,157867,193,205059
6.092,157885,201,205057
6.097,157872,189,205052
6.102,157855,197,205034
6.107,157857,193,205041
6.112,157851,201,205058
6.117,157839,190,205063
6.122,157818,201,205081
6.127,157799,191,205086
6.132,157788,197,205091
6.137,157775,188,205077
6.142,157770,195,205085
6.147,157742,194,205042
6.152,157741,198,205049
6.157,157715,191,205040
6.162,157698,195,205003
6.167,157685,197,205008
6.172,157679,198,204960
6.177,157671,191,204948
6.182,157669,195,204916
6.187,157649,196,204910
6.192,157634,198,204921
6.196,157635,193,204907
6.201,157631,194,204901
6.206,157610,190,204913
6.211,157620,198,204932
6.216,157612,190,204941
6.221,157597,192,204955
6.226,157598,196,204955
6.231,157601,195,204988
6.236,157589,192,204978
6.241,157595,191,204975
6.246,157576,197,204947
6.251,157566,195,204923
6.256,157560,194,204913
6.261,157556,191,204867
6.266,157538,195,204880
6.271,157537,192,204861
6.276,157516,199,204867
6.281,157514,195,204847
6.286,157516,195,204842
6.291,157492,190,204844
6.296,157477,199,204823
6.301,157477,192,204802
6.306,157466,195,204784
6.311,157459,189,204787
6.316,157457,196,204774
6.320,157446,189,204745
6.325,157426,201,204763
6.330,157446,193,204762
6.335,157431,197,204769
6.340,157434,188,204765
6.345,157428,200,204791
6.350,157432,190,204800
6.355,157421,196,204832
6.360,157440,184,204843
6.365,157430,196,204851
6.370,157421,186,204848
6.375,157407,202,204862
6.380,157414,190,204841
6.385,157412,198,204851
6.390,157410,187,204832
6.395,157419,196,204815
6.400,157412,190,204811
6.405,157412,199,204811
6.410,157408,186,204808
6.415,157422,199,204806
6.420,157442,185,204818
6.425,157433,203,204817
6.430,157417,189,204849
6.435,157424,200,204851
6.440,157424,186,204852
6.444,157423,197,204854
6.449,157418,190,204871
6.454,157433,201,204920
6.459,157420,186,204918
6.464,157402,199,204921
6.469,157399,184,204922
6.474,157401,204,204964
6.479,157386,188,204950
6.484,157384,200,204977
6.489,157381,184,204998
6.494,157368,204,205014
6.499,157362,185,205046
6.504,157336,199,205038
6.509,157334,185,205064
6.514,157328,200,205101
6.519,157312,189,205116
6.524,157304,203,205159
6.529,157329,184,205204
6.534,157310,199,205246
6.539,157312,189,205292
6.544,157301,204,205350
6.549,157320,187,205420
6.554,157315,202,205480
6.559,157329,187,205533
6.564,157352,201,205623
6.568,157355,183,205700
6.573,157387,205,205811
6.578,157396,187,205928
6.583,157413,201,205989
6.588,157428,182,206078
6.593,157429,204,206182
6.598,157445,185,206262
6.603,157464,200,206338
6.608,157458,185,206393
6.613,157465,200,206489
6.618,157462,188,206558
6.623,157477,203,206643
6.628,157476,185,206720
6.633,157481,200,206788
6.638,157494,189,206864
6.643,157485,203,206922
6.648,157504,184,206961
6.653,157495,206,206978
6.658,157502,184,207007
6.663,157492,205,207041
6.668,157500,187,207081
6.673,157485,201,207137
6.678,157494,191,207145
6.683,157496,203,207187
6.688,157496,186,207208
6.692,157486,199,207227
6.697,157471,189,207247
6.702,157484,201,207284
6.707,157492,188,207310
6.712,157495,200,207341
6.717,157499,184,207369
6.722,157506,204,207364
6.727,157494,188,207410
6.732,157492,200,207417
6.737,157496,185,207437
6.742,157507,203,207463
6.747,157516,189,207482
6.752,157508,217,207508
6.757,157510,190,207528
6.762,157512,199,207546
6.767,157527,186,207591
6.772,157531,202,207609
6.777,157545,190,207632
6.782,157559,198,207656
6.787,157565,186,207696
6.792,157579,201,207731
6.797,157578,189,207781
6.802,157592,201,207844
6.807,157607,190,207887
6.811,157616,197,207943
6.816,157632,194,207980
6.821,157630,200,208023
6.826,157642,189,208068
6.831,157646,201,208095
6.836,157659,192,208126
6.841,157664,196,208172
6.846,157668,188,208206
6.851,157687,196,208228
6.856,157676,195,208247
6.861,157672,197,208276
6.866,157692,190,208259
6.871,157686,200,208273
6.876,157670,193,208268
6.881,157669,194,208281
6.886,157669,197,208292
6.891,157673,196,208292
6.896,157678,191,208300
6.901,157713,198,208286
6.906,157668,195,208294
6.911,157667,194,208295
6.916,157674,191,208311
6.921,157672,198,208290
6.926,157655,195,208294
6.931,157662,192,208273
6.935,157654,199,208271
6.940,157643,194,208267
6.945,157658,193,208265
6.950,157650,193,208258
6.955,157645,193,208260
6.960,157651,197,208294
6.965,157655,197,208315
6.970,157643,191,208337
6.975,157637,200,208342
6.980,157660,193,208355
6.985,157659,196,208399
6.990,157667,189,208392
6.995,157674,199,208414
7.000,157675,187,208416
7.005,157669,199,208399
7.010,157660,190,208395
7.015,157665,195,208402
7.020,157672,192,208388
7.025,157666,197,208375
7.030,157658,187,208384
7.035,157650,200,208375
7.040,157668,188,208376
7.045,157658,200,208374
7.050,157656,191,208371
7.055,157648,197,208380
7.059,157645,186,208374
7.064,157626,195,208356
7.069,157605,189,208356
7.074,157609,197,208345
7.079,157586,184,208330
7.084,157572,200,208328
7.089,157547,186,208296
7.094,157536,199,208268
7.099,157520,185,208288
7.104,157509,195,208274
7.109,157499,188,208271
7.114,157490,198,208252
7.119,157479,183,208238
7.124,157475,200,208247
7.129,157484,184,208254
7.134,157452,201,208247
7.139,157437,185,208272
7.144,157432,199,208279
7.149,157413,183,208286
7.154,157416,202,208266
7.159,157400,186,208279
7.164,157417,197,208289
7.169,157396,189,208276
7.174,157383,199,208273
7.179,157375,183,208248
7.183,157361,202,208239
7.188,157344,185,208226
7.193,157329,200,208198
7.198,157325,183,208205
7.203,157314,202,208205
7.208,157311,184,208187
7.213,157309,195,208194
7.218,157301,185,208205
7.223,157278,197,208188
7.228,157278,187,208180
7.233,157274,199,208182
7.238,157270,182,208163
7.243,157242,197,208137
7.248,157250,180,208114
7.253,157227,199,208111
7.258,157220,182,208130
7.263,157221,201,208144
7.268,157210,184,208141
7.273,157213,196,208144
7.278,157192,187,208112
7.283,157183,197,208078
7.288,157163,180,208043
7.293,157173,200,208046
7.298,157142,183,208047
7.303,157146,195,208009
7.307,157142,186,207963
7.312,157129,197,207973
7.317,157140,181,207974
7.322,157108,199,207991
7.327,157108,184,207996
7.332,157112,194,207983
7.337,157095,173,208002
7.342,157088,194,208012
7.347,157107,187,208012
7.352,157075,196,207991
7.357,157075,181,208010
7.362,157081,198,207985
7.367,157081,184,207997
7.372,157077,193,207978
7.377,157070,187,207998
7.382,157078,195,207980
7.387,157062,186,207974
7.392,157067,193,207985
7.397,157067,180,207981
7.402,157065,195,207969
7.407,157069,183,207967
7.412,157051,190,207986
7.417,157051,186,208020
7.422,157052,191,207998
7.427,157033,189,208006
7.431,157053,193,208003
7.436,157045,187,207984
7.441,157038,192,207989
7.446,157031,181,208020
7.451,157059,193,208029
7.456,157065,183,208043
7.461,157051,188,208035
7.466,157061,187,208053
7.471,157036,191,208034
7.476,157056,183,208048
7.481,157046,193,208062
7.486,157061,182,208066
7.491,157055,192,208058
7.496,157064,185,208059
7.501,157070,187,208048
7.506,157055,188,208054
7.511,157065,189,208049
7.516,157050,183,208036
7.521,157035,170,208037
7.526,157033,186,208021
7.531,157034,188,207999
7.536,157011,186,207985
7.541,157019,194,207982
7.546,156998,189,207986
7.551,156970,188,208000
7.555,156959,193,208011
7.560,156959,192,208010
7.565,156938,190,207996
7.570,156919,187,207980
7.575,156902,193,207973
7.580,156896,191,207965
7.585,156879,189,207940
7.590,156871,193,207909
7.595,156867,193,207891
7.600,156851,189,207850
7.605,156820,190,207800
7.610,156803,194,207748
7.615,156800,195,207712
7.620,156783,190,207681
7.625,156762,191,207611
7.630,156742,188,207591
7.635,156732,196,207580
7.640,156704,190,207572
7.645,156695,193,207589
7.650,156689,186,207599
7.655,156659,190,207613
7.660,156647,190,207592
7.665,156649,193,207570
7.670,156615,184,207559
7.674,156608,188,207534
7.679,156600,184,207527
7.684,156616,187,207506
7.689,156594,187,207487
7.694,156574,191,207491
7.699,156573,181,207467
7.704,156553,185,207494
7.709,156571,185,207484
7.714,156557,189,207469
7.719,156538,181,207467
7.724,156558,185,207479
7.729,156551,181,207490
7.734,156544,185,207511
7.739,156532,177,207535
7.744,156541,181,207543
7.749,156544,180,207562
7.754,156550,183,207563
7.759,156532,175,207568
7.764,156523,185,207588
7.769,156518,177,207578
7.774,156523,179,207566
7.779,156515,175,207591
7.784,156522,178,207590
7.789,156511,179,207617
7.794,156507,182,207626
7.798,156503,174,207649
7.803,156479,177,207668
7.808,156492,177,207675
7.813,156482,180,207682
7.818,156497,173,207721
7.823,156494,183,207730
7.828,156498,172,207765
7.833,156490,183,207756
7.838,156481,175,207743
7.843,156474,178,207743
7.848,156471,178,207717
7.853,156471,182,207705
7.858,156457,174,207702
7.863,156448,185,207675
7.868,156434,176,207677
7.873,156447,181,207617
7.878,156428,176,207668
7.883,156430,180,207649
7.888,156434,172,207671
7.893,156430,183,207671
7.898,156434,175,207673
7.903,156429,178,207672
7.908,156419,178,207656
7.913,156420,180,207670
7.918,156407,173,207667
7.922,156418,176,207654
7.927,156408,172,207633
7.932,156419,183,207621
7.937,156404,176,207599
7.942,156394,177,207552
7.947,156386,172,207551
7.952,156379,181,207554
7.957,156384,175,207549
7.962,156384,176,207537
7.967,156376,171,207544
7.972,156376,168,207550
7.977,156361,174,207510
7.982,156360,175,207490
7.987,156343,170,207455
7.992,156342,178,207436
7.997,156325,173,207414
8.002,156333,173,207399
8.007,156300,176,207404
8.012,156316,176,207375
8.017,156298,171,207365
8.022,156282,175,207337
8.027,156278,170,207355
8.032,156250,177,207314
8.037,156244,172,207298
8.042,156223,172,207253
8.046,156215,175,207248
8.051,156200,175,207234
8.056,156186,170,207205
8.061,156153,177,207194
8.066,156147,172,207168
8.071,156135,176,207140
8.076,156123,172,207146
8.081,156121,171,207140
8.086,156133,174,207138
8.091,156110,174,207103
8.096,156093,170,207102
8.101,156090,176,207118
8.106,156069,173,207069
8.111,156073,173,207045
8.116,156062,176,207027
8.121,156040,172,207028
8.126,156038,176,207003
8.131,156018,175,206984
8.136,156011,172,206968
8.141,155995,171,206965
8.146,155975,176,206950
8.151,155977,175,206971
8.156,155962,172,206973
8.161,155972,171,206970
8.166,155958,176,207043
8.170,155969,171,206982
8.175,155953,175,206989
8.180,155955,174,206994
8.185,155958,172,206991
8.190,155953,171,206966
8.195,155950,175,206972
8.200,155961,174,206975
8.205,155951,172,206955
8.210,155955,171,206978
8.215,156009,171,206978
8.220,155967,177,206990
8.225,155964,174,207019
8.230,155975,173,207047
8.235,155972,171,207077
8.240,155994,177,207102
8.245,156011,175,207143
8.250,156018,173,207166
8.255,156023,171,207195
8.260,156031,176,207237
8.265,156061,172,207258
8.270,156052,173,207244
8.275,156059,172,207268
8.280,156056,177,207262
8.285,156055,175,207251
8.290,156063,172,207266
8.294,156057,171,207265
8.299,156059,174,207240
8.304,156032,172,207235
8.309,156040,177,207221
8.314,156048,171,207236
8.319,156052,177,207240
8.324,156050,175,207255
8.329,156055,172,207250
8.334,156049,171,207240
8.339,156060,175,207255
8.344,156065,173,207254
8.349,156052,171,207270
8.354,156074,177,207283
8.359,156070,174,207292
8.364,156076,177,207306
8.369,156085,174,207296
8.374,156095,173,207307
8.379,156100,170,207318
8.384,156094,177,207308
8.389,156100,173,207323
8.394,156110,173,207312
8.399,156106,170,207329
8.404,156125,177,207327
8.409,156126,173,207324
8.414,156125,177,207327
8.418,156144,173,207342
8.423,156129,173,207343
8.428,156147,170,207362
8.433,156150,177,207385
8.438,156162,173,207408
8.443,156187,174,207420
8.448,156182,171,207426
8.453,156192,171,207450
8.458,156190,178,207380
8.463,156178,172,207436
8.468,156202,175,207423
8.473,156198,175,207413
8.478,156195,172,207420
8.483,156198,172,207421
8.488,156190,175,207406
8.493,156172,176,207394
8.498,156168,172,207424
8.503,156147,173,207400
8.508,156163,172,207376
8.513,156129,177,207366
8.518,156131,172,207350
8.523,156106,173,207346
8.528,156102,170,207332
8.533,156093,177,207333
8.538,156078,173,207325
8.542,156076,173,207319
8.547,156066,175,207335
8.552,156069,176,207335
8.557,156060,176,207331
8.562,156072,176,207322
8.567,156059,171,207325
8.572,156056,172,207316
8.577,156051,175,207323
8.582,156026,175,207301
8.587,156015,171,207307
8.592,156017,172,207260
8.597,155999,174,207235
8.602,155993,174,207207
8.607,155970,173,207167
8.612,155963,173,207149
8.617,155956,169,207131
8.622,155937,177,207115
8.627,155944,172,207126
8.632,155936,173,207129
8.637,155932,176,207127
8.642,155922,176,207114
8.647,155938,171,207105
8.652,155915,171,207088
8.657,155906,172,207081
8.661,155906,172,207099
8.666,155898,174,207042
8.671,155889,174,207047
8.676,155888,170,207017
8.681,155888,177,207026
8.686,155888,172,206977
8.691,155878,172,206966
8.696,155881,175,206939
8.701,155873,175,206919
8.706,155857,172,206898
8.711,155865,172,206861
8.716,155819,175,206825
8.721,155828,174,206811
8.726,155809,170,206805
8.731,155823,177,206805
8.736,155805,172,206805
8.741,155824,172,206795
8.746,155808,176,206754
8.751,155791,176,206719
8.756,155778,174,206688
8.761,155767,174,206664
8.766,155750,171,206606
8.771,155746,177,206564
8.776,155733,173,206536
8.781,155721,172,206505
8.785,155706,175,206451
8.790,155682,174,206426
8.795,155674,171,206358
8.800,155644,174,206326
8.805,155622,171,206256
8.810,155615,177,206199
8.815,155589,173,206152
8.820,155580,172,206120
8.825,155556,176,206064
8.830,155535,175,206001
8.835,155514,171,205937
8.840,155502,178,205857
8.845,155484,174,205812
8.850,155458,179,205756
8.855,155451,176,205682
8.860,155416,175,205622
8.865,155418,172,205567
8.870,155404,172,205511
8.875,155391,178,205465
8.880,155392,177,205396
8.885,155369,174,205362
8.890,155353,173,205302
8.895,155346,178,205248
8.900,155334,180,205225
8.905,155318,178,205157
8.909,155320,177,205110
8.914,155301,174,205069
8.919,155303,174,205003
8.924,155286,180,204948
8.929,155290,178,204897
8.934,155275,176,204844
8.939,155272,175,204782
8.944,155274,174,204734
8.949,155280,176,204668
8.954,155268,175,204621
8.959,155270,181,204593
8.964,155244,180,204556
8.969,155241,177,204506
8.974,155246,177,204480
8.979,155249,174,204442
8.984,155233,183,204429
8.989,155222,179,204413
8.994,155209,180,204391
8.999,155200,179,204372
9.004,155198,180,204358
9.009,155206,175,204353
9.014,155217,184,204347
9.019,155201,178,204337
9.024,155211,179,204330
9.029,155200,182,204323
9.033,155196,184,204311
9.038,155201,178,204285
9.043,155203,199,204273
9.048,155218,179,204261
9.053,155198,181,204245
9.058,155194,183,204195
9.063,155187,185,204159
9.068,155186,178,204129
9.073,155166,181,204090
9.078,155166,183,204045
9.083,155149,187,204029
9.088,155144,178,203998
9.093,155148,187,203971
9.098,155136,182,203946
9.103,155134,186,203886
9.108,155109,177,203887
9.113,155110,190,203875
9.118,155115,180,203869
9.123,155090,185,203838
9.128,155110,183,203847
9.133,155109,189,203837
9.138,155105,178,203833
9.143,155127,190,203822
9.148,155112,183,203825
9.153,155109,188,203797
9.157,155102,178,203745
9.162,155099,185,203681
9.167,155089,182,203644
9.172,155074,189,203594
9.177,155077,178,203549
9.182,155084,184,203533
9.187,155099,180,203514
9.192,155076,191,203496
9.197,155094,179,203480
9.202,155109,186,203477
9.207,155111,183,203463
9.212,155115,189,203488
9.217,155110,178,203449
9.222,155125,186,203441
9.227,155098,183,203416
9.232,155092,190,203381
9.237,155088,177,203359
9.242,155082,189,203326
9.247,155054,178,203288
9.252,155044,185,203231
9.257,155051,181,203195
9.262,155016,189,203133
9.267,155016,177,203073
9.272,155017,185,203025
9.277,155006,181,202967
9.281,155014,189,202942
9.286,155009,178,202919
9.291,154994,190,202877
9.296,154988,178,202841
9.301,154990,186,202816
9.306,155000,182,202793
9.311,154998,189,202744
9.316,154973,178,202717
9.321,154995,186,202678
9.326,154993,182,202632
9.331,154973,190,202614
9.336,154991,180,202594
9.341,154989,190,202581
9.346,154992,178,202575
9.351,155009,185,202559
9.356,155003,182,202544
9.361,155023,189,202563
9.366,155036,178,202558
9.371,155038,186,202557
9.376,155056,182,202561
9.381,155053,189,202565
9.386,155087,184,202587
9.391,155075,187,202603
9.396,155078,176,202609
9.401,155103,192,202602
9.405,155102,181,202617
9.410,155121,187,202578
9.415,155104,177,202588
9.420,155116,190,202570
9.425,155115,180,202566
9.430,155115,186,202538
9.435,155128,180,202513
9.440,155129,186,202507
9.445,155120,177,202499
9.450,155149,191,202498
9.455,155158,183,202521
9.460,155158,189,202507
9.465,155167,181,202524
9.470,155164,186,202502
9.475,155171,179,202520
9.480,155188,191,202508
9.485,155192,179,202490
9.490,155203,190,202482
9.495,155195,183,202442
9.500,155193,186,202427
9.505,155210,179,202412
9.510,155209,190,202387
9.515,155209,183,202375
9.520,155225,185,202351
9.524,155206,179,202318
9.529,155197,189,202288
9.534,155182,179,202284
9.539,155183,188,202240
9.544,155164,183,202205
9.549,155173,184,202177
9.554,155177,179,202120
9.559,155166,188,202094
9.564,155174,185,202091
9.569,155171,185,202047
9.574,155178,182,202050
9.579,155174,182,202022
9.584,155163,183,202030
9.589,155184,182,202010
9.594,155172,180,202007
9.599,155185,186,202008
9.604,155188,184,201989
9.609,155171,182,201964
9.614,155172,180,201931
9.619,155161,186,201907
9.624,155149,185,201863
9.629,155188,176,201840
9.634,155155,188,201804
9.639,155126,184,201802
9.644,155138,183,201750
9.648,155155,181,201756
9.653,155143,180,201741
9.658,155143,178,201724
9.663,155149,187,201706
9.668,155162,182,201744
9.673,155151,182,201742
9.678,155172,180,201761
9.683,155195,182,201765
9.688,155204,178,201819
9.693,155217,187,201835
9.698,155226,181,201863
9.703,155243,183,201861
9.708,155254,178,201870
9.713,155248,187,201894
9.718,155262,180,201901
9.723,155269,184,201887
9.728,155280,183,201914
9.733,155282,185,201931
9.738,155290,178,201936
9.743,155305,181,201941
9.748,155304,182,201952
9.753,155313,185,201954
9.758,155322,177,201949
9.763,155327,182,201935
9.768,155314,182,201935
9.772,155332,186,201945
9.777,155336,178,201931
9.782,155339,182,201942
9.787,155341,183,201943
9.792,155348,187,201951
9.797,155338,178,201933
9.802,155360,183,201945
9.807,155374,175,201946
9.812,155391,188,201955
9.817,155396,178,201965
9.822,155388,184,201968
9.827,155419,179,201999
9.832,155442,185,202011
9.837,155431,183,202021
9.842,155449,188,202058
9.847,155470,178,202070
9.852,155475,184,202120
9.857,155484,182,202142
9.862,155514,188,202158
9.867,155514,177,202173
9.872,155517,188,202127
9.877,155527,177,202190
9.882,155547,185,202191
9.887,155541,175,202194
9.892,155552,190,202183
9.896,155553,178,202195
9.901,155553,186,202176
9.906,155552,175,202159
9.911,155563,191,202161
9.916,155566,179,202142
9.921,155565,191,202147
9.926,155591,180,202145
9.931,155590,188,202123
9.936,155600,176,202124
9.941,155603,193,202112
9.946,155620,181,202106
9.951,155629,190,202118
9.956,155642,177,202099
9.961,155630,194,202082
9.966,155625,182,202033
9.971,155640,196,202022
9.976,155633,180,201973
9.981,155635,191,201923
9.986,155658,185,201876
9.991,155644,196,201868
9.996,155640,180,201835
10.001,155644,192,201810
10.006,155627,185,201794
10.011,155640,197,201771
10.016,155644,182,201738
10.020,155661,200,201716
10.025,155642,188,201690
10.030,155627,201,201666
10.035,155620,183,201635
10.040,155609,205,201563
10.045,155621,187,201513
10.050,155595,201,201432
10.055,155599,183,201400
10.060,155575,204,201353
10.065,155578,188,201312
10.070,155590,203,201293
10.075,155568,187,201291
10.080,155574,200,201277
10.085,155578,185,201264
10.090,155566,205,201220
10.095,155561,189,201190
10.100,155558,200,201144
10.105,155547,185,201107
10.110,155551,203,201058
10.115,155515,188,201024
10.120,155501,202,200978
10.125,155491,188,200931
10.130,155480,199,200876
10.135,155473,192,200832
10.140,155451,200,200805
10.144,155429,187,200729
10.149,155424,204,200699
10.154,155414,192,200660
10.159,155426,201,200645
10.164,155416,190,200590
10.169,155425,202,200587
10.174,155409,190,200554
10.179,155396,206,200524
10.184,155406,196,200491
10.189,155410,205,200446
10.194,155396,194,200418
10.199,155388,210,200371
10.204,155392,199,200334
10.209,155378,206,200284
10.214,155385,200,200267
10.219,155361,212,200229
10.224,155362,202,200161
10.229,155364,212,200145
10.234,155350,209,200121
10.239,155350,220,200096
10.244,155347,210,200073
10.249,155330,220,200031
10.254,155344,217,200000
10.259,155334,222,199966
10.264,155337,218,199932
10.268,155315,220,199885
10.273,155324,212,199830
10.278,155325,221,199792
10.283,155309,216,199734
10.288,155301,215,199714
10.293,155313,221,199704
10.298,155315,218,199686
10.303,155316,218,199672
10.308,155328,213,199680
10.313,155325,219,199664
10.318,155333,221,199629
10.323,155346,226,199613
10.328,155335,217,199589
10.333,155333,226,199586
10.338,155350,221,199573
10.343,155349,234,199546
10.348,155336,219,199520
10.353,155357,245,199529
10.358,155351,223,199528
10.363,155361,249,199537
10.368,155364,225,199517
10.373,155370,249,199524
10.378,155375,230,199527
10.383,155362,257,199508
10.388,155375,225,199513
10.392,155375,266,199523
10.397,155393,229,199498
10.402,155364,268,199462
10.407,155368,233,199415
10.412,155372,274,199355
10.417,155374,235,199317
10.422,155353,282,199283
10.427,155351,231,199286
10.432,155351,292,199266
10.437,155355,236,199262
10.442,155358,297,199265
10.447,155381,240,199326
10.452,155400,308,199377
10.457,155417,235,199452
10.462,155433,314,199517
10.467,155431,239,199524
10.472,155421,329,199487
10.477,155435,246,199486
10.482,155445,334,199524
10.487,155457,244,199544
10.492,155462,341,199573
10.497,155481,252,199600
10.502,155481,354,199632
10.507,155515,252,199678
10.511,155517,357,199691
10.516,155516,254,199715
10.521,155531,365,199730
10.526,155548,249,199785
10.531,155559,375,199791
10.536,155569,255,199817
10.541,155568,379,199846
10.546,155587,252,199867
10.551,155588,383,199921
10.556,155606,254,199960
10.561,155606,389,199979
10.566,155626,259,200011
10.571,155639,399,200054
10.576,155648,256,200083
10.581,155675,409,200115
10.586,155672,261,200163
10.591,155704,411,200195
10.596,155719,258,200210
10.601,155731,418,200225
10.606,155766,262,200260
10.611,155771,422,200313
10.616,155784,259,200342
10.621,155803,429,200388
10.626,155826,271,200401
10.631,155848,430,200442
10.635,155869,268,200509
10.640,155888,435,200537
10.645,155915,264,200616
10.650,155936,438,200640
10.655,155941,273,200676
10.660,155971,439,200699
10.665,155980,268,200711
10.670,156002,439,200754
10.675,156013,274,200792
10.680,156010,443,200837
10.685,156004,271,200843
10.690,156004,444,200867
10.695,156003,275,200881
10.700,156002,443,200917
10.705,156007,277,200945
10.710,155995,443,200958
10.715,156004,282,200975
10.720,156006,444,200994
10.725,156004,278,201000
10.730,156002,443,201016
10.735,156006,284,201029
10.740,156007,437,201016
10.745,156000,290,201036
10.750,156017,479,201034
10.755,156005,286,201047
10.759,156019,435,201040
10.764,156011,292,201057
10.769,156007,433,201058
10.774,156007,291,201068
10.779,156009,430,201070
10.784,156033,297,201104
10.789,156022,425,201098
10.794,156024,302,201122
10.799,156024,421,201106
10.804,156019,305,201120
10.809,156020,417,201117
10.814,156026,302,201117
10.819,156032,413,201124
10.824,156017,307,201132
10.829,156023,408,201145
10.834,156030,311,201150
10.839,156029,401,201177
10.844,156029,319,201184
10.849,156027,401,201196
10.854,156037,319,201226
10.859,156053,393,201278
10.864,156051,327,201291
10.869,156068,390,201312
10.874,156081,324,201342
10.879,156081,385,201387
10.883,156096,332,201398
10.888,156120,381,201428
10.893,156115,332,201475
10.898,156136,376,201508
10.903,156131,336,201534
10.908,156134,373,201549
10.913,156146,342,201553
10.918,156157,366,201593
10.923,156166,349,201618
10.928,156170,362,201663
10.933,156164,348,201674
10.938,156178,355,201717
10.943,156204,356,201749
10.948,156193,356,201770
10.953,156200,357,201802
10.958,156221,346,201851
10.963,156229,357,201898
10.968,156234,343,201919
10.973,156257,358,201966
10.978,156275,325,202030
10.983,157292,353,198408
10.988,159029,348,194135
10.993,158761,369,193712
10.998,158608,310,193871
11.003,159143,369,193410
11.007,159711,349,192844
11.012,160074,383,192342
11.017,160491,298,191822
11.022,160916,379,191422
11.027,161121,342,191228
11.032,161212,392,191111
11.037,161235,291,191057
11.042,161152,384,191006
11.047,160952,338,191031
11.052,160609,398,191145
11.057,160119,286,191419
11.062,159455,390,191892
11.067,158656,327,192570
11.072,157851,400,193610
11.077,157119,279,195064
11.082,156827,393,196342
11.087,156644,299,197266
11.092,156532,399,197784
11.097,156488,288,198110
11.102,156460,400,198452
11.107,156458,293,198782
11.112,156449,404,199001
11.117,156437,283,199137
11.122,156438,410,199239
11.127,156408,284,199341
11.131,156413,410,199430
11.136,156407,284,199537
11.141,156409,412,199605
11.146,156421,282,199670
11.151,156398,414,199714
11.156,156401,274,199788
11.161,156399,420,199826
11.166,156393,276,199898
11.171,156409,416,199948
11.176,156418,276,200026
11.181,156417,419,200063
11.186,156419,271,200120
11.191,156420,421,200143
11.196,156428,267,200186
11.201,156435,423,200203
11.206,156415,269,200232
11.211,156440,420,200241
11.216,156428,268,200258
11.221,156432,421,200265
11.226,156421,270,200289
11.231,156424,421,200283
11.236,156415,262,200308
11.241,156387,422,200287
11.246,156392,261,200325
11.251,156375,422,200314
11.255,156371,262,200311
11.260,156342,417,200294
11.265,156332,265,200307
11.270,156323,418,200282
11.275,156297,259,200295
11.280,156296,412,200285
11.285,156294,263,200314
11.290,156285,410,200336
11.295,156288,260,200345
11.300,156296,408,200343
11.305,156277,257,200373
11.310,156276,404,200380
11.315,156286,260,200405
11.320,156304,402,200420
11.325,156296,256,200433
11.330,156296,397,200466
11.335,156337,255,200478
11.340,156306,395,200490
11.345,156292,255,200510
11.350,156302,393,200536
11.355,156292,256,200550
11.360,156297,385,200547
11.365,156303,261,200570
11.370,156294,383,200570
11.374,156297,255,200604
11.379,156304,379,200632
11.384,156314,254,200665
11.389,156290,375,200655
11.394,156300,256,200679
11.399,156318,365,200724
11.404,156318,260,200770
11.409,156317,361,200832
11.414,156806,253,199249
11.419,158387,343,194959
11.424,158644,266,193804
11.429,158490,376,193892
11.434,158794,253,193651
11.439,159219,333,193248
11.444,159418,269,192901
11.449,159491,367,192629
11.454,159476,260,192497
11.459,159317,322,192511
11.464,159017,275,192676
11.469,158540,354,192968
11.474,157891,267,193524
11.479,157156,311,194482
11.484,156481,268,195956
11.489,156346,334,197465
11.494,156455,265,198375
11.498,156434,318,198524
11.503,156336,267,198414
11.508,156270,314,198468
11.513,156274,264,198846
11.518,156342,299,199393
11.523,156402,270,199799
11.528,156420,299,199950
11.533,156391,268,200005
11.538,156392,292,200017
11.543,156387,265,200114
11.548,156415,291,200262
11.553,156428,268,200372
11.558,156445,281,200470
11.563,156441,272,200530
11.568,156459,281,200589
11.573,156471,275,200676
11.578,156488,277,200758
11.583,156498,270,200808
11.588,156510,272,200863
11.593,156520,275,200924
11.598,156541,270,200989
11.603,156545,272,201069
11.608,156552,261,201113
11.613,157093,274,198861
11.618,158806,249,194900
11.622,158406,268,194951
11.627,157966,268,195619
11.632,157915,271,195902
11.637,157861,244,196075
11.642,157666,270,196333
11.647,157410,261,196736
11.652,157198,273,197392
11.657,156955,238,198257
11.662,156820,276,199120
11.667,156762,247,199775
11.672,156747,279,200057
11.677,156737,238,200243
11.682,156729,281,200415
11.687,156721,243,200594
11.692,156724,276,200735
11.697,156745,234,200826
11.702,156732,280,200873
11.707,156722,235,200934
11.712,156729,284,200999
11.717,156737,235,201092
11.722,156736,281,201158
11.727,156728,246,201217
11.732,156760,278,201290
11.737,156759,232,201380
11.742,156769,281,201452
11.746,156780,225,201507
11.751,156788,284,201566
11.756,156812,224,201640
11.761,156812,285,201685
11.766,156837,224,201756
11.771,156837,279,201795
11.776,156826,221,201839
11.781,156832,276,201860
11.786,156811,215,201895
11.791,156792,278,201888
11.796,156790,216,201888
11.801,156759,274,201882
11.806,156774,219,201889
11.811,156746,277,201889
11.816,156745,213,201902
11.821,156721,274,201927
11.826,156724,213,201940
11.831,156704,273,201942
11.836,156709,215,201970
11.841,156688,275,201996
11.846,156699,210,202015
11.851,156675,268,202011
11.856,156666,212,202027
11.861,156658,271,202034
11.866,156656,206,202023
11.870,156662,274,201976
11.875,156634,206,202011
11.880,156633,272,201989
11.885,156619,207,202008
11.890,156622,267,202000
11.895,156625,211,202010
11.900,156624,269,201988
11.905,156622,206,201990
11.910,156608,265,201959
11.915,156589,208,201960
11.920,156575,264,201935
11.925,156556,207,201923
11.930,156564,263,201933
11.935,156553,202,201917
11.940,156533,265,201919
11.945,156522,205,201929
11.950,156515,260,201908
11.955,156496,209,201896
11.960,156498,261,201873
11.965,156467,204,201878
11.970,156468,258,201883
11.975,156465,203,201881
11.980,156453,260,201865
11.985,156452,205,201869
11.990,156441,252,201871
11.994,156429,207,201890
11.999,156435,254,201889
12.004,156434,202,201907
12.009,156425,255,201907
12.014,156424,205,201898
12.019,156406,252,201919
12.024,156417,204,201932
12.029,156418,246,201948
12.034,156421,207,201928
12.039,156396,245,201928
12.044,156397,203,201936
12.049,156393,247,201936
12.054,156399,206,201947
12.059,156392,240,201950
12.064,156389,202,201961
12.069,156390,238,201986
12.074,156379,209,201998
12.079,156392,239,201999
12.084,156378,204,202019
12.089,156382,232,202054
12.094,156384,207,202015
12.099,156377,233,202025
12.104,156383,203,202048
12.109,156377,235,202028
12.114,156394,206,202044
12.118,156388,228,202040
12.123,156375,203,202032
12.128,156397,230,202033
12.133,156371,206,202011
12.138,156369,224,202016
12.143,156374,209,202003
12.148,156371,225,202019
12.153,156384,205,202027
12.158,156391,228,202039
12.163,156386,211,202056
12.168,156386,224,202031
12.173,156385,215,202033
12.178,156391,228,202053
12.183,156390,212,202051
12.188,156389,225,202053
12.193,156408,219,202048
12.198,156398,228,202073
12.203,156422,216,202069
12.208,156408,223,202073
12.213,156489,215,202096
12.218,156427,230,202113
12.223,156433,221,202116
12.228,156446,224,202154
12.233,156460,219,202166
12.238,156454,227,202166
12.242,156469,225,202177
12.247,156476,221,202192
12.252,156479,229,202194
12.257,156482,223,202184
12.262,156478,229,202169
12.267,156494,221,202174
12.272,156494,226,202152
12.277,156481,216,202163
12.282,156505,231,202186
12.287,156495,218,202202
12.292,156500,228,202218
12.297,156525,221,202223
12.302,156504,233,202221
12.307,156514,215,202239
12.312,156503,234,202227
12.317,156490,214,202237
12.322,156478,230,202242
12.327,156487,217,202249
12.332,156470,235,202248
12.337,156452,210,202266
12.342,156420,239,202280
12.347,156423,211,202274
12.352,156399,233,202289
12.357,156387,212,202258
12.361,156384,241,202239
12.366,156364,210,202256
12.371,156354,236,202245
12.376,156340,205,202260
12.381,156323,241,202272
12.386,156324,207,202261
12.391,156317,237,202283
12.396,156296,210,202282
12.401,156283,242,202303
12.406,156290,205,202309
12.411,156274,241,202300
12.416,156273,204,202295
12.421,156266,236,202288
12.426,156237,205,202273
12.431,156231,239,202275
12.436,156235,207,202289
12.441,156225,241,202273
12.446,156207,201,202249
12.451,156194,246,202271
12.456,156201,207,202360
12.461,156202,237,202285
12.466,156185,203,202279
12.471,156178,240,202299
12.476,156175,199,202302
12.481,156168,244,202273
12.485,156137,202,202261
12.490,156144,239,202223
12.495,156126,198,202194
12.500,156105,243,202148
12.505,156100,198,202104
12.510,156097,239,202112
12.515,156076,198,202097
12.520,156077,206,202100
12.525,156076,201,202123
12.530,156102,238,202146
12.535,156107,197,202156
12.540,156107,233,202189
12.545,156121,200,202210
12.550,156118,236,202209
12.555,156121,199,202226
12.560,156118,236,202183
12.565,156110,194,202169
12.570,156127,238,202156
12.575,156104,196,202137
12.580,156102,233,202111
12.585,156096,200,202108
12.590,156079,237,202076
12.595,156068,196,202059
12.600,156074,233,202055
12.605,156069,197,202055
12.609,156068,234,202071
12.614,156055,195,202058
12.619,156052,238,202050
12.624,156045,198,202055
12.629,156036,235,202072
12.634,156031,195,202038
12.639,156030,238,202039
12.644,156028,198,202067
12.649,156024,235,202049
12.654,156039,198,202056
12.659,156017,231,202054
12.664,156024,201,202072
12.669,156036,233,202093
12.674,156039,197,202123
12.679,156030,229,202138
12.684,156029,201,202157
12.689,156040,231,202164
12.694,156043,196,202144
12.699,156034,232,202152
12.704,156031,202,202169
12.709,156031,228,202159
12.714,156037,203,202157
12.719,156036,230,202136
12.724,156031,199,202155
12.729,156017,231,202126
12.733,156021,200,202129
12.738,156012,223,202096
12.743,156012,203,202084
12.748,156009,232,202073
12.753,156003,199,202097
12.758,156000,227,202094
12.763,155995,202,202095
12.768,155997,221,202104
12.773,156015,204,202127
12.778,156008,221,202147
12.783,156006,200,202173
12.788,156035,223,202181
12.793,156045,203,202219
12.798,156061,220,202268
12.803,156057,201,202309
12.808,156071,222,202335
12.813,156080,204,202361
12.818,156096,215,202392
12.823,156101,207,202429
12.828,156098,216,202463
12.833,156115,202,202504
12.838,156116,216,202571
12.843,156150,204,202586
12.848,156152,215,202632
12.853,156135,204,202655
12.857,156161,216,202655
12.862,156156,207,202668
12.867,156160,209,202691
12.872,156162,211,202683
12.877,156176,211,202698
12.882,156190,206,202685
12.887,156192,206,202678
12.892,156191,210,202689
12.897,156230,203,202707
12.902,156195,205,202705
12.907,156187,208,202661
12.912,156164,207,202604
12.917,156165,202,202502
12.922,156154,210,202454
12.927,156156,203,202438
12.932,156130,206,202406
12.937,156124,206,202410
12.942,156118,212,202424
12.947,156125,204,202453
12.952,156140,207,202506
12.957,156169,199,202541
12.962,156175,204,202608
12.967,156188,202,202653
12.972,156189,208,202680
12.977,156181,197,202708
12.981,156191,205,202688
12.986,156174,200,202714
12.991,156187,208,202712
12.996,156198,195,202690
13.001,156191,211,202691
13.006,156177,196,202665
13.011,156185,206,202650
13.016,156181,200,202635
13.021,156190,210,202621
13.026,156177,195,202610
13.031,156174,206,202608
13.036,156175,198,202572
13.041,156174,213,202577
13.046,156174,194,202530
13.051,156174,206,202523
13.056,156167,197,202505
13.061,156171,210,202533
13.066,156155,193,202528
13.071,156178,207,202530
13.076,156170,196,202535
13.081,156163,211,202571
13.086,156162,192,202576
13.091,156187,211,202584
13.096,156193,194,202577
13.101,156185,211,202546
13.105,156200,190,202552
13.110,156195,214,202570
13.115,156202,192,202559
13.120,156208,209,202566
13.125,156218,195,202570
13.130,156226,212,202556
13.135,156225,189,202579
13.140,156265,206,202604
13.145,156248,191,202592
13.150,156252,210,202638
13.155,156243,194,202637
13.160,156254,211,202621
13.165,156265,187,202607
13.170,156273,214,202538
13.175,156276,189,202528
13.180,156276,217,202485
13.185,156269,191,202466
13.190,156292,211,202414
13.195,156255,190,202340
13.200,156237,210,202278
13.205,156228,192,202193
13.210,156198,212,202114
13.215,156230,194,202049
13.220,156219,213,201973
13.224,156229,188,201880
13.229,156216,216,201806
13.234,156232,188,201728
13.239,156232,210,201665
13.244,156261,193,201603
13.249,156263,214,201560
13.254,156284,188,201540
13.259,156297,217,201533
13.264,156327,191,201544
13.269,156357,212,201534
13.274,156379,194,201563
13.279,156409,215,201577
13.284,156432,189,201607
13.289,156449,213,201616
13.294,156468,188,201615
13.299,156469,216,201621
13.304,156487,190,201614
13.309,156480,219,201583
13.314,156474,192,201552
13.319,156460,213,201539
13.324,156455,196,201528
13.329,156432,215,201512
13.334,156430,189,201532
13.339,156400,215,201539
13.344,156400,190,201592
13.348,156386,218,201619
13.353,156390,192,201692
13.358,156371,211,201754
13.363,156395,195,201799
13.368,156402,212,201865
13.373,156415,197,201883
13.378,156444,212,201920
13.383,156439,195,201956
13.388,156464,210,201973
13.393,156464,191,202013
13.398,156477,212,202028
13.403,156498,194,202058
13.408,156480,207,202031
13.413,156464,197,202048
13.418,156445,209,202083
13.423,156432,192,202100
13.428,156414,211,202066
13.433,156371,199,201986
13.438,156336,208,201946
13.443,156326,194,201941
13.448,156339,210,201960
13.453,156319,196,201991
13.458,156317,205,202004
13.463,156345,199,202003
13.468,156343,205,202021
13.472,156320,201,201977
13.477,156309,206,201974
13.482,156295,199,201942
13.487,156294,204,201919
13.492,156293,201,201906
13.497,156261,204,201882
13.502,156251,196,201848
13.507,156223,206,201821
13.512,156195,199,201826
13.517,156177,199,201804
13.522,156183,202,201807
13.527,156145,199,201804
13.532,156190,199,201834
13.537,156161,199,201828
13.542,156139,203,201845
13.547,156153,201,201855
13.552,156172,199,201860
13.557,156151,202,201873
13.562,156150,200,201879
13.567,156155,197,201870
13.572,156147,202,201834
13.577,156143,197,201800
13.582,156119,199,201787
13.587,156148,199,201747
13.592,156133,200,201755
13.596,156117,200,201718
13.601,156116,202,201717
13.606,156112,195,201725
13.611,156108,205,201722
13.616,156112,196,201743
13.621,156139,208,201749
13.626,156144,196,201763
13.631,156149,206,201787
13.636,156162,195,201809
13.641,156161,208,201845
13.646,156194,195,201840
13.651,156186,209,201853
13.656,156211,195,201863
13.661,156233,204,201876
13.666,156245,197,201862
13.671,156258,206,201859
13.676,156228,205,201881
13.681,156274,207,201885
13.686,156266,198,201839
13.691,156276,208,201808
13.696,156270,192,201745
13.701,156268,211,201733
13.706,156271,193,201737
13.711,156273,215,201743
13.716,156276,194,201730
13.720,156261,208,201732
13.725,156270,191,201705
13.730,156262,214,201707
13.735,156255,191,201701
13.740,156255,216,201715
13.745,156265,193,201735
13.750,156248,218,201732
13.755,156255,193,201735
13.760,156244,211,201749
13.765,156241,194,201757
13.770,156236,212,201737
13.775,156236,191,201762
13.780,156245,219,201764
13.785,156223,192,201768
13.790,156212,213,201770
13.795,156225,193,201799
13.800,156228,215,201832
13.805,156237,196,201805
13.810,156243,218,201819
13.815,156242,190,201819
13.820,156240,218,201841
13.825,156255,189,201848
13.830,156251,220,201858
13.835,156263,192,201877
13.840,156265,216,201895
13.844,156278,195,201932
13.849,156277,220,201938
13.854,156307,191,201995
13.859,156309,216,202004
13.864,156320,196,202015
13.869,156323,220,202041
13.874,156328,190,202051
13.879,156336,223,202072
13.884,156341,192,202089
13.889,156343,216,202084
13.894,156349,194,202057
13.899,156347,218,202066
13.904,156351,196,202089
13.909,156366,220,202105
13.914,156359,190,202115
13.919,156364,222,202097
13.924,156378,196,202099
13.929,156381,219,202105
13.934,156383,191,202111
13.939,156383,222,202111
13.944,156391,193,202107
13.949,156384,215,202111
13.954,156404,195,202099
13.959,156398,217,202125
13.964,156409,197,202130
13.968,156385,237,202122
13.973,156421,193,202135
13.978,156421,214,202155
13.983,156432,196,202178
13.988,156449,215,202177
13.993,156443,198,202201
13.998,156468,217,202230
14.003,156481,193,202238
14.008,156498,219,202276
14.013,156515,196,202305
14.018,156517,217,202338
14.023,156535,195,202361
14.028,156541,212,202386
14.033,156534,200,202412
14.038,156539,214,202420
14.043,156551,194,202430
14.048,156545,216,202454
14.053,156533,197,202460
14.058,156527,209,202457
14.063,156524,199,202483
14.068,156520,215,202457
14.073,156507,197,202436
14.078,156489,208,202414
14.083,156473,201,202431
14.088,156472,210,202415
14.092,156461,197,202413
14.097,156459,213,202416
14.102,156441,200,202420
14.107,156452,207,202421
14.112,156455,201,202398
14.117,156441,206,202395
14.122,156430,202,202401
14.127,156424,207,202412
14.132,156413,198,202398
14.137,156438,208,202383
14.142,156422,201,202384
14.147,156423,210,202387
14.152,156414,204,202407
14.157,156415,204,202404
14.162,156416,200,202402
14.167,156418,203,202402
14.172,156427,207,202409
14.177,156430,205,202419
14.182,156440,202,202434
14.187,156437,206,202429
14.192,156434,204,202427
14.197,156446,201,202436
14.202,156447,208,202448
14.207,156427,201,202451
14.211,156448,202,202457
14.216,156449,201,202477
14.221,156428,202,202468
14.226,156458,202,202458
14.231,156458,205,202467
14.236,156471,197,202453
14.241,156469,208,202437
14.246,156469,199,202417
14.251,156485,203,202436
14.256,156473,200,202432
14.261,156497,209,202389
14.266,156472,197,202431
14.271,156493,211,202420
14.276,156481,198,202438
14.281,156491,206,202429
14.286,156509,200,202429
14.291,156501,208,202436
14.296,156499,194,202459
14.301,156488,211,202443
14.306,156489,196,202462
14.311,156498,210,202464
14.316,156501,193,202455
14.321,156493,211,202440
14.326,156489,195,202420
14.331,156483,214,202428
14.335,156489,195,202441
14.340,156484,207,202444
14.345,156485,196,202447
14.350,156496,209,202447
14.355,156484,190,202433
14.360,156494,208,202411
14.365,156494,196,202420
14.370,156510,211,202413
14.375,156515,190,202416
14.380,156495,214,202438
14.385,156504,192,202453
14.390,156520,209,202468
14.395,156547,194,202473
14.400,156552,212,202510
14.405,156564,193,202523
14.410,156569,210,202554
14.415,156556,194,202570
14.420,156573,212,202571
14.425,156567,196,202568
14.430,156582,215,202585
14.435,156584,190,202609
14.440,156585,219,202594
14.445,156595,192,202599
14.450,156600,212,202618
14.455,156612,194,202610
14.459,156612,214,202630
14.464,156624,188,202649
14.469,156624,217,202660
14.474,156648,189,202646
14.479,156639,219,202675
14.484,156653,191,202659
14.489,156650,212,202698
14.494,156662,193,202711
14.499,156682,214,202717
14.504,156674,189,202718
14.509,156689,213,202728
14.514,156688,194,202715
14.519,156700,216,202728
14.524,156710,189,202723
14.529,156709,221,202728
14.534,156710,192,202722
14.539,156719,214,202712
14.544,156731,195,202723
14.549,156724,216,202717
14.554,156725,192,202736
14.559,156742,214,202733
14.564,156756,195,202767
14.569,156758,216,202789
14.574,156751,189,202796
14.579,156770,216,202822
14.583,156772,191,202836
14.588,156785,219,202861
14.593,156768,192,202867
14.598,156773,212,202864
14.603,156788,191,202886
14.608,156768,217,202904
14.613,156759,193,202884
14.618,156757,211,202898
14.623,156746,196,202902
14.628,156729,213,202897
14.633,156733,189,202908
14.638,156728,213,202916
14.643,156728,191,202892
14.648,156717,214,202909
14.653,156726,193,202896
14.658,156715,210,202903
14.663,156699,198,202914
14.668,156715,211,202938
14.673,156714,192,202916
14.678,156704,211,202902
14.683,156699,194,202895
14.688,156702,213,202880
14.693,156699,195,202861
14.698,156705,205,202871
14.703,156690,195,202861
14.707,156684,213,202854
14.712,156673,198,202849
14.717,156663,206,202840
14.722,156653,201,202868
14.727,156664,208,202860
14.732,156669,196,202890
14.737,156658,209,202901
14.742,156665,198,202905
14.747,156662,204,202954
14.752,156653,198,202958
14.757,156667,208,202973
14.762,156658,199,202999
14.767,156676,202,203015
14.772,156663,201,202997
14.777,156686,204,203033
14.782,156696,197,203023
14.787,156726,204,203045
14.792,156708,199,203087
14.797,156732,201,203122
14.802,156736,199,203112
14.807,156746,205,203143
14.812,156738,201,203156
14.817,156746,206,203157
14.822,156760,202,203159
14.827,156788,199,203181
14.831,156802,204,203206
14.836,156821,199,203204
14.841,156840,206,203241
14.846,156911,203,203289
14.851,156928,204,203376
14.856,156978,197,203474
14.861,157015,206,203577
14.866,157071,198,203650
14.871,157086,208,203657
14.876,157111,199,203617
14.881,157102,203,203575
14.886,157099,201,203549
14.891,157098,206,203564
14.896,157089,198,203583
14.901,157066,204,203589
14.906,157062,198,203583
14.911,157031,205,203544
14.916,157005,199,203516
14.921,156995,207,203516
14.926,156982,200,203489
14.931,156969,209,203469
14.936,156976,194,203436
14.941,156964,211,203394
14.946,156968,198,203355
14.951,156953,209,203334
14.955,156975,192,203347
14.960,156965,211,203363
14.965,156964,193,203350
14.970,156942,213,203343
14.975,156950,194,203344
14.980,156929,208,203357
14.985,156932,196,203341
14.990,156926,213,203335
14.995,156933,193,203363
15.000,156943,208,203379
15.005,156958,195,203401
15.010,156986,209,203447
15.015,156994,189,203482
15.020,157019,212,203520
15.025,157031,191,203550
15.030,157037,215,203550
15.035,157059,192,203578
15.040,157089,208,203640
15.045,157103,192,203707
15.050,157131,207,203739
15.055,157145,192,203735
15.060,157141,208,203731
15.065,157140,194,203741
15.070,157166,209,203730
15.074,157169,187,203734
15.079,157180,210,203736
15.084,157177,188,203743
15.089,157179,209,203706
15.094,157224,186,203753
15.099,157163,210,203781
15.104,157171,188,203813
15.109,157150,204,203809
15.114,157143,189,203818
15.119,157139,205,203794
15.124,157119,192,203776
15.129,157094,206,203774
15.134,157081,184,203789
15.139,157073,204,203800
15.144,157028,186,203810
15.149,157020,207,203782
15.154,156974,187,203798
15.159,156968,200,203764
15.164,156950,187,203764
15.169,156945,200,203740
15.174,156923,188,203746
15.179,156919,200,203717
15.184,156915,189,203714
15.189,156932,200,203700
15.194,156911,184,203689
15.198,156920,202,203687
15.203,156903,184,203686
15.208,156900,203,203675
15.213,156912,184,203670
15.218,156895,203,203654
15.223,156913,185,203637
15.228,156905,203,203612
15.233,156906,186,203581
15.238,156913,194,203544
15.243,156889,189,203542
15.248,156882,199,203534
15.253,156885,190,203571
15.258,156893,199,203618
15.263,156903,191,203648
15.268,156911,200,203658
15.273,156906,184,203666
15.278,156913,200,203652
15.283,156912,187,203648
15.288,156898,196,203669
15.293,156895,190,203703
15.298,156889,197,203694
15.303,156898,191,203718
15.308,156893,197,203726
15.313,156887,192,203746
15.318,156895,197,203752
15.322,156910,185,203770
15.327,156898,198,203803
15.332,156910,187,203805
15.337,156915,195,203817
15.342,156924,192,203816
15.347,156927,196,203813
15.352,156939,194,203851
15.357,156944,197,203851
15.362,156950,189,203873
15.367,156957,199,203860
15.372,156959,190,203864
15.377,156950,200,203838
15.382,156957,195,203798
15.387,156969,199,203809
15.392,156965,193,203792
15.397,156972,196,203746
15.402,156964,190,203705
15.407,156948,199,203641
15.412,156932,194,203597
15.417,156912,195,203527
15.422,156887,192,203457
15.427,156848,200,203399
15.432,156771,192,203335
15.437,156801,199,203291
15.442,156757,197,203209
15.446,156728,196,203151
15.451,156709,194,203136
15.456,156688,192,203101
15.461,156682,198,203085
15.466,156660,195,203079
15.471,156648,195,203074
15.476,156647,191,203089
15.481,156641,195,203069
15.486,156638,191,203048
15.491,156654,200,203070
15.496,156652,194,203056
15.501,156648,196,203038
15.506,156644,190,203037
15.511,156630,200,203005
15.516,156643,193,202992
15.521,156627,196,203003
15.526,156625,190,202955
15.531,156608,197,202919
15.536,156602,190,202888
15.541,156617,202,202862
15.546,156609,194,202862
15.551,156606,199,202881
15.556,156605,189,202883
15.561,156601,203,202901
15.566,156609,193,202943
15.570,156607,199,202959
15.575,156603,189,202974
15.580,156600,200,202936
15.585,156596,188,202922
15.590,156596,203,202911
15.595,156592,191,202899
15.600,156602,200,202879
15.605,156592,188,202819
15.610,156583,204,202804
15.615,156573,190,202756
15.620,156575,201,202754
15.625,156578,187,202708
15.630,156577,201,202724
15.635,156571,187,202699
15.640,156571,206,202696
15.645,156572,191,202721
15.650,156580,202,202713
15.655,156578,186,202729
15.660,156561,206,202713
15.665,156560,190,202706
15.670,156555,202,202690
15.675,156528,188,202676
15.680,156522,205,202656
15.685,156507,189,202635
15.690,156490,201,202607
15.694,156485,192,202595
15.699,156465,204,202588
15.704,156462,187,202600
15.709,156457,201,202589
15.714,156469,192,202586
15.719,156455,205,202588
15.724,156462,192,202601
15.729,156441,205,202610
15.734,156447,187,202611
15.739,156449,202,202607
15.744,156424,191,202586
15.749,156441,205,202575
15.754,156440,187,202593
15.759,156422,203,202590
15.764,156443,184,202581
15.769,156429,206,202562
15.774,156447,185,202534
15.779,156423,203,202548
15.784,156438,184,202523
15.789,156431,207,202535
15.794,156428,188,202537
15.799,156445,204,202528
15.804,156440,185,202529
15.809,156442,208,202530
15.814,156446,188,202526
15.818,156455,204,202507
15.823,156450,188,202516
15.828,156464,204,202485
15.833,156467,185,202493
15.838,156462,208,202490
15.843,156486,188,202494
15.848,156486,204,202488
15.853,156486,185,202470
15.858,156469,208,202412
15.863,156478,189,202364
15.868,156462,204,202349
15.873,156476,189,202314
15.878,156465,205,202325
15.883,156469,187,202340
15.888,156473,209,202334
15.893,156465,191,202334
15.898,156462,206,202317
15.903,156448,189,202334
15.908,156468,203,202341
15.913,156474,192,202332
15.918,156477,206,202321
15.923,156463,192,202323
15.928,156455,205,202310
15.933,156450,188,202308
15.938,156477,202,202301
15.942,156473,193,202320
15.947,156481,206,202337
15.952,156490,190,202336
15.957,156494,203,202346
15.962,156500,188,202399
15.967,156507,219,202424
15.972,156549,193,202440
15.977,156557,204,202456
15.982,156584,190,202467
15.987,156607,202,202531
15.992,156638,195,202580
15.997,156654,205,202641
16.002,156692,192,202670
16.007,156702,202,202696
16.012,156731,190,202700
16.017,156753,203,202735
16.022,156766,190,202756
16.027,156790,200,202801
16.032,156806,195,202804
16.037,156826,203,202797
16.042,156833,192,202793
16.047,156856,200,202800
16.052,156850,196,202822
16.057,156856,202,202846
16.061,156863,193,202847
16.066,156867,202,202847
16.071,156853,193,202875
16.076,156861,199,202888
16.081,156863,198,202897
16.086,156850,202,202917
16.091,156862,195,202922
16.096,156880,200,202939
16.101,156865,193,202955
16.106,156863,203,202941
16.111,156869,197,202924
16.116,156865,196,202927
16.121,156857,199,202906
16.126,156866,199,202918
16.131,156855,196,202914
16.136,156869,197,202895
16.141,156872,194,202901
16.146,156876,200,202920
16.151,156882,198,202920
16.156,156883,196,202936
16.161,156887,196,202936
16.166,156892,195,202915
16.171,156896,201,202909
16.176,156909,200,202917
16.181,156908,199,202924
16.185,156909,197,202935
16.190,156920,198,202934
16.195,156938,194,202945
16.200,156923,196,202953
16.205,156922,199,203000
16.210,156936,202,203056
16.215,156935,193,203158
16.220,156940,203,203215
16.225,156932,197,203184
16.230,156923,201,203120
16.235,156938,194,203096
16.240,156928,198,203056
16.245,156929,197,203046
16.250,156905,202,203063
16.255,156906,194,203064
16.260,156877,200,203053
16.265,156883,194,203065
16.270,156864,200,203090
16.275,156880,190,203109
16.280,156863,205,203144
16.285,156852,195,203129
16.290,156857,203,203126
16.295,156866,191,203128
16.300,156849,200,203113
16.305,156838,194,203115
16.309,156852,200,203130
16.314,156840,195,203121
16.319,156837,204,203150
16.324,156839,192,203162
16.329,156840,202,203183
16.334,156834,188,203193
16.339,156829,205,203190
16.344,156817,191,203198
16.349,156805,203,203209
16.354,156800,188,203201
16.359,156822,203,203205
16.364,156804,188,203167
16.369,156819,201,203147
16.374,156825,193,203128
16.379,156793,204,203127
16.384,156805,189,203118
16.389,156822,201,203107
16.394,156826,192,203091
16.399,156817,205,203097
16.404,156834,189,203098
16.409,156847,205,203096
16.414,156833,188,203120
16.419,156832,202,203109
16.424,156823,185,203074
16.429,156825,206,203042
16.433,156812,188,203023
16.438,156811,203,202983
16.443,156778,186,202959
16.448,156765,208,202887
16.453,156738,190,202863
16.458,156710,204,202817
16.463,156692,186,202797
16.468,156668,202,202753
16.473,156633,191,202716
16.478,156610,205,202651
16.483,156597,187,202663
16.488,156559,202,202641
16.493,156549,184,202612
16.498,156521,200,202606
16.503,156524,192,202582
16.508,156521,201,202564
16.513,156503,190,202555
16.518,156511,204,202556
16.523,156505,186,202537
16.528,156472,202,202540
16.533,156476,190,202530
16.538,156470,205,202547
16.543,156461,186,202536
16.548,156461,201,202536
16.553,156450,186,202530
16.557,156458,204,202520
16.562,156460,187,202512
16.567,156451,201,202492
16.572,156455,183,202478
16.577,156430,205,202471
16.582,156440,188,202452
16.587,156442,202,202478
16.592,156429,184,202454
16.597,156421,206,202445
16.602,156424,185,202438
16.607,156423,202,202462
16.612,156423,186,202470
16.617,156406,200,202478
16.622,156402,190,202500
16.627,156413,205,202500
16.632,156422,186,202525
16.637,156437,200,202535
16.642,156424,190,202570
16.647,156458,203,202574
16.652,156510,183,202545
16.657,156461,201,202585
16.662,156475,184,202571
16.667,156484,204,202558
16.672,156464,188,202529
16.677,156483,200,202531
16.681,156476,185,202530
16.686,156465,204,202507
16.691,156465,189,202474
16.696,156478,198,202445
16.701,156474,188,202444
16.706,156476,200,202389
16.711,156464,193,202388
16.716,156447,202,202352
16.721,156443,189,202354
16.726,156434,199,202336
16.731,156423,194,202321
16.736,156405,202,202303
16.741,156372,190,202302
16.746,156360,198,202260
16.751,156335,190,202235
16.756,156309,197,202184
16.761,156281,193,202148
16.766,156251,200,202106
16.771,156246,190,202080
16.776,156235,198,202057
16.781,156194,195,202010
16.786,156191,201,202016
16.791,156176,192,201982
16.796,156158,197,201988
16.801,156161,193,201973
16.805,156157,198,201954
16.810,156138,191,201959
16.815,156121,196,201944
16.820,156131,196,201940
16.825,156127,199,201939
16.830,156108,194,201937
16.835,156116,196,201926
16.840,156122,198,201920
16.845,156099,198,201904
16.850,156128,192,201927
16.855,156102,200,201896
16.860,156105,197,201875
16.865,156098,197,201880
16.870,156096,193,201885
16.875,156079,200,201879
16.880,156064,197,201884
16.885,156053,196,201877
16.890,156080,195,201847
16.895,156097,197,201873
16.900,156081,199,201875
16.905,156079,197,201872
16.910,156092,196,201886
16.915,156097,200,201889
16.920,156096,201,201889
16.924,156089,196,201874
16.929,156102,198,201860
16.934,156091,192,201852
16.939,156093,202,201813
16.944,156085,195,201815
16.949,156092,200,201796
16.954,156093,193,201798
16.959,156085,198,201784
16.964,156086,198,201792
16.969,156088,203,201771
16.974,156091,195,201780
16.979,156099,201,201772
16.984,156113,192,201762
16.989,156129,207,201735
16.994,156102,192,201711
16.999,156122,208,201722
17.004,156119,196,201704
17.009,156112,205,201670
17.014,156105,193,201626
17.019,156108,210,201593
17.024,156097,196,201558
17.029,156087,207,201528
17.034,156085,192,201527
17.039,156091,212,201513
17.044,156076,193,201472
17.048,156081,205,201468
17.053,156100,196,201466
17.058,156093,209,201412
17.063,156082,192,201387
17.068,156075,215,201374
17.073,156087,195,201357
17.078,156101,211,201376
17.083,156103,192,201363
17.088,156110,197,201335
17.093,156106,192,201340
17.098,156116,218,201322
17.103,156101,196,201322
17.108,156108,215,201310
17.113,156109,192,201310
17.118,156101,212,201286
17.123,156107,196,201281
17.128,156104,216,201263
17.133,156095,193,201276
17.138,156111,219,201257
17.143,156101,194,201240
17.148,156100,217,201221
17.153,156095,192,201218
17.158,156107,224,201230
17.163,156108,196,201236
17.168,156106,222,201243
17.172,156108,193,201257
17.177,156112,219,201260
17.182,156098,191,201268
17.187,156109,221,201283
17.192,156115,191,201288
17.197,156123,227,201326
17.202,156144,195,201328
17.207,156149,222,201357
17.212,156163,192,201353
17.217,156180,227,201373
17.222,156198,195,201387
17.227,156219,223,201419
17.232,156250,192,201445
17.237,156248,224,201486
17.242,156253,193,201534
17.247,156258,222,201549
17.252,156262,191,201580
17.257,156260,227,201598
17.262,156290,194,201639
17.267,156286,222,201678
17.272,156267,191,201695
17.277,156291,227,201710
17.282,156277,194,201713
17.287,156296,223,201756
17.292,156310,198,201789
17.296,156343,227,201799
17.301,156351,194,201829
17.306,156360,223,201830
17.311,156375,199,201831
17.316,156378,227,201849
17.321,156394,195,201870
17.326,156388,223,201879
17.331,156373,200,201846
17.336,156382,224,201902
17.341,156374,199,201880
17.346,156378,228,201904
17.351,156382,196,201934
17.356,156387,225,201971
17.361,156399,201,202001
17.366,156396,228,201998
17.371,156412,197,201996
17.376,156421,223,202007
17.381,156406,195,201983
17.386,156420,224,201981
17.391,156416,201,201992
17.396,156453,227,202026
17.401,156470,199,202066
17.406,156450,222,202105
17.411,156489,196,202109
17.416,156500,228,202158
17.420,156513,201,202175
17.425,156524,223,202175
17.430,156547,202,202162
17.435,156541,220,202160
17.440,156532,203,202137
17.445,156527,224,202130
17.450,156529,200,202130
17.455,156516,220,202148
17.460,156514,205,202171
17.465,156504,224,202205
17.470,156523,202,202222
17.475,156505,220,202243
17.480,156497,202,202237
17.485,156473,221,202234
17.490,156488,208,202209
17.495,156476,225,202203
17.500,156457,206,202209
17.505,156454,222,202218
17.510,156431,204,202207
17.515,156435,226,202217
17.520,156434,209,202255
17.525,156438,221,202226
17.530,156440,210,202230
17.535,156442,222,202223
17.540,156422,209,202222
17.544,156426,218,202215
17.549,156412,216,202197
17.554,156420,224,202174
17.559,156413,214,202178
17.564,156415,220,202156
17.569,156411,213,202156
17.574,156420,217,202147
17.579,156415,220,202178
17.584,156427,223,202212
17.589,156432,217,202235
17.594,156456,217,202284
17.599,156447,224,202302
17.604,156470,221,202346
17.609,156440,220,202382
17.614,156466,216,202382
17.619,156437,217,202382
17.624,156441,221,202293
17.629,156434,226,202327
17.634,156411,216,202291
17.639,156400,221,202271
17.644,156411,216,202265
17.649,156412,223,202291
17.654,156425,216,202310
17.659,156431,226,202349
17.664,156445,215,202370
17.668,156438,228,202393
17.673,156439,207,202440
17.678,156468,226,202468
17.683,156467,210,202529
17.688,156478,227,202560
17.693,156487,209,202591
17.698,156490,226,202595
17.703,156500,208,202562
17.708,156502,228,202580
17.713,156513,207,202563
17.718,156518,229,202559
17.723,156535,205,202542
17.728,156512,228,202506
17.733,156514,205,202530
17.738,156521,229,202541
17.743,156528,205,202559
17.748,156533,231,202601
17.753,156543,205,202605
17.758,156544,231,202618
17.763,156508,206,202593
17.768,156525,234,202595
17.773,156511,204,202567
17.778,156492,233,202554
17.783,156471,204,202547
17.788,156481,234,202532
17.792,156433,198,202500
17.797,156415,236,202492
17.802,156383,199,202512
17.807,156371,237,202515
17.812,156367,199,202523
17.817,156355,231,202525
17.822,156347,197,202553
17.827,156346,236,202553
17.832,156343,197,202525
17.837,156345,230,202526
17.842,156330,198,202482
17.847,156329,230,202440
17.852,156335,200,202417
17.857,156333,232,202383
17.862,156317,200,202348
17.867,156311,231,202300
17.872,156301,197,202306
17.877,156292,228,202290
17.882,156291,198,202282
17.887,156263,230,202227
17.892,156256,193,202181
17.897,156232,232,202111
17.902,156206,194,202048
17.907,156189,235,202023
17.911,156181,196,201995
17.916,156173,230,202017
17.921,156174,195,201985
17.926,156180,227,201941
17.931,156183,197,201940
17.936,156176,230,201956
17.941,156187,193,201957
17.946,156189,235,201960
17.951,156183,196,201938
17.956,156175,229,201940
17.961,156172,199,201943
17.966,156208,220,201907
17.971,156171,200,201934
17.976,156188,231,201959
17.981,156202,194,202033
17.986,156211,232,202064
17.991,156237,195,202156
17.996,156239,233,202222
18.001,156254,196,202259
18.006,156276,234,202281
18.011,156267,198,202285
18.016,156273,233,202272
18.021,156267,201,202245
18.026,156260,229,202213
18.031,156250,196,202208
18.035,156219,229,202166
18.040,156214,198,202154
18.045,156204,222,202134
18.050,156189,199,202114
18.055,156168,222,202058
18.060,156175,202,202061
18.065,156198,221,202030
18.070,156164,198,202031
18.075,156162,215,202032
18.080,156159,200,202029
18.085,156154,215,202049
18.090,156155,202,202037
18.095,156164,215,202082
18.100,156185,196,202137
18.105,156188,216,202152
18.110,156198,197,202198
18.115,156212,212,202222
18.120,156204,195,202260
18.125,156220,212,202273
18.130,156212,197,202253
18.135,156218,213,202237
18.140,156234,199,202204
18.145,156246,213,202144
18.150,156261,201,202128
18.155,156246,207,202096
18.159,156265,202,202046
18.164,156258,211,202022
18.169,156264,201,202020
18.174,156254,205,202039
18.179,156252,203,202034
18.184,156276,206,202043
18.189,156281,205,202062
18.194,156286,206,202050
18.199,156276,202,202071
18.204,156282,209,202073
18.209,156274,205,202048
18.214,156285,206,202002
18.219,156293,203,201941
18.224,156286,207,201883
18.229,156278,205,201858
18.234,156255,207,201811
18.239,156259,206,201769
18.244,156236,202,201714
18.249,156217,210,201651
18.254,156200,202,201628
18.259,156183,196,201581
18.264,156186,206,201576
18.269,156187,209,201548
18.274,156164,200,201522
18.279,156164,211,201536
18.283,156154,200,201513
18.288,156149,214,201533
18.293,156151,201,201569
18.298,156140,218,201581
18.303,156140,202,201582
18.308,156133,217,201586
18.313,156123,201,201587
18.318,156113,213,201608
18.323,156123,202,201606
18.328,156110,216,201627
18.333,156124,204,201632
18.338,156111,219,201652
18.343,156117,198,201648
18.348,156107,222,201681
18.353,156117,198,201677
18.358,156120,220,201697
18.363,156124,197,201706
18.368,156122,224,201721
18.373,156146,198,201773
18.378,156132,228,201793
18.383,156125,200,201808
18.388,156130,223,201795
18.393,156144,202,201815
18.398,156152,226,201822
18.403,156145,196,201807
18.407,156161,223,201800
18.412,156158,199,201801
18.417,156150,225,201788
18.422,156154,201,201796
18.427,156148,227,201791
18.432,156150,195,201788
18.437,156158,230,201803
18.442,156166,196,201806
18.447,156152,224,201815
18.452,156163,198,201809
18.457,156159,233,201825
18.462,156166,198,201823
18.467,156163,228,201829
18.472,156158,193,201782
18.477,156166,231,201789
18.482,156151,195,201770
18.487,156137,234,201755
18.492,156149,197,201747
18.497,156147,227,201763
18.502,156139,199,201756
18.507,156145,235,201780
18.512,156127,195,201769
18.517,156134,226,201774
18.522,156139,197,201779
18.527,156146,229,201790
18.531,156149,198,201792
18.536,156140,231,201760
18.541,156140,193,201778
18.546,156125,232,201786
18.551,156104,193,201762
18.556,156133,230,201754
18.561,156143,199,201732
18.566,156158,232,201760
18.571,156165,193,201775
18.576,156174,233,201777
18.581,156187,195,201781
18.586,156174,236,201799
18.591,156191,197,201811
18.596,156193,229,201814
18.601,156185,196,201818
18.606,156213,235,201832
18.611,156203,198,201849
18.616,156227,229,201852
18.621,156211,201,201864
18.626,156227,232,201881
18.631,156230,196,201882
18.636,156236,233,201918
18.641,156248,198,201930
18.646,156271,228,201947
18.651,156275,199,201963
18.655,156278,229,201994
18.660,156281,197,202024
18.665,156305,232,202031
18.670,156313,199,202054
18.675,156312,225,202079
18.680,156329,202,202092
18.685,156356,228,202120
18.690,156371,199,202166
18.695,156381,231,202133
18.700,156397,202,202167
18.705,156376,227,202175
18.710,156399,199,202184
18.715,156407,229,202201
18.720,156414,202,202229
18.725,156428,222,202234
18.730,156438,205,202232
18.735,156439,224,202256
18.740,156461,201,202277
18.745,156460,226,202269
18.750,156465,205,202289
18.755,156475,221,202291
18.760,156498,207,202328
18.765,156495,221,202352
18.770,156507,209,202350
18.774,156507,222,202345
18.779,156501,204,202338
18.784,156492,223,202319
18.789,156475,206,202309
18.794,156474,216,202279
18.799,156470,205,202308
18.804,156468,219,202335
18.809,156451,206,202304
18.814,156437,219,202284
18.819,156422,209,202264
18.824,156415,220,202255
18.829,156404,211,202268
18.834,156412,212,202270
18.839,156376,215,202256
18.844,156357,212,202273
18.849,156381,212,202259
18.854,156364,210,202280
18.859,156362,216,202273
18.864,156349,210,202275
18.869,156354,219,202263
18.874,156356,209,202262
18.879,156348,211,202264
18.884,156334,210,202250
18.889,156327,213,202197
18.894,156324,207,202181
18.898,156318,222,202135
18.903,156292,207,202151
18.908,156292,215,202101
18.913,156292,208,202063
18.918,156273,217,202054
18.923,156276,209,202026
18.928,156268,219,202002
18.933,156271,201,201999
18.938,156259,221,201957
18.943,156276,201,201959
18.948,156257,224,201915
18.953,156267,202,201922
18.958,156265,217,201905
18.963,156262,203,201911
18.968,156276,219,201907
18.973,156273,203,201935
18.978,156256,221,201928
18.983,156285,205,201945
18.988,156278,224,201947
18.993,156283,201,201931
18.998,156293,224,201931
19.003,156307,204,201932
19.008,156289,227,201899
19.013,156298,198,201902
19.018,156294,230,201882
19.022,156302,200,201882
19.027,156312,225,201854
19.032,156306,202,201856
19.037,156312,228,201858
19.042,156298,200,201866
19.047,156316,228,201899
19.052,156311,201,201902
19.057,156309,231,201918
19.062,156324,197,201943
19.067,156328,234,201941
19.072,156321,196,201965
19.077,156334,236,201944
19.082,156328,198,201942
19.087,156332,230,201935
19.092,156327,199,201929
19.097,156329,231,201936
19.102,156326,201,201927
19.107,156341,233,201954
19.112,156347,195,201954
19.117,156351,237,201985
19.122,156369,197,202023
19.127,156368,239,202053
19.132,156386,198,202086
19.137,156400,227,202113
19.142,156419,196,202127
19.146,156422,239,202152
19.151,156447,196,202173
19.156,156436,240,202195
19.161,156473,198,202231
19.166,156464,233,202267
19.171,156478,199,202276
19.176,156496,234,202335
19.181,156493,200,202355
19.186,156513,241,202387
19.191,156531,198,202430
19.196,156543,234,202450
19.201,156535,200,202481
19.206,156560,234,202529
19.211,156575,201,202552
19.216,156579,236,202620
19.221,156599,195,202658
19.226,156621,236,202728
19.231,156642,196,202787
19.236,156656,234,202851
19.241,156656,201,202880
19.246,156698,233,202968
19.251,156717,195,203014
19.256,156743,236,203064
19.261,156769,197,203114
19.266,156796,237,203179
19.270,156802,199,203235
19.275,156823,229,203286
19.280,156849,201,203343
19.285,156865,234,203366
19.290,156863,198,203419
19.295,156886,235,203438
19.300,156874,199,203442
19.305,156873,234,203477
19.310,156876,200,203476
19.315,156855,225,203470
19.320,156869,201,203487
19.325,156864,224,203479
19.330,156851,202,203463
19.335,156843,227,203457
19.340,156839,199,203465
19.345,156842,226,203466
19.350,156841,200,203459
19.355,156826,225,203437
19.360,156831,202,203452
19.365,156834,227,203434
19.370,156827,204,203420
19.375,156816,219,203424
19.380,156830,205,203401
19.385,156807,223,203367
19.390,156828,203,203341
19.394,156822,224,203321
19.399,156816,205,203268
19.404,156820,224,203241
19.409,156804,207,203176
19.414,156793,215,203121
19.419,156783,209,203052
19.424,156782,216,203017
19.429,156785,209,202990
19.434,156770,213,202905
19.439,156773,210,202825
19.444,156755,214,202725
19.449,156745,213,202621
19.454,156717,214,202526
19.459,156725,215,202451
19.464,156706,213,202393
19.469,156702,218,202353
19.474,156701,213,202341
19.479,156699,215,202342
19.484,156712,210,202359
19.489,156711,216,202379
19.494,156722,209,202420
19.499,156716,220,202447
19.504,156730,209,202450
19.509,156721,219,202471
19.514,156702,206,202499
19.518,156713,219,202515
19.523,156704,205,202535
19.528,156704,218,202541
19.533,156686,206,202578
19.538,156693,213,202595
19.543,156690,200,202621
19.548,156686,213,202651
19.553,156675,199,202686
19.558,156675,216,202688
19.563,156670,200,202716
19.568,156661,218,202722
19.573,156661,200,202745
19.578,156654,219,202792
19.583,156645,205,202821
19.588,156649,220,202901
19.593,156663,198,202921
19.598,156662,220,202958
19.603,156662,197,202961
19.608,156653,220,202975
19.613,156645,197,203004
19.618,156659,225,203043
19.623,156656,199,203062
19.628,156676,231,203105
19.633,156678,205,203140
19.638,156701,237,203124
19.642,156692,207,203115
19.647,156699,239,203109
19.652,156682,200,203075
19.657,156675,236,203058
19.662,156665,199,203048
19.667,156650,233,203015
19.672,156642,197,202987
19.677,156612,227,202975
19.682,156616,194,202993
19.687,156599,225,203009
19.692,156615,194,203029
19.697,156610,216,203078
19.702,156606,195,203103
19.707,156608,215,203146
19.712,156618,195,203171
19.717,156619,215,203175
19.722,156616,189,203194
19.727,156648,221,203193
19.732,156644,192,203208
19.737,156637,213,203226
19.742,156660,193,203255
19.747,156660,214,203270
19.752,156666,193,203259
19.757,156673,215,203235
19.761,156674,194,203192
19.766,156661,212,203175
19.771,156668,190,203159
19.776,156679,208,203166
19.781,156695,190,203155
19.786,156710,207,203158
19.791,156719,191,203152
19.796,156713,206,203166
19.801,156735,184,203162
19.806,156735,206,203169
19.811,156748,185,203196
19.816,156759,206,203253
19.821,156789,184,203338
19.826,156807,201,203387
19.831,156825,189,203424
19.836,156836,201,203494
19.841,156849,182,203502
19.846,156851,201,203517
19.851,156858,183,203522
19.856,156862,202,203508
19.861,156851,185,203515
19.866,156836,195,203496
19.871,156836,183,203466
19.876,156822,193,203446
19.881,156807,184,203434
19.885,156810,193,203421
19.890,156806,184,203423
19.895,156806,192,203456
19.900,156819,185,203517
19.905,156831,193,203579
19.910,156831,188,203633
19.915,156821,192,203623
19.920,156815,187,203636
19.925,156828,193,203659
19.930,156828,180,203666
19.935,156839,193,203672
19.940,156854,181,203721
19.945,156856,195,203738
19.950,156855,183,203798
19.955,156879,188,203823
19.960,156880,185,203867
19.965,156892,190,203846
19.970,156894,183,203880
19.975,156903,188,203931
19.980,156925,186,203970
19.985,156948,189,203994
19.990,156941,189,204017
19.995,156946,191,204044
20.000,156946,182,204055
20.005,156965,193,204090
20.009,156966,185,204129
20.014,156985,189,204146
20.019,156986,184,204166
20.024,156995,193,204181
20.029,156993,186,204196
20.034,157011,187,204203
20.039,157005,187,204231
20.044,157005,186,204234
20.049,157020,188,204248
20.054,157014,187,204263
20.059,157008,183,204242
20.064,157023,186,204254
20.069,157028,183,204270
20.074,157018,189,204276
20.079,157017,186,204284
20.084,157019,186,204268
20.089,157019,183,204262
20.094,157030,189,204266
20.099,157036,186,204263
20.104,157025,184,204257
20.109,157014,190,204261
20.114,157015,191,204240
20.119,157018,189,204240
20.124,157009,185,204238
20.129,157033,186,204247
20.133,157049,189,204219
20.138,157033,190,204211
20.143,157047,185,204184
20.148,157067,193,204185
20.153,157070,188,204197
20.158,157064,191,204192
20.163,157088,188,204167
20.168,157102,190,204149
20.173,157111,183,204136
20.178,157112,195,204117
20.183,157122,188,204124
20.188,157123,191,204084
20.193,157125,184,204067
20.198,157135,189,204044
20.203,157148,189,204004
20.208,157138,193,203956
20.213,157146,186,203881
20.218,157175,193,203827
20.223,157182,184,203765
20.228,157191,198,203738
20.233,157221,188,203730
20.238,157252,197,203720
20.243,157259,186,203720
20.248,157283,196,203751
20.253,157296,192,203790
20.257,157311,202,203858
20.262,157346,193,203936
20.267,157376,203,203991
20.272,157389,191,204023
20.277,157420,203,204051
20.282,157408,189,204073
20.287,157413,211,204030
20.292,157424,194,204002
20.297,157447,209,203943
20.302,157449,192,203921
20.307,157446,228,203911
20.312,157452,192,203897
20.317,157469,221,203928
20.322,157482,195,203954
20.327,157497,218,203996
20.332,157520,192,204053
20.337,157542,224,204109
20.342,157562,196,204160
20.347,157582,219,204219
20.352,157588,192,204245
20.357,157613,218,204221
20.362,157628,191,204224
20.367,157645,221,204217
20.372,157661,193,204226
20.377,157693,213,204221
20.381,157727,189,204227
20.386,157732,215,204229
20.391,157770,191,204220
20.396,157792,211,204209
20.401,157831,188,204153
20.406,157863,213,204074
20.411,157852,190,204055
20.416,157888,220,204024
20.421,157921,191,204031
20.426,157931,223,204043
20.431,157969,191,204051
20.436,158005,224,204088
20.441,158029,193,204114
20.446,158047,216,204112
20.451,158076,193,204089
20.456,158107,219,204065
20.461,158120,189,204010
20.466,158123,218,203971
20.471,158158,189,203922
20.476,158165,217,203889
20.481,158188,190,203857
20.486,158206,217,203840
20.491,158212,190,203816
20.496,158246,215,203800
20.501,158244,189,203800
20.505,158279,216,203820
20.510,158291,190,203872
20.515,158316,209,203913
20.520,158342,192,203944
20.525,158365,210,203991
20.530,158370,194,204026
20.535,158386,213,204043
20.540,158418,196,204077
20.545,158427,217,204106
20.550,158450,197,204181
20.555,158474,224,204224
20.560,158494,195,204253
20.565,158522,226,204275
20.570,158539,196,204329
20.575,158560,227,204363
20.580,158581,197,204401
20.585,158611,229,204440
20.590,158621,198,204494
20.595,158639,229,204545
20.600,158655,197,204608
20.605,158674,226,204664
20.610,158674,198,204713
20.615,158668,226,204767
20.620,158682,200,204852
20.624,158672,227,204902
20.629,158669,200,204955
20.634,158668,226,204971
20.639,158661,202,204991
20.644,158671,225,204993
20.649,158639,205,204982
20.654,158657,221,204991
20.659,158679,206,204987
20.664,158675,220,204990
20.669,158694,208,204995
20.674,158712,219,204987
20.679,158718,202,205004
20.684,158729,220,205026
20.689,158745,204,205072
20.694,158735,219,205122
20.699,158746,210,205174
20.704,158749,216,205206
20.709,158763,211,205227
20.714,158775,214,205227
20.719,158767,212,205225
20.724,158758,215,205230
20.729,158790,215,205268
20.734,158779,214,205276
20.739,158805,208,205291
20.744,158785,214,205287
20.748,158802,209,205346
20.753,158795,212,205395
20.758,158806,211,205429
20.763,158818,212,205424
20.768,158803,212,205440
20.773,158814,212,205453
20.778,158811,214,205453
20.783,158824,205,205469
20.788,158822,217,205484
20.793,158824,207,205492
20.798,158830,216,205505
20.803,158837,204,205487
20.808,158847,219,205534
20.813,158856,204,205537
20.818,158846,214,205563
20.823,158862,207,205573
20.828,158865,219,205588
20.833,158872,202,205610
20.838,158872,223,205625
20.843,158883,204,205630
20.848,158882,221,205621
20.853,158878,201,205657
20.858,158923,225,205670
20.863,158910,202,205673
20.868,158914,229,205707
20.872,158918,202,205742
20.877,158944,220,205779
20.882,158922,203,205806
20.887,158932,224,205851
20.892,158936,201,205902
20.897,158957,229,205908
20.902,158964,201,205936
20.907,158970,223,205962
20.912,158979,201,205982
20.917,158986,223,206013
20.922,159002,200,206052
20.927,159012,225,206079
20.932,159032,201,206129
20.937,159056,227,206162
20.942,159087,198,206222
20.947,159085,234,206272
20.952,159099,198,206327
20.957,159100,226,206373
20.962,159133,199,206423
20.967,159124,227,206457
20.972,159128,199,206487
20.977,159145,228,206511
20.982,159159,200,206527
20.987,159156,230,206545
20.992,159167,196,206567
20.996,159183,227,206582
21.001,159198,198,206620
21.006,159215,229,206668
21.011,159214,198,206676
21.016,159222,229,206714
21.021,159238,201,206725
21.026,159245,232,206746
21.031,159251,194,206778
21.036,159239,234,206791
21.041,159260,191,206796
21.046,159243,227,206819
21.051,159231,196,206816
21.056,159239,229,206821
21.061,159224,198,206843
21.066,159210,229,206849
21.071,159204,199,206845
21.076,159198,230,206845
21.081,159199,193,206845
21.086,159182,231,206822
21.091,159189,197,206846
21.096,159180,228,206845
21.101,159178,197,206845
21.106,159187,228,206838
21.111,159190,199,206848
21.116,159176,230,206856
21.120,159170,194,206855
21.125,159176,231,206821
21.130,159160,194,206833
21.135,159164,230,206823
21.140,159153,199,206842
21.145,159163,228,206856
21.150,159147,193,206861
21.155,159149,227,206851
21.160,159161,194,206865
21.165,159150,228,206865
21.170,159154,195,206879
21.175,159144,229,206905
21.180,159150,197,206921
21.185,159145,225,206920
21.190,159139,197,206909
21.195,159145,229,206896
21.200,159148,197,206892
21.205,159161,228,206878
21.210,159140,199,206865
21.215,159155,221,206872
21.220,159162,201,206867
21.225,159149,220,206869
21.230,159151,202,206859
21.235,159141,225,206874
21.240,159157,201,206881
21.244,159163,218,206893
21.249,159170,202,206892
21.254,159166,217,206896
21.259,159154,204,206863
21.264,159140,218,206863
21.269,159140,199,206835
21.274,159132,219,206850
21.279,159113,201,206830
21.284,159116,217,206828
21.289,159104,200,206833
21.294,159116,217,206843
21.299,159100,202,206816
21.304,159101,219,206803
21.309,159087,204,206775
21.314,159087,218,206786
21.319,159086,205,206780
21.324,159083,218,206746
21.329,159085,206,206738
21.334,159088,201,206745
21.339,159068,210,206737
21.344,159066,212,206763
21.349,159082,205,206767
21.354,159083,213,206756
21.359,159070,208,206754
21.364,159069,213,206714
21.368,159070,208,206718
21.373,159060,212,206694
21.378,159060,210,206689
21.383,159063,208,206658
21.388,159049,208,206662
21.393,159051,208,206649
21.398,159060,208,206645
21.403,159040,207,206653
21.408,159048,209,206663
21.413,159055,206,206657
21.418,159062,210,206672
21.423,159035,205,206670
21.428,159060,212,206668
21.433,159055,203,206649
21.438,159057,211,206639
21.443,159048,205,206599
21.448,159042,215,206597
21.453,159037,199,206569
21.458,159048,217,206604
21.463,159058,199,206586
21.468,159059,220,206587
21.473,159063,200,206601
21.478,159074,214,206593
21.483,159066,198,206620
21.488,159064,220,206592
21.492,159064,198,206578
21.497,159062,222,206552
21.502,159061,198,206547
21.507,159045,214,206538
21.512,159045,198,206519
21.517,159058,216,206503
21.522,159026,199,206476
21.527,159046,218,206449
21.532,159021,196,206450
21.537,159016,215,206443
21.542,159017,197,206447
21.547,159015,216,206444
21.552,159012,198,206453
21.557,159024,218,206466
21.562,159004,192,206489
21.567,159012,221,206503
21.572,159011,192,206524
21.577,159002,219,206507
21.582,158983,191,206512
21.587,158975,221,206494
21.592,158977,192,206477
21.597,158940,223,206450
21.602,158943,193,206433
21.607,158939,226,206422
21.611,158925,194,206406
21.616,158919,218,206392
21.621,158906,195,206363
21.626,158916,219,206393
21.631,158906,192,206351
21.636,158883,225,206372
21.641,158889,192,206394
21.646,158893,225,206389
21.651,158860,192,206372
21.656,158853,225,206322
21.661,158827,192,206263
21.666,158813,226,206212
21.671,158806,192,206150
21.676,158789,224,206130
21.681,158764,192,206102
21.686,158763,226,206077
21.691,158755,193,206062
21.696,158742,218,206036
21.701,158730,193,206051
21.706,158733,218,206039
21.711,158719,194,206021
21.716,158717,218,205995
21.721,158699,188,206015
21.726,158700,215,206047
21.731,158691,193,206081
21.735,158690,216,206103
21.740,158676,195,206128
21.745,158655,216,206126
21.750,158674,190,206146
21.755,158638,219,206133
21.760,158645,192,206137
21.765,158621,211,206133
21.770,158645,194,206109
21.775,158613,215,206047
21.780,158630,191,206000
21.785,158606,208,205992
21.790,158605,193,205991
21.795,158612,209,206042
21.800,158601,195,206040
21.805,158570,208,206078
21.810,158575,188,206106
21.815,158579,210,206142
21.820,158550,190,206157
21.825,158568,208,206172
21.830,158548,190,206166
21.835,158536,202,206152
21.840,158535,192,206166
21.845,158519,202,206136
21.850,158526,193,206175
21.855,158541,202,206165
21.859,158544,195,206190
21.864,158558,202,206240
21.869,158580,191,206265
21.874,158578,199,206307
21.879,158591,193,206322
21.884,158589,198,206403
21.889,158640,193,206462
21.894,158652,198,206465
21.899,158666,194,206441
21.904,158667,198,206399
21.909,158675,188,206385
21.914,158703,198,206378
21.919,158741,189,206433
21.924,158742,200,206464
21.929,158743,191,206456
21.934,158731,199,206433
21.939,158748,190,206436
21.944,158746,199,206430
21.949,158748,192,206462
21.954,158733,191,206469
21.959,158725,193,206455
21.964,158713,191,206436
21.969,158712,190,206379
21.974,158704,195,206332
21.979,158687,191,206284
21.983,158683,196,206283
21.988,158679,192,206280
21.993,158676,189,206269
21.998,158673,193,206259
22.003,158661,196,206241
22.008,158641,193,206217
22.013,158648,195,206205
22.018,158626,196,206175
22.023,158614,190,206164
22.028,158603,198,206104
22.033,158591,191,206052
22.038,158580,192,206050
22.043,158571,191,206025
22.048,158549,193,205990
22.053,158536,192,205946
22.058,158520,195,205939
22.063,158488,193,205925
22.068,158494,193,205935
22.073,158495,189,205936
22.078,158488,194,205930
22.083,158481,189,205924
22.088,158482,195,205911
22.093,158483,190,205921
22.098,158464,196,205922
22.103,158465,191,205955
22.107,158483,198,205973
22.112,158458,185,206004
22.117,158449,196,206005
22.122,158448,190,206028
22.127,158446,198,206027
22.132,158432,184,206004
22.137,158446,201,206047
22.142,158436,186,206088
22.147,158441,197,206138
22.152,158452,188,206177
22.157,158437,199,206155
22.162,158403,187,206121
22.167,158397,198,206004
22.172,158368,189,205893
22.177,158342,200,205778
22.182,158320,183,205731
22.187,158282,202,205668
22.192,158253,184,205588
22.197,158224,204,205470
22.202,158165,185,205377
22.207,158121,199,205331
22.212,158078,184,205286
22.217,158048,203,205246
22.222,158020,185,205188
22.227,157980,205,205096
22.231,157945,186,205044
22.236,157919,200,204976
22.241,157890,189,204945
22.246,157872,203,204927
22.251,157841,183,204952
22.256,157828,204,204976
22.261,157833,188,205045
22.266,157792,201,205079
22.271,157789,182,205063
22.276,157783,203,205063
22.281,157750,183,205036
22.286,157724,205,204999
22.291,157714,184,204968
22.296,157704,206,204920
22.301,157689,186,204894
22.306,157668,201,204868
22.311,157662,184,204833
22.316,157653,205,204840
22.321,157647,186,204843
22.326,157653,200,204862
22.331,157672,187,204877
22.336,157647,201,204892
22.341,157650,188,204924
22.346,157644,202,204939
22.351,157656,182,204955
22.355,157639,203,204998
22.360,157641,188,204996
22.365,157649,201,205012
22.370,157649,190,205003
22.375,157648,203,204994
22.380,157641,183,204947
22.385,157633,204,204930
22.390,157628,185,204931
22.395,157626,204,204928
22.400,157615,186,204896
22.405,157602,212,204878
22.410,157577,184,204881
22.415,157571,202,204891
22.420,157563,185,204895
22.425,157549,202,204845
22.430,157542,186,204793
22.435,157517,203,204707
22.440,157496,187,204650
22.445,157469,196,204600
22.450,157465,189,204589
22.455,157482,200,204576
22.460,157444,191,204529
22.465,157439,199,204517
22.470,157428,185,204494
22.474,157410,199,204474
22.479,157390,186,204472
22.484,157380,199,204433
22.489,157376,188,204449
22.494,157370,194,204439
22.499,157367,190,204439
22.504,157376,194,204416
22.509,157346,186,204448
22.514,157347,197,204485
22.519,157336,187,204505
22.524,157333,197,204515
22.529,157318,188,204534
22.534,157302,197,204517
22.539,157308,189,204481
22.544,157290,191,204457
22.549,157259,192,204386
22.554,157240,195,204327
22.559,157242,189,204269
22.564,157225,197,204241
22.569,157220,190,204217
22.574,157217,197,204246
22.579,157231,192,204268
22.584,157219,189,204301
22.589,157236,192,204329
22.594,157265,190,204383
22.598,157267,193,204407
22.603,157268,195,204403
22.608,157274,192,204380
22.613,157251,188,204351
22.618,157238,195,204323
22.623,157218,191,204311
22.628,157183,190,204242
22.633,157123,193,204200
22.638,157070,193,204143
22.643,157011,193,204036
22.648,156938,194,203943
22.653,156869,191,203862
22.658,156827,192,203807
22.663,156753,192,203719
22.668,156733,193,203639
22.673,156673,192,203505
22.678,156616,195,203361
22.683,156578,186,203269
22.688,156546,197,203237
22.693,156509,186,203249
22.698,156500,191,203241
22.703,156491,191,203323
22.708,156477,194,203367
22.713,156445,191,203368
22.718,156416,194,203382
22.722,156385,190,203336
22.727,156361,195,203281
22.732,156331,190,203242
22.737,156295,196,203209
22.742,156282,183,203182
22.747,156257,193,203146
22.752,156232,187,203125
22.757,156209,194,203146
22.762,156201,187,203187
22.767,156197,193,203253
22.772,156198,187,203315
22.777,156212,195,203392
22.782,156226,188,203487
22.787,156238,195,203550
22.792,156234,188,203573
22.797,156258,194,203594
22.802,156228,189,203601
22.807,156233,196,203588
22.812,156218,181,203531
22.817,156212,197,203501
22.822,156219,181,203491
22.827,156229,199,203554
22.832,156233,184,203639
22.837,156276,194,203756
22.842,156300,185,203850
22.846,156300,198,203874
22.851,156301,182,203848
22.856,156268,198,203753
22.861,156215,183,203640
22.866,156171,191,203569
22.871,156142,182,203536
22.876,156131,191,203527
22.881,156087,183,203492
22.886,156069,191,203439
22.891,156027,184,203433
22.896,155983,196,203453
22.901,155971,181,203517
22.906,155955,190,203556
22.911,155932,183,203539
22.916,155895,191,203490
22.921,155858,183,203436
22.926,155794,191,203350
22.931,155754,184,203253
22.936,155697,190,203183
22.941,155657,183,203124
22.946,155656,194,203121
22.951,155672,180,203136
22.956,155690,187,203148
22.961,155740,183,203183
22.966,155759,189,203184
22.970,155805,176,203236
22.975,155848,190,203297
22.980,155890,177,203379
22.985,155940,192,203472
22.990,155968,184,203501
22.995,155998,190,203598
23.000,155988,178,203653
23.005,155999,191,203714
23.010,155998,179,203740
23.015,156001,185,203753
23.020,156001,181,203795
23.025,155985,186,203811
23.030,155990,182,203846
23.035,156005,187,203873
23.040,156013,180,203901
23.045,156039,185,203896
23.050,156045,182,203877
23.055,156047,185,203849
23.060,156011,182,203769
23.065,155996,186,203680
23.070,155966,184,203567
23.075,155924,188,203441
23.080,155882,187,203317
23.085,155842,190,203200
23.090,155805,185,203055
23.094,155781,188,202957
23.099,155775,188,202862
23.104,155765,190,202751
23.109,155752,190,202681
23.114,155740,193,202618
23.119,155727,184,202543
23.124,155705,195,202470
23.129,155666,188,202318
23.134,155623,199,202174
23.139,155599,191,202061
23.144,155540,198,201978
23.149,155509,197,201955
23.154,155503,200,202016
23.159,155486,200,202036
23.164,155470,202,202047
23.169,155479,203,202082
23.174,155468,203,202109
23.179,155466,198,202131
23.184,155445,205,202124
23.189,155431,196,202087
23.194,155422,202,202065
23.199,155423,197,202050
23.204,155416,201,202061
23.209,155422,197,202094
23.214,155445,193,202137
23.218,155454,197,202180
23.223,155453,192,202211
23.228,155456,189,202212
23.233,155459,192,202227
23.238,155459,195,202247
23.243,155482,188,202305
23.248,155489,187,202367
23.253,155518,189,202392
23.258,155526,187,202447
23.263,155559,181,202567
23.268,155611,189,202743
23.273,155652,182,202886
23.278,155676,183,202992
23.283,155679,187,203065
23.288,155667,188,203106
23.293,155645,181,203161
23.298,155635,182,203227
23.303,155632,182,203299
23.308,155633,184,203371
23.313,155630,185,203422
23.318,155612,186,203425
23.323,155584,179,203389
23.328,155571,188,203340
23.333,155522,184,203281
23.338,155522,187,203256
23.342,155518,179,203181
23.347,155515,190,203150
23.352,155478,179,203049
23.357,155449,191,203026
23.362,155439,180,202969
23.367,155404,194,202940
23.372,155359,182,202945
23.377,155309,188,202946
23.382,155271,181,202918
23.387,155207,195,202822
23.392,155131,183,202751
23.397,155049,192,202672
23.402,155010,185,202646
23.407,154965,195,202675
23.412,154974,188,202716
23.417,154943,197,202707
23.422,154937,182,202693
23.427,154954,199,202683
23.432,154995,177,202727
23.437,155012,195,202790
23.442,155070,186,202826
23.447,155122,195,202841
23.452,155155,187,202814
23.457,155190,196,202816
23.461,155218,181,202812
23.466,155216,197,202817
23.471,155243,182,202842
23.476,155242,191,202858
23.481,155225,177,202868
23.486,155195,195,202857
23.491,155184,180,202864
23.496,155184,188,202860
23.501,155152,181,202856
23.506,155154,189,202829
23.511,155137,183,202801
23.516,155136,190,202810
23.521,155136,177,202836
23.526,155172,192,202935
23.531,155211,183,203019
23.536,155223,190,203108
23.541,155268,176,203205
23.546,155291,191,203312
23.551,155345,177,203415
23.556,155361,192,203460
23.561,155380,178,203454
23.566,155351,194,203401
23.571,155339,180,203374
23.576,155337,191,203410
23.581,155308,178,203372
23.585,155310,194,203392
23.590,155317,181,203417
23.595,155309,189,203449
23.600,155299,183,203475
23.605,155299,192,203506
23.610,155291,186,203538
23.615,155299,194,203583
23.620,155269,181,203688
23.625,155294,193,203698
23.630,155200,188,203718
23.635,155179,196,203686
23.640,155138,182,203638
23.645,155097,198,203591
23.650,155087,183,203515
23.655,155058,191,203488
23.660,155053,185,203441
23.665,155078,191,203489
23.670,155103,186,203555
23.675,155135,188,203665
23.680,155165,184,203812
23.685,155211,188,203963
23.690,155245,178,204066
23.695,155253,189,204118
23.700,155266,179,204129
23.705,155261,190,204085
23.709,155268,180,204047
23.714,155251,190,203969
23.719,155229,181,203901
23.724,155191,189,203873
23.729,155179,181,203878
23.734,155167,183,203877
23.739,155161,183,203904
23.744,155142,184,203926
23.749,155144,185,204001
23.754,155133,184,204069
23.759,155130,177,204139
23.764,155146,186,204170
23.769,155127,179,204197
23.774,155135,183,204195
23.779,155147,185,204220
23.784,155134,184,204262
23.789,155127,179,204256
23.794,155126,186,204284
23.799,155126,181,204312
23.804,155119,188,204340
23.809,155117,183,204341
23.814,155101,182,204355
23.819,155109,186,204327
23.824,155084,187,204286
23.829,155063,183,204223
23.833,155048,188,204166
23.838,155018,185,204096
23.843,154999,181,204019
23.848,154960,186,203949
23.853,154943,182,203883
23.858,154933,187,203836
23.863,154924,183,203833
23.868,154912,183,203850
23.873,154928,185,203905
23.878,154915,184,203952
23.883,154932,186,204001
23.888,154917,185,204003
23.893,154911,186,204022
23.898,154902,186,204043
23.903,154902,187,204038
23.908,154882,186,204045
23.913,154889,179,204052
23.918,154923,182,204054
23.923,154899,184,204083
23.928,154930,185,204119
23.933,154943,177,204193
23.938,154955,187,204271
23.943,154980,178,204322
23.948,155001,188,204364
23.953,155012,179,204446
23.957,155069,189,204523
23.962,155125,180,204632
23.967,155139,187,204705
23.972,155163,178,204697
23.977,155159,188,204674
23.982,155133,180,204662
23.987,155152,183,204665
23.992,155121,181,204676
23.997,155129,185,204705
24.002,155140,184,204738
24.007,155127,187,204749
24.012,155112,177,204769
24.017,155154,187,204887
24.022,155165,180,204934
24.027,155192,184,205031
24.032,155210,182,205119
24.037,155240,186,205178
24.042,155252,184,205246
24.047,155299,187,205290
24.052,155317,177,205321
24.057,155342,190,205360
24.062,155367,178,205369
24.067,155403,187,205395
24.072,155396,176,205418
24.077,155416,191,205423
24.081,155426,180,205442
24.086,155444,186,205495
24.091,155467,182,205606
24.096,155513,188,205740
24.101,155552,185,205851
24.106,155572,191,205900
24.111,155583,178,205935
24.116,155603,194,205957
24.121,155624,181,205978
24.126,155616,189,205996
24.131,155624,183,206014
24.136,155635,191,206049
24.141,155645,177,206089
24.146,155672,193,206144
24.151,155683,180,206210
24.156,155690,187,206279
24.161,155705,183,206270
24.166,155714,189,206292
24.171,155694,176,206248
24.176,155679,190,206248
24.181,155698,177,206318
24.186,155710,192,206422
24.191,155750,178,206501
24.196,155749,185,206548
24.201,155742,180,206510
24.205,155701,186,206454
24.210,155669,177,206378
24.215,155667,184,206326
24.220,155649,180,206297
24.225,155638,185,206282
24.230,155626,175,206284
24.235,155605,187,206278
24.240,155619,177,206279
24.245,155628,183,206344
24.250,155654,179,206405
24.255,155685,184,206515
24.260,155729,179,206601
24.265,155755,184,206717
24.270,155794,183,206858
24.275,155826,187,206984
24.280,155864,177,207093
24.285,155895,189,207184
24.290,155931,179,207260
24.295,155949,183,207314
24.300,155993,181,207350
24.305,156018,186,207333
24.310,156028,180,207267
24.315,156026,184,207221
24.320,156022,182,207160
24.324,156011,186,207088
24.329,155999,185,207030
24.334,155985,188,206976
24.339,155976,179,206967
24.344,155950,190,206896
24.349,155933,181,206801
24.354,155913,192,206690
24.359,155892,180,206622
24.364,155884,190,206594
24.369,155888,182,206614
24.374,155895,192,206610
24.379,155886,184,206585
24.384,155867,187,206550
24.389,155837,187,206476
24.394,155812,188,206397
24.399,155782,189,206309
24.404,155736,190,206216
24.409,155727,188,206111
24.414,155713,189,206017
24.419,155696,183,205926
24.424,155686,191,205853
24.429,155672,185,205779
24.434,155673,192,205735
24.439,155650,187,205719
24.444,155665,186,205729
24.448,155665,189,205776
24.453,155680,187,205818
24.458,155683,187,205870
24.463,155692,184,205859
24.468,155688,188,205833
24.473,155677,184,205800
24.478,155667,188,205778
24.483,155662,183,205743
24.488,155669,188,205703
24.493,155654,183,205666
24.498,155635,189,205646
24.503,155659,187,205653
24.508,155656,183,205634
24.513,155680,185,205603
24.518,155686,183,205583
24.523,155701,185,205586
24.528,155713,184,205602
24.533,155749,185,205643
24.538,155772,185,205660
24.543,155807,178,205738
24.548,155828,186,205786
24.553,155882,184,205907
24.558,155908,189,206002
24.563,155926,181,206091
24.568,155969,183,206168
24.572,155983,184,206200
24.577,156001,187,206186
24.582,155998,180,206132
24.587,156003,183,206076
24.592,155993,182,206037
24.597,155977,185,205996
24.602,155988,181,205982
24.607,155979,184,206000
24.612,155997,183,206010
24.617,156019,186,206099
24.622,156028,184,206181
24.627,156053,188,206273
24.632,156066,178,206324
24.637,156107,191,206383
24.642,156121,180,206387
24.647,156143,192,206398
24.652,156126,181,206381
24.657,156112,187,206332
24.662,156093,183,206211
24.667,156070,188,206114
24.672,156035,178,206028
24.677,155985,191,205978
24.682,155971,180,206023
24.687,155967,186,206095
24.692,155934,182,206173
24.696,155886,188,206159
24.701,155842,180,206150
24.706,155814,187,206119
24.711,155773,184,206096
24.716,155728,190,206088
24.721,155706,177,206052
24.726,155681,192,205969
24.731,155610,179,205871
24.736,155604,186,205784
24.741,155575,182,205727
24.746,155566,189,205728
24.751,155570,181,205717
24.756,155555,187,205721
24.761,155567,176,205706
24.766,155553,190,205693
24.771,155566,179,205718
24.776,155544,185,205721
24.781,155548,174,205767
24.786,155527,189,205789
24.791,155530,178,205843
24.796,155513,187,205907
24.801,155530,178,205970
24.806,155518,182,206009
24.811,155534,173,206048
24.816,155525,186,206073
24.820,155533,176,206131
24.825,155561,182,206147
24.830,155583,180,206198
24.835,155600,185,206220
24.840,155617,175,206260
24.845,155640,184,206277
24.850,155650,175,206263
24.855,155696,180,206269
24.860,155761,178,206288
24.865,155816,183,206324
24.870,155854,175,206374
24.875,155895,180,206443
24.880,155923,179,206481
24.885,155937,184,206500
24.890,155932,175,206494
24.895,155951,186,206453
24.900,155901,178,206425
24.905,155885,183,206393
24.910,155848,175,206327
24.915,155821,187,206224
24.920,155774,178,206138
24.925,155750,183,206033
24.930,155746,182,205972
24.935,155739,186,205932
24.940,155745,177,205916
24.944,155751,182,205922
24.949,155761,181,205978
24.954,155754,184,206011
24.959,155740,175,206019
24.964,155715,187,206013
24.969,155705,179,205980
24.974,155666,182,205923
24.979,155646,182,205883
24.984,155643,185,205835
24.989,155629,176,205795
24.994,155617,183,205746
24.999,155611,176,205710
25.004,155606,185,205713
25.009,155588,178,205732
25.014,155615,181,205752
25.019,155629,183,205799
25.024,155639,183,205857
25.029,155637,177,205886
25.034,155644,187,205925
25.039,155663,182,205953
25.044,155682,186,206020
25.049,155683,181,206027
25.054,155706,182,206039
25.059,155722,177,206025
25.064,155775,185,206058
25.068,155794,180,206061
25.073,155816,179,206059
25.078,155827,183,206040
25.083,155845,182,206034
25.088,155868,179,206012
25.093,155822,180,205992
25.098,155810,185,205987
25.103,155800,184,205985
25.108,155793,181,205988
25.113,155774,180,205971
25.118,155764,186,205943
25.123,155762,183,205928
25.128,155761,182,205901
25.133,155749,180,205855
25.138,155717,181,205804
25.143,155686,179,205737
25.148,155676,185,205704
25.153,155642,182,205642
25.158,155607,181,205548
25.163,155575,184,205468
25.168,155542,183,205389
25.173,155500,180,205348
25.178,155487,187,205316
25.183,155504,182,205278
25.188,155474,187,205250
25.192,155463,181,205191
25.197,155464,181,205136
25.202,155462,184,205094
25.207,155478,184,205076
25.212,155490,178,205044
25.217,155483,186,205077
25.222,155501,180,205120
25.227,155522,189,205142
25.232,155530,182,205196
25.237,155529,184,205218
25.242,155543,178,205236
25.247,155535,189,205231
25.252,155538,181,205245
25.257,155542,184,205260
25.262,155566,184,205322
25.267,155569,186,205372
25.272,155587,178,205400
25.277,155603,182,205437
25.282,155621,182,205465
25.287,155632,182,205468
25.292,155642,182,205501
25.297,155670,186,205557
25.302,155678,177,205570
25.307,155711,189,205607
25.311,155696,180,205597
25.316,155716,184,205615
25.321,155723,175,205627
25.326,155708,188,205644
25.331,155721,181,205728
25.336,155727,188,205657
25.341,155721,178,205609
25.346,155711,183,205564
25.351,155720,181,205537
25.356,155708,185,205560
25.361,155725,177,205563
25.366,155730,182,205615
25.371,155732,180,205666
25.376,155745,184,205711
25.381,155795,178,205719
25.386,155752,184,205727
25.391,155764,174,205756
25.396,155761,188,205772
25.401,155782,177,205778
25.406,155780,183,205741
25.411,155768,181,205697
25.416,155755,187,205648
25.421,155753,176,205597
25.426,155744,182,205558
25.431,155753,175,205562
25.435,155778,189,205532
25.440,155785,179,205526
25.445,155815,184,205542
25.450,155842,174,205564
25.455,155868,188,205613
25.460,155875,177,205645
25.465,155891,184,205682
25.470,155906,174,205707
25.475,155905,188,205724
25.480,155938,171,205727
25.485,155931,183,205744
25.490,155944,181,205768
25.495,155975,186,205781
25.500,155998,175,205815
25.505,156027,189,205833
25.510,156037,178,205868
25.515,156078,184,205931
25.520,156091,174,205970
25.525,156087,185,206012
25.530,156105,181,206028
25.535,156101,186,206019
25.540,156103,176,206024
25.545,156095,181,206002
25.550,156096,179,205992
25.555,156101,184,205988
25.559,156106,175,205987
25.564,156088,188,205986
25.569,156110,178,205996
25.574,156114,183,206012
25.579,156124,178,206008
25.584,156124,183,206051
25.589,156129,180,206082
25.594,156121,184,206094
25.599,156133,175,206104
25.604,156130,187,206094
25.609,156123,178,206092
25.614,156118,182,206092
25.619,156110,174,206056
25.624,156108,189,206044
25.629,156103,177,206005
25.634,156095,181,205991
25.639,156099,182,205971
25.644,156106,184,205973
25.649,156103,176,206008
25.654,156129,179,206037
25.659,156154,179,206075
25.664,156165,182,206122
25.669,156165,175,206172
25.674,156170,180,206202
25.679,156208,179,206227
25.683,156224,181,206215
25.688,156233,175,206219
25.693,156237,184,206215
25.698,156242,178,206224
25.703,156266,180,206214
25.708,156277,182,206241
25.713,156305,182,206252
25.718,156327,177,206302
25.723,156360,183,206370
25.728,156383,178,206413
25.733,156398,179,206439
25.738,156426,183,206486
25.743,156453,184,206511
25.748,156457,181,206553
25.753,156481,181,206581
25.758,156498,178,206586
25.763,156499,186,206549
25.768,156504,182,206530
25.773,156504,181,206490
25.778,156509,185,206452
25.783,156516,185,206456
25.788,156552,181,206426
25.793,156579,181,206472
25.798,156584,186,206531
25.803,156628,185,206603
25.807,156644,182,206664
25.812,156676,189,206757
25.817,156663,189,206779
25.822,156682,189,206821
25.827,156671,187,206833
25.832,156671,185,206795
25.837,156656,192,206705
25.842,156638,189,206672
25.847,156637,189,206650
25.852,156656,185,206632
25.857,156662,193,206628
25.862,156683,190,206666
25.867,156678,191,206689
25.872,156691,191,206729
25.877,156710,192,206817
25.882,156724,196,206877
25.887,156752,198,206934
25.892,156762,192,206931
25.897,156744,196,206941
25.902,156746,196,206948
25.907,156732,201,206971
25.912,156734,194,206969
25.917,156734,203,206984
25.922,156728,196,206967
25.927,156703,211,206967
25.931,156716,200,206971
25.936,156722,212,207046
25.941,156736,204,207119
25.946,156743,219,207248
25.951,156752,200,207304
25.956,156765,215,207319
25.961,156736,203,207285
25.966,156710,221,207226
25.971,156700,200,207141
25.976,156677,214,207051
25.981,156661,196,206998
25.986,156661,217,206976
25.991,156675,197,207002
25.996,156665,222,207000
26.001,156680,199,207023
26.006,156671,219,207054
26.011,156683,203,207087
26.016,156685,221,207092
26.021,156690,202,207138
26.026,156683,227,207121
26.031,156680,198,207097
26.036,156672,234,207076
26.041,156662,202,207053
26.046,156659,235,207000
26.051,156651,200,206964
26.055,156644,245,206922
26.060,156615,204,206863
26.065,156658,246,206858
26.070,156650,203,206863
26.075,156630,256,206865
26.080,156629,206,206891
26.085,156644,252,206938
26.090,156629,202,206911
26.095,156624,254,206911
26.100,156635,203,206924
26.105,156635,242,206928
26.110,156638,195,206934
26.115,156642,233,206939
26.120,156653,200,206896
26.125,156651,227,206868
26.130,156648,192,206827
26.135,156657,223,206803
26.140,156654,193,206795
26.145,156661,211,206773
26.150,156678,187,206753
26.155,156685,210,206747
26.160,156680,189,206758
26.165,156692,207,206769
26.170,156712,188,206798
26.174,156726,204,206838
26.179,156721,186,206869
26.184,156728,201,206893
26.189,156755,184,206900
26.194,156758,205,206857
26.199,156769,188,206858
26.204,156787,203,206833
26.209,156789,185,206811
26.214,156774,204,206775
26.219,156770,188,206726
26.224,156774,202,206737
26.229,156806,186,206744
26.234,156790,201,206760
26.239,156808,184,206808
26.244,156837,200,206812
26.249,156835,190,206852
26.254,156871,205,206854
26.259,156878,184,206921
26.264,156875,206,206907
26.269,156896,190,206890
26.274,156919,204,206878
26.279,156932,188,206869
26.284,156945,203,206892
26.289,156973,187,206955
26.294,157010,201,207014
26.298,157033,193,207109
26.303,157052,206,207185
26.308,157103,189,207294
26.313,157104,204,207313
26.318,157122,188,207367
26.323,157149,201,207367
26.328,157164,186,207392
26.333,157187,206,207426
26.338,157199,192,207445
26.343,157211,203,207423
26.348,157223,190,207375
26.353,157241,202,207375
26.358,157246,187,207386
26.363,157264,199,207417
26.368,157304,194,207431
26.373,157300,203,207431
26.378,157322,192,207423
26.383,157324,201,207426
26.388,157335,190,207434
26.393,157345,199,207436
26.398,157359,194,207429
26.403,157363,200,207417
26.408,157380,192,207428
26.413,157370,199,207415
26.418,157378,195,207392
26.422,157354,201,207367
26.427,157362,191,207367
26.432,157369,197,207422
26.437,157349,195,207456
26.442,157353,200,207459
26.447,157349,192,207468
26.452,157337,203,207470
26.457,157336,191,207456
26.462,157350,202,207464
26.467,157355,194,207472
26.472,157357,198,207459
26.477,157366,198,207456
26.482,157375,199,207433
26.487,157383,193,207423
26.492,157412,195,207407
26.497,157414,198,207427
26.502,157422,195,207415
26.507,157437,196,207418
26.512,157455,195,207431
26.517,157477,192,207492
26.522,157478,197,207507
26.527,157490,194,207536
26.532,157511,198,207571
26.537,157537,197,207581
26.542,157544,193,207625
26.546,157551,200,207646
26.551,157562,191,207668
26.556,157555,199,207658
26.561,157569,193,207678
26.566,157560,195,207655
26.571,157582,195,207633
26.576,157575,198,207633
26.581,157592,190,207610
26.586,157606,200,207632
26.591,157609,193,207629
26.596,157618,196,207601
26.601,157622,191,207591
26.606,157625,196,207576
26.611,157623,194,207557
26.616,157639,199,207540
26.621,157641,189,207531
26.626,157629,202,207518
26.631,157643,191,207477
26.636,157639,199,207447
26.641,157639,194,207417
26.646,157648,202,207362
26.651,157632,193,207334
26.656,157645,202,207312
26.661,157654,189,207271
26.666,157676,205,207251
26.670,157662,191,207218
26.675,157693,201,207192
26.680,157678,194,207189
26.685,157694,204,207158
26.690,157696,189,207105
26.695,157713,207,207109
26.700,157737,191,207109
26.705,157754,202,207100
26.710,157793,192,207072
26.715,157787,205,207064
26.720,157794,187,207028
26.725,157821,207,206950
26.730,157813,189,206911
26.735,157815,203,206864
26.740,157813,192,206853
26.745,157835,206,206820
26.750,157846,187,206778
26.755,157869,209,206743
26.760,157879,189,206730
26.765,157883,204,206729
26.770,157883,191,206715
26.775,157895,206,206721
26.780,157897,193,206714
26.785,157919,208,206722
26.790,157929,187,206776
26.794,157880,203,206828
26.799,157932,186,206868
26.804,157954,209,206887
26.809,157965,187,206894
26.814,157982,212,206899
26.819,157983,190,206927
26.824,157996,206,206953
26.829,158008,191,206982
26.834,158024,208,207001
26.839,158034,186,207045
26.844,158061,207,207095
26.849,158064,191,207172
26.854,158082,209,207235
26.859,158093,194,207325
26.864,158113,211,207387
26.869,158103,188,207455
26.874,158135,207,207506
26.879,158134,192,207578
26.884,158127,209,207632
26.889,158145,186,207691
26.894,158155,209,207748
26.899,158157,187,207801
26.904,158182,213,207849
26.909,158176,190,207902
26.914,158194,208,207924
26.918,158206,187,207955
26.923,158207,212,208015
26.928,158236,190,208070
26.933,158238,207,208108
26.938,158235,192,208139
26.943,158254,205,208195
26.948,158259,192,208237
26.953,158275,207,208278
26.958,158275,186,208296
26.963,158267,209,208292
26.968,158280,188,208306
26.973,158294,209,208325
26.978,158294,190,208318
26.983,158284,204,208304
26.988,158271,194,208300
26.993,158284,207,208314
26.998,158292,188,208335
27.003,158291,208,208351
27.008,158300,191,208376
27.013,158300,202,208394
27.018,158307,186,208391
27.023,158300,204,208378
27.028,158310,188,208401
27.033,158314,205,208393
27.038,158308,192,208341
27.042,158316,201,208379
27.047,158325,187,208359
27.052,158338,201,208348
27.057,158340,188,208334
27.062,158362,203,208336
27.067,158360,190,208368
27.072,158367,197,208412
27.077,158391,192,208452
27.082,158396,197,208485
27.087,158430,188,208519
27.092,158423,196,208556
27.097,158444,187,208547
27.102,158435,198,208542
27.107,158438,189,208544
27.112,158450,193,208520
27.117,158454,193,208496
27.122,158461,195,208438
27.127,158473,188,208400
27.132,158466,197,208357
27.137,158488,187,208378
27.142,158496,195,208369
27.147,158534,190,208397
27.152,158538,190,208425
27.157,158562,192,208486
27.161,158572,192,208546
27.166,158602,188,208645
27.171,158613,194,208721
27.176,158638,190,208775
27.181,158654,196,208850
27.186,158664,189,208893
27.191,158671,195,208920
27.196,158704,193,208971
27.201,158700,189,208979
27.206,158715,196,208985
27.211,158721,192,209002
27.216,158749,191,208988
27.221,158760,193,208990
27.226,158748,192,208954
27.231,158770,187,208975
27.236,158787,192,208981
27.241,158798,192,209012
27.246,158817,194,209068
27.251,158827,187,209069
27.256,158821,196,209110
27.261,158842,188,209152
27.266,158850,199,209205
27.271,158844,190,209226
27.276,158852,194,209258
27.281,158835,192,209268
27.285,158833,200,209251
27.290,158831,189,209228
27.295,158817,194,209199
27.300,158794,190,209160
27.305,158788,196,209122
27.310,158779,192,209084
27.315,158766,199,209029
27.320,158782,187,209019
27.325,158763,195,209005
27.330,158776,191,208966
27.335,158777,195,209002
27.340,158786,189,209026
27.345,158811,197,209044
27.350,158804,190,209068
27.355,158798,199,209063
27.360,158807,184,209065
27.365,158828,201,209065
27.370,158828,186,209045
27.375,158829,196,209008
27.380,158813,181,208965
27.385,158817,201,208935
27.390,158841,185,208915
27.395,158833,196,208899
27.400,158838,187,208894
27.405,158839,197,208898
27.409,158846,182,208914
27.414,158852,200,208907
27.419,158854,183,208932
27.424,158868,202,208956
27.429,158890,182,208977
27.434,158889,199,208991
27.439,158896,182,209039
27.444,158927,201,209038
27.449,158940,183,209033
27.454,158934,203,209030
27.459,158945,185,209006
27.464,158972,197,209016
27.469,158981,185,209028
27.474,159005,198,209021
27.479,159023,184,209014
27.484,159025,197,209010
27.489,159048,187,209006
27.494,159067,200,209003
27.499,159055,189,209039
27.504,159066,201,209011
27.509,159073,183,209019
27.514,159059,204,208996
27.519,159050,185,209003
27.524,159055,200,208969
27.529,159048,184,208963
27.533,159040,200,208939
27.538,159057,188,208954
27.543,159065,202,208998
27.548,159089,182,209013
27.553,159094,204,209038
27.558,159101,185,209065
27.563,159129,206,209088
27.568,159130,187,209082
27.573,159123,203,209061
27.578,159111,188,209051
27.583,159116,204,209046
27.588,159106,192,209068
27.593,159097,208,209108
27.598,159097,188,209167
27.603,159108,204,209194
27.608,159100,191,209241
27.613,159127,207,209310
27.618,159140,194,209387
27.623,159150,211,209404
27.628,159184,193,209560
27.633,159190,209,209622
27.638,159217,188,209688
27.643,159229,211,209719
27.648,159229,191,209761
27.653,159244,207,209788
27.657,159253,195,209836
27.662,159251,209,209848
27.667,159266,191,209876
27.672,159248,195,209887
27.677,159276,191,209901
27.682,159288,211,209927
27.687,159270,194,209946
27.692,159257,206,209962
27.697,159279,197,209980
27.702,159255,207,209982
27.707,159248,192,209981
27.712,159254,208,210001
27.717,159239,194,209991
27.722,159242,207,210000
27.727,159243,193,209953
27.732,159228,209,209945
27.737,159217,196,209928
27.742,159217,204,209932
27.747,159202,200,209913
27.752,159198,205,209903
27.757,159197,195,209891
27.762,159178,208,209881
27.767,159167,198,209868
27.772,159172,206,209849
27.777,159170,198,209857
27.781,159184,202,209861
27.786,159170,202,209836
27.791,159168,204,209813
27.796,159159,198,209793
27.801,159142,207,209776
27.806,159121,202,209754
27.811,159130,203,209742
27.816,159106,199,209725
27.821,159098,203,209721
27.826,159110,200,209711
27.831,159090,205,209678
27.836,159079,204,209685
27.841,159094,202,209686
27.846,159074,208,209692
27.851,159076,203,209702
27.856,159091,203,209702
27.861,159104,204,209703
27.866,159105,205,209737
27.871,159094,201,209761
27.876,159131,204,209792
27.881,159125,204,209794
27.886,159135,207,209801
27.891,159133,199,209787
27.896,159140,210,209770
27.901,159143,200,209755
27.905,159144,204,209773
27.910,159141,201,209785
27.915,159155,208,209782
27.920,159163,198,209801
27.925,159166,212,209810
27.930,159180,199,209793
27.935,159169,207,209791
27.940,159162,201,209795
27.945,159186,210,209791
27.950,159191,195,209817
27.955,159191,213,209822
27.960,159177,196,209833
27.965,159267,210,209833
27.970,159184,195,209830
27.975,159204,215,209846
27.980,159208,197,209893
27.985,159217,211,209895
27.990,159220,199,209915
27.995,159218,214,209913
28.000,159228,195,209935
28.005,159232,210,209958
28.010,159234,196,209978
28.015,159262,217,210037
28.020,159280,195,210043
28.025,159270,212,210056
28.029,159270,197,210064
28.034,159262,215,210051
28.039,159286,192,210095
28.044,159319,219,210093
28.049,159303,195,210084
28.054,159329,213,210058
28.059,159311,197,210042
28.064,159321,213,210006
28.069,159315,196,209952
28.074,159306,217,209891
28.079,159311,191,209828
28.084,159309,221,209827
28.089,159314,194,209841
28.094,159312,216,209900
28.099,159317,195,209989
28.104,159311,218,210008
28.109,159305,190,210017
28.114,159287,221,210004
28.119,159258,192,209988
28.124,159256,215,210028
28.129,159249,193,210014
28.134,159244,216,210037
28.139,159244,194,210103
28.144,159267,217,210122
28.148,159274,188,210142
28.153,159253,219,210117
28.158,159238,189,210094
28.163,159262,221,210084
28.168,159240,191,210080
28.173,159250,215,210052
28.178,159217,194,210040
28.183,159179,216,209948
28.188,159158,188,209871
28.193,159111,217,209780
28.198,159088,189,209770
28.203,159077,219,209731
28.208,159058,194,209796
28.213,159047,217,209678
28.218,159030,191,209662
28.223,159003,211,209644
28.228,158988,194,209602
28.233,158967,214,209595
28.238,158971,190,209561
28.243,158944,209,209554
28.248,158934,193,209563
28.253,158910,211,209539
28.258,158933,186,209526
28.263,158893,211,209499
28.268,158865,194,209468
28.272,158863,212,209460
28.277,158848,190,209446
28.282,158829,207,209436
28.287,158822,193,209436
28.292,158818,209,209428
28.297,158793,188,209403
28.302,158780,212,209385
28.307,158778,188,209369
28.312,158777,210,209338
28.317,158749,191,209302
28.322,158745,204,209268
28.327,158734,193,209254
28.332,158731,205,209278
28.337,158713,189,209276
28.342,158686,207,209231
28.347,158691,192,209188
28.352,158678,203,209145
28.357,158666,192,209145
28.362,158684,202,209168
28.367,158672,195,209147
28.372,158671,204,209168
28.377,158667,190,209153
28.382,158675,207,209133
28.387,158656,194,209156
28.392,158662,201,209170
28.396,158669,197,209170
28.401,158662,203,209154
28.406,158648,196,209160
28.411,158656,202,209155
28.416,158639,192,209130
28.421,158629,203,209109
28.426,158638,195,209095
28.431,158632,199,209076
28.436,158636,199,209089
28.441,158639,201,209046
28.446,158642,195,209050
28.451,158642,198,209036
28.456,158636,199,209057
28.461,158653,201,209058
28.466,158648,195,209049
28.471,158670,197,209074
28.476,158664,200,209076
28.481,158662,200,209047
28.486,158676,196,209052
28.491,158686,196,209072
28.496,158676,200,209063
28.501,158664,201,209015
28.506,158657,200,209058
28.511,158645,198,209048
28.516,158630,197,209021
28.520,158617,202,209019
28.525,158621,201,209024
28.530,158615,197,209014
28.535,158616,199,208999
28.540,158604,200,209007
28.545,158594,202,208985
28.550,158591,199,209014
28.555,158575,199,208975
28.560,158593,200,208982
28.565,158588,202,208982
28.570,158596,195,208978
28.575,158596,199,209011
28.580,158596,198,209016
28.585,158592,202,209040
28.590,158617,194,209071
28.595,158593,207,209057
28.600,158602,193,209057
28.605,158596,201,209046
28.610,158597,197,209034
28.615,158571,205,209033
28.620,158565,194,209003
28.625,158570,203,208970
28.630,158560,218,208976
28.635,158538,207,209002
28.640,158548,193,209001
28.644,158543,203,208993
28.649,158544,194,208986
28.654,158569,204,209022
28.659,158547,190,209047
28.664,158547,208,209031
28.669,158557,192,209017
28.674,158538,204,209019
28.679,158547,195,209009
28.684,158543,207,208971
28.689,158543,190,208984
28.694,158548,213,208971
28.699,158523,189,208987
28.704,158551,210,208996
28.709,158540,192,208981
28.714,158537,206,208960
28.719,158536,193,208964
28.724,158536,208,208944
28.729,158522,188,208957
28.734,158535,211,208949
28.739,158506,191,208945
28.744,158502,207,208966
28.749,158503,193,208966
28.754,158509,209,208989
28.759,158516,187,208986
28.764,158521,212,208996
28.768,158516,190,209012
28.773,158513,208,209016
28.778,158520,193,209009
28.783,158519,210,209006
28.788,158517,187,208997
28.793,158527,208,209042
28.798,158522,187,209013
28.803,158527,212,208999
28.808,158515,189,208980
28.813,158516,207,208985
28.818,158531,192,208987
28.823,158535,210,208989
28.828,158545,187,208990
28.833,158533,212,208987
28.838,158569,188,209001
28.843,158579,210,209023
28.848,158544,187,209014
28.853,158576,213,209026
28.858,158578,189,209046
28.863,158567,208,209036
28.868,158565,192,209045
28.873,158578,211,209035
28.878,158578,188,209040
28.883,158578,206,209035
28.888,158586,192,209054
28.892,158588,214,209055
28.897,158572,190,209069
28.902,158583,208,209070
28.907,158580,193,209072
28.912,158571,209,209082
28.917,158546,187,209078
28.922,158546,213,209071
28.927,158523,190,209063
28.932,158517,207,209045
28.937,158503,194,209027
28.942,158539,207,209000
28.947,158482,189,208994
28.952,158475,205,208957
28.957,158465,193,208948
28.962,158446,208,208899
28.967,158438,188,208894
28.972,158415,210,208840
28.977,158417,191,208794
28.982,158394,205,208782
28.987,158397,193,208786
28.992,158378,209,208759
28.997,158375,191,208746
29.002,158361,204,208701
29.007,158346,193,208683
29.011,158328,206,208705
29.016,158331,189,208677
29.021,158307,208,208654
29.026,158299,192,208642
29.031,158289,204,208610
29.036,158278,195,208572
29.041,158266,210,208555
29.046,158254,195,208538
29.051,158253,205,208508
29.056,158247,191,208490
29.061,158246,209,208484
29.066,158228,195,208468
29.071,158228,203,208439
29.076,158217,191,208408
29.081,158224,205,208394
29.086,158199,194,208344
29.091,158189,203,208300
29.096,158169,193,208277
29.101,158147,205,208239
29.106,158131,195,208204
29.111,158123,201,208182
29.116,158114,200,208141
29.121,158103,203,208102
29.126,158081,195,208076
29.131,158086,205,208042
29.135,158063,195,207987
29.140,158059,204,207956
29.145,158033,198,207880
29.150,158019,200,207814
29.155,158019,201,207776
29.160,157997,202,207706
29.165,157996,198,207642
29.170,157971,203,207550
29.175,157954,200,207495
29.180,157940,198,207428
29.185,157922,199,207352
29.190,157902,197,207289
29.195,157874,203,207201
29.200,157883,200,207140
29.205,157873,198,207095
29.210,157862,200,207033
29.215,157871,201,207012
29.220,157864,195,206974
29.225,157888,203,207002
29.230,157901,196,207017
