df_hash,22ZHK4.7HTV1R
device,HZ2X61
project_hash,29R7
project_name,istanbul_aydin_university
person_hash,29R7.BHA8
person_label,V76
date_time_start,2025-11-03_13-57-52.524000_+03
date_time_start_unix,1762163872.524
date_time_end,2025-11-03_14-06-10.311000_+03
length_difference_noticed,no

time,ppg_med
5.548,532
5.573,611
5.598,738
5.623,806
5.648,779
5.673,751
5.698,824
5.723,958
5.748,1009
5.773,926
5.798,839
5.823,884
5.848,1008
5.873,1016
5.898,839
5.923,652
5.948,642
5.973,734
5.998,667
6.023,353
6.048,24
6.073,-69
6.098,-26
6.123,-192
6.148,-682
6.173,-1185
6.198,-1376
6.223,-1383
6.248,-1655
6.273,-2336
6.298,-3026
6.323,-3299
6.348,-3325
6.373,-3675
6.398,-4534
6.423,-5384
6.448,-5686
6.473,-5654
6.498,-6013
6.523,-6991
6.548,-7935
6.573,-8164
6.598,-7948
6.623,-8198
6.648,-9199
6.673,-10129
6.698,-10137
6.723,-9563
6.748,-9545
6.773,-10438
6.798,-11218
6.823,-10824
6.848,-9680
6.873,-9209
6.898,-9856
6.923,-10344
6.948,-9352
6.973,-7409
6.998,-6298
7.023,-6581
7.048,-6664
7.073,-4887
7.098,-1915
7.123,0
7.148,133
7.173,497
7.198,3214
7.223,7439
7.248,10275
7.273,10760
7.298,11493
7.323,15260
7.348,20983
7.373,24803
7.398,25375
7.423,26184
7.448,31102
7.473,32767
7.498,32767
7.523,32767
7.548,32767
7.573,32767
7.598,32767
7.623,32767
7.648,32767
7.673,32767
7.698,32767
7.723,32767
7.748,32767
7.773,32767
7.798,14069
7.823,-32768
7.848,-32768
7.873,-32768
7.898,-32768
7.923,-32768
7.948,-32768
7.973,-32768
7.998,-32768
8.023,-32768
8.048,-32768
8.073,-32768
8.098,-32768
8.123,-32768
8.148,-32768
8.173,-27183
8.198,-24994
8.223,-24933
8.248,-22535
8.273,-17111
8.298,-12177
8.323,-10417
8.348,-10294
8.373,-8519
8.398,-4529
8.423,-938
8.448,206
8.473,53
8.498,1137
8.523,3920
8.548,6381
8.573,6912
8.598,6400
8.623,6845
8.648,8631
8.673,10164
8.698,10161
8.723,9323
8.748,9258
8.773,10302
8.798,11206
8.823,10936
8.848,10014
8.873,9679
8.898,10179
8.923,10527
8.948,9938
8.973,8867
8.998,8314
9.023,8457
9.048,8488
9.073,7775
9.098,6697
9.123,6071
9.148,6038
9.173,5942
9.198,5266
9.223,4310
9.248,3721
9.273,3615
9.298,3474
9.323,2891
9.348,2104
9.373,1628
9.398,1551
9.423,1460
9.448,1028
9.473,437
9.498,92
9.523,68
9.548,45
9.573,-239
9.598,-648
9.623,-857
9.648,-779
9.673,-640
9.698,-658
9.723,-779
9.748,-805
9.773,-683
9.798,-557
9.823,-554
9.848,-620
9.873,-616
9.898,-517
9.923,-428
9.948,-424
9.973,-451
9.998,-408
10.023,-291
10.048,-193
10.073,-175
10.098,-191
10.123,-160
10.148,-78
10.173,-17
10.198,-20
10.223,-46
10.248,-24
10.273,47
10.298,103
10.323,94
10.348,57
10.373,46
10.398,30
10.423,9
10.448,-30
10.473,-79
10.498,-106
10.523,-79
10.548,3
10.573,108
10.598,192
10.623,234
10.648,250
10.673,271
10.698,312
10.723,355
10.748,376
10.773,368
10.798,350
10.823,343
10.848,352
10.873,365
10.898,366
10.923,356
10.948,343
10.973,330
10.998,313
11.023,284
11.048,248
11.073,215
11.098,189
11.123,166
11.148,137
11.173,104
11.198,75
11.223,49
11.248,18
11.273,-26
11.298,-69
11.323,-78
11.348,-28
11.373,69
11.398,173
11.423,242
11.448,270
11.473,278
11.498,292
11.523,315
11.548,330
11.573,329
11.598,323
11.623,329
11.648,348
11.673,366
11.698,365
11.723,345
11.748,319
11.773,299
11.798,283
11.823,261
11.848,231
11.873,205
11.898,192
11.923,191
11.948,185
11.973,160
11.998,122
12.023,84
12.048,57
12.073,36
12.098,12
12.123,-11
12.148,-13
12.173,25
12.198,104
12.223,193
12.248,253
12.273,267
12.298,252
12.323,239
12.348,250
12.373,278
12.398,298
12.423,298
12.448,284
12.473,273
12.498,275
12.523,282
12.548,285
12.573,282
12.598,281
12.623,282
12.648,277
12.673,256
12.698,218
12.723,179
12.748,155
12.773,146
12.798,141
12.823,127
12.848,104
12.873,75
12.898,44
12.923,11
12.948,-12
12.973,-9
12.998,36
13.023,117
13.048,203
13.073,263
13.098,290
13.123,300
13.148,316
13.173,342
13.198,365
13.223,372
13.248,365
13.273,356
13.298,353
13.323,356
13.348,356
13.373,348
13.398,336
13.423,321
13.448,303
13.473,282
13.498,257
13.523,225
13.548,183
13.573,135
13.598,87
13.623,52
13.648,30
13.673,10
13.698,-19
13.723,-57
13.748,-80
13.773,-64
13.798,-8
13.823,67
13.848,132
13.873,174
13.898,204
13.923,233
13.948,267
13.973,297
13.998,315
14.023,320
14.048,321
14.073,324
14.098,328
14.123,331
14.148,331
14.173,327
14.198,320
14.223,310
14.248,297
14.273,277
14.298,249
14.323,214
14.348,183
14.373,163
14.398,150
14.423,129
14.448,88
14.473,36
14.498,8
14.523,36
14.548,119
14.573,218
14.598,288
14.623,313
14.648,314
14.673,317
14.698,331
14.723,339
14.748,330
14.773,308
14.798,293
14.823,292
14.848,297
14.873,294
14.898,280
14.923,263
14.948,248
14.973,233
14.998,209
15.023,177
15.048,140
15.073,108
15.098,79
15.123,55
15.148,34
15.173,17
15.198,-4
15.223,-40
15.248,-84
15.273,-111
15.298,-90
15.323,-11
15.348,95
15.373,185
15.398,233
15.423,252
15.448,273
15.473,313
15.498,359
15.523,385
15.548,384
15.573,370
15.598,364
15.623,370
15.648,378
15.673,377
15.698,366
15.723,355
15.748,345
15.773,331
15.798,305
15.823,273
15.848,243
15.873,221
15.898,200
15.923,172
15.948,138
15.973,108
15.998,82
16.023,48
16.048,-2
16.073,-61
16.098,-92
16.123,-64
16.148,20
16.173,124
16.198,198
16.223,225
16.248,228
16.273,244
16.298,284
16.323,328
16.348,349
16.373,342
16.398,325
16.423,322
16.448,335
16.473,349
16.498,349
16.523,336
16.548,321
16.573,311
16.598,298
16.623,274
16.648,243
16.673,213
16.698,190
16.723,169
16.748,142
16.773,113
16.798,91
16.823,76
16.848,53
16.873,12
16.898,-36
16.923,-58
16.948,-24
16.973,56
16.998,147
17.023,209
17.048,236
17.073,251
17.098,277
17.123,310
17.148,332
17.173,331
17.198,316
17.223,307
17.248,310
17.273,318
17.298,320
17.323,316
17.348,311
17.373,308
17.398,298
17.423,273
17.448,239
17.473,204
17.498,178
17.523,156
17.548,134
17.573,109
17.598,80
17.623,45
17.648,6
17.673,-28
17.698,-34
17.723,6
17.748,86
17.773,173
17.798,229
17.823,247
17.848,248
17.873,260
17.898,288
17.923,314
17.948,321
17.973,314
17.998,309
18.023,319
18.048,337
18.073,344
18.098,335
18.123,317
18.148,304
18.173,296
18.198,283
18.223,258
18.248,228
18.273,201
18.298,181
18.323,160
18.348,132
18.373,100
18.398,71
18.423,46
18.448,13
18.473,-30
18.498,-71
18.523,-76
18.548,-25
18.573,70
18.598,168
18.623,230
18.648,249
18.673,250
18.698,265
18.723,300
18.748,336
18.773,348
18.798,337
18.823,318
18.848,312
18.873,318
18.898,324
18.923,322
18.948,312
18.973,303
18.998,296
19.023,283
19.048,257
19.073,223
19.098,194
19.123,175
19.148,160
19.173,138
19.198,109
19.223,84
19.248,66
19.273,47
19.298,14
19.323,-25
19.348,-42
19.373,-4
19.398,88
19.423,199
19.448,279
19.473,312
19.498,320
19.523,335
19.548,369
19.573,405
19.598,421
19.623,419
19.648,415
19.673,421
19.698,428
19.723,421
19.748,399
19.773,375
19.798,363
19.823,360
19.848,354
19.873,339
19.898,320
19.923,297
19.948,260
19.973,196
19.998,107
20.023,18
20.048,-43
20.073,-74
20.098,-97
20.123,-136
20.148,-185
20.173,-214
20.198,-194
20.223,-125
20.248,-38
20.273,31
20.298,76
20.323,108
20.348,141
20.373,176
20.398,204
20.423,219
20.448,230
20.473,249
20.498,284
20.523,327
20.548,363
20.573,382
20.598,387
20.623,386
20.648,381
20.673,369
20.698,346
20.723,312
20.748,276
20.773,244
20.798,213
20.823,174
20.848,128
20.873,92
20.898,88
20.923,127
20.948,194
20.973,253
20.998,280
21.023,276
21.048,263
21.073,260
21.098,268
21.123,272
21.148,258
21.173,233
21.198,211
21.223,202
21.248,200
21.273,194
21.298,181
21.323,169
21.348,166
21.373,166
21.398,160
21.423,144
21.448,131
21.473,136
21.498,155
21.523,164
21.548,140
21.573,92
21.598,62
21.623,86
21.648,166
21.673,262
21.698,328
21.723,350
21.748,347
21.773,350
21.798,366
21.823,380
21.848,372
21.873,340
21.898,298
21.923,263
21.948,238
21.973,218
21.998,199
22.023,179
22.048,161
22.073,144
22.098,128
22.123,109
22.148,90
22.173,78
22.198,82
22.223,104
22.248,134
22.273,150
22.298,138
22.323,110
22.348,102
22.373,147
22.398,243
22.423,349
22.448,421
22.473,446
22.498,449
22.523,466
22.548,505
22.573,539
22.598,537
22.623,491
22.648,420
22.673,351
22.698,297
22.723,258
22.748,227
22.773,202
22.798,182
22.823,162
22.848,136
22.873,100
22.898,54
22.923,2
22.948,-50
22.973,-95
22.998,-133
23.023,-169
23.048,-208
23.073,-243
23.098,-252
23.123,-214
23.148,-131
23.173,-34
23.198,41
23.223,88
23.248,128
23.273,187
23.298,265
23.323,338
23.348,382
23.373,398
23.398,406
23.423,417
23.448,421
23.473,406
23.498,374
23.523,342
23.548,323
23.573,310
23.598,287
23.623,253
23.648,218
23.673,192
23.698,170
23.723,145
23.748,124
23.773,131
23.798,178
23.823,253
23.848,319
23.873,346
23.898,337
23.923,318
23.948,312
23.973,322
23.998,337
24.023,342
24.048,335
24.073,325
24.098,322
24.123,327
24.148,329
24.173,309
24.198,254
24.223,169
24.248,81
24.273,21
24.298,0
24.323,0
24.348,0
24.373,-3
24.398,11
24.423,62
24.448,137
24.473,205
24.498,239
24.523,248
24.548,259
24.573,287
24.598,319
24.623,334
24.648,325
24.673,307
24.698,294
24.723,286
24.748,272
24.773,252
24.798,240
24.823,241
24.848,243
24.873,221
24.898,172
24.923,116
24.948,77
24.973,59
24.998,41
25.023,9
25.048,-20
25.073,-13
25.098,48
25.123,139
25.148,215
25.173,249
25.198,251
25.223,254
25.248,274
25.273,297
25.298,303
25.323,289
25.348,271
25.373,265
25.398,272
25.423,277
25.448,273
25.473,265
25.498,262
25.523,261
25.548,250
25.573,221
25.598,180
25.623,146
25.648,125
25.673,105
25.698,72
25.723,27
25.748,-2
25.773,12
25.798,79
25.823,170
25.848,246
25.873,283
25.898,292
25.923,297
25.948,311
25.973,329
25.998,335
26.023,329
26.048,319
26.073,317
26.098,321
26.123,324
26.148,322
26.173,320
26.198,320
26.223,317
26.248,300
26.273,271
26.298,244
26.323,225
26.348,204
26.373,161
26.398,90
26.423,14
26.448,-26
26.473,-12
26.498,43
26.523,106
26.548,147
26.573,167
26.598,183
26.623,205
26.648,231
26.673,254
26.698,269
26.723,281
26.748,296
26.773,314
26.798,331
26.823,339
26.848,337
26.873,322
26.898,290
26.923,241
26.948,181
26.973,120
26.998,69
27.023,39
27.048,29
27.073,26
27.098,12
27.123,-15
27.148,-43
27.173,-39
27.198,14
27.223,106
27.248,198
27.273,255
27.298,274
27.323,279
27.348,294
27.373,322
27.398,344
27.423,346
27.448,332
27.473,318
27.498,316
27.523,323
27.548,328
27.573,324
27.598,310
27.623,289
27.648,266
27.673,243
27.698,219
27.723,192
27.748,161
27.773,132
27.798,110
27.823,97
27.848,81
27.873,47
27.898,-3
27.923,-43
27.948,-34
27.973,35
27.998,140
28.023,230
28.048,275
28.073,285
28.098,291
28.123,315
28.148,346
28.173,363
28.198,358
28.223,342
28.248,331
28.273,329
28.298,329
28.323,325
28.348,318
28.373,310
28.398,299
28.423,282
28.448,257
28.473,230
28.498,203
28.523,176
28.548,146
28.573,120
28.598,104
28.623,93
28.648,71
28.673,30
28.698,-17
28.723,-37
28.748,-6
28.773,68
28.798,149
28.823,205
28.848,229
28.873,240
28.898,259
28.923,286
28.948,309
28.973,319
28.998,317
29.023,312
29.048,311
29.073,311
29.098,304
29.123,288
29.148,268
29.173,253
29.198,246
29.223,246
29.248,240
29.273,221
29.298,192
29.323,163
29.348,141
29.373,119
29.398,83
29.423,34
29.448,-6
29.473,-5
29.498,51
29.523,145
29.548,231
29.573,279
29.598,288
29.623,287
29.648,297
29.673,316
29.698,328
29.723,323
29.748,307
29.773,298
29.798,302
29.823,312
29.848,314
29.873,303
29.898,283
29.923,261
29.948,240
29.973,213
29.998,179
30.023,144
30.048,116
30.073,100
30.098,86
30.123,57
30.148,12
30.173,-28
30.198,-31
30.223,17
30.248,104
30.273,188
30.298,236
30.323,248
30.348,250
30.373,265
30.398,292
30.423,315
30.448,318
30.473,308
30.498,299
30.523,301
30.548,308
30.573,310
30.598,303
30.623,290
30.648,275
30.673,259
30.698,240
30.723,218
30.748,196
30.773,171
30.798,141
30.823,110
30.848,85
30.873,66
30.898,46
30.923,13
30.948,-23
30.973,-35
30.998,4
31.023,93
31.048,191
31.073,256
31.098,275
31.123,276
31.148,290
31.173,325
31.198,355
31.223,358
31.248,337
31.273,319
31.298,322
31.323,338
31.348,347
31.373,339
31.398,323
31.423,313
31.448,306
31.473,291
31.498,261
31.523,227
31.548,203
31.573,192
31.598,180
31.623,157
31.648,126
31.673,98
31.698,74
31.723,45
31.748,9
31.773,-14
31.798,1
31.823,62
31.848,140
31.873,192
31.898,202
31.923,191
31.948,197
31.973,233
31.998,280
32.023,308
32.048,307
32.073,290
32.098,281
32.123,283
32.148,290
32.173,292
32.198,288
32.223,282
32.248,274
32.273,260
32.298,240
32.323,215
32.348,189
32.373,163
32.398,139
32.423,123
32.448,112
32.473,98
32.498,70
32.523,30
32.548,3
32.573,16
32.598,77
32.623,160
32.648,226
32.673,257
32.698,263
32.723,269
32.748,288
32.773,311
32.798,323
32.823,320
32.848,313
32.873,314
32.898,321
32.923,326
32.948,321
32.973,310
32.998,298
33.023,289
33.048,275
33.073,247
33.098,208
33.123,169
33.148,142
33.173,131
33.198,121
33.223,95
33.248,53
33.273,20
33.298,28
33.323,86
33.348,169
33.373,234
33.398,257
33.423,252
33.448,252
33.473,276
33.498,312
33.523,334
33.548,331
33.573,319
33.598,320
33.623,336
33.648,347
33.673,329
33.698,279
33.723,216
33.748,166
33.773,141
33.798,131
33.823,120
33.848,102
33.873,83
33.898,73
33.923,73
33.948,71
33.973,48
33.998,2
34.023,-41
34.048,-44
34.073,12
34.098,110
34.123,202
34.148,254
34.173,268
34.198,279
34.223,312
34.248,359
34.273,394
34.298,400
34.323,385
34.348,371
34.373,368
34.398,366
34.423,354
34.448,333
34.473,314
34.498,304
34.523,299
34.548,284
34.573,254
34.598,208
34.623,149
34.648,83
34.673,23
34.698,-13
34.723,-21
34.748,-12
34.773,-12
34.798,-29
34.823,-40
34.848,-9
34.873,73
34.898,179
34.923,261
34.948,295
34.973,297
34.998,304
35.023,332
35.048,371
35.073,396
35.098,397
35.123,377
35.148,343
35.173,298
35.198,250
35.223,214
35.248,206
35.273,226
35.298,255
35.323,272
35.348,271
35.373,263
35.398,260
35.423,260
35.448,251
35.473,224
35.498,181
35.523,127
35.548,63
35.573,-5
35.598,-60
35.623,-74
35.648,-29
35.673,60
35.698,155
35.723,218
35.748,239
35.773,238
35.798,239
35.823,253
35.848,272
35.873,286
35.898,294
35.923,303
35.948,317
35.973,332
35.998,342
36.023,340
36.048,325
36.073,299
36.098,263
36.123,222
36.148,181
36.173,148
36.198,133
36.223,138
36.248,156
36.273,165
36.298,150
36.323,111
36.348,73
36.373,70
36.398,114
36.423,186
36.448,253
36.473,290
36.498,299
36.523,299
36.548,304
36.573,313
36.598,314
36.623,304
36.648,286
36.673,269
36.698,254
36.723,238
36.748,222
36.773,204
36.798,185
36.823,166
36.848,147
36.873,134
36.898,131
36.923,134
36.948,137
36.973,136
36.998,130
37.023,118
37.048,92
37.073,49
37.098,4
37.123,-12
37.148,22
37.173,98
37.198,178
37.223,224
37.248,233
37.273,232
37.298,247
37.323,278
37.348,304
37.373,306
37.398,292
37.423,279
37.448,280
37.473,293
37.498,307
37.523,319
37.548,329
37.573,335
37.598,330
37.623,310
37.648,281
37.673,253
37.698,223
37.723,188
37.748,146
37.773,114
37.798,101
37.823,103
37.848,95
37.873,66
37.898,35
37.923,40
37.948,105
37.973,209
37.998,300
38.023,341
38.048,338
38.073,327
38.098,337
38.123,364
38.148,384
38.173,380
38.198,359
38.223,339
38.248,331
38.273,327
38.298,319
38.323,303
38.348,282
38.373,259
38.398,233
38.423,204
38.448,176
38.473,149
38.498,124
38.523,95
38.548,66
38.573,42
38.598,26
38.623,8
38.648,-20
38.673,-60
38.698,-86
38.723,-69
38.748,-4
38.773,85
38.798,160
38.823,199
38.848,210
38.873,221
38.898,247
38.923,281
38.948,303
38.973,303
38.998,291
39.023,286
39.048,296
39.073,312
39.098,318
39.123,309
39.148,292
39.173,279
39.198,270
39.223,256
39.248,231
39.273,200
39.298,177
39.323,168
39.348,161
39.373,141
39.398,104
39.423,70
39.448,68
39.473,112
39.498,182
39.523,245
39.548,277
39.573,281
39.598,277
39.623,282
39.648,296
39.673,306
39.698,303
39.723,294
39.748,287
39.773,289
39.798,294
39.823,292
39.848,280
39.873,263
39.898,249
39.923,237
39.948,221
39.973,195
39.998,165
40.023,139
40.048,124
40.073,109
40.098,79
40.123,35
40.148,1
40.173,8
40.198,66
40.223,149
40.248,217
40.273,246
40.298,249
40.323,256
40.348,283
40.373,318
40.398,337
40.423,328
40.448,306
40.473,292
40.498,293
40.523,301
40.548,303
40.573,295
40.598,280
40.623,263
40.648,244
40.673,222
40.698,198
40.723,173
40.748,146
40.773,119
40.798,96
40.823,78
40.848,61
40.873,33
40.898,-4
40.923,-35
40.948,-26
40.973,36
40.998,132
41.023,217
41.048,260
41.073,265
41.098,266
41.123,286
41.148,318
41.173,339
41.198,335
41.223,318
41.248,311
41.273,320
41.298,332
41.323,333
41.348,325
41.373,316
41.398,311
41.423,300
41.448,276
41.473,241
41.498,211
41.523,193
41.548,178
41.573,155
41.598,124
41.623,95
41.648,76
41.673,57
41.698,24
41.723,-20
41.748,-46
41.773,-19
41.798,61
41.823,160
41.848,230
41.873,255
41.898,257
41.923,269
41.948,301
41.973,333
41.998,345
42.023,333
42.048,315
42.073,305
42.098,305
42.123,304
42.148,299
42.173,294
42.198,294
42.223,294
42.248,284
42.273,260
42.298,232
42.323,208
42.348,189
42.373,169
42.398,143
42.423,118
42.448,101
42.473,88
42.498,65
42.523,27
42.548,-10
42.573,-18
42.598,22
42.623,100
42.648,181
42.673,234
42.698,254
42.723,259
42.748,269
42.773,288
42.798,303
42.823,305
42.848,293
42.873,282
42.898,282
42.923,294
42.948,308
42.973,316
42.998,313
43.023,301
43.048,285
43.073,266
43.098,241
43.123,212
43.148,183
43.173,163
43.198,155
43.223,150
43.248,134
43.273,102
43.298,69
43.323,63
43.348,101
43.373,173
43.398,246
43.423,291
43.448,300
43.473,292
43.498,287
43.523,293
43.548,299
43.573,296
43.598,281
43.623,266
43.648,259
43.673,261
43.698,264
43.723,261
43.748,250
43.773,234
43.798,218
43.823,199
43.848,176
43.873,146
43.898,116
43.923,94
43.948,82
43.973,71
43.998,44
44.023,0
44.048,-37
44.073,-34
44.098,26
44.123,122
44.148,208
44.173,252
44.198,260
44.223,262
44.248,281
44.273,309
44.298,324
44.323,317
44.348,300
44.373,296
44.398,306
44.423,318
44.448,318
44.473,305
44.498,291
44.523,282
44.548,274
44.573,257
44.598,230
44.623,203
44.648,181
44.673,165
44.698,151
44.723,135
44.748,115
44.773,85
44.798,43
44.823,4
44.848,-7
44.873,32
44.898,115
44.923,205
44.948,265
44.973,281
44.998,276
45.023,280
45.048,303
45.073,329
45.098,340
45.123,333
45.148,318
45.173,309
45.198,305
45.223,302
45.248,298
45.273,295
45.298,291
45.323,282
45.348,262
45.373,237
45.398,215
45.423,198
45.448,180
45.473,154
45.498,125
45.523,99
45.548,80
45.573,55
45.598,18
45.623,-20
45.648,-31
45.673,7
45.698,86
45.723,167
45.748,217
45.773,231
45.798,233
45.823,246
45.848,271
45.873,293
45.898,296
45.923,284
45.948,274
45.973,278
45.998,292
46.023,302
46.048,298
46.073,284
46.098,270
46.123,259
46.148,250
46.173,234
46.198,209
46.223,183
46.248,165
46.273,158
46.298,150
46.323,127
46.348,89
46.373,56
46.398,54
46.423,96
46.448,167
46.473,234
46.498,271
46.523,280
46.548,280
46.573,289
46.598,308
46.623,321
46.648,320
46.673,309
46.698,300
46.723,300
46.748,305
46.773,306
46.798,297
46.823,280
46.848,260
46.873,241
46.898,221
46.923,198
46.948,170
46.973,142
46.998,120
47.023,103
47.048,86
47.073,58
47.098,17
47.123,-20
47.148,-30
47.173,7
47.198,83
47.223,165
47.248,222
47.273,247
47.298,256
47.323,271
47.348,296
47.373,317
47.398,320
47.423,307
47.448,295
47.473,298
47.498,312
47.523,325
47.548,325
47.573,313
47.598,299
47.623,286
47.648,271
47.673,250
47.698,225
47.723,201
47.748,182
47.773,163
47.798,141
47.823,118
47.848,98
47.873,77
47.898,48
47.923,7
47.948,-31
47.973,-37
47.998,9
48.023,97
48.048,188
48.073,241
48.098,249
48.123,241
48.148,251
48.173,285
48.198,323
48.223,337
48.248,325
48.273,306
48.298,301
48.323,311
48.348,324
48.373,325
48.398,316
48.423,305
48.448,295
48.473,279
48.498,255
48.523,228
48.548,207
48.573,194
48.598,178
48.623,153
48.648,124
48.673,105
48.698,95
48.723,82
48.748,52
48.773,16
48.798,4
48.823,37
48.848,110
48.873,186
48.898,234
48.923,251
48.948,258
48.973,273
48.998,299
49.023,321
49.048,328
49.073,323
49.098,316
49.123,312
49.148,313
49.173,316
49.198,320
49.223,318
49.248,303
49.273,270
49.298,225
49.323,181
49.348,147
49.373,127
49.398,119
49.423,118
49.448,116
49.473,105
49.498,78
49.523,47
49.548,35
49.573,64
49.598,131
49.623,206
49.648,254
49.673,267
49.698,265
49.723,271
49.748,288
49.773,303
49.798,304
49.823,296
49.848,292
49.873,298
49.898,303
49.923,297
49.948,282
49.973,269
49.998,265
50.023,261
50.048,246
50.073,216
50.098,180
50.123,148
50.148,126
50.173,109
50.198,92
50.223,71
50.248,43
50.273,8
50.298,-19
50.323,-17
50.348,30
50.373,115
50.398,202
50.423,258
50.448,275
50.473,276
50.498,288
50.523,316
50.548,343
50.573,354
50.598,350
50.623,348
50.648,358
50.673,373
50.698,381
50.723,376
50.748,364
50.773,353
50.798,342
50.823,324
50.848,297
50.873,265
50.898,230
50.923,192
50.948,148
50.973,104
50.998,66
51.023,31
51.048,-12
51.073,-71
51.098,-129
51.123,-149
51.148,-108
51.173,-19
51.198,73
51.223,131
51.248,148
51.273,153
51.298,172
51.323,205
51.348,233
51.373,245
51.398,247
51.423,256
51.448,280
51.473,310
51.498,332
51.523,344
51.548,351
51.573,354
51.598,351
51.623,339
51.648,323
51.673,306
51.698,287
51.723,263
51.748,236
51.773,212
51.798,195
51.823,177
51.848,145
51.873,105
51.898,80
51.923,98
51.948,159
51.973,234
51.998,283
52.023,297
52.048,294
52.073,300
52.098,318
52.123,330
52.148,322
52.173,298
52.198,278
52.223,277
52.248,286
52.273,287
52.298,272
52.323,248
52.348,229
52.373,217
52.398,203
52.423,177
52.448,144
52.473,115
52.498,97
52.523,83
52.548,57
52.573,16
52.598,-22
52.623,-29
52.648,12
52.673,91
52.698,173
52.723,226
52.748,241
52.773,237
52.798,239
52.823,256
52.848,276
52.873,286
52.898,283
52.923,277
52.948,282
52.973,295
52.998,306
53.023,305
53.048,294
53.073,280
53.098,269
53.123,259
53.148,239
53.173,207
53.198,169
53.223,139
53.248,124
53.273,113
53.298,89
53.323,46
53.348,0
53.373,-14
53.398,24
53.423,107
53.448,196
53.473,252
53.498,270
53.523,272
53.548,284
53.573,311
53.598,336
53.623,342
53.648,331
53.673,319
53.698,317
53.723,320
53.748,320
53.773,312
53.798,302
53.823,294
53.848,284
53.873,266
53.898,241
53.923,218
53.948,199
53.973,179
53.998,152
54.023,120
54.048,92
54.073,72
54.098,49
54.123,13
54.148,-28
54.173,-46
54.198,-14
54.223,65
54.248,155
54.273,215
54.298,236
54.323,237
54.348,248
54.373,274
54.398,301
54.423,312
54.448,308
54.473,303
54.498,306
54.523,313
54.548,316
54.573,313
54.598,310
54.623,307
54.648,302
54.673,286
54.698,264
54.723,243
54.748,227
54.773,210
54.798,188
54.823,161
54.848,138
54.873,122
54.898,104
54.923,76
54.948,44
54.973,32
54.998,62
55.023,130
55.048,207
55.073,260
55.098,278
55.123,277
55.148,277
55.173,287
55.198,296
55.223,296
55.248,286
55.273,278
55.298,279
55.323,284
55.348,285
55.373,278
55.398,265
55.423,254
55.448,245
55.473,232
55.498,209
55.523,179
55.548,152
55.573,136
55.598,126
55.623,108
55.648,72
55.673,28
55.698,6
55.723,31
55.748,99
55.773,178
55.798,232
55.823,248
55.848,243
55.873,245
55.898,263
55.923,285
55.948,292
55.973,284
55.998,273
56.023,273
56.048,281
56.073,288
56.098,284
56.123,272
56.148,260
56.173,248
56.198,234
56.223,212
56.248,186
56.273,161
56.298,144
56.323,134
56.348,123
56.373,104
56.398,74
56.423,41
56.448,22
56.473,39
56.498,95
56.523,173
56.548,241
56.573,276
56.598,283
56.623,284
56.648,297
56.673,322
56.698,340
56.723,340
56.748,329
56.773,320
56.798,318
56.823,319
56.848,317
56.873,308
56.898,297
56.923,283
56.948,263
56.973,235
56.998,205
57.023,178
57.048,155
57.073,132
57.098,109
57.123,89
57.148,74
57.173,53
57.198,19
57.223,-20
57.248,-35
57.273,0
57.298,82
57.323,171
57.348,226
57.373,240
57.398,239
57.423,252
57.448,282
57.473,307
57.498,309
57.523,295
57.548,287
57.573,295
57.598,308
57.623,312
57.648,302
57.673,288
57.698,279
57.723,274
57.748,265
57.773,248
57.798,225
57.823,201
57.848,179
57.873,159
57.898,146
57.923,137
57.948,122
57.973,95
57.998,64
58.023,56
58.048,91
58.073,159
58.098,228
58.123,266
58.148,270
58.173,264
58.198,272
58.223,291
58.248,305
58.273,304
58.298,294
58.323,292
58.348,298
58.373,303
58.398,296
58.423,283
58.448,273
58.473,269
58.498,263
58.523,244
58.548,215
58.573,185
58.598,162
58.623,141
58.648,120
58.673,97
58.698,74
58.723,49
58.748,18
58.773,-10
58.798,-13
58.823,29
58.848,111
58.873,197
58.898,250
58.923,262
58.948,259
58.973,268
58.998,294
59.023,317
59.048,320
59.073,307
59.098,298
59.123,305
59.148,317
59.173,319
59.198,308
59.223,293
59.248,286
59.273,282
59.298,270
59.323,246
59.348,219
59.373,196
59.398,177
59.423,156
59.448,129
59.473,104
59.498,86
59.523,67
59.548,37
59.573,-1
59.598,-24
59.623,-3
59.648,67
59.673,158
59.698,230
59.723,263
59.748,268
59.773,271
59.798,288
59.823,312
59.848,326
59.873,326
59.898,318
59.923,313
59.948,316
59.973,322
59.998,326
60.023,329
60.048,330
60.073,326
60.098,311
60.123,282
60.148,247
60.173,217
60.198,198
60.223,186
60.248,172
60.273,151
60.298,126
60.323,103
60.348,81
60.373,53
60.398,16
60.423,-19
60.448,-29
60.473,3
60.498,75
60.523,157
60.548,216
60.573,239
60.598,242
60.623,250
60.648,273
60.673,300
60.698,310
60.723,301
60.748,285
60.773,281
60.798,293
60.823,307
60.848,312
60.873,308
60.898,302
60.923,298
60.948,289
60.973,269
60.998,240
61.023,217
61.048,206
61.073,200
61.098,185
61.123,156
61.148,125
61.173,104
61.198,90
61.223,66
61.248,27
61.273,-6
61.298,-1
61.323,57
61.348,146
61.373,222
61.398,259
61.423,264
61.448,264
61.473,280
61.498,304
61.523,319
61.548,318
61.573,312
61.598,312
61.623,321
61.648,327
61.673,326
61.698,317
61.723,308
61.748,299
61.773,287
61.798,268
61.823,242
61.848,215
61.873,189
61.898,166
61.923,149
61.948,135
61.973,116
61.998,83
62.023,38
62.048,1
62.073,3
62.098,55
62.123,137
62.148,211
62.173,248
62.198,252
62.223,248
62.248,259
62.273,280
62.298,296
62.323,295
62.348,288
62.373,286
62.398,294
62.423,302
62.448,299
62.473,289
62.498,279
62.523,274
62.548,267
62.573,250
62.598,224
62.623,196
62.648,172
62.673,152
62.698,132
62.723,109
62.748,86
62.773,62
62.798,31
62.823,-3
62.848,-22
62.873,0
62.898,68
62.923,160
62.948,234
62.973,267
62.998,268
63.023,270
63.048,292
63.073,325
63.098,346
63.123,344
63.148,328
63.173,318
63.198,321
63.223,328
63.248,329
63.273,320
63.298,307
63.323,293
63.348,276
63.373,252
63.398,224
63.423,196
63.448,171
63.473,147
63.498,122
63.523,98
63.548,69
63.573,34
63.598,-5
63.623,-33
63.648,-25
63.673,31
63.698,119
63.723,200
63.748,244
63.773,251
63.798,248
63.823,258
63.848,283
63.873,306
63.898,312
63.923,303
63.948,293
63.973,293
63.998,300
64.023,304
64.048,300
64.073,290
64.098,278
64.123,267
64.148,252
64.173,230
64.198,201
64.223,173
64.248,153
64.273,143
64.298,133
64.323,111
64.348,74
64.373,40
64.398,34
64.423,73
64.448,147
64.473,222
64.498,270
64.523,284
64.548,284
64.573,291
64.598,308
64.623,319
64.648,314
64.673,296
64.698,285
64.723,288
64.748,299
64.773,301
64.798,288
64.823,269
64.848,253
64.873,240
64.898,220
64.923,192
64.948,163
64.973,143
64.998,129
65.023,105
65.048,65
65.073,23
65.098,13
65.123,53
65.148,131
65.173,207
65.198,249
65.223,253
65.248,245
65.273,250
65.298,270
65.323,290
65.348,295
65.373,285
65.398,272
65.423,268
65.448,275
65.473,281
65.498,277
65.523,263
65.548,246
65.573,233
65.598,221
65.623,202
65.648,173
65.673,141
65.698,115
65.723,100
65.748,85
65.773,57
65.798,18
65.823,-6
65.848,11
65.873,77
65.898,164
65.923,230
65.948,257
65.973,258
65.998,264
66.023,286
66.048,313
66.073,326
66.098,322
66.123,312
66.148,312
66.173,319
66.198,323
66.223,318
66.248,309
66.273,302
66.298,295
66.323,282
66.348,260
66.373,234
66.398,212
66.423,191
66.448,166
66.473,138
66.498,113
66.523,93
66.548,70
66.573,34
66.598,-4
66.623,-20
66.648,12
66.673,91
66.698,179
66.723,237
66.748,253
66.773,250
66.798,259
66.823,287
66.848,316
66.873,321
66.898,303
66.923,283
66.948,281
66.973,297
66.998,313
67.023,315
67.048,304
67.073,295
67.098,292
67.123,287
67.148,270
67.173,242
67.198,215
67.223,196
67.248,182
67.273,162
67.298,133
67.323,105
67.348,86
67.373,71
67.398,44
67.423,6
67.448,-20
67.473,-8
67.498,51
67.523,131
67.548,195
67.573,224
67.598,230
67.623,239
67.648,261
67.673,286
67.698,297
67.723,294
67.748,289
67.773,294
67.798,306
67.823,316
67.848,318
67.873,315
67.898,312
67.923,308
67.948,299
67.973,282
67.998,258
68.023,230
68.048,202
68.073,178
68.098,162
68.123,150
68.148,133
68.173,99
68.198,59
68.223,36
68.248,58
68.273,122
68.298,198
68.323,249
68.348,262
68.373,258
68.398,261
68.423,278
68.448,293
68.473,292
68.498,278
68.523,269
68.548,277
68.573,292
68.598,298
68.623,290
68.648,275
68.673,266
68.698,259
68.723,247
68.748,224
68.773,198
68.798,177
68.823,162
68.848,147
68.873,127
68.898,106
68.923,86
68.948,63
68.973,30
68.998,-6
69.023,-23
69.048,4
69.073,77
69.098,165
69.123,229
69.148,256
69.173,263
69.198,275
69.223,299
69.248,321
69.273,325
69.298,314
69.323,304
69.348,306
69.373,315
69.398,317
69.423,309
69.448,300
69.473,300
69.498,301
69.523,292
69.548,264
69.573,228
69.598,198
69.623,179
69.648,164
69.673,143
69.698,119
69.723,99
69.748,82
69.773,56
69.798,15
69.823,-21
69.848,-23
69.873,29
69.898,120
69.923,204
69.948,245
69.973,246
69.998,239
70.023,251
70.048,280
70.073,305
70.098,310
70.123,302
70.148,300
70.173,311
70.198,325
70.223,330
70.248,325
70.273,317
70.298,311
70.323,302
70.348,281
70.373,253
70.398,228
70.423,213
70.448,199
70.473,179
70.498,151
70.523,126
70.548,108
70.573,89
70.598,55
70.623,13
70.648,-6
70.673,22
70.698,97
70.723,185
70.748,244
70.773,265
70.798,266
70.823,273
70.848,292
70.873,310
70.898,313
70.923,304
70.948,296
70.973,296
70.998,299
71.023,298
71.048,291
71.073,282
71.098,274
71.123,265
71.148,250
71.173,229
71.198,203
71.223,177
71.248,154
71.273,136
71.298,119
71.323,96
71.348,61
71.373,26
71.398,13
71.423,46
71.448,119
71.473,201
71.498,256
71.523,272
71.548,267
71.573,267
71.598,280
71.623,294
71.648,295
71.673,285
71.698,278
71.723,283
71.748,293
71.773,297
71.798,289
71.823,277
71.848,268
71.873,260
71.898,246
71.923,224
71.948,198
71.973,172
71.998,147
72.023,125
72.048,104
72.073,84
72.098,59
72.123,26
72.148,-2
72.173,-3
72.198,41
72.223,122
72.248,205
72.273,255
72.298,267
72.323,265
72.348,276
72.373,302
72.398,324
72.423,326
72.448,313
72.473,302
72.498,304
72.523,314
72.548,319
72.573,315
72.598,307
72.623,300
72.648,289
72.673,269
72.698,242
72.723,214
72.748,192
72.773,172
72.798,150
72.823,127
72.848,106
72.873,86
72.898,59
72.923,22
72.948,-5
72.973,3
72.998,61
73.023,148
73.048,222
73.073,255
73.098,253
73.123,246
73.148,259
73.173,288
73.198,311
73.223,312
73.248,297
73.273,286
73.298,288
73.323,296
73.348,300
73.373,296
73.398,287
73.423,278
73.448,266
73.473,249
73.498,226
73.523,204
73.548,185
73.573,167
73.598,148
73.623,130
73.648,114
73.673,97
73.698,68
73.723,30
73.748,4
73.773,16
73.798,74
73.823,156
73.848,225
73.873,257
73.898,261
73.923,262
73.948,276
73.973,298
73.998,313
74.023,315
74.048,312
74.073,313
74.098,317
74.123,320
74.148,316
74.173,309
74.198,301
74.223,291
74.248,277
74.273,255
74.298,229
74.323,203
74.348,179
74.373,156
74.398,137
74.423,119
74.448,96
74.473,63
74.498,27
74.523,12
74.548,41
74.573,111
74.598,194
74.623,252
74.648,271
74.673,266
74.698,264
74.723,278
74.748,296
74.773,302
74.798,295
74.823,286
74.848,286
74.873,291
74.898,293
74.923,287
74.948,277
74.973,268
74.998,258
75.023,244
75.048,225
75.073,202
75.098,176
75.123,148
75.148,122
75.173,103
75.198,90
75.223,71
75.248,38
75.273,-2
75.298,-21
75.323,10
75.348,91
75.373,184
75.398,246
75.423,263
75.448,257
75.473,262
75.498,287
75.523,315
75.548,327
75.573,323
75.598,316
75.623,318
75.648,324
75.673,323
75.698,314
75.723,305
75.748,302
75.773,298
75.798,284
75.823,259
75.848,231
75.873,209
75.898,191
75.923,170
75.948,144
75.973,120
75.998,101
76.023,81
76.048,49
76.073,5
76.098,-22
76.123,-6
76.148,61
76.173,152
76.198,223
76.223,251
76.248,249
76.273,247
76.298,264
76.323,291
76.348,307
76.373,302
76.398,288
76.423,283
76.448,293
76.473,306
76.498,311
76.523,306
76.548,297
76.573,289
76.598,277
76.623,257
76.648,229
76.673,202
76.698,181
76.723,166
76.748,148
76.773,127
76.798,108
76.823,92
76.848,71
76.873,40
76.898,8
76.923,0
76.948,34
76.973,104
76.998,178
77.023,226
77.048,241
77.073,246
77.098,262
77.123,290
77.148,312
77.173,317
77.198,311
77.223,308
77.248,317
77.273,329
77.298,333
77.323,323
77.348,308
77.373,298
77.398,295
77.423,292
77.448,279
77.473,251
77.498,213
77.523,177
77.548,157
77.573,153
77.598,146
77.623,119
77.648,72
77.673,33
77.698,38
77.723,97
77.748,180
77.773,242
77.798,262
77.823,255
77.848,253
77.873,270
77.898,289
77.923,291
77.948,275
77.973,261
77.998,265
78.023,278
78.048,283
78.073,272
78.098,258
78.123,256
78.148,265
78.173,269
78.198,255
78.223,228
78.248,200
78.273,176
78.298,152
78.323,121
78.348,87
78.373,55
78.398,21
78.423,-16
78.448,-50
78.473,-56
78.498,-14
78.523,66
78.548,152
78.573,205
78.598,219
78.623,218
78.648,229
78.673,256
78.698,282
78.723,290
78.748,283
78.773,278
78.798,283
78.823,295
78.848,304
78.873,307
78.898,309
78.923,312
78.948,311
78.973,297
78.998,274
79.023,248
79.048,228
79.073,212
79.098,196
79.123,181
79.148,166
79.173,151
79.198,127
79.223,95
79.248,70
79.273,75
79.298,121
79.323,195
79.348,265
79.373,306
79.398,318
79.423,318
79.448,324
79.473,339
79.498,353
79.523,358
79.548,353
79.573,345
79.598,339
79.623,337
79.648,337
79.673,332
79.698,319
79.723,298
79.748,273
79.773,248
79.798,226
79.823,200
79.848,166
79.873,126
79.898,89
79.923,60
79.948,31
79.973,-8
79.998,-57
80.023,-95
80.048,-95
80.073,-51
80.098,14
80.123,67
80.148,89
80.173,92
80.198,102
80.223,137
80.248,187
80.273,231
80.298,257
80.323,269
80.348,281
80.373,297
80.398,312
80.423,316
80.448,307
80.473,293
80.498,280
80.523,270
80.548,258
80.573,244
80.598,232
80.623,225
80.648,219
80.673,205
80.698,180
80.723,152
80.748,145
80.773,172
80.798,227
80.823,282
80.848,311
80.873,309
80.898,293
80.923,285
80.948,292
80.973,305
80.998,307
81.023,296
81.048,280
81.073,271
81.098,269
81.123,265
81.148,255
81.173,243
81.198,234
81.223,230
81.248,222
81.273,201
81.298,170
81.323,141
81.348,123
81.373,113
81.398,98
81.423,67
81.448,26
81.473,0
81.498,12
81.523,66
81.548,141
81.573,203
81.598,235
81.623,242
81.648,247
81.673,262
81.698,286
81.723,303
81.748,302
81.773,291
81.798,285
81.823,293
81.848,309
81.873,320
81.898,321
81.923,315
81.948,307
81.973,295
81.998,275
82.023,248
82.048,221
82.073,199
82.098,182
82.123,163
82.148,139
82.173,115
82.198,96
82.223,75
82.248,45
82.273,8
82.298,-15
82.323,1
82.348,62
82.373,145
82.398,209
82.423,235
82.448,235
82.473,239
82.498,265
82.523,303
82.548,328
82.573,327
82.598,309
82.623,296
82.648,299
82.673,312
82.698,321
82.723,315
82.748,300
82.773,284
82.798,271
82.823,260
82.848,244
82.873,224
82.898,205
82.923,190
82.948,175
82.973,154
82.998,127
83.023,100
83.048,81
83.073,67
83.098,47
83.123,19
83.148,-3
83.173,3
83.198,52
83.223,125
83.248,190
83.273,224
83.298,232
83.323,240
83.348,263
83.373,292
83.398,308
83.423,303
83.448,292
83.473,293
83.498,309
83.523,329
83.548,337
83.573,330
83.598,317
83.623,306
83.648,294
83.673,277
83.698,252
83.723,225
83.748,200
83.773,181
83.798,168
83.823,158
83.848,145
83.873,123
83.898,88
83.923,55
83.948,48
83.973,85
83.998,157
84.023,231
84.048,272
84.073,275
84.098,262
84.123,262
84.148,280
84.173,300
84.198,306
84.223,293
84.248,279
84.273,274
84.298,277
84.323,278
84.348,271
84.373,262
84.398,259
84.423,259
84.448,254
84.473,236
84.498,213
84.523,193
84.548,181
84.573,169
84.598,147
84.623,120
84.648,98
84.673,85
84.698,73
84.723,46
84.748,5
84.773,-23
84.798,-11
84.823,50
84.848,139
84.873,214
84.898,253
84.923,262
84.948,268
84.973,288
84.998,316
85.023,335
85.048,335
85.073,321
85.098,307
85.123,303
85.148,305
85.173,305
85.198,299
85.223,293
85.248,291
85.273,289
85.298,279
85.323,258
85.348,229
85.373,202
85.398,182
85.423,167
85.448,150
85.473,129
85.498,108
85.523,92
85.548,77
85.573,54
85.598,23
85.623,-1
85.648,4
85.673,51
85.698,126
85.723,194
85.748,231
85.773,239
85.798,241
85.823,255
85.848,281
85.873,302
85.898,305
85.923,296
85.948,290
85.973,294
85.998,302
86.023,305
86.048,302
86.073,300
86.098,302
86.123,299
86.148,283
86.173,257
86.198,231
86.223,214
86.248,201
86.273,185
86.298,165
86.323,145
86.348,130
86.373,112
86.398,84
86.423,51
86.448,36
86.473,61
86.498,124
86.523,196
86.548,247
86.573,267
86.598,271
86.623,277
86.648,290
86.673,301
86.698,302
86.723,298
86.748,297
86.773,302
86.798,307
86.823,306
86.848,301
86.873,295
86.898,289
86.923,280
86.948,265
86.973,244
86.998,220
87.023,196
87.048,170
87.073,147
87.098,128
87.123,111
87.148,86
87.173,48
87.198,14
87.223,11
87.248,57
87.273,135
87.298,205
87.323,235
87.348,227
87.373,213
87.398,220
87.423,246
87.448,269
87.473,274
87.498,266
87.523,264
87.548,275
87.573,290
87.598,295
87.623,288
87.648,278
87.673,271
87.698,266
87.723,253
87.748,231
87.773,205
87.798,180
87.823,160
87.848,145
87.873,134
87.898,123
87.923,101
87.948,64
87.973,22
87.998,3
88.023,31
88.048,103
88.073,187
88.098,246
88.123,264
88.148,263
88.173,270
88.198,295
88.223,324
88.248,337
88.273,329
88.298,317
88.323,314
88.348,320
88.373,322
88.398,315
88.423,304
88.448,296
88.473,290
88.498,277
88.523,252
88.548,219
88.573,189
88.598,167
88.623,150
88.648,132
88.673,111
88.698,86
88.723,56
88.748,21
88.773,-8
88.798,-14
88.823,21
88.848,93
88.873,170
88.898,220
88.923,234
88.948,231
88.973,241
88.998,270
89.023,299
89.048,308
89.073,295
89.098,281
89.123,283
89.148,299
89.173,310
89.198,305
89.223,288
89.248,275
89.273,271
89.298,269
89.323,258
89.348,238
89.373,213
89.398,190
89.423,171
89.448,155
89.473,141
89.498,125
89.523,101
89.548,67
89.573,34
89.598,26
89.623,61
89.648,131
89.673,203
89.698,250
89.723,265
89.748,267
89.773,276
89.798,293
89.823,307
89.848,308
89.873,302
89.898,300
89.923,307
89.948,315
89.973,317
89.998,312
90.023,304
90.048,296
90.073,285
90.098,269
90.123,249
90.148,226
90.173,202
90.198,178
90.223,156
90.248,138
90.273,117
90.298,86
90.323,46
90.348,16
90.373,19
90.398,68
90.423,142
90.448,203
90.473,227
90.498,223
90.523,217
90.548,230
90.573,255
90.598,272
90.623,273
90.648,266
90.673,265
90.698,275
90.723,286
90.748,286
90.773,279
90.798,273
90.823,273
90.848,270
90.873,258
90.898,237
90.923,215
90.948,197
90.973,182
90.998,162
91.023,139
91.048,117
91.073,98
91.098,75
91.123,41
91.148,4
91.173,-11
91.198,16
91.223,88
91.248,174
91.273,237
91.298,261
91.323,261
91.348,265
91.373,288
91.398,318
91.423,334
91.448,330
91.473,315
91.498,310
91.523,319
91.548,333
91.573,339
91.598,333
91.623,323
91.648,315
91.673,306
91.698,290
91.723,263
91.748,235
91.773,215
91.798,201
91.823,184
91.848,157
91.873,124
91.898,97
91.923,79
91.948,61
91.973,29
91.998,-12
92.023,-43
92.048,-35
92.073,19
92.098,100
92.123,171
92.148,211
92.173,226
92.198,238
92.223,261
92.248,289
92.273,307
92.298,308
92.323,300
92.348,295
92.373,300
92.398,309
92.423,313
92.448,311
92.473,307
92.498,304
92.523,299
92.548,286
92.573,265
92.598,242
92.623,222
92.648,206
92.673,188
92.698,168
92.723,150
92.748,139
92.773,130
92.798,110
92.823,74
92.848,38
92.873,31
92.898,71
92.923,145
92.948,217
92.973,259
92.998,267
93.023,263
93.048,270
93.073,287
93.098,301
93.123,299
93.148,287
93.173,281
93.198,286
93.223,295
93.248,296
93.273,287
93.298,280
93.323,280
93.348,284
93.373,278
93.398,253
93.423,217
93.448,183
93.473,162
93.498,150
93.523,136
93.548,109
93.573,68
93.598,28
93.623,11
93.648,32
93.673,91
93.698,165
93.723,225
93.748,255
93.773,259
93.798,259
93.823,268
93.848,283
93.873,291
93.898,287
93.923,278
93.948,275
93.973,282
93.998,291
94.023,291
94.048,282
94.073,269
94.098,258
94.123,248
94.148,236
94.173,216
94.198,190
94.223,162
94.248,140
94.273,124
94.298,111
94.323,92
94.348,58
94.373,18
94.398,-4
94.423,15
94.448,83
94.473,170
94.498,238
94.523,265
94.548,262
94.573,260
94.598,276
94.623,304
94.648,320
94.673,317
94.698,303
94.723,295
94.748,298
94.773,305
94.798,307
94.823,301
94.848,293
94.873,283
94.898,269
94.923,249
94.948,224
94.973,201
94.998,179
95.023,159
95.048,141
95.073,122
95.098,101
95.123,71
95.148,35
95.173,12
95.198,25
95.223,81
95.248,158
95.273,219
95.298,243
95.323,241
95.348,242
95.373,263
95.398,293
95.423,308
95.448,302
95.473,290
95.498,291
95.523,303
95.548,313
95.573,309
95.598,295
95.623,284
95.648,277
95.673,267
95.698,246
95.723,219
95.748,198
95.773,184
95.798,169
95.823,149
95.848,125
95.873,104
95.898,83
95.923,55
95.948,20
95.973,1
95.998,24
96.023,90
96.048,170
96.073,225
96.098,242
96.123,240
96.148,247
96.173,270
96.198,293
96.223,299
96.248,291
96.273,283
96.298,286
96.323,297
96.348,303
96.373,300
96.398,291
96.423,284
96.448,277
96.473,267
96.498,250
96.523,229
96.548,207
96.573,188
96.598,172
96.623,160
96.648,146
96.673,123
96.698,86
96.723,52
96.748,48
96.773,89
96.798,163
96.823,231
96.848,265
96.873,267
96.898,266
96.923,280
96.948,305
96.973,318
96.998,310
97.023,290
97.048,280
97.073,286
97.098,293
97.123,290
97.148,276
97.173,263
97.198,256
97.223,249
97.248,232
97.273,204
97.298,174
97.323,152
97.348,137
97.373,125
97.398,109
97.423,87
97.448,58
97.473,24
97.498,-4
97.523,-5
97.548,35
97.573,109
97.598,185
97.623,231
97.648,241
97.673,238
97.698,250
97.723,280
97.748,310
97.773,320
97.798,313
97.823,305
97.848,308
97.873,319
97.898,325
97.923,321
97.948,314
97.973,309
97.998,303
98.023,287
98.048,260
98.073,231
98.098,210
98.123,193
98.148,170
98.173,138
98.198,107
98.223,87
98.248,75
98.273,57
98.298,27
98.323,1
98.348,9
98.373,64
98.398,147
98.423,220
98.448,258
98.473,264
98.498,266
98.523,281
98.548,305
98.573,322
98.598,323
98.623,312
98.648,305
98.673,308
98.698,314
98.723,316
98.748,313
98.773,308
98.798,300
98.823,286
98.848,263
98.873,236
98.898,216
98.923,207
98.948,200
98.973,183
98.998,154
99.023,120
99.048,96
99.073,79
99.098,59
99.123,24
99.148,-15
99.173,-32
99.198,-2
99.223,69
99.248,151
99.273,210
99.298,233
99.323,238
99.348,249
99.373,272
99.398,296
99.423,306
99.448,301
99.473,296
99.498,300
99.523,311
99.548,319
99.573,316
99.598,309
99.623,303
99.648,297
99.673,286
99.698,266
99.723,243
99.748,223
99.773,205
99.798,186
99.823,165
99.848,146
99.873,130
99.898,109
99.923,77
99.948,39
99.973,21
99.998,46
100.023,111
100.048,187
100.073,237
100.098,251
100.123,249
100.148,254
100.173,274
100.198,294
100.223,298
100.248,289
100.273,282
100.298,286
100.323,297
100.348,302
100.373,295
100.398,282
100.423,272
100.448,264
100.473,250
100.498,225
100.523,193
100.548,166
100.573,153
100.598,150
100.623,142
100.648,115
100.673,73
100.698,41
100.723,43
100.748,87
100.773,157
100.798,219
100.823,254
100.848,263
100.873,264
100.898,271
100.923,283
100.948,292
100.973,291
100.998,286
101.023,285
101.048,288
101.073,291
101.098,289
101.123,281
101.148,269
101.173,255
101.198,237
101.223,219
101.248,200
101.273,183
101.298,164
101.323,143
101.348,123
101.373,105
101.398,86
101.423,57
101.448,23
101.473,4
101.498,23
101.523,86
101.548,168
101.573,232
101.598,258
101.623,257
101.648,258
101.673,275
101.698,299
101.723,311
101.748,307
101.773,297
101.798,296
101.823,304
101.848,309
101.873,305
101.898,297
101.923,290
101.948,285
101.973,274
101.998,253
102.023,227
102.048,203
102.073,182
102.098,162
102.123,140
102.148,120
102.173,101
102.198,78
102.223,43
102.248,6
102.273,-7
102.298,25
102.323,100
102.348,184
102.373,241
102.398,261
102.423,264
102.448,276
102.473,300
102.498,323
102.523,330
102.548,322
102.573,314
102.598,315
102.623,319
102.648,319
102.673,313
102.698,306
102.723,299
102.748,289
102.773,269
102.798,241
102.823,213
102.848,188
102.873,165
102.898,140
102.923,117
102.948,99
102.973,84
102.998,61
103.023,25
103.048,-5
103.073,-3
103.098,45
103.123,125
103.148,198
103.173,236
103.198,244
103.223,247
103.248,262
103.273,285
103.298,301
103.323,301
103.348,294
103.373,292
103.398,298
103.423,304
103.448,302
103.473,292
103.498,281
103.523,273
103.548,265
103.573,254
103.598,237
103.623,216
103.648,193
103.673,173
103.698,160
103.723,151
103.748,139
103.773,116
103.798,83
103.823,61
103.848,70
103.873,118
103.898,186
103.923,242
103.948,269
103.973,273
103.998,273
104.023,281
104.048,291
104.073,288
104.098,274
104.123,259
104.148,257
104.173,267
104.198,277
104.223,276
104.248,266
104.273,254
104.298,242
104.323,226
104.348,199
104.373,170
104.398,151
104.423,147
104.448,145
104.473,127
104.498,92
104.523,59
104.548,58
104.573,98
104.598,159
104.623,211
104.648,234
104.673,238
104.698,241
104.723,255
104.748,270
104.773,273
104.798,264
104.823,254
104.848,256
104.873,267
104.898,276
104.923,275
104.948,265
104.973,252
104.998,237
105.023,217
105.048,194
105.073,173
105.098,154
105.123,132
105.148,96
105.173,55
105.198,32
105.223,51
105.248,111
105.273,183
105.298,233
105.323,250
105.348,250
105.373,258
105.398,280
105.423,302
105.448,306
105.473,293
105.498,277
105.523,271
105.548,275
105.573,276
105.598,268
105.623,257
105.648,248
105.673,239
105.698,221
105.723,188
105.748,152
105.773,125
105.798,111
105.823,97
105.848,66
105.873,21
105.898,-8
105.923,4
105.948,66
105.973,150
105.998,215
106.023,243
106.048,247
106.073,254
106.098,277
106.123,309
106.148,330
106.173,331
106.198,321
106.223,317
106.248,327
106.273,344
106.298,357
106.323,359
106.348,352
106.373,341
106.398,328
106.423,314
106.448,297
106.473,280
106.498,261
106.523,239
106.548,213
106.573,188
106.598,169
106.623,154
106.648,133
106.673,100
106.698,60
106.723,37
106.748,59
106.773,132
106.798,224
106.823,287
106.848,288
106.873,234
106.898,166
106.923,123
106.948,113
106.973,120
106.998,122
107.023,119
107.048,126
107.073,154
107.098,193
107.123,226
107.148,246
107.173,258
107.198,269
107.223,277
107.248,272
107.273,254
107.298,232
107.323,218
107.348,209
107.373,195
107.398,169
107.423,140
107.448,118
107.473,98
107.498,67
107.523,28
107.548,7
107.573,33
107.598,106
107.623,191
107.648,246
107.673,261
107.698,258
107.723,268
107.748,293
107.773,314
107.798,314
107.823,299
107.848,290
107.873,294
107.898,302
107.923,301
107.948,292
107.973,284
107.998,278
108.023,267
108.048,247
108.073,221
108.098,204
108.123,199
108.148,198
108.173,192
108.198,178
108.223,163
108.248,146
108.273,118
108.298,79
108.323,47
108.348,49
108.373,98
108.398,174
108.423,242
108.448,277
108.473,286
108.498,290
108.523,302
108.548,315
108.573,318
108.598,308
108.623,296
108.648,292
108.673,297
108.698,302
108.723,300
108.748,289
108.773,276
108.798,264
108.823,251
108.848,233
108.873,207
108.898,179
108.923,156
108.948,141
108.973,126
108.998,99
109.023,59
109.048,25
109.073,22
109.098,66
109.123,140
109.148,211
109.173,250
109.198,256
109.223,251
109.248,257
109.273,273
109.298,285
109.323,284
109.348,274
109.373,267
109.398,271
109.423,280
109.448,284
109.473,280
109.498,268
109.523,253
109.548,236
109.573,217
109.598,194
109.623,169
109.648,147
109.673,130
109.698,116
109.723,96
109.748,59
109.773,11
109.798,-22
109.823,-11
109.848,52
109.873,145
109.898,224
109.923,261
109.948,262
109.973,260
109.998,275
110.023,301
110.048,318
110.073,317
110.098,306
110.123,303
110.148,310
110.173,318
110.198,316
110.223,305
110.248,291
110.273,278
110.298,260
110.323,237
110.348,210
110.373,186
110.398,168
110.423,153
110.448,142
110.473,135
110.498,125
110.523,99
110.548,56
110.573,15
110.598,11
110.623,62
110.648,147
110.673,222
110.698,255
110.723,252
110.748,247
110.773,264
110.798,299
110.823,326
110.848,331
110.873,319
110.898,307
110.923,303
110.948,301
110.973,297
110.998,286
111.023,271
111.048,251
111.073,226
111.098,198
111.123,173
111.148,154
111.173,137
111.198,117
111.223,99
111.248,88
111.273,85
111.298,81
111.323,70
111.348,62
111.373,79
111.398,136
111.423,216
111.448,285
111.473,317
111.498,316
111.523,307
111.548,310
111.573,322
111.598,327
111.623,315
111.648,297
111.673,289
111.698,294
111.723,298
111.748,291
111.773,275
111.798,259
111.823,250
111.848,240
111.873,218
111.898,185
111.923,155
111.948,137
111.973,127
111.998,109
112.023,74
112.048,36
112.073,23
112.098,54
112.123,124
112.148,201
112.173,253
112.198,272
112.223,269
112.248,267
112.273,275
112.298,287
112.323,289
112.348,277
112.373,260
112.398,251
112.423,254
112.448,261
112.473,260
112.498,248
112.523,230
112.548,213
112.573,199
112.598,182
112.623,159
112.648,135
112.673,115
112.698,97
112.723,70
112.748,33
112.773,5
112.798,12
112.823,68
112.848,155
112.873,236
112.898,282
112.923,295
112.948,297
112.973,306
112.998,322
113.023,331
113.048,325
113.073,313
113.098,306
113.123,309
113.148,315
113.173,316
113.198,309
113.223,299
113.248,287
113.273,271
113.298,249
113.323,225
113.348,200
113.373,177
113.398,157
113.423,140
113.448,121
113.473,93
113.498,53
113.523,12
113.548,-3
113.573,28
113.598,104
113.623,191
113.648,249
113.673,266
113.698,262
113.723,265
113.748,284
113.773,304
113.798,309
113.823,298
113.848,284
113.873,280
113.898,285
113.923,288
113.948,284
113.973,276
113.998,269
114.023,261
114.048,248
114.073,230
114.098,209
114.123,189
114.148,168
114.173,144
114.198,122
114.223,103
114.248,83
114.273,52
114.298,12
114.323,-17
114.348,-7
114.373,50
114.398,133
114.423,205
114.448,239
114.473,244
114.498,243
114.523,253
114.548,273
114.573,288
114.598,288
114.623,282
114.648,280
114.673,288
114.698,301
114.723,310
114.748,310
114.773,305
114.798,298
114.823,291
114.848,278
114.873,256
114.898,226
114.923,200
114.948,185
114.973,177
114.998,160
115.023,123
115.048,76
115.073,47
115.098,63
115.123,122
115.148,197
115.173,252
115.198,275
115.223,277
115.248,278
115.273,287
115.298,295
115.323,294
115.348,285
115.373,276
115.398,275
115.423,281
115.448,286
115.473,282
115.498,269
115.523,253
115.548,238
115.573,224
115.598,207
115.623,182
115.648,151
115.673,123
115.698,102
115.723,84
115.748,58
115.773,23
115.798,-4
115.823,2
115.848,57
115.873,139
115.898,213
115.923,251
115.948,258
115.973,259
115.998,272
116.023,292
116.048,305
116.073,303
116.098,296
116.123,296
116.148,304
116.173,310
116.198,308
116.223,301
116.248,293
116.273,285
116.298,271
116.323,249
116.348,224
116.373,199
116.398,178
116.423,159
116.448,141
116.473,120
116.498,93
116.523,55
116.548,15
116.573,-2
116.598,26
116.623,100
116.648,188
116.673,250
116.698,269
116.723,265
116.748,266
116.773,287
116.798,312
116.823,321
116.848,312
116.873,299
116.898,293
116.923,295
116.948,297
116.973,292
116.998,285
117.023,279
117.048,271
117.073,256
117.098,233
117.123,204
117.148,175
117.173,146
117.198,121
117.223,101
117.248,84
117.273,59
117.298,21
117.323,-16
117.348,-25
117.373,16
117.398,98
117.423,183
117.448,235
117.473,247
117.498,246
117.523,257
117.548,283
117.573,305
117.598,310
117.623,303
117.648,297
117.673,298
117.698,302
117.723,303
117.748,303
117.773,303
117.798,300
117.823,287
117.848,264
117.873,240
117.898,223
117.923,208
117.948,188
117.973,163
117.998,140
118.023,125
118.048,108
118.073,78
118.098,42
118.123,27
118.148,60
118.173,135
118.198,215
118.223,265
118.248,279
118.273,278
118.298,285
118.323,301
118.348,310
118.373,305
118.398,294
118.423,290
118.448,295
118.473,301
118.498,298
118.523,286
118.548,272
118.573,261
118.598,251
118.623,238
118.648,218
118.673,193
118.698,167
118.723,145
118.748,128
118.773,111
118.798,85
118.823,45
118.848,6
118.873,-1
118.898,41
118.923,124
118.948,208
118.973,257
118.998,265
119.023,258
119.048,263
119.073,282
119.098,300
119.123,301
119.148,291
119.173,284
119.198,289
119.223,299
119.248,304
119.273,302
119.298,295
119.323,287
119.348,273
119.373,251
119.398,224
119.423,198
119.448,176
119.473,155
119.498,134
119.523,114
119.548,95
119.573,71
119.598,36
119.623,0
119.648,-11
119.673,25
119.698,106
119.723,195
119.748,254
119.773,272
119.798,270
119.823,274
119.848,293
119.873,314
119.898,321
119.923,315
119.948,307
119.973,306
119.998,310
120.023,313
120.048,311
120.073,308
120.098,303
120.123,293
120.148,273
120.173,249
120.198,225
120.223,205
120.248,183
120.273,155
120.298,125
120.323,101
120.348,82
120.373,60
120.398,27
120.423,-5
120.448,-10
120.473,31
120.498,109
120.523,188
120.548,236
120.573,249
120.598,250
120.623,262
120.648,285
120.673,303
120.698,305
120.723,294
120.748,286
120.773,290
120.798,300
120.823,309
120.848,310
120.873,305
120.898,296
120.923,281
120.948,260
120.973,237
120.998,217
121.023,198
121.048,176
121.073,151
121.098,128
121.123,111
121.148,97
121.173,73
121.198,39
121.223,10
121.248,14
121.273,62
121.298,138
121.323,208
121.348,250
121.373,264
121.398,270
121.423,281
121.448,297
121.473,308
121.498,308
121.523,304
121.548,304
121.573,310
121.598,314
121.623,312
121.648,303
121.673,292
121.698,283
121.723,274
121.748,257
121.773,231
121.798,199
121.823,171
121.848,154
121.873,142
121.898,122
121.923,86
121.948,45
121.973,25
121.998,49
122.023,115
122.048,192
122.073,246
122.098,263
122.123,259
122.148,257
122.173,268
122.198,285
122.223,294
122.248,291
122.273,283
122.298,280
122.323,284
122.348,289
122.373,289
122.398,279
122.423,262
122.448,244
122.473,229
122.498,215
122.523,198
122.548,173
122.573,144
122.598,119
122.623,104
122.648,92
122.673,66
122.698,25
122.723,-10
122.748,-7
122.773,49
122.798,139
122.823,218
122.848,256
122.873,261
122.898,262
122.923,280
122.948,310
122.973,327
122.998,324
123.023,312
123.048,308
123.073,316
123.098,327
123.123,329
123.148,321
123.173,310
123.198,300
123.223,285
123.248,263
123.273,237
123.298,211
123.323,188
123.348,164
123.373,138
123.398,114
123.423,95
123.448,73
123.473,40
123.498,0
123.523,-26
123.548,-11
123.573,50
123.598,133
123.623,198
123.648,228
123.673,232
123.698,238
123.723,260
123.748,289
123.773,306
123.798,302
123.823,290
123.848,287
123.873,298
123.898,314
123.923,323
123.948,322
123.973,315
123.998,309
124.023,299
124.048,282
124.073,258
124.098,232
124.123,209
124.148,189
124.173,165
124.198,139
124.223,115
124.248,96
124.273,75
124.298,43
124.323,6
124.348,-13
124.373,8
124.398,72
124.423,153
124.448,214
124.473,242
124.498,251
124.523,264
124.548,287
124.573,308
124.598,313
124.623,307
124.648,304
124.673,313
124.698,328
124.723,335
124.748,331
124.773,322
124.798,314
124.823,305
124.848,286
124.873,258
124.898,227
124.923,199
124.948,176
124.973,154
124.998,133
125.023,114
125.048,95
125.073,70
125.098,36
125.123,10
125.148,16
125.173,69
125.198,149
125.223,221
125.248,256
125.273,259
125.298,256
125.323,269
125.348,293
125.373,310
125.398,309
125.423,301
125.448,301
125.473,313
125.498,326
125.523,327
125.548,318
125.573,309
125.598,302
125.623,293
125.648,272
125.673,241
125.698,212
125.723,192
125.748,175
125.773,153
125.798,124
125.823,95
125.848,76
125.873,60
125.898,34
125.923,-5
125.948,-40
125.973,-39
125.998,12
126.023,100
126.048,183
126.073,233
126.098,248
126.123,253
126.148,268
126.173,295
126.198,318
126.223,326
126.248,323
126.273,321
126.298,328
126.323,339
126.348,345
126.373,343
126.398,338
126.423,333
126.448,327
126.473,311
126.498,284
126.523,252
126.548,225
126.573,204
126.598,184
126.623,156
126.648,120
126.673,86
126.698,63
126.723,47
126.748,25
126.773,-10
126.798,-47
126.823,-57
126.848,-18
126.873,61
126.898,149
126.923,209
126.948,231
126.973,235
126.998,248
127.023,277
127.048,308
127.073,321
127.098,313
127.123,301
127.148,300
127.173,312
127.198,323
127.223,325
127.248,320
127.273,314
127.298,309
127.323,301
127.348,282
127.373,258
127.398,235
127.423,216
127.448,197
127.473,175
127.498,154
127.523,137
127.548,120
127.573,93
127.598,56
127.623,27
127.648,33
127.673,86
127.698,166
127.723,234
127.748,269
127.773,276
127.798,279
127.823,293
127.848,311
127.873,317
127.898,309
127.923,300
127.948,300
127.973,308
127.998,314
128.023,308
128.048,296
128.073,285
128.098,277
128.123,267
128.148,247
128.173,218
128.198,186
128.223,157
128.248,133
128.273,113
128.298,91
128.323,60
128.348,21
128.373,-12
128.398,-17
128.423,21
128.448,94
128.473,172
128.498,224
128.523,241
128.548,243
128.573,252
128.598,272
128.623,292
128.648,297
128.673,290
128.698,285
128.723,290
128.748,298
128.773,300
128.798,294
128.823,285
128.848,277
128.873,268
128.898,250
128.923,227
128.948,204
128.973,186
128.998,171
129.023,155
129.048,135
129.073,112
129.098,83
129.123,47
129.148,13
129.173,4
129.198,39
129.223,114
129.248,198
129.273,254
129.298,272
129.323,271
129.348,278
129.373,303
129.398,330
129.423,340
129.448,332
129.473,319
129.498,316
129.523,321
129.548,323
129.573,318
129.598,307
129.623,296
129.648,285
129.673,267
129.698,242
129.723,217
129.748,195
129.773,175
129.798,151
129.823,123
129.848,98
129.873,77
129.898,54
129.923,20
129.948,-20
129.973,-42
129.998,-17
130.023,55
130.048,144
130.073,208
130.098,231
130.123,230
130.148,235
130.173,260
130.198,292
130.223,310
130.248,307
130.273,297
130.298,296
130.323,305
130.348,316
130.373,319
130.398,314
130.423,307
130.448,301
130.473,292
130.498,277
130.523,256
130.548,233
130.573,210
130.598,187
130.623,163
130.648,141
130.673,122
130.698,99
130.723,67
130.748,33
130.773,18
130.798,43
130.823,108
130.848,187
130.873,247
130.898,274
130.923,279
130.948,283
130.973,294
130.998,306
131.023,308
131.048,301
131.073,295
131.098,297
131.123,304
131.148,308
131.173,304
131.198,295
131.223,285
131.248,274
131.273,259
131.298,238
131.323,211
131.348,182
131.373,154
131.398,128
131.423,106
131.448,84
131.473,55
131.498,17
131.523,-15
131.548,-17
131.573,27
131.598,109
131.623,192
131.648,242
131.673,254
131.698,253
131.723,265
131.748,292
131.773,314
131.798,317
131.823,306
131.848,299
131.873,305
131.898,314
131.923,314
131.948,302
131.973,290
131.998,285
132.023,282
132.048,269
132.073,244
132.098,217
132.123,195
132.148,177
132.173,156
132.198,130
132.223,104
132.248,83
132.273,62
132.298,32
132.323,1
132.348,-10
132.373,21
132.398,93
132.423,176
132.448,236
132.473,263
132.498,270
132.523,280
132.548,301
132.573,323
132.598,332
132.623,327
132.648,320
132.673,318
132.698,322
132.723,327
132.748,328
132.773,324
132.798,316
132.823,300
132.848,275
132.873,245
132.898,218
132.923,198
132.948,181
132.973,159
132.998,131
133.023,104
133.048,84
133.073,66
133.098,39
133.123,-1
133.148,-40
133.173,-48
133.198,-7
133.223,71
133.248,153
133.273,206
133.298,227
133.323,236
133.348,254
133.373,281
133.398,304
133.423,311
133.448,305
133.473,299
133.498,300
133.523,307
133.548,313
133.573,316
133.598,316
133.623,309
133.648,294
133.673,274
133.698,253
133.723,238
133.748,225
133.773,208
133.798,186
133.823,165
133.848,148
133.873,129
133.898,102
133.923,72
133.948,62
133.973,90
133.998,156
134.023,230
134.048,279
134.073,294
134.098,290
134.123,289
134.148,296
134.173,304
134.198,302
134.223,295
134.248,291
134.273,294
134.298,298
134.323,296
134.348,286
134.373,272
134.398,258
134.423,241
134.448,220
134.473,195
134.498,169
134.523,143
134.548,117
134.573,93
134.598,67
134.623,36
134.648,1
134.673,-27
134.698,-30
134.723,10
134.748,89
134.773,176
134.798,238
134.823,266
134.848,272
134.873,281
134.898,300
134.923,319
134.948,325
134.973,318
134.998,309
135.023,307
135.048,309
135.073,310
135.098,309
135.123,307
135.148,301
135.173,287
135.198,263
135.223,234
135.248,207
135.273,185
135.298,165
135.323,142
135.348,117
135.373,89
135.398,54
135.423,11
135.448,-23
135.473,-23
135.498,25
135.523,110
135.548,192
135.573,238
135.598,246
135.623,242
135.648,254
135.673,281
135.698,304
135.723,310
135.748,299
135.773,289
135.798,288
135.823,293
135.848,295
135.873,292
135.898,287
135.923,280
135.948,269
135.973,252
135.998,228
136.023,200
136.048,176
136.073,158
136.098,146
136.123,134
136.148,113
136.173,79
136.198,41
136.223,23
136.248,47
136.273,111
136.298,189
136.323,250
136.348,276
136.373,280
136.398,283
136.423,295
136.448,308
136.473,311
136.498,303
136.523,296
136.548,299
136.573,309
136.598,314
136.623,307
136.648,292
136.673,279
136.698,269
136.723,255
136.748,228
136.773,193
136.798,163
136.823,146
136.848,134
136.873,112
136.898,71
136.923,29
136.948,14
136.973,45
136.998,114
137.023,188
137.048,239
137.073,257
137.098,259
137.123,262
137.148,272
137.173,282
137.198,286
137.223,283
137.248,280
137.273,281
137.298,285
137.323,288
137.348,286
137.373,278
137.398,266
137.423,250
137.448,232
137.473,211
137.498,186
137.523,158
137.548,132
137.573,113
137.598,100
137.623,80
137.648,44
137.673,2
137.698,-15
137.723,16
137.748,94
137.773,183
137.798,245
137.823,267
137.848,269
137.873,277
137.898,300
137.923,321
137.948,327
137.973,319
137.998,311
138.023,312
138.048,318
138.073,319
138.098,312
138.123,304
138.148,298
138.173,290
138.198,274
138.223,250
138.248,222
138.273,193
138.298,165
138.323,137
138.348,113
138.373,91
138.398,62
138.423,21
138.448,-22
138.473,-41
138.498,-13
138.523,59
138.548,144
138.573,206
138.598,232
138.623,240
138.648,252
138.673,274
138.698,294
138.723,302
138.748,301
138.773,299
138.798,304
138.823,309
138.848,311
138.873,309
138.898,310
138.923,310
138.948,303
138.973,285
138.998,259
139.023,232
139.048,210
139.073,190
139.098,171
139.123,151
139.148,133
139.173,109
139.198,74
139.223,33
139.248,5
139.273,15
139.298,67
139.323,145
139.348,215
139.373,257
139.398,273
139.423,279
139.448,289
139.473,301
139.498,309
139.523,307
139.548,303
139.573,303
139.598,311
139.623,319
139.648,318
139.673,308
139.698,293
139.723,280
139.748,268
139.773,249
139.798,219
139.823,185
139.848,157
139.873,139
139.898,119
139.923,85
139.948,38
139.973,5
139.998,16
140.023,76
140.048,156
140.073,218
140.098,245
140.123,247
140.148,252
140.173,270
140.198,290
140.223,298
140.248,290
140.273,280
140.298,280
140.323,289
140.348,296
140.373,294
140.398,283
140.423,270
140.448,256
140.473,240
140.498,219
140.523,193
140.548,164
140.573,138
140.598,118
140.623,102
140.648,81
140.673,46
140.698,2
140.723,-29
140.748,-20
140.773,41
140.798,133
140.823,215
140.848,258
140.873,269
140.898,274
140.923,293
140.948,321
140.973,337
140.998,333
141.023,320
141.048,315
141.073,320
141.098,326
141.123,325
141.148,317
141.173,310
141.198,301
141.223,283
141.248,254
141.273,221
141.298,193
141.323,172
141.348,152
141.373,127
141.398,99
141.423,71
141.448,39
141.473,2
141.498,-33
141.523,-43
141.548,-5
141.573,75
141.598,164
141.623,223
141.648,243
141.673,245
141.698,259
141.723,288
141.748,315
141.773,323
141.798,313
141.823,301
141.848,303
141.873,313
141.898,321
141.923,321
141.948,314
141.973,305
141.998,293
142.023,276
142.048,254
142.073,233
142.098,215
142.123,196
142.148,172
142.173,148
142.198,127
142.223,109
142.248,84
142.273,47
142.298,14
142.323,11
142.348,55
142.373,134
142.398,212
142.423,260
142.448,276
142.473,281
142.498,292
142.523,309
142.548,319
142.573,315
142.598,305
142.623,300
142.648,304
142.673,311
142.698,312
142.723,306
142.748,296
142.773,285
142.798,272
142.823,255
142.848,232
142.873,206
142.898,179
142.923,154
142.948,131
142.973,105
142.998,71
143.023,28
143.048,-10
143.073,-22
143.098,11
143.123,84
143.148,166
143.173,224
143.198,247
143.223,251
143.248,257
143.273,276
143.298,296
143.323,305
143.348,302
143.373,298
143.398,302
143.423,309
143.448,312
143.473,308
143.498,301
143.523,296
143.548,288
143.573,272
143.598,247
143.623,220
143.648,197
143.673,177
143.698,154
143.723,127
143.748,102
143.773,81
143.798,58
143.823,24
143.848,-12
143.873,-29
143.898,-1
143.923,74
143.948,165
143.973,231
143.998,257
144.023,259
144.048,266
144.073,291
144.098,317
144.123,326
144.148,314
144.173,298
144.198,294
144.223,303
144.248,311
144.273,310
144.298,301
144.323,293
144.348,287
144.373,277
144.398,257
144.423,234
144.448,216
144.473,202
144.498,184
144.523,157
144.548,123
144.573,94
144.598,72
144.623,48
144.648,15
144.673,-13
144.698,-15
144.723,27
144.748,102
144.773,177
144.798,224
144.823,243
144.848,252
144.873,267
144.898,288
144.923,303
144.948,305
144.973,297
144.998,291
145.023,296
145.048,308
145.073,321
145.098,328
145.123,324
145.148,312
145.173,295
145.198,278
145.223,260
145.248,237
145.273,210
145.298,184
145.323,165
145.348,151
145.373,131
145.398,96
145.423,58
145.448,43
145.473,73
145.498,145
145.523,225
145.548,278
145.573,295
145.598,293
145.623,295
145.648,304
145.673,310
145.698,302
145.723,287
145.748,277
145.773,279
145.798,285
145.823,286
145.848,278
145.873,267
145.898,254
145.923,240
145.948,223
145.973,203
145.998,183
146.023,164
146.048,142
146.073,119
146.098,97
146.123,75
146.148,45
146.173,6
146.198,-28
146.223,-32
146.248,14
146.273,100
146.298,187
146.323,242
146.348,259
146.373,260
146.398,271
146.423,292
146.448,308
146.473,305
146.498,292
146.523,284
146.548,287
146.573,296
146.598,300
146.623,295
146.648,286
146.673,277
146.698,266
146.723,250
146.748,228
146.773,201
146.798,170
146.823,141
146.848,118
146.873,105
146.898,93
146.923,69
146.948,32
146.973,1
146.998,6
147.023,61
147.048,147
147.073,222
147.098,259
147.123,264
147.148,266
147.173,284
147.198,310
147.223,324
147.248,317
147.273,301
147.298,293
147.323,299
147.348,308
147.373,309
147.398,302
147.423,292
147.448,285
147.473,277
147.498,265
147.523,244
147.548,218
147.573,191
147.598,170
147.623,156
147.648,140
147.673,113
147.698,75
147.723,42
147.748,41
147.773,84
147.798,160
147.823,232
147.848,271
147.873,278
147.898,273
147.923,278
147.948,290
147.973,297
147.998,290
148.023,280
148.048,280
148.073,291
148.098,300
148.123,297
148.148,287
148.173,278
148.198,270
148.223,252
148.248,220
148.273,184
148.298,163
148.323,157
148.348,147
148.373,115
148.398,67
148.423,35
148.448,53
148.473,117
148.498,193
148.523,240
148.548,247
148.573,237
148.598,234
148.623,243
148.648,249
148.673,238
148.698,215
148.723,196
148.748,194
148.773,199
148.798,197
148.823,183
148.848,165
148.873,154
148.898,150
148.923,139
148.948,114
148.973,83
148.998,63
149.023,60
149.048,58
149.073,41
149.098,13
149.123,1
149.148,34
149.173,113
149.198,208
149.223,279
149.248,313
149.273,326
149.298,342
149.323,371
149.348,399
149.373,412
149.398,407
149.423,395
149.448,387
149.473,387
149.498,388
149.523,384
149.548,371
149.573,350
149.598,323
149.623,293
149.648,261
149.673,229
149.698,195
149.723,161
149.748,129
149.773,96
149.798,57
149.823,9
149.848,-38
149.873,-64
149.898,-48
149.923,9
149.948,79
149.973,128
149.998,142
150.023,139
150.048,146
150.073,170
150.098,197
150.123,211
150.148,215
150.173,225
150.198,251
150.223,286
150.248,314
150.273,337
150.298,364
150.323,400
150.348,431
150.373,442
150.398,436
150.423,440
150.448,478
150.473,534
150.498,564
150.523,532
150.548,443
150.573,340
150.598,260
150.623,204
150.648,150
150.673,85
150.698,26
150.723,5
150.748,31
150.773,78
150.798,107
150.823,103
150.848,82
150.873,73
150.898,87
150.923,109
150.948,118
150.973,102
150.998,74
151.023,54
151.048,51
151.073,61
151.098,72
151.123,81
151.148,89
151.173,102
151.198,117
151.223,126
151.248,123
151.273,113
151.298,107
151.323,106
151.348,101
151.373,84
151.398,63
151.423,61
151.448,95
151.473,161
151.498,234
151.523,285
151.548,311
151.573,328
151.598,351
151.623,380
151.648,401
151.673,401
151.698,386
151.723,370
151.748,361
151.773,354
151.798,344
151.823,329
151.848,314
151.873,297
151.898,275
151.923,247
151.948,215
151.973,183
151.998,150
152.023,112
152.048,77
152.073,63
152.098,88
152.123,147
152.148,211
152.173,251
152.198,261
152.223,258
152.248,261
152.273,271
152.298,278
152.323,272
152.348,261
152.373,256
152.398,260
152.423,264
152.448,259
152.473,247
152.498,233
152.523,217
152.548,196
152.573,167
152.598,140
152.623,120
152.648,102
152.673,77
152.698,46
152.723,30
152.748,52
152.773,112
152.798,181
152.823,228
152.848,243
152.873,246
152.898,256
152.923,277
152.948,290
152.973,285
152.998,271
153.023,264
153.048,271
153.073,283
153.098,284
153.123,274
153.148,262
153.173,253
153.198,242
153.223,222
153.248,197
153.273,177
153.298,166
153.323,153
153.348,128
153.373,99
153.398,91
153.423,125
153.448,190
153.473,252
153.498,282
153.523,281
153.548,271
153.573,271
153.598,278
153.623,280
153.648,271
153.673,261
153.698,259
153.723,266
153.748,269
153.773,261
153.798,245
153.823,229
153.848,213
153.873,193
153.898,164
153.923,133
153.948,105
153.973,79
153.998,47
154.023,12
154.048,-6
154.073,12
154.098,74
154.123,153
154.148,217
154.173,247
154.198,252
154.223,257
154.248,270
154.273,286
154.298,293
154.323,289
154.348,287
154.373,294
154.398,307
154.423,314
154.448,308
154.473,294
154.498,279
154.523,264
154.548,240
154.573,204
154.598,165
154.623,137
154.648,122
154.673,103
154.698,67
154.723,20
154.748,-6
154.773,14
154.798,86
154.823,176
154.848,245
154.873,276
154.898,282
154.923,288
154.948,305
154.973,324
154.998,330
155.023,322
155.048,310
155.073,304
155.098,305
155.123,306
155.148,300
155.173,289
155.198,279
155.223,270
155.248,259
155.273,238
155.298,203
155.323,162
155.348,126
155.373,103
155.398,88
155.423,67
155.448,28
155.473,-21
155.498,-53
155.523,-37
155.548,32
155.573,130
155.598,214
155.623,258
155.648,268
155.673,269
155.698,281
155.723,299
155.748,311
155.773,308
155.798,299
155.823,294
155.848,298
155.873,304
155.898,304
155.923,297
155.948,286
155.973,276
155.998,264
156.023,247
156.048,225
156.073,201
156.098,180
156.123,162
156.148,146
156.173,126
156.198,100
156.223,68
156.248,45
156.273,49
156.298,91
156.323,162
156.348,236
156.373,283
156.398,296
156.423,290
156.448,289
156.473,299
156.498,310
156.523,309
156.548,296
156.573,286
156.598,288
156.623,298
156.648,301
156.673,290
156.698,271
156.723,254
156.748,242
156.773,225
156.798,195
156.823,159
156.848,132
156.873,118
156.898,102
156.923,68
156.948,18
156.973,-13
156.998,3
157.023,75
157.048,170
157.073,244
157.098,274
157.123,273
157.148,268
157.173,275
157.198,289
157.223,298
157.248,295
157.273,290
157.298,289
157.323,295
157.348,299
157.373,293
157.398,280
157.423,265
157.448,252
157.473,237
157.498,216
157.523,188
157.548,159
157.573,135
157.598,115
157.623,91
157.648,55
157.673,10
157.698,-20
157.723,-12
157.748,44
157.773,132
157.798,216
157.823,266
157.848,281
157.873,279
157.898,284
157.923,298
157.948,311
157.973,310
157.998,297
158.023,287
158.048,289
158.073,298
158.098,303
158.123,296
158.148,280
158.173,265
158.198,252
158.223,233
158.248,203
158.273,167
158.298,138
158.323,124
158.348,116
158.373,94
158.398,51
158.423,2
158.448,-19
158.473,9
158.498,82
158.523,165
158.548,225
158.573,250
158.598,254
158.623,260
158.648,276
158.673,292
158.698,298
158.723,292
158.748,287
158.773,291
158.798,304
158.823,315
158.848,316
158.873,306
158.898,292
158.923,278
158.948,264
158.973,244
158.998,219
159.023,196
159.048,180
159.073,167
159.098,146
159.123,110
159.148,67
159.173,42
159.198,61
159.223,124
159.248,206
159.273,272
159.298,301
159.323,301
159.348,293
159.373,292
159.398,294
159.423,290
159.448,280
159.473,272
159.498,274
159.523,282
159.548,283
159.573,273
159.598,256
159.623,241
159.648,225
159.673,201
159.698,168
159.723,136
159.748,116
159.773,103
159.798,82
159.823,42
159.848,0
159.873,-10
159.898,31
159.923,112
159.948,196
159.973,249
159.998,267
160.023,269
160.048,274
160.073,287
160.098,298
160.123,299
160.148,292
160.173,289
160.198,293
160.223,300
160.248,300
160.273,289
160.298,272
160.323,258
160.348,247
160.373,232
160.398,208
160.423,176
160.448,148
160.473,129
160.498,111
160.523,79
160.548,31
160.573,-13
160.598,-23
160.623,23
160.648,110
160.673,201
160.698,259
160.723,279
160.748,281
160.773,288
160.798,304
160.823,320
160.848,323
160.873,314
160.898,304
160.923,304
160.948,312
160.973,321
160.998,321
161.023,310
161.048,288
161.073,263
161.098,236
161.123,209
161.148,179
161.173,147
161.198,120
161.223,103
161.248,91
161.273,72
161.298,36
161.323,-6
161.348,-28
161.373,-3
161.398,69
161.423,162
161.448,234
161.473,265
161.498,266
161.523,261
161.548,269
161.573,285
161.598,295
161.623,293
161.648,284
161.673,281
161.698,289
161.723,299
161.748,304
161.773,298
161.798,285
161.823,272
161.848,258
161.873,241
161.898,216
161.923,189
161.948,166
161.973,149
161.998,133
162.023,110
162.048,83
162.073,71
162.098,96
162.123,158
162.148,233
162.173,287
162.198,303
162.223,295
162.248,287
162.273,291
162.298,299
162.323,294
162.348,278
162.373,265
162.398,267
162.423,278
162.448,280
162.473,264
162.498,239
162.523,218
162.548,203
162.573,185
162.598,158
162.623,126
162.648,101
162.673,82
162.698,58
162.723,24
162.748,-2
162.773,5
162.798,61
162.823,147
162.848,224
162.873,269
162.898,283
162.923,284
162.948,286
162.973,292
162.998,295
163.023,294
163.048,293
163.073,294
163.098,296
163.123,294
163.148,291
163.173,288
163.198,284
163.223,274
163.248,258
163.273,237
163.298,213
163.323,189
163.348,164
163.373,141
163.398,122
163.423,100
163.448,68
163.473,27
163.498,-2
163.523,9
163.548,73
163.573,167
163.598,249
163.623,288
163.648,289
163.673,280
163.698,281
163.723,290
163.748,293
163.773,280
163.798,262
163.823,253
163.848,256
163.873,263
163.898,266
163.923,264
163.948,257
163.973,247
163.998,231
164.023,209
164.048,184
164.073,159
164.098,138
164.123,122
164.148,111
164.173,99
164.198,79
164.223,45
164.248,11
164.273,0
164.298,32
164.323,103
164.348,184
164.373,240
164.398,264
164.423,274
164.448,289
164.473,314
164.498,336
164.523,341
164.548,335
164.573,331
164.598,338
164.623,348
164.648,352
164.673,347
164.698,339
164.723,333
164.748,323
164.773,302
164.798,269
164.823,233
164.848,205
164.873,188
164.898,173
164.923,150
164.948,115
164.973,81
164.998,67
165.023,93
165.048,158
165.073,237
165.098,294
165.123,302
165.148,267
165.173,216
165.198,177
165.223,159
165.248,153
165.273,150
165.298,152
165.323,168
165.348,197
165.373,226
165.398,240
165.423,237
165.448,228
165.473,221
165.498,209
165.523,187
165.548,157
165.573,130
165.598,114
165.623,98
165.648,68
165.673,26
165.698,0
165.723,17
165.748,86
165.773,176
165.798,248
165.823,283
165.848,293
165.873,300
165.898,313
165.923,328
165.948,334
165.973,330
165.998,322
166.023,319
166.048,319
166.073,318
166.098,313
166.123,303
166.148,290
166.173,276
166.198,261
166.223,243
166.248,218
166.273,186
166.298,150
166.323,121
166.348,102
166.373,83
166.398,53
166.423,12
166.448,-17
166.473,-4
166.498,61
166.523,155
166.548,235
166.573,271
166.598,271
166.623,264
166.648,274
166.673,298
166.698,320
166.723,326
166.748,317
166.773,305
166.798,297
166.823,293
166.848,289
166.873,284
166.898,276
166.923,265
166.948,248
166.973,228
166.998,203
167.023,176
167.048,146
167.073,119
167.098,99
167.123,85
167.148,69
167.173,39
167.198,3
167.223,-15
167.248,8
167.273,78
167.298,167
167.323,237
167.348,270
167.373,278
167.398,285
167.423,301
167.448,319
167.473,325
167.498,317
167.523,306
167.548,302
167.573,305
167.598,308
167.623,305
167.648,297
167.673,288
167.698,274
167.723,250
167.748,219
167.773,190
167.798,173
167.823,168
167.848,157
167.873,127
167.898,83
167.923,55
167.948,70
167.973,133
167.998,215
168.023,278
168.048,300
168.073,294
168.098,285
168.123,291
168.148,303
168.173,303
168.198,286
168.223,264
168.248,256
168.273,265
168.298,275
168.323,270
168.348,248
168.373,221
168.398,197
168.423,177
168.448,155
168.473,132
168.498,113
168.523,98
168.548,78
168.573,45
168.598,7
168.623,-9
168.648,17
168.673,86
168.698,169
168.723,232
168.748,261
168.773,266
168.798,269
168.823,281
168.848,296
168.873,304
168.898,301
168.923,292
168.948,284
168.973,283
168.998,285
169.023,285
169.048,278
169.073,266
169.098,252
169.123,236
169.148,218
169.173,193
169.198,166
169.223,142
169.248,123
169.273,104
169.298,74
169.323,36
169.348,14
169.373,33
169.398,99
169.423,185
169.448,251
169.473,276
169.498,272
169.523,270
169.548,283
169.573,303
169.598,312
169.623,303
169.648,290
169.673,286
169.698,292
169.723,300
169.748,300
169.773,295
169.798,287
169.823,276
169.848,259
169.873,236
169.898,212
169.923,189
169.948,166
169.973,142
169.998,119
170.023,99
170.048,80
170.073,52
170.098,13
170.123,-18
170.148,-14
170.173,37
170.198,120
170.223,196
170.248,239
170.273,250
170.298,254
170.323,266
170.348,286
170.373,299
170.398,300
170.423,297
170.448,299
170.473,310
170.498,320
170.523,323
170.548,320
170.573,314
170.598,308
170.623,299
170.648,283
170.673,256
170.698,223
170.723,191
170.748,167
170.773,150
170.798,131
170.823,103
170.848,69
170.873,50
170.898,69
170.923,127
170.948,200
170.973,255
170.998,276
171.023,271
171.048,266
171.073,273
171.098,284
171.123,287
171.148,279
171.173,269
171.198,263
171.223,264
171.248,264
171.273,260
171.298,254
171.323,246
171.348,235
171.373,218
171.398,197
171.423,174
171.448,151
171.473,129
171.498,110
171.523,93
171.548,78
171.573,55
171.598,22
171.623,-10
171.648,-16
171.673,25
171.698,106
171.723,193
171.748,248
171.773,262
171.798,259
171.823,267
171.848,292
171.873,317
171.898,325
171.923,316
171.948,306
171.973,311
171.998,325
172.023,338
172.048,341
172.073,337
172.098,331
172.123,319
172.148,299
172.173,268
172.198,236
172.223,209
172.248,186
172.273,162
172.298,135
172.323,109
172.348,85
172.373,57
172.398,19
172.423,-21
172.448,-38
172.473,-7
172.498,69
172.523,158
172.548,219
172.573,239
172.598,238
172.623,248
172.648,280
172.673,315
172.698,329
172.723,316
172.748,297
172.773,292
172.798,303
172.823,318
172.848,324
172.873,320
172.898,312
172.923,303
172.948,287
172.973,261
172.998,233
173.023,210
173.048,193
173.073,175
173.098,153
173.123,130
173.148,111
173.173,91
173.198,61
173.223,22
173.248,-3
173.273,11
173.298,72
173.323,155
173.348,221
173.373,250
173.398,255
173.423,261
173.448,279
173.473,301
173.498,310
173.523,306
173.548,300
173.573,302
173.598,310
173.623,314
173.648,306
173.673,290
173.698,275
173.723,266
173.748,258
173.773,245
173.798,225
173.823,198
173.848,170
173.873,145
173.898,128
173.923,115
173.948,96
173.973,66
173.998,32
174.023,19
174.048,48
174.073,115
174.098,194
174.123,249
174.148,267
174.173,265
174.198,267
174.223,283
174.248,303
174.273,312
174.298,305
174.323,295
174.348,293
174.373,299
174.398,304
174.423,300
174.448,292
174.473,282
174.498,273
174.523,258
174.548,235
174.573,207
174.598,183
174.623,163
174.648,146
174.673,126
174.698,104
174.723,79
174.748,49
174.773,12
174.798,-25
174.823,-41
174.848,-14
174.873,58
174.898,149
174.923,221
174.948,256
174.973,264
174.998,270
175.023,291
175.048,318
175.073,334
175.098,332
175.123,324
175.148,323
175.173,333
175.198,343
175.223,345
175.248,340
175.273,333
175.298,325
175.323,310
175.348,284
175.373,254
175.398,229
175.423,212
175.448,195
175.473,167
175.498,132
175.523,102
175.548,84
175.573,67
175.598,37
175.623,-8
175.648,-46
175.673,-43
175.698,11
175.723,98
175.748,176
175.773,215
175.798,221
175.823,217
175.848,229
175.873,256
175.898,281
175.923,286
175.948,274
175.973,263
175.998,270
176.023,298
176.048,333
176.073,359
176.098,369
176.123,365
176.148,353
176.173,333
176.198,306
176.223,277
176.248,251
176.273,230
176.298,209
176.323,183
176.348,153
176.373,127
176.398,106
176.423,82
176.448,47
176.473,9
176.498,-5
176.523,23
176.548,93
176.573,171
176.598,223
176.623,240
176.648,242
176.673,251
176.698,272
176.723,292
176.748,295
176.773,284
176.798,274
176.823,276
176.848,287
176.873,297
176.898,299
176.923,294
176.948,287
176.973,277
176.998,263
177.023,246
177.048,223
177.073,197
177.098,170
177.123,146
177.148,129
177.173,114
177.198,92
177.223,60
177.248,32
177.273,37
177.298,86
177.323,166
177.348,238
177.373,275
177.398,277
177.423,272
177.448,279
177.473,297
177.498,309
177.523,305
177.548,292
177.573,285
177.598,289
177.623,296
177.648,295
177.673,284
177.698,270
177.723,255
177.748,239
177.773,220
177.798,198
177.823,174
177.848,151
177.873,128
177.898,108
177.923,90
177.948,69
177.973,37
177.998,-1
178.023,-27
178.048,-11
178.073,56
178.098,152
178.123,232
178.148,266
178.173,263
178.198,258
178.223,275
178.248,309
178.273,332
178.298,330
178.323,314
178.348,307
178.373,316
178.398,330
178.423,333
178.448,321
178.473,303
178.498,290
178.523,278
178.548,259
178.573,234
178.598,210
178.623,190
178.648,173
178.673,151
178.698,126
178.723,101
178.748,79
178.773,54
178.798,19
178.823,-15
178.848,-24
178.873,13
178.898,93
178.923,178
178.948,233
178.973,246
178.998,237
179.023,239
179.048,265
179.073,299
179.098,320
179.123,318
179.148,304
179.173,298
179.198,306
179.223,319
179.248,324
179.273,319
179.298,308
179.323,298
179.348,287
179.373,272
179.398,251
179.423,230
179.448,214
179.473,199
179.498,179
179.523,152
179.548,127
179.573,110
179.598,97
179.623,74
179.648,34
179.673,-4
179.698,-13
179.723,26
179.748,102
179.773,177
179.798,222
179.823,235
179.848,239
179.873,253
179.898,278
179.923,297
179.948,302
179.973,298
179.998,299
180.023,308
180.048,320
180.073,325
180.098,322
180.123,316
180.148,310
180.173,303
180.198,289
180.223,269
180.248,247
180.273,223
180.298,199
180.323,174
180.348,152
180.373,135
180.398,118
180.423,92
180.448,55
180.473,21
180.498,14
180.523,50
180.548,119
180.573,192
180.598,240
180.623,256
180.648,257
180.673,261
180.698,277
180.723,294
180.748,300
180.773,294
180.798,286
180.823,286
180.848,291
180.873,295
180.898,294
180.923,289
180.948,284
180.973,278
180.998,266
181.023,246
181.048,223
181.073,203
181.098,187
181.123,167
181.148,141
181.173,114
181.198,92
181.223,75
181.248,51
181.273,14
181.298,-21
181.323,-24
181.348,27
181.373,117
181.398,205
181.423,252
181.448,258
181.473,254
181.498,267
181.523,300
181.548,329
181.573,333
181.598,318
181.623,304
181.648,307
181.673,318
181.698,324
181.723,317
181.748,306
181.773,298
181.798,292
181.823,278
181.848,254
181.873,226
181.898,203
181.923,184
181.948,159
181.973,126
181.998,95
182.023,72
182.048,56
182.073,30
182.098,-6
182.123,-36
182.148,-25
182.173,38
182.198,131
182.223,208
182.248,244
182.273,246
182.298,248
182.323,267
182.348,298
182.373,319
182.398,322
182.423,316
182.448,316
182.473,324
182.498,333
182.523,334
182.548,328
182.573,322
182.598,316
182.623,307
182.648,289
182.673,264
182.698,239
182.723,215
182.748,190
182.773,162
182.798,136
182.823,115
182.848,93
182.873,64
182.898,30
182.923,7
182.948,18
182.973,70
182.998,143
183.023,204
183.048,235
183.073,243
183.098,249
183.123,267
183.148,289
183.173,301
183.198,297
183.223,287
183.248,284
183.273,291
183.298,299
183.323,296
183.348,283
183.373,268
183.398,259
183.423,252
183.448,236
183.473,209
183.498,178
183.523,157
183.548,147
183.573,134
183.598,105
183.623,64
183.648,39
183.673,56
183.698,118
183.723,196
183.748,253
183.773,273
183.798,269
183.823,266
183.848,275
183.873,288
183.898,291
183.923,282
183.948,272
183.973,272
183.998,280
184.023,286
184.048,280
184.073,266
184.098,251
184.123,241
184.148,230
184.173,211
184.198,181
184.223,149
184.248,124
184.273,110
184.298,99
184.323,76
184.348,36
184.373,-5
184.398,-19
184.423,16
184.448,94
184.473,178
184.498,232
184.523,247
184.548,247
184.573,259
184.598,290
184.623,321
184.648,333
184.673,326
184.698,316
184.723,318
184.748,328
184.773,334
184.798,329
184.823,320
184.848,313
184.873,305
184.898,287
184.923,258
184.948,228
184.973,206
184.998,191
185.023,173
185.048,147
185.073,120
185.098,97
185.123,75
185.148,42
185.173,-1
185.198,-33
185.223,-20
185.248,43
185.273,131
185.298,199
185.323,225
185.348,224
185.373,227
185.398,253
185.423,290
185.448,313
185.473,312
185.498,298
185.523,290
185.548,297
185.573,310
185.598,317
185.623,312
185.648,302
185.673,293
185.698,284
185.723,271
185.748,252
185.773,231
185.798,214
185.823,202
185.848,186
185.873,164
185.898,140
185.923,121
185.948,108
185.973,91
185.998,61
186.023,25
186.048,8
186.073,33
186.098,98
186.123,173
186.148,225
186.173,243
186.198,243
186.223,250
186.248,272
186.273,295
186.298,303
186.323,299
186.348,295
186.373,302
186.398,316
186.423,325
186.448,322
186.473,311
186.498,299
186.523,290
186.548,278
186.573,261
186.598,240
186.623,216
186.648,193
186.673,169
186.698,147
186.723,130
186.748,113
186.773,87
186.798,51
186.823,19
186.848,18
186.873,64
186.898,141
186.923,210
186.948,242
186.973,240
186.998,233
187.023,245
187.048,273
187.073,295
187.098,296
187.123,284
187.148,277
187.173,286
187.198,300
187.223,304
187.248,294
187.273,283
187.298,277
187.323,273
187.348,261
187.373,238
187.398,211
187.423,193
187.448,182
187.473,167
187.498,142
187.523,114
187.548,93
187.573,79
187.598,59
187.623,23
187.648,-12
187.673,-19
187.698,23
187.723,104
187.748,186
187.773,236
187.798,249
187.823,248
187.848,258
187.873,284
187.898,312
187.923,327
187.948,327
187.973,321
187.998,323
188.023,333
188.048,344
188.073,348
188.098,342
188.123,330
188.148,317
188.173,302
188.198,282
188.223,256
188.248,228
188.273,204
188.298,185
188.323,166
188.348,141
188.373,111
188.398,87
188.423,71
188.448,57
188.473,33
188.498,-3
188.523,-33
188.548,-28
188.573,24
188.598,106
188.623,179
188.648,215
188.673,220
188.698,222
188.723,240
188.748,273
188.773,298
188.798,303
188.823,293
188.848,283
188.873,286
188.898,296
188.923,305
188.948,308
188.973,308
188.998,306
189.023,300
189.048,285
189.073,264
189.098,244
189.123,232
189.148,223
189.173,208
189.198,186
189.223,164
189.248,148
189.273,135
189.298,115
189.323,84
189.348,59
189.373,65
189.398,115
189.423,190
189.448,256
189.473,285
189.498,281
189.523,270
189.548,276
189.573,296
189.598,312
189.623,311
189.648,298
189.673,287
189.698,288
189.723,291
189.748,285
189.773,268
189.798,249
189.823,234
189.848,224
189.873,211
189.898,188
189.923,159
189.948,133
189.973,116
189.998,107
190.023,98
190.048,80
190.073,49
190.098,14
190.123,-3
190.148,18
190.173,83
190.198,170
190.223,242
190.248,275
190.273,276
190.298,270
190.323,281
190.348,304
190.373,319
190.398,315
190.423,300
190.448,291
190.473,297
190.498,308
190.523,310
190.548,301
190.573,289
190.598,279
190.623,270
190.648,254
190.673,229
190.698,203
190.723,180
190.748,162
190.773,145
190.798,127
190.823,105
190.848,78
190.873,43
190.898,10
190.923,0
190.948,35
190.973,113
190.998,202
191.023,264
191.048,281
191.073,271
191.098,265
191.123,277
191.148,293
191.173,297
191.198,287
191.223,278
191.248,283
191.273,297
191.298,306
191.323,303
191.348,295
191.373,290
191.398,288
191.423,277
191.448,253
191.473,223
191.498,197
191.523,178
191.548,161
191.573,140
191.598,117
191.623,95
191.648,70
191.673,37
191.698,2
191.723,-14
191.748,8
191.773,71
191.798,151
191.823,213
191.848,243
191.873,250
191.898,254
191.923,267
191.948,283
191.973,292
191.998,292
192.023,288
192.048,288
192.073,295
192.098,303
192.123,305
192.148,301
192.173,293
192.198,283
192.223,271
192.248,253
192.273,229
192.298,203
192.323,184
192.348,172
192.373,162
192.398,140
192.423,102
192.448,62
192.473,45
192.498,72
192.523,140
192.548,217
192.573,270
192.598,284
192.623,274
192.648,266
192.673,273
192.698,288
192.723,297
192.748,292
192.773,282
192.798,278
192.823,283
192.848,286
192.873,279
192.898,264
192.923,248
192.948,235
192.973,220
192.998,197
193.023,169
193.048,143
193.073,124
193.098,102
193.123,68
193.148,25
193.173,0
193.198,18
193.223,85
193.248,172
193.273,240
193.298,269
193.323,269
193.348,267
193.373,276
193.398,293
193.423,303
193.448,300
193.473,291
193.498,287
193.523,291
193.548,295
193.573,293
193.598,282
193.623,265
193.648,247
193.673,229
193.698,210
193.723,186
193.748,159
193.773,134
193.798,116
193.823,103
193.848,84
193.873,48
193.898,4
193.923,-22
193.948,-3
193.973,66
193.998,159
194.023,233
194.048,267
194.073,271
194.098,274
194.123,294
194.148,323
194.173,342
194.198,341
194.223,331
194.248,326
194.273,332
194.298,340
194.323,340
194.348,334
194.373,326
194.398,320
194.423,308
194.448,286
194.473,256
194.498,229
194.523,210
194.548,193
194.573,169
194.598,134
194.623,98
194.648,73
194.673,56
194.698,33
194.723,-6
194.748,-50
194.773,-67
194.798,-33
194.823,46
194.848,138
194.873,204
194.898,230
194.923,234
194.948,246
194.973,275
194.998,307
195.023,323
195.048,316
195.073,301
195.098,297
195.123,308
195.148,322
195.173,325
195.198,318
195.223,307
195.248,298
195.273,289
195.298,272
195.323,248
195.348,224
195.373,205
195.398,190
195.423,172
195.448,150
195.473,126
195.498,105
195.523,82
195.548,52
195.573,19
195.598,0
195.623,15
195.648,71
195.673,146
195.698,210
195.723,246
195.748,258
195.773,265
195.798,277
195.823,293
195.848,304
195.873,305
195.898,303
195.923,305
195.948,315
195.973,328
195.998,337
196.023,336
196.048,324
196.073,306
196.098,285
196.123,263
196.148,238
196.173,210
196.198,182
196.223,161
196.248,147
196.273,131
196.298,101
196.323,58
196.348,26
196.373,33
196.398,89
196.423,170
196.448,236
196.473,261
196.498,256
196.523,252
196.548,265
196.573,287
196.598,297
196.623,286
196.648,269
196.673,262
196.698,270
196.723,279
196.748,278
196.773,267
196.798,254
196.823,246
196.848,237
196.873,221
196.898,198
196.923,176
196.948,157
196.973,139
196.998,120
197.023,100
197.048,80
197.073,57
197.098,28
197.123,0
197.148,-5
197.173,29
197.198,104
197.223,187
197.248,246
197.273,268
197.298,269
197.323,275
197.348,294
197.373,315
197.398,322
197.423,316
197.448,310
197.473,313
197.498,322
197.523,325
197.548,320
197.573,311
197.598,305
197.623,297
197.648,279
197.673,252
197.698,224
197.723,201
197.748,183
197.773,160
197.798,134
197.823,108
197.848,87
197.873,63
197.898,29
197.923,-6
197.948,-14
197.973,27
197.998,112
198.023,201
198.048,253
198.073,260
198.098,251
198.123,257
198.148,282
198.173,307
198.198,312
198.223,298
198.248,284
198.273,285
198.298,294
198.323,298
198.348,291
198.373,281
198.398,272
198.423,263
198.448,248
198.473,223
198.498,193
198.523,167
198.548,147
198.573,132
198.598,119
198.623,106
198.648,86
198.673,56
198.698,20
198.723,-3
198.748,6
198.773,57
198.798,132
198.823,201
198.848,242
198.873,254
198.898,257
198.923,265
198.948,280
198.973,292
198.998,293
199.023,289
199.048,290
199.073,303
199.098,318
199.123,326
199.148,320
199.173,309
199.198,302
199.223,298
199.248,288
199.273,270
199.298,248
199.323,235
199.348,232
199.373,228
199.398,208
199.423,178
199.448,161
199.473,181
199.498,236
199.523,296
199.548,331
199.573,324
199.598,285
199.623,232
199.648,181
199.673,147
199.698,142
199.723,167
199.748,209
199.773,238
199.798,234
199.823,203
199.848,177
199.873,177
199.898,198
199.923,212
199.948,196
199.973,157
199.998,118
200.023,97
200.048,91
200.073,85
200.098,76
200.123,78
200.148,109
200.173,166
200.198,224
200.223,256
200.248,257
200.273,245
200.298,244
200.323,260
200.348,276
200.373,270
200.398,240
200.423,205
200.448,184
200.473,179
200.498,176
200.523,166
200.548,155
200.573,155
200.598,165
200.623,166
200.648,151
200.673,134
200.698,147
200.723,197
200.748,260
200.773,306
200.798,333
200.823,377
200.848,454
200.873,528
200.898,523
200.923,396
200.948,186
200.973,-1
200.998,-83
201.023,-49
201.048,37
201.073,110
201.098,140
201.123,142
201.148,131
201.173,109
201.198,74
201.223,30
201.248,-1
201.273,-1
201.298,35
201.323,104
201.348,191
201.373,274
201.398,335
201.423,363
201.448,362
201.473,350
201.498,338
201.523,323
201.548,299
201.573,268
201.598,242
201.623,231
201.648,225
201.673,212
201.698,191
201.723,177
201.748,181
201.773,191
201.798,179
201.823,134
201.848,80
201.873,59
201.898,93
201.923,165
201.948,235
201.973,276
201.998,289
202.023,297
202.048,314
202.073,340
202.098,363
202.123,377
202.148,382
202.173,381
202.198,380
202.223,380
202.248,383
202.273,385
202.298,379
202.323,363
202.348,338
202.373,312
202.398,285
202.423,254
202.448,221
202.473,187
202.498,159
202.523,135
202.548,108
202.573,72
202.598,34
202.623,6
202.648,-8
202.673,-24
202.698,-55
202.723,-96
202.748,-120
202.773,-100
202.798,-34
202.823,51
202.848,121
202.873,161
202.898,184
202.923,216
202.948,263
202.973,313
202.998,348
203.023,361
203.048,363
203.073,367
203.098,378
203.123,388
203.148,392
203.173,387
203.198,378
203.223,367
203.248,352
203.273,332
203.298,308
203.323,284
203.348,261
203.373,236
203.398,207
203.423,173
203.448,142
203.473,117
203.498,92
203.523,56
203.548,7
203.573,-36
203.598,-49
203.623,-15
203.648,52
203.673,124
203.698,170
203.723,188
203.748,197
203.773,215
203.798,244
203.823,267
203.848,271
203.873,263
203.898,259
203.923,270
203.948,289
203.973,300
203.998,297
204.023,285
204.048,276
204.073,271
204.098,266
204.123,253
204.148,231
204.173,205
204.198,182
204.223,162
204.248,145
204.273,132
204.298,121
204.323,105
204.348,75
204.373,34
204.398,6
204.423,18
204.448,80
204.473,170
204.498,246
204.523,282
204.548,284
204.573,280
204.598,293
204.623,320
204.648,340
204.673,339
204.698,324
204.723,314
204.748,316
204.773,324
204.798,327
204.823,321
204.848,314
204.873,308
204.898,299
204.923,280
204.948,253
204.973,227
204.998,208
205.023,194
205.048,177
205.073,154
205.098,133
205.123,118
205.148,102
205.173,72
205.198,31
205.223,1
205.248,12
205.273,72
205.298,158
205.323,228
205.348,259
205.373,256
205.398,250
205.423,258
205.448,279
205.473,293
205.498,292
205.523,280
205.548,271
205.573,269
205.598,270
205.623,269
205.648,266
205.673,265
205.698,264
205.723,256
205.748,236
205.773,209
205.798,186
205.823,170
205.848,157
205.873,140
205.898,119
205.923,100
205.948,84
205.973,66
205.998,40
206.023,16
206.048,17
206.073,59
206.098,136
206.123,215
206.148,266
206.173,281
206.198,276
206.223,276
206.248,287
206.273,301
206.298,305
206.323,300
206.348,295
206.373,301
206.398,312
206.423,318
206.448,312
206.473,299
206.498,287
206.523,277
206.548,263
206.573,238
206.598,206
206.623,178
206.648,162
206.673,150
206.698,127
206.723,88
206.748,49
206.773,41
206.798,82
206.823,159
206.848,238
206.873,285
206.898,295
206.923,287
206.948,284
206.973,291
206.998,296
207.023,288
207.048,271
207.073,260
207.098,261
207.123,268
207.148,270
207.173,261
207.198,247
207.223,236
207.248,227
207.273,210
207.298,183
207.323,151
207.348,128
207.373,114
207.398,96
207.423,62
207.448,20
207.473,-1
207.498,21
207.523,91
207.548,179
207.573,249
207.598,282
207.623,288
207.648,287
207.673,292
207.698,300
207.723,303
207.748,299
207.773,293
207.798,293
207.823,297
207.848,299
207.873,296
207.898,289
207.923,280
207.948,266
207.973,239
207.998,203
208.023,167
208.048,142
208.073,126
208.098,105
208.123,71
208.148,32
208.173,16
208.198,46
208.223,119
208.248,203
208.273,265
208.298,289
208.323,290
208.348,291
208.373,301
208.398,311
208.423,308
208.448,293
208.473,280
208.498,278
208.523,285
208.548,286
208.573,276
208.598,260
208.623,245
208.648,230
208.673,204
208.698,165
208.723,126
208.748,99
208.773,84
208.798,64
208.823,30
208.848,-2
208.873,0
208.898,55
208.923,147
208.948,228
208.973,267
208.998,267
209.023,259
209.048,267
209.073,286
209.098,299
209.123,294
209.148,282
209.173,275
209.198,276
209.223,276
209.248,269
209.273,260
209.298,252
209.323,243
209.348,226
209.373,201
209.398,175
209.423,153
209.448,132
209.473,103
209.498,70
209.523,56
209.548,82
209.573,143
209.598,214
209.623,265
209.648,287
209.673,291
209.698,291
209.723,292
209.748,291
209.773,287
209.798,284
209.823,284
209.848,285
209.873,282
209.898,275
209.923,265
209.948,253
209.973,235
209.998,211
210.023,187
210.048,164
210.073,140
210.098,108
210.123,74
210.148,61
210.173,87
210.198,151
210.223,226
210.248,278
210.273,295
210.298,288
210.323,277
210.348,272
210.373,268
210.398,260
210.423,248
210.448,240
210.473,237
210.498,237
210.523,233
210.548,225
210.573,210
210.598,191
210.623,173
210.648,158
210.673,143
210.698,120
210.723,84
210.748,47
210.773,38
210.798,79
210.823,158
210.848,239
210.873,287
210.898,294
210.923,285
210.948,282
210.973,288
210.998,291
211.023,280
211.048,263
211.073,252
211.098,248
211.123,246
211.148,240
211.173,233
211.198,225
211.223,214
211.248,195
211.273,168
211.298,141
211.323,116
211.348,88
211.373,56
211.398,38
211.423,59
211.448,127
211.473,216
211.498,281
211.523,302
211.548,293
211.573,286
211.598,296
211.623,312
211.648,312
211.673,297
211.698,281
211.723,277
211.748,280
211.773,280
211.798,273
211.823,265
211.848,258
211.873,245
211.898,218
211.923,184
211.948,154
211.973,134
211.998,111
212.023,76
212.048,40
212.073,34
212.098,80
212.123,163
212.148,243
212.173,282
212.198,280
212.223,263
212.248,259
212.273,269
212.298,277
212.323,269
212.348,251
212.373,239
212.398,239
212.423,243
212.448,240
212.473,227
212.498,214
212.523,207
212.548,199
212.573,179
212.598,147
212.623,118
212.648,104
212.673,100
212.698,87
212.723,57
212.748,26
212.773,29
212.798,85
212.823,171
212.848,246
212.873,278
212.898,274
212.923,263
212.948,268
212.973,283
212.998,294
213.023,293
213.048,287
213.073,285
213.098,289
213.123,291
213.148,287
213.173,279
213.198,268
213.223,253
213.248,232
213.273,208
213.298,190
213.323,177
213.348,157
213.373,127
213.398,103
213.423,110
213.448,159
213.473,229
213.498,283
213.523,303
213.548,296
213.573,287
213.598,286
213.623,286
213.648,277
213.673,261
213.698,251
213.723,252
213.748,257
213.773,255
213.798,242
213.823,226
213.848,212
213.873,195
213.898,172
213.923,148
213.948,124
213.973,99
213.998,65
214.023,28
214.048,14
214.073,46
214.098,122
214.123,207
214.148,261
214.173,271
214.198,259
214.223,255
214.248,267
214.273,278
214.298,276
214.323,265
214.348,259
214.373,262
214.398,267
214.423,264
214.448,254
214.473,246
214.498,240
214.523,228
214.548,203
214.573,172
214.598,149
214.623,134
214.648,114
214.673,78
214.698,37
214.723,24
214.748,64
214.773,147
214.798,236
214.823,292
214.848,307
214.873,300
214.898,298
214.923,309
214.948,320
214.973,319
214.998,306
215.023,292
215.048,288
215.073,293
215.098,296
215.123,290
215.148,274
215.173,257
215.198,240
215.223,219
215.248,190
215.273,156
215.298,129
215.323,113
215.348,98
215.373,70
215.398,28
215.423,-4
215.448,5
215.473,68
215.498,157
215.523,229
215.548,256
215.573,247
215.598,234
215.623,240
215.648,261
215.673,279
215.698,278
215.723,267
215.748,259
215.773,263
215.798,272
215.823,274
215.848,266
215.873,255
215.898,246
215.923,240
215.948,229
215.973,206
215.998,178
216.023,153
216.048,138
216.073,126
216.098,105
216.123,73
216.148,49
216.173,57
216.198,109
216.223,186
216.248,252
216.273,281
216.298,278
216.323,268
216.348,271
216.373,286
216.398,298
216.423,297
216.448,291
216.473,291
216.498,299
216.523,306
216.548,303
216.573,293
216.598,284
216.623,275
216.648,256
216.673,227
216.698,195
216.723,173
216.748,158
216.773,136
216.798,101
216.823,72
216.848,80
216.873,136
216.898,217
216.923,280
216.948,298
216.973,282
216.998,264
217.023,261
217.048,266
217.073,260
217.098,239
217.123,220
217.148,216
217.173,220
217.198,216
217.223,195
217.248,168
217.273,150
217.298,142
217.323,127
217.348,96
217.373,57
217.398,27
217.423,7
217.448,-15
217.473,-50
217.498,-80
217.523,-73
217.548,-13
217.573,74
217.598,148
217.623,185
217.648,198
217.673,214
217.698,241
217.723,264
217.748,267
217.773,254
217.798,248
217.823,258
217.848,277
217.873,292
217.898,299
217.923,307
217.948,320
217.973,329
217.998,326
218.023,315
218.048,309
218.073,317
218.098,328
218.123,330
218.148,321
218.173,316
218.198,338
218.223,399
218.248,496
218.273,611
218.298,711
218.323,756
218.348,722
218.373,621
218.398,502
218.423,419
218.448,394
218.473,412
218.498,441
218.523,461
218.548,464
218.573,447
218.598,405
218.623,340
218.648,272
218.673,226
218.698,203
218.723,177
218.748,121
218.773,27
218.798,-86
218.823,-201
218.848,-304
218.873,-384
218.898,-422
218.923,-407
218.948,-357
218.973,-320
218.998,-335
219.023,-382
219.048,-400
219.073,-336
219.098,-206
219.123,-76
219.148,-5
219.173,1
219.198,-11
219.223,0
219.248,40
219.273,96
219.298,152
219.323,208
219.348,262
219.373,304
219.398,329
219.423,344
219.448,370
219.473,411
219.498,450
219.523,459
219.548,433
219.573,398
219.598,385
219.623,401
219.648,422
219.673,424
219.698,407
219.723,398
219.748,423
219.773,478
219.798,530
219.823,544
219.848,507
219.873,431
219.898,343
219.923,263
219.948,201
219.973,159
219.998,135
220.023,115
220.048,87
220.073,49
220.098,15
220.123,2
220.148,9
220.173,12
220.198,-11
220.223,-57
220.248,-89
220.273,-70
220.298,-3
220.323,76
220.348,133
220.373,171
220.398,218
220.423,291
220.448,371
220.473,418
220.498,419
220.523,396
220.548,384
220.573,399
220.598,424
220.623,440
220.648,449
220.673,464
220.698,488
220.723,502
220.748,484
220.773,430
220.798,359
220.823,292
220.848,235
220.873,185
220.898,143
220.923,124
220.948,140
220.973,188
220.998,244
221.023,280
221.048,286
221.073,271
221.098,259
221.123,263
221.148,281
221.173,295
221.198,290
221.223,266
221.248,238
221.273,216
221.298,202
221.323,186
221.348,168
221.373,156
221.398,152
221.423,140
221.448,105
221.473,54
221.498,31
221.523,75
221.548,179
221.573,279
221.598,304
221.623,237
221.648,127
221.673,44
221.698,17
221.723,29
221.748,49
221.773,67
221.798,97
221.823,138
221.848,171
221.873,172
221.898,139
221.923,96
221.948,67
221.973,54
221.998,50
222.023,45
222.048,38
222.073,31
222.098,26
222.123,29
222.148,50
222.173,103
222.198,183
222.223,273
222.248,352
222.273,407
222.298,425
222.323,389
222.348,287
222.373,141
222.398,4
222.423,-64
222.448,-47
222.473,22
222.498,91
222.523,134
222.548,167
222.573,208
222.598,254
222.623,278
222.648,261
222.673,224
222.698,204
222.723,231
222.748,296
222.773,372
222.798,432
222.823,473
222.848,500
222.873,522
222.898,536
222.923,536
222.948,524
222.973,506
222.998,491
223.023,483
223.048,472
223.073,451
223.098,416
223.123,376
223.148,345
223.173,322
223.198,294
223.223,244
223.248,171
223.273,96
223.298,42
223.323,20
223.348,20
223.373,25
223.398,29
223.423,33
223.448,34
223.473,26
223.498,8
223.523,-7
223.548,-3
223.573,24
223.598,58
223.623,79
223.648,83
223.673,84
223.698,97
223.723,118
223.748,132
223.773,130
223.798,119
223.823,109
223.848,108
223.873,111
223.898,121
223.923,145
223.948,190
223.973,249
223.998,301
224.023,331
224.048,341
224.073,342
224.098,344
224.123,346
224.148,343
224.173,336
224.198,330
224.223,326
224.248,319
224.273,305
224.298,286
224.323,262
224.348,231
224.373,185
224.398,128
224.423,80
224.448,68
224.473,102
224.498,165
224.523,229
224.548,276
224.573,303
224.598,314
224.623,308
224.648,280
224.673,237
224.698,197
224.723,177
224.748,173
224.773,164
224.798,136
224.823,92
224.848,52
224.873,32
224.898,25
224.923,11
224.948,-21
224.973,-59
224.998,-71
225.023,-34
225.048,45
225.073,136
225.098,199
225.123,219
225.148,212
225.173,211
225.198,230
225.223,257
225.248,268
225.273,255
225.298,237
225.323,240
225.348,267
225.373,296
225.398,306
225.423,295
225.448,287
225.473,295
225.498,312
225.523,318
225.548,311
225.573,317
225.598,363
225.623,448
225.648,537
225.673,597
225.698,622
225.723,639
225.748,680
225.773,753
225.798,838
225.823,897
225.848,892
225.873,802
225.898,639
225.923,452
225.948,295
225.973,201
225.998,157
226.023,127
226.048,82
226.073,15
226.098,-78
226.123,-212
226.148,-388
226.173,-564
226.198,-662
226.223,-626
226.248,-487
226.273,-351
226.298,-313
226.323,-367
226.348,-424
226.373,-400
226.398,-300
226.423,-197
226.448,-146
226.473,-129
226.498,-82
226.523,23
226.548,151
226.573,238
226.598,257
226.623,226
226.648,176
226.673,123
226.698,83
226.723,81
226.748,147
226.773,270
226.798,395
226.823,456
226.848,434
226.873,368
226.898,311
226.923,291
226.948,304
226.973,338
226.998,386
227.023,435
227.048,464
227.073,458
227.098,432
227.123,427
227.148,476
227.173,569
227.198,671
227.223,757
227.248,827
227.273,896
227.298,971
227.323,1056
227.348,1157
227.373,1275
227.398,1386
227.423,1437
227.448,1383
227.473,1235
227.498,1055
227.523,914
227.548,832
227.573,785
227.598,743
227.623,685
227.648,589
227.673,417
227.698,147
227.723,-185
227.748,-484
227.773,-668
227.798,-745
227.823,-802
227.848,-915
227.873,-1068
227.898,-1180
227.923,-1197
227.948,-1149
227.973,-1116
227.998,-1135
228.023,-1174
228.048,-1179
228.073,-1144
228.098,-1102
228.123,-1078
228.148,-1043
228.173,-946
228.198,-771
228.223,-548
228.248,-317
228.273,-92
228.298,133
228.323,346
228.348,502
228.373,563
228.398,542
228.423,503
228.448,506
228.473,568
228.498,663
228.523,758
228.548,837
228.573,900
228.598,944
228.623,964
228.648,960
228.673,943
228.698,928
228.723,921
228.748,915
228.773,895
228.798,848
228.823,771
228.848,676
228.873,595
228.898,557
228.923,569
228.948,599
228.973,605
228.998,567
229.023,506
229.048,459
229.073,439
229.098,429
229.123,406
229.148,368
229.173,332
229.198,307
229.223,286
229.248,261
229.273,244
229.298,253
229.323,283
229.348,301
229.373,278
229.398,220
229.423,164
229.448,136
229.473,120
229.498,82
229.523,21
229.548,-22
229.573,-8
229.598,62
229.623,147
229.648,211
229.673,254
229.698,290
229.723,309
229.748,274
229.773,164
229.798,18
229.823,-95
229.848,-132
229.873,-104
229.898,-57
229.923,-16
229.948,26
229.973,88
229.998,157
230.023,202
230.048,199
230.073,148
230.098,63
230.123,-35
230.148,-114
230.173,-122
230.198,-29
230.223,132
230.248,264
230.273,263
230.298,109
230.323,-110
230.348,-270
230.373,-300
230.398,-220
230.423,-100
230.448,7
230.473,97
230.498,188
230.523,288
230.548,384
230.573,455
230.598,485
230.623,465
230.648,406
230.673,334
230.698,286
230.723,282
230.748,310
230.773,333
230.798,322
230.823,287
230.848,265
230.873,281
230.898,328
230.923,371
230.948,380
230.973,351
230.998,307
231.023,284
231.048,310
231.073,383
231.098,464
231.123,498
231.148,442
231.173,306
231.198,145
231.223,30
231.248,-2
231.273,35
231.298,114
231.323,207
231.348,306
231.373,395
231.398,448
231.423,432
231.448,334
231.473,175
231.498,-2
231.523,-158
231.548,-262
231.573,-305
231.598,-297
231.623,-258
231.648,-217
231.673,-193
231.698,-185
231.723,-178
231.748,-153
231.773,-101
231.798,-34
231.823,23
231.848,55
231.873,57
231.898,46
231.923,38
231.948,45
231.973,60
231.998,81
232.023,113
232.048,167
232.073,239
232.098,308
232.123,357
232.148,390
232.173,431
232.198,495
232.223,568
232.248,617
232.273,633
232.298,645
232.323,687
232.348,763
232.373,849
232.398,922
232.423,997
232.448,1093
232.473,1204
232.498,1289
232.523,1316
232.548,1286
232.573,1205
232.598,1034
232.623,713
232.648,251
232.673,-199
232.698,-407
232.723,-243
232.748,179
232.773,557
232.798,618
232.823,322
232.848,-133
232.873,-483
232.898,-598
232.923,-532
232.948,-428
232.973,-379
232.998,-367
233.023,-315
233.048,-170
233.073,43
233.098,243
233.123,347
233.148,320
233.173,191
233.198,27
233.223,-113
233.248,-203
233.273,-243
233.298,-240
233.323,-202
233.348,-143
233.373,-89
233.398,-62
233.423,-58
233.448,-46
233.473,1
233.498,80
233.523,156
233.548,202
233.573,222
233.598,243
233.623,284
233.648,337
233.673,377
233.698,387
233.723,370
233.748,344
233.773,328
233.798,329
233.823,341
233.848,350
233.873,342
233.898,318
233.923,291
233.948,276
233.973,268
233.998,243
234.023,185
234.048,106
234.073,46
234.098,33
234.123,53
234.148,62
234.173,24
234.198,-53
234.223,-137
234.248,-194
234.273,-217
234.298,-217
234.323,-194
234.348,-133
234.373,-15
234.398,150
234.423,323
234.448,450
234.473,499
234.498,481
234.523,440
234.548,414
234.573,409
234.598,406
234.623,387
234.648,361
234.673,357
234.698,392
234.723,441
234.748,456
234.773,406
234.798,307
234.823,211
234.848,164
234.873,174
234.898,219
234.923,271
234.948,322
234.973,374
234.998,423
235.023,453
235.048,448
235.073,409
235.098,358
235.123,320
235.148,309
235.173,322
235.198,341
235.223,347
235.248,336
235.273,318
235.298,312
235.323,327
235.348,357
235.373,385
235.398,399
235.423,398
235.448,390
235.473,381
235.498,365
235.523,340
235.548,309
235.573,284
235.598,278
235.623,289
235.648,303
235.673,303
235.698,281
235.723,246
235.748,217
235.773,202
235.798,189
235.823,158
235.848,102
235.873,36
235.898,-9
235.923,-14
235.948,11
235.973,39
235.998,47
236.023,34
236.048,15
236.073,5
236.098,0
236.123,-15
236.148,-45
236.173,-86
236.198,-124
236.223,-150
236.248,-164
236.273,-171
236.298,-180
236.323,-190
236.348,-196
236.373,-191
236.398,-172
236.423,-147
236.448,-128
236.473,-114
236.498,-88
236.523,-26
236.548,77
236.573,203
236.598,320
236.623,409
236.648,476
236.673,537
236.698,598
236.723,648
236.748,673
236.773,674
236.798,664
236.823,659
236.848,660
236.873,657
236.898,638
236.923,597
236.948,540
236.973,475
236.998,414
237.023,359
237.048,312
237.073,278
237.098,264
237.123,277
237.148,310
237.173,342
237.198,348
237.223,326
237.248,292
237.273,265
237.298,242
237.323,203
237.348,130
237.373,38
237.398,-36
237.423,-69
237.448,-71
237.473,-74
237.498,-96
237.523,-124
237.548,-130
237.573,-111
237.598,-88
237.623,-86
237.648,-102
237.673,-101
237.698,-52
237.723,43
237.748,153
237.773,238
237.798,286
237.823,315
237.848,345
237.873,376
237.898,390
237.923,375
237.948,342
237.973,317
237.998,313
238.023,322
238.048,320
238.073,295
238.098,261
238.123,237
238.148,228
238.173,217
238.198,185
238.223,137
238.248,102
238.273,103
238.298,145
238.323,206
238.348,260
238.373,296
238.398,315
238.423,321
238.448,317
238.473,304
238.498,285
238.523,268
238.548,258
238.573,259
238.598,270
238.623,289
238.648,306
238.673,314
238.698,309
238.723,292
238.748,256
238.773,187
238.798,76
238.823,-57
238.848,-162
238.873,-185
238.898,-113
238.923,15
238.948,137
238.973,213
238.998,248
239.023,275
239.048,313
239.073,352
239.098,370
239.123,354
239.148,312
239.173,260
239.198,207
239.223,154
239.248,107
239.273,80
239.298,91
239.323,141
239.348,206
239.373,254
239.398,261
239.423,235
239.448,203
239.473,185
239.498,175
239.523,151
239.548,103
239.573,50
239.598,29
239.623,60
239.648,128
239.673,198
239.698,246
239.723,276
239.748,305
239.773,335
239.798,352
239.823,341
239.848,305
239.873,267
239.898,245
239.923,244
239.948,256
239.973,267
239.998,269
240.023,255
240.048,229
240.073,195
240.098,164
240.123,138
240.148,113
240.173,87
240.198,68
240.223,74
240.248,109
240.273,158
240.298,197
240.323,214
240.348,220
240.373,231
240.398,251
240.423,267
240.448,262
240.473,242
240.498,226
240.523,231
240.548,253
240.573,274
240.598,277
240.623,257
240.648,229
240.673,204
240.698,188
240.723,173
240.748,149
240.773,118
240.798,95
240.823,99
240.848,136
240.873,190
240.898,235
240.923,261
240.948,276
240.973,298
240.998,329
241.023,357
241.048,372
241.073,377
241.098,388
241.123,410
241.148,430
241.173,433
241.198,419
241.223,403
241.248,397
241.273,396
241.298,385
241.323,361
241.348,331
241.373,304
241.398,275
241.423,235
241.448,184
241.473,138
241.498,115
241.523,112
241.548,112
241.573,98
241.598,69
241.623,36
241.648,5
241.673,-22
241.698,-51
241.723,-80
241.748,-107
241.773,-136
241.798,-167
241.823,-197
241.848,-214
241.873,-214
241.898,-200
241.923,-182
241.948,-158
241.973,-116
241.998,-54
242.023,10
242.048,61
242.073,94
242.098,133
242.123,204
242.148,303
242.173,402
242.198,469
242.223,498
242.248,511
242.273,528
242.298,547
242.323,555
242.348,546
242.373,530
242.398,520
242.423,512
242.448,492
242.473,457
242.498,419
242.523,396
242.548,386
242.573,374
242.598,343
242.623,298
242.648,253
242.673,216
242.698,179
242.723,131
242.748,80
242.773,52
242.798,71
242.823,128
242.848,187
242.873,215
242.898,210
242.923,195
242.948,197
242.973,219
242.998,241
243.023,245
243.048,235
243.073,231
243.098,244
243.123,260
243.148,252
243.173,204
243.198,125
243.223,46
243.248,-7
243.273,-34
243.298,-47
243.323,-55
243.348,-51
243.373,-22
243.398,27
243.423,76
243.448,102
243.473,112
243.498,136
243.523,197
243.548,290
243.573,377
243.598,428
243.623,436
243.648,416
243.673,374
243.698,304
243.723,209
243.748,126
243.773,107
243.798,170
243.823,275
243.848,350
243.873,361
243.898,342
243.923,354
243.948,422
243.973,502
243.998,524
244.023,463
244.048,361
244.073,280
244.098,248
244.123,239
244.148,212
244.173,163
244.198,129
244.223,152
244.248,238
244.273,355
244.298,456
244.323,509
244.348,502
244.373,442
244.398,348
244.423,251
244.448,182
244.473,156
244.498,155
244.523,142
244.548,95
244.573,22
244.598,-42
244.623,-73
244.648,-80
244.673,-97
244.698,-144
244.723,-205
244.748,-229
244.773,-181
244.798,-77
244.823,25
244.848,73
244.873,58
244.898,21
244.923,11
244.948,43
244.973,92
244.998,120
245.023,118
245.048,101
245.073,92
245.098,95
245.123,99
245.148,97
245.173,98
245.198,114
245.223,145
245.248,173
245.273,181
245.298,172
245.323,166
245.348,189
245.373,243
245.398,314
245.423,378
245.448,422
245.473,447
245.498,462
245.523,473
245.548,478
245.573,475
245.598,462
245.623,444
245.648,429
245.673,425
245.698,427
245.723,428
245.748,420
245.773,403
245.798,383
245.823,367
245.848,352
245.873,337
245.898,321
245.923,313
245.948,316
245.973,324
245.998,323
246.023,303
246.048,267
246.073,231
246.098,211
246.123,210
246.148,221
246.173,237
246.198,252
246.223,261
246.248,251
246.273,213
246.298,147
246.323,67
246.348,-10
246.373,-81
246.398,-153
246.423,-236
246.448,-326
246.473,-409
246.498,-466
246.523,-488
246.548,-467
246.573,-399
246.598,-279
246.623,-119
246.648,54
246.673,211
246.698,342
246.723,456
246.748,569
246.773,673
246.798,741
246.823,748
246.848,704
246.873,649
246.898,629
246.923,663
246.948,732
246.973,795
246.998,824
247.023,809
247.048,759
247.073,680
247.098,584
247.123,482
247.148,397
247.173,345
247.198,325
247.223,310
247.248,264
247.273,159
247.298,3
247.323,-167
247.348,-305
247.373,-385
247.398,-418
247.423,-438
247.448,-469
247.473,-507
247.498,-521
247.523,-490
247.548,-417
247.573,-331
247.598,-258
247.623,-209
247.648,-173
247.673,-128
247.698,-54
247.723,59
247.748,200
247.773,339
247.798,442
247.823,497
247.848,530
247.873,571
247.898,626
247.923,664
247.948,654
247.973,614
247.998,596
248.023,634
248.048,694
248.073,716
248.098,694
248.123,706
248.148,831
248.173,1031
248.198,1124
248.223,924
248.248,421
248.273,-183
248.298,-615
248.323,-725
248.348,-563
248.373,-285
248.398,-14
248.423,209
248.448,372
248.473,445
248.498,402
248.523,282
248.548,177
248.573,144
248.598,147
248.623,90
248.648,-61
248.673,-232
248.698,-293
248.723,-185
248.748,23
248.773,205
248.798,270
248.823,223
248.848,126
248.873,39
248.898,-6
248.923,0
248.948,55
248.973,135
248.998,197
249.023,209
249.048,178
249.073,148
249.098,153
249.123,186
249.148,212
249.173,202
249.198,167
249.223,139
249.248,134
249.273,140
249.298,139
249.323,131
249.348,128
249.373,141
249.398,161
249.423,181
249.448,206
249.473,255
249.498,337
249.523,431
249.548,503
249.573,532
249.598,530
249.623,527
249.648,546
249.673,577
249.698,592
249.723,570
249.748,510
249.773,423
249.798,317
249.823,196
249.848,76
249.873,-10
249.898,-32
249.923,10
249.948,78
249.973,123
249.998,132
250.023,140
250.048,205
250.073,343
250.098,517
250.123,653
250.148,705
250.173,678
250.198,617
250.223,565
250.248,536
250.273,524
250.298,527
250.323,548
250.348,587
250.373,620
250.398,607
250.423,523
250.448,383
250.473,227
250.498,90
250.523,-26
250.548,-153
250.573,-313
250.598,-494
250.623,-651
250.648,-743
250.673,-758
250.698,-714
250.723,-633
250.748,-523
250.773,-391
250.798,-257
250.823,-150
250.848,-84
250.873,-45
250.898,-7
250.923,40
250.948,73
250.973,63
250.998,11
251.023,-46
251.048,-71
251.073,-52
251.098,-11
251.123,35
251.148,92
251.173,181
251.198,304
251.223,433
251.248,530
251.273,583
251.298,610
251.323,641
251.348,693
251.373,758
251.398,816
251.423,849
251.448,848
251.473,818
251.498,773
251.523,728
251.548,698
251.573,679
251.598,660
251.623,630
251.648,589
251.673,552
251.698,538
251.723,553
251.748,587
251.773,618
251.798,619
251.823,565
251.848,451
251.873,293
251.898,126
251.923,-16
251.948,-121
251.973,-196
251.998,-259
252.023,-318
252.048,-363
252.073,-377
252.098,-355
252.123,-309
252.148,-269
252.173,-256
252.198,-265
252.223,-270
252.248,-237
252.273,-159
252.298,-56
252.323,36
252.348,99
252.373,134
252.398,162
252.423,193
252.448,227
252.473,255
252.498,272
252.523,282
252.548,285
252.573,278
252.598,266
252.623,259
252.648,270
252.673,293
252.698,311
252.723,314
252.748,315
252.773,342
252.798,403
252.823,474
252.848,518
252.873,518
252.898,488
252.923,452
252.948,421
252.973,388
252.998,345
253.023,300
253.048,264
253.073,239
253.098,215
253.123,188
253.148,164
253.173,151
253.198,139
253.223,112
253.248,69
253.273,38
253.298,52
253.323,115
253.348,191
253.373,238
253.398,247
253.423,238
253.448,239
253.473,250
253.498,255
253.523,246
253.548,233
253.573,229
253.598,234
253.623,234
253.648,221
253.673,201
253.698,180
253.723,156
253.748,121
253.773,85
253.798,71
253.823,100
253.848,159
253.873,217
253.898,247
253.923,252
253.948,252
253.973,260
253.998,266
254.023,259
254.048,241
254.073,227
254.098,224
254.123,222
254.148,211
254.173,192
254.198,176
254.223,165
254.248,149
254.273,124
254.298,108
254.323,123
254.348,173
254.373,230
254.398,261
254.423,260
254.448,250
254.473,255
254.498,272
254.523,280
254.548,270
254.573,255
254.598,250
254.623,248
254.648,232
254.673,200
254.698,172
254.723,168
254.748,180
254.773,179
254.798,145
254.823,99
254.848,79
254.873,106
254.898,159
254.923,203
254.948,222
254.973,232
254.998,252
255.023,279
255.048,293
255.073,283
255.098,262
255.123,252
255.148,263
255.173,280
255.198,283
255.223,267
255.248,238
255.273,207
255.298,180
255.323,149
255.348,107
255.373,56
255.398,7
255.423,-23
255.448,-22
255.473,6
255.498,47
255.523,82
255.548,101
255.573,110
255.598,118
255.623,130
255.648,141
255.673,144
255.698,140
255.723,135
255.748,132
255.773,136
255.798,152
255.823,186
255.848,233
255.873,276
255.898,294
255.923,283
255.948,257
255.973,235
255.998,226
256.023,221
256.048,220
256.073,233
256.098,274
256.123,337
256.148,396
256.173,429
256.198,438
256.223,448
256.248,477
256.273,515
256.298,536
256.323,528
256.348,503
256.373,487
256.398,492
256.423,509
256.448,530
256.473,548
256.498,560
256.523,553
256.548,514
256.573,446
256.598,376
256.623,334
256.648,323
256.673,320
256.698,296
256.723,248
256.748,199
256.773,167
256.798,147
256.823,118
256.848,69
256.873,9
256.898,-38
256.923,-69
256.948,-94
256.973,-128
256.998,-171
257.023,-212
257.048,-236
257.073,-243
257.098,-239
257.123,-231
257.148,-223
257.173,-217
257.198,-215
257.223,-223
257.248,-247
257.273,-289
257.298,-340
257.323,-377
257.348,-366
257.373,-287
257.398,-145
257.423,21
257.448,173
257.473,287
257.498,364
257.523,414
257.548,445
257.573,460
257.598,470
257.623,489
257.648,519
257.673,537
257.698,513
257.723,445
257.748,360
257.773,298
257.798,269
257.823,255
257.848,232
257.873,200
257.898,180
257.923,182
257.948,190
257.973,182
257.998,160
258.023,152
258.048,187
258.073,261
258.098,338
258.123,388
258.148,410
258.173,427
258.198,452
258.223,477
258.248,485
258.273,474
258.298,460
258.323,465
258.348,492
258.373,525
258.398,545
258.423,546
258.448,529
258.473,497
258.498,447
258.523,381
258.548,309
258.573,251
258.598,225
258.623,233
258.648,265
258.673,304
258.698,329
258.723,331
258.748,309
258.773,276
258.798,248
258.823,239
258.848,249
258.873,271
258.898,293
258.923,306
258.948,302
258.973,278
258.998,237
259.023,187
259.048,140
259.073,97
259.098,49
259.123,-13
259.148,-88
259.173,-154
259.198,-189
259.223,-186
259.248,-163
259.273,-145
259.298,-140
259.323,-140
259.348,-129
259.373,-105
259.398,-81
259.423,-68
259.448,-61
259.473,-45
259.498,-10
259.523,37
259.548,85
259.573,120
259.598,143
259.623,156
259.648,159
259.673,155
259.698,149
259.723,149
259.748,153
259.773,150
259.798,133
259.823,116
259.848,126
259.873,179
259.898,261
259.923,336
259.948,377
259.973,389
259.998,397
260.023,421
260.048,456
260.073,480
260.098,479
260.123,459
260.148,439
260.173,429
260.198,426
260.223,419
260.248,400
260.273,373
260.298,346
260.323,325
260.348,310
260.373,293
260.398,266
260.423,228
260.448,189
260.473,161
260.498,145
260.523,125
260.548,87
260.573,35
260.598,0
260.623,14
260.648,79
260.673,158
260.698,212
260.723,227
260.748,223
260.773,231
260.798,253
260.823,270
260.848,265
260.873,245
260.898,235
260.923,245
260.948,266
260.973,279
260.998,279
261.023,278
261.048,286
261.073,295
261.098,288
261.123,259
261.148,226
261.173,204
261.198,187
261.223,160
261.248,119
261.273,92
261.298,108
261.323,170
261.348,241
261.373,279
261.398,277
261.423,262
261.448,263
261.473,280
261.498,291
261.523,280
261.548,256
261.573,239
261.598,233
261.623,224
261.648,203
261.673,176
261.698,160
261.723,154
261.748,145
261.773,121
261.798,90
261.823,69
261.848,60
261.873,43
261.898,4
261.923,-42
261.948,-62
261.973,-31
261.998,36
262.023,105
262.048,145
262.073,158
262.098,163
262.123,174
262.148,188
262.173,197
262.198,201
262.223,206
262.248,213
262.273,219
262.298,222
262.323,219
262.348,209
262.373,191
262.398,171
262.423,158
262.448,162
262.473,174
262.498,179
262.523,170
262.548,166
262.573,196
262.598,264
262.623,346
262.648,408
262.673,441
262.698,472
262.723,522
262.748,583
262.773,620
262.798,615
262.823,593
262.848,599
262.873,656
262.898,735
262.923,783
262.948,760
262.973,659
262.998,496
263.023,291
263.048,72
263.073,-120
263.098,-242
263.123,-266
263.148,-203
263.173,-96
263.198,8
263.223,85
263.248,131
263.273,154
263.298,164
263.323,166
263.348,167
263.373,166
263.398,155
263.423,123
263.448,68
263.473,0
263.498,-57
263.523,-88
263.548,-89
263.573,-78
263.598,-76
263.623,-95
263.648,-122
263.673,-127
263.698,-89
263.723,-15
263.748,59
263.773,100
263.798,100
263.823,85
263.848,91
263.873,126
263.898,170
263.923,194
263.948,188
263.973,172
263.998,168
264.023,183
264.048,207
264.073,225
264.098,231
264.123,227
264.148,214
264.173,191
264.198,163
264.223,145
264.248,152
264.273,188
264.298,243
264.323,300
264.348,351
264.373,395
264.398,433
264.423,458
264.448,460
264.473,441
264.498,416
264.523,404
264.548,410
264.573,424
264.598,429
264.623,424
264.648,417
264.673,415
264.698,413
264.723,399
264.748,371
264.773,339
264.798,313
264.823,294
264.848,276
264.873,262
264.898,264
264.923,299
264.948,360
264.973,423
264.998,462
265.023,473
265.048,471
265.073,473
265.098,479
265.123,470
265.148,438
265.173,392
265.198,352
265.223,333
265.248,331
265.273,326
265.298,296
265.323,232
265.348,138
265.373,29
265.398,-76
265.423,-168
265.448,-246
