df_hash,22ZHK4.7EH0JY
device,HZ2X61
project_hash,29R7
project_name,istanbul_aydin_university
person_hash,29R7.5CYM
person_label,V57
date_time_start,2025-10-31_15-01-59.533000_+03
date_time_start_unix,1761908519.533
date_time_end,2025-10-31_15-11-16.488000_+03
length_difference_noticed,no

time,ppg_med
5.718,530
5.743,609
5.768,734
5.793,802
5.818,776
5.843,748
5.868,821
5.893,954
5.918,1005
5.943,923
5.968,836
5.993,881
6.018,1005
6.043,1012
6.068,837
6.093,650
6.118,640
6.143,732
6.168,665
6.193,353
6.218,25
6.243,-67
6.268,-25
6.293,-190
6.318,-677
6.343,-1179
6.368,-1369
6.393,-1376
6.418,-1647
6.443,-2325
6.468,-3012
6.493,-3284
6.518,-3310
6.543,-3659
6.568,-4514
6.593,-5360
6.618,-5662
6.643,-5630
6.668,-5988
6.693,-6963
6.718,-7903
6.743,-8131
6.768,-7917
6.793,-8167
6.818,-9163
6.843,-10089
6.868,-10098
6.893,-9528
6.918,-9510
6.943,-10400
6.968,-11176
6.993,-10785
7.018,-9648
7.043,-9179
7.068,-9823
7.093,-10308
7.118,-9321
7.143,-7389
7.168,-6282
7.193,-6563
7.218,-6645
7.243,-4876
7.268,-1919
7.293,-12
7.318,122
7.343,487
7.368,3191
7.393,7396
7.418,10221
7.443,10707
7.468,11439
7.493,15190
7.518,20886
7.543,24691
7.568,25266
7.593,26075
7.618,30972
7.643,32767
7.668,32767
7.693,32767
7.718,32767
7.743,32767
7.768,32767
7.793,32767
7.818,32767
7.843,32767
7.868,32767
7.893,32767
7.918,32767
7.943,32767
7.968,14125
7.993,-32768
8.018,-32768
8.043,-32768
8.068,-32768
8.093,-32768
8.118,-32768
8.143,-32768
8.168,-32768
8.193,-32768
8.218,-32768
8.243,-32768
8.268,-32768
8.293,-32768
8.318,-32768
8.343,-27230
8.368,-25028
8.393,-24943
8.418,-22550
8.443,-17159
8.468,-12254
8.493,-10491
8.518,-10345
8.543,-8557
8.568,-4571
8.593,-984
8.618,176
8.643,50
8.668,1150
8.693,3931
8.718,6391
8.743,6942
8.768,6469
8.793,6947
8.818,8743
8.843,10277
8.868,10288
8.893,9477
8.918,9422
8.943,10418
8.968,11211
8.993,10799
9.018,9762
9.043,9378
9.068,9891
9.093,10282
9.118,9726
9.143,8664
9.168,8113
9.193,8273
9.218,8339
9.243,7666
9.268,6612
9.293,5990
9.318,5958
9.343,5874
9.368,5224
9.393,4294
9.418,3721
9.443,3628
9.468,3508
9.493,2956
9.518,2198
9.543,1732
9.568,1651
9.593,1558
9.618,1141
9.643,575
9.668,245
9.693,223
9.718,202
9.743,-62
9.768,-443
9.793,-652
9.818,-632
9.843,-597
9.868,-716
9.893,-886
9.918,-903
9.943,-754
9.968,-625
9.993,-648
10.018,-739
10.043,-733
10.068,-605
10.093,-487
10.118,-475
10.143,-510
10.168,-472
10.193,-344
10.218,-228
10.243,-198
10.268,-209
10.293,-168
10.318,-61
10.343,34
10.368,58
10.393,41
10.418,60
10.443,132
10.468,199
10.493,208
10.518,184
10.543,169
10.568,144
10.593,120
10.618,89
10.643,50
10.668,9
10.693,-13
10.718,-3
10.743,37
10.768,92
10.793,141
10.818,173
10.843,193
10.868,211
10.893,232
10.918,249
10.943,256
10.968,255
10.993,254
11.018,261
11.043,272
11.068,277
11.093,271
11.118,256
11.143,244
11.168,243
11.193,248
11.218,251
11.243,246
11.268,236
11.293,225
11.318,213
11.343,197
11.368,175
11.393,152
11.418,136
11.443,124
11.468,109
11.493,83
11.518,50
11.543,27
11.568,31
11.593,65
11.618,118
11.643,171
11.668,211
11.693,236
11.718,250
11.743,259
11.768,265
11.793,268
11.818,269
11.843,268
11.868,263
11.893,255
11.918,244
11.943,233
11.968,224
11.993,217
12.018,211
12.043,201
12.068,187
12.093,167
12.118,142
12.143,114
12.168,89
12.193,71
12.218,62
12.243,60
12.268,61
12.293,59
12.318,50
12.343,29
12.368,0
12.393,-28
12.418,-38
12.443,-19
12.468,28
12.493,92
12.518,151
12.543,194
12.568,226
12.593,255
12.618,289
12.643,321
12.668,346
12.693,362
12.718,380
12.743,407
12.768,442
12.793,476
12.818,501
12.843,524
12.868,556
12.893,601
12.918,651
12.943,697
12.968,736
12.993,775
13.018,816
13.043,849
13.068,863
13.093,850
13.118,817
13.143,766
13.168,686
13.193,550
13.218,349
13.243,104
13.268,-132
13.293,-307
13.318,-401
13.343,-426
13.368,-411
13.393,-378
13.418,-336
13.443,-289
13.468,-242
13.493,-202
13.518,-169
13.543,-138
13.568,-105
13.593,-70
13.618,-37
13.643,-5
13.668,26
13.693,56
13.718,74
13.743,72
13.768,51
13.793,25
13.818,13
13.843,21
13.868,41
13.893,57
13.918,62
13.943,58
13.968,55
13.993,51
14.018,41
14.043,22
14.068,4
14.093,4
14.118,27
14.143,67
14.168,107
14.193,141
14.218,171
14.243,204
14.268,245
14.293,289
14.318,336
14.343,393
14.368,460
14.393,532
14.418,593
14.443,634
14.468,651
14.493,651
14.518,640
14.543,621
14.568,599
14.593,576
14.618,555
14.643,531
14.668,501
14.693,464
14.718,428
14.743,398
14.768,370
14.793,337
14.818,293
14.843,241
14.868,189
14.893,146
14.918,116
14.943,109
14.968,128
14.993,169
15.018,217
15.043,254
15.068,272
15.093,272
15.118,260
15.143,238
15.168,214
15.193,195
15.218,188
15.243,187
15.268,180
15.293,165
15.318,149
15.343,141
15.368,135
15.393,121
15.418,103
15.443,96
15.468,107
15.493,99
15.518,22
15.543,-140
15.568,-334
15.593,-477
15.618,-535
15.643,-547
15.668,-572
15.693,-613
15.718,-612
15.743,-523
15.768,-382
15.793,-265
15.818,-204
15.843,-138
15.868,17
15.893,271
15.918,534
15.943,707
15.968,778
15.993,814
16.018,873
16.043,939
16.068,949
16.093,880
16.118,782
16.143,723
16.168,725
16.193,747
16.218,744
16.243,711
16.268,667
16.293,620
16.318,550
16.343,447
16.368,340
16.393,268
16.418,239
16.443,214
16.468,144
16.493,27
16.518,-87
16.543,-142
16.568,-121
16.593,-54
16.618,16
16.643,77
16.668,132
16.693,178
16.718,196
16.743,171
16.768,125
16.793,109
16.818,156
16.843,243
16.868,303
16.893,286
16.918,211
16.943,147
16.968,145
16.993,186
17.018,198
17.043,142
17.068,55
17.093,18
17.118,66
17.143,149
17.168,178
17.193,118
17.218,24
17.243,-25
17.268,-9
17.293,21
17.318,11
17.343,-31
17.368,-45
17.393,2
17.418,78
17.443,115
17.468,97
17.493,86
17.518,152
17.543,290
17.568,419
17.593,456
17.618,400
17.643,324
17.668,300
17.693,337
17.718,385
17.743,398
17.768,374
17.793,342
17.818,322
17.843,310
17.868,294
17.893,272
17.918,250
17.943,235
17.968,226
17.993,220
18.018,213
18.043,202
18.068,189
18.093,184
18.118,202
18.143,243
18.168,280
18.193,278
18.218,230
18.243,176
18.268,160
18.293,183
18.318,201
18.343,173
18.368,117
18.393,90
18.418,132
18.443,218
18.468,289
18.493,314
18.518,310
18.543,304
18.568,297
18.593,270
18.618,225
18.643,193
18.668,198
18.693,215
18.718,195
18.743,123
18.768,35
18.793,-15
18.818,-17
18.843,0
18.868,8
18.893,16
18.918,41
18.943,71
18.968,72
18.993,31
19.018,-22
19.043,-45
19.068,-24
19.093,19
19.118,63
19.143,99
19.168,111
19.193,63
19.218,-64
19.243,-214
19.268,-263
19.293,-132
19.318,122
19.343,334
19.368,372
19.393,250
19.418,99
19.443,24
19.468,27
19.493,53
19.518,83
19.543,157
19.568,304
19.593,482
19.618,607
19.643,643
19.668,628
19.693,621
19.718,634
19.743,642
19.768,633
19.793,636
19.818,679
19.843,737
19.868,756
19.893,717
19.918,665
19.943,650
19.968,659
19.993,629
20.018,515
20.043,356
20.068,227
20.093,166
20.118,134
20.143,70
20.168,-29
20.193,-118
20.218,-157
20.243,-159
20.268,-174
20.293,-218
20.318,-260
20.343,-253
20.368,-196
20.393,-129
20.418,-92
20.443,-84
20.468,-73
20.493,-33
20.518,36
20.543,118
20.568,198
20.593,269
20.618,329
20.643,375
20.668,411
20.693,446
20.718,479
20.743,494
20.768,469
20.793,398
20.818,301
20.843,206
20.868,126
20.893,52
20.918,-24
20.943,-97
20.968,-145
20.993,-148
21.018,-110
21.043,-52
21.068,5
21.093,56
21.118,102
21.143,144
21.168,178
21.193,200
21.218,213
21.243,223
21.268,236
21.293,253
21.318,265
21.343,269
21.368,266
21.393,261
21.418,257
21.443,255
21.468,249
21.493,238
21.518,226
21.543,214
21.568,198
21.593,171
21.618,135
21.643,108
21.668,113
21.693,166
21.718,251
21.743,338
21.768,399
21.793,433
21.818,460
21.843,493
21.868,525
21.893,534
21.918,502
21.943,436
21.968,357
21.993,289
22.018,244
22.043,222
22.068,214
22.093,208
22.118,194
22.143,173
22.168,154
22.193,146
22.218,148
22.243,146
22.268,125
22.293,88
22.318,56
22.343,49
22.368,64
22.393,84
22.418,87
22.443,65
22.468,27
22.493,-16
22.518,-58
22.543,-96
22.568,-126
22.593,-146
22.618,-159
22.643,-170
22.668,-186
22.693,-210
22.718,-242
22.743,-282
22.768,-327
22.793,-367
22.818,-394
22.843,-411
22.868,-425
22.893,-446
22.918,-470
22.943,-488
22.968,-492
22.993,-481
23.018,-452
23.043,-398
23.068,-314
23.093,-210
23.118,-109
23.143,-25
23.168,44
23.193,119
23.218,206
23.243,295
23.268,375
23.293,453
23.318,549
23.343,671
23.368,803
23.393,925
23.418,1043
23.443,1179
23.468,1340
23.493,1500
23.518,1626
23.543,1713
23.568,1794
23.593,1894
23.618,1989
23.643,2029
23.668,1987
23.693,1895
23.718,1805
23.743,1732
23.768,1647
23.793,1520
23.818,1374
23.843,1257
23.868,1184
23.893,1104
23.918,941
23.943,670
23.968,339
23.993,21
24.018,-253
24.043,-507
24.068,-767
24.093,-1018
24.118,-1217
24.143,-1340
24.168,-1404
24.193,-1442
24.218,-1457
24.243,-1404
24.268,-1228
24.293,-923
24.318,-549
24.343,-192
24.368,91
24.393,310
24.418,520
24.443,769
24.468,1055
24.493,1326
24.518,1512
24.543,1576
24.568,1521
24.593,1372
24.618,1147
24.643,842
24.668,449
24.693,-11
24.718,-482
24.743,-878
24.768,-1119
24.793,-1173
24.818,-1079
24.843,-934
24.868,-847
24.893,-879
24.918,-1018
24.943,-1197
24.968,-1348
24.993,-1436
25.018,-1460
25.043,-1437
25.068,-1379
25.093,-1300
25.118,-1218
25.143,-1147
25.168,-1073
25.193,-961
25.218,-773
25.243,-504
25.268,-183
25.293,143
25.318,446
25.343,710
25.368,930
25.393,1105
25.418,1241
25.443,1361
25.468,1491
25.493,1638
25.518,1779
25.543,1875
25.568,1901
25.593,1861
25.618,1779
25.643,1672
25.668,1533
25.693,1347
25.718,1117
25.743,873
25.768,664
25.793,518
25.818,434
25.843,383
25.868,340
25.893,297
25.918,251
25.943,197
25.968,121
25.993,19
26.018,-92
26.043,-196
26.068,-294
26.093,-413
26.118,-574
26.143,-760
26.168,-919
26.193,-1003
26.218,-1000
26.243,-934
26.268,-823
26.293,-664
26.318,-449
26.343,-195
26.368,53
26.393,260
26.418,427
26.443,588
26.468,762
26.493,935
26.518,1075
26.543,1164
26.568,1217
26.593,1256
26.618,1284
26.643,1282
26.668,1238
26.693,1164
26.718,1084
26.743,1013
26.768,946
26.793,868
26.818,778
26.843,688
26.868,613
26.893,551
26.918,492
26.943,419
26.968,330
26.993,232
27.018,140
27.043,63
27.068,-2
27.093,-67
27.118,-138
27.143,-208
27.168,-255
27.193,-264
27.218,-241
27.243,-214
27.268,-207
27.293,-220
27.318,-235
27.343,-232
27.368,-212
27.393,-189
27.418,-174
27.443,-161
27.468,-139
27.493,-102
27.518,-59
27.543,-20
27.568,11
27.593,37
27.618,58
27.643,66
27.668,59
27.693,40
27.718,21
27.743,8
27.768,0
27.793,-10
27.818,-25
27.843,-41
27.868,-55
27.893,-69
27.918,-81
27.943,-85
27.968,-73
27.993,-38
28.018,14
28.043,74
28.068,134
28.093,186
28.118,223
28.143,240
28.168,235
28.193,219
28.218,215
28.243,237
28.268,286
28.293,343
28.318,388
28.343,420
28.368,448
28.393,484
28.418,525
28.443,553
28.468,556
28.493,533
28.518,498
28.543,461
28.568,425
28.593,384
28.618,335
28.643,282
28.668,230
28.693,180
28.718,131
28.743,86
28.768,58
28.793,65
28.818,107
28.843,165
28.868,214
28.893,241
28.918,251
28.943,260
28.968,267
28.993,263
29.018,248
29.043,237
29.068,254
29.093,296
29.118,335
29.143,337
29.168,297
29.193,246
29.218,220
29.243,223
29.268,229
29.293,214
29.318,177
29.343,140
29.368,117
29.393,98
29.418,64
29.443,12
29.468,-43
29.493,-89
29.518,-123
29.543,-151
29.568,-163
29.593,-144
29.618,-86
29.643,-8
29.668,56
29.693,88
29.718,96
29.743,98
29.768,105
29.793,113
29.818,117
29.843,126
29.868,150
29.893,187
29.918,223
29.943,246
29.968,261
29.993,276
30.018,296
30.043,309
30.068,301
30.093,276
30.118,249
30.143,231
30.168,221
30.193,209
30.218,192
30.243,172
30.268,151
30.293,122
30.318,83
30.343,47
30.368,34
30.393,54
30.418,94
30.443,134
30.468,160
30.493,177
30.518,195
30.543,217
30.568,235
30.593,241
30.618,238
30.643,237
30.668,244
30.693,257
30.718,266
30.743,265
30.768,254
30.793,238
30.818,220
30.843,201
30.868,180
30.893,154
30.918,124
30.943,93
30.968,68
30.993,51
31.018,38
31.043,21
31.068,4
31.093,0
31.118,21
31.143,72
31.168,139
31.193,201
31.218,245
31.243,271
31.268,287
31.293,301
31.318,312
31.343,319
31.368,321
31.393,323
31.418,327
31.443,337
31.468,351
31.493,364
31.518,369
31.543,365
31.568,353
31.593,341
31.618,332
31.643,327
31.668,321
31.693,314
31.718,306
31.743,296
31.768,273
31.793,227
31.818,161
31.843,97
31.868,60
31.893,61
31.918,89
31.943,123
31.968,145
31.993,154
32.018,152
32.043,141
32.068,122
32.093,96
32.118,70
32.143,49
32.168,35
32.193,26
32.218,21
32.243,19
32.268,16
32.293,9
32.318,-4
32.343,-20
32.368,-30
32.393,-32
32.418,-33
32.443,-40
32.468,-48
32.493,-48
32.518,-37
32.543,-25
32.568,-22
32.593,-27
32.618,-21
32.643,12
32.668,74
32.693,148
32.718,214
32.743,266
32.768,308
32.793,342
32.818,370
32.843,394
32.868,421
32.893,455
32.918,494
32.943,527
32.968,549
32.993,565
33.018,580
33.043,595
33.068,605
33.093,611
33.118,617
33.143,630
33.168,643
33.193,648
33.218,642
33.243,632
33.268,613
33.293,556
33.318,424
33.343,207
33.368,-45
33.393,-255
33.418,-363
33.443,-370
33.468,-325
33.493,-277
33.518,-240
33.543,-200
33.568,-146
33.593,-90
33.618,-51
33.643,-32
33.668,-16
33.693,13
33.718,55
33.743,96
33.768,122
33.793,138
33.818,153
33.843,170
33.868,182
33.893,180
33.918,166
33.943,148
33.968,138
33.993,137
34.018,143
34.043,153
34.068,160
34.093,158
34.118,143
34.143,117
34.168,90
34.193,71
34.218,65
34.243,67
34.268,73
34.293,84
34.318,103
34.343,130
34.368,160
34.393,182
34.418,193
34.443,198
34.468,204
34.493,214
34.518,225
34.543,234
34.568,238
34.593,240
34.618,241
34.643,237
34.668,227
34.693,210
34.718,191
34.743,172
34.768,155
34.793,140
34.818,129
34.843,120
34.868,109
34.893,88
34.918,61
34.943,39
34.968,42
34.993,76
35.018,129
35.043,178
35.068,208
35.093,225
35.118,240
35.143,262
35.168,284
35.193,301
35.218,312
35.243,317
35.268,315
35.293,300
35.318,277
35.343,271
35.368,307
35.393,388
35.418,481
35.443,539
35.468,543
35.493,515
35.518,491
35.543,493
35.568,506
35.593,505
35.618,481
35.643,445
35.668,414
35.693,390
35.718,371
35.743,364
35.768,380
35.793,420
35.818,457
35.843,447
35.868,366
35.893,233
35.918,97
35.943,0
35.968,-55
35.993,-82
36.018,-95
36.043,-88
36.068,-49
36.093,12
36.118,68
36.143,93
36.168,92
36.193,90
36.218,107
36.243,131
36.268,135
36.293,107
36.318,70
36.343,57
36.368,73
36.393,91
36.418,74
36.443,15
36.468,-56
36.493,-111
36.518,-136
36.543,-135
36.568,-111
36.593,-61
36.618,3
36.643,45
36.668,23
36.693,-59
36.718,-152
36.743,-199
36.768,-194
36.793,-186
36.818,-222
36.843,-293
36.868,-331
36.893,-279
36.918,-140
36.943,31
36.968,187
36.993,320
37.018,443
37.043,556
37.068,633
37.093,652
37.118,624
37.143,581
37.168,540
37.193,500
37.218,459
37.243,440
37.268,473
37.293,562
37.318,665
37.343,729
37.368,736
37.393,715
37.418,708
37.443,722
37.468,730
37.493,702
37.518,639
37.543,564
37.568,485
37.593,381
37.618,228
37.643,36
37.668,-144
37.693,-259
37.718,-291
37.743,-271
37.768,-238
37.793,-212
37.818,-183
37.843,-146
37.868,-111
37.893,-96
37.918,-102
37.943,-100
37.968,-63
37.993,8
38.018,88
38.043,143
38.068,168
38.093,180
38.118,198
38.143,221
38.168,235
38.193,235
38.218,231
38.243,233
38.268,240
38.293,240
38.318,230
38.343,217
38.368,210
38.393,208
38.418,197
38.443,170
38.468,129
38.493,83
38.518,37
38.543,-4
38.568,-36
38.593,-43
38.618,-20
38.643,17
38.668,44
38.693,45
38.718,35
38.743,43
38.768,86
38.793,159
38.818,241
38.843,315
38.868,373
38.893,416
38.918,443
38.943,457
38.968,464
38.993,468
39.018,466
39.043,456
39.068,446
39.093,446
39.118,465
39.143,495
39.168,523
39.193,543
39.218,565
39.243,592
39.268,614
39.293,609
39.318,568
39.343,513
39.368,473
39.393,458
39.418,449
39.443,414
39.468,343
39.493,256
39.518,183
39.543,149
39.568,159
39.593,204
39.618,265
39.643,315
39.668,335
39.693,324
39.718,291
39.743,248
39.768,196
39.793,133
39.818,64
39.843,7
39.868,-31
39.893,-67
39.918,-121
39.943,-199
39.968,-283
39.993,-355
40.018,-419
40.043,-489
40.068,-567
40.093,-629
40.118,-656
40.143,-666
40.168,-699
40.193,-770
40.218,-844
40.243,-860
40.268,-796
40.293,-678
40.318,-550
40.343,-428
40.368,-301
40.393,-168
40.418,-48
40.443,44
40.468,136
40.493,279
40.518,480
40.543,675
40.568,776
40.593,754
40.618,677
40.643,646
40.668,701
40.693,797
40.718,856
40.743,845
40.768,797
40.793,767
40.818,770
40.843,775
40.868,746
40.893,682
40.918,615
40.943,585
40.968,596
40.993,616
41.018,601
41.043,529
41.068,424
41.093,332
41.118,287
41.143,283
41.168,286
41.193,269
41.218,236
41.243,215
41.268,223
41.293,255
41.318,285
41.343,294
41.368,279
41.393,249
41.418,215
41.443,192
41.468,193
41.493,222
41.518,265
41.543,299
41.568,312
41.593,313
41.618,315
41.643,316
41.668,302
41.693,261
41.718,205
41.743,151
41.768,110
41.793,75
41.818,40
41.843,11
41.868,0
41.893,-1
41.918,-11
41.943,-35
41.968,-52
41.993,-35
42.018,13
42.043,54
42.068,53
42.093,17
42.118,-10
42.143,2
42.168,45
42.193,77
42.218,74
42.243,51
42.268,41
42.293,53
42.318,73
42.343,80
42.368,75
42.393,71
42.418,71
42.443,68
42.468,53
42.493,33
42.518,23
42.543,29
42.568,46
42.593,64
42.618,79
42.643,90
42.668,94
42.693,85
42.718,67
42.743,61
42.768,87
42.793,139
42.818,194
42.843,229
42.868,241
42.893,242
42.918,245
42.943,249
42.968,245
42.993,232
43.018,217
43.043,208
43.068,209
43.093,218
43.118,233
43.143,248
43.168,259
43.193,256
43.218,240
43.243,219
43.268,205
43.293,201
43.318,198
43.343,187
43.368,171
43.393,159
43.418,156
43.443,155
43.468,139
43.493,107
43.518,73
43.543,60
43.568,80
43.593,122
43.618,167
43.643,201
43.668,223
43.693,240
43.718,257
43.743,273
43.768,285
43.793,293
43.818,304
43.843,321
43.868,341
43.893,354
43.918,358
43.943,355
43.968,353
43.993,355
44.018,355
44.043,342
44.068,313
44.093,273
44.118,237
44.143,213
44.168,204
44.193,199
44.218,189
44.243,167
44.268,135
44.293,103
44.318,84
44.343,89
44.368,119
44.393,160
44.418,193
44.443,207
44.468,207
44.493,203
44.518,200
44.543,191
44.568,169
44.593,143
44.618,128
44.643,140
44.668,172
44.693,199
44.718,200
44.743,174
44.768,141
44.793,119
44.818,112
44.843,109
44.868,100
44.893,90
44.918,91
44.943,104
44.968,116
44.993,110
45.018,86
45.043,62
45.068,61
45.093,94
45.118,146
45.143,196
45.168,230
45.193,248
45.218,258
45.243,264
45.268,262
45.293,250
45.318,234
45.343,225
45.368,227
45.393,236
45.418,243
45.443,245
45.468,242
45.493,240
45.518,237
45.543,229
45.568,215
45.593,200
45.618,189
45.643,181
45.668,168
45.693,145
45.718,115
45.743,96
45.768,100
45.793,126
45.818,163
45.843,195
45.868,221
45.893,244
45.918,268
45.943,288
45.968,295
45.993,289
46.018,277
46.043,268
46.068,263
46.093,255
46.118,239
46.143,220
46.168,206
46.193,203
46.218,202
46.243,193
46.268,171
46.293,142
46.318,114
46.343,90
46.368,68
46.393,42
46.418,19
46.443,9
46.468,22
46.493,53
46.518,89
46.543,117
46.568,134
46.593,142
46.618,144
46.643,140
46.668,126
46.693,103
46.718,82
46.743,74
46.768,83
46.793,103
46.818,118
46.843,118
46.868,103
46.893,80
46.918,58
46.943,41
46.968,28
46.993,14
47.018,1
47.043,-9
47.068,-15
47.093,-19
47.118,-23
47.143,-27
47.168,-18
47.193,13
47.218,70
47.243,133
47.268,185
47.293,224
47.318,275
47.343,362
47.368,481
47.393,588
47.418,638
47.443,626
47.468,593
47.493,590
47.518,630
47.543,679
47.568,699
47.593,687
47.618,678
47.643,705
47.668,762
47.693,815
47.718,842
47.743,856
47.768,881
47.793,924
47.818,960
47.843,965
47.868,952
47.893,969
47.918,1053
47.943,1180
47.968,1261
47.993,1201
48.018,964
48.043,601
48.068,206
48.093,-158
48.118,-499
48.143,-849
48.168,-1200
48.193,-1474
48.218,-1588
48.243,-1533
48.268,-1401
48.293,-1305
48.318,-1291
48.343,-1318
48.368,-1329
48.393,-1324
48.418,-1358
48.443,-1455
48.468,-1568
48.493,-1613
48.518,-1557
48.543,-1430
48.568,-1256
48.593,-994
48.618,-576
48.643,-13
48.668,558
48.693,972
48.718,1168
48.743,1246
48.768,1359
48.793,1562
48.818,1781
48.843,1903
48.868,1899
48.893,1835
48.918,1788
48.943,1770
48.968,1738
48.993,1663
49.018,1561
49.043,1467
49.068,1388
49.093,1297
49.118,1166
49.143,997
49.168,811
49.193,622
49.218,429
49.243,233
49.268,51
49.293,-95
49.318,-203
49.343,-289
49.368,-369
49.393,-444
49.418,-499
49.443,-526
49.468,-538
49.493,-551
49.518,-574
49.543,-595
49.568,-590
49.593,-547
49.618,-469
49.643,-374
49.668,-283
49.693,-203
49.718,-133
49.743,-69
49.768,-13
49.793,29
49.818,59
49.843,87
49.868,124
49.893,172
49.918,221
49.943,257
49.968,279
49.993,299
50.018,327
50.043,359
50.068,389
50.093,409
50.118,423
50.143,432
50.168,431
50.193,413
50.218,378
50.243,337
50.268,299
50.293,264
50.318,221
50.343,171
50.368,126
50.393,105
50.418,116
50.443,149
50.468,184
50.493,214
50.518,240
50.543,264
50.568,280
50.593,279
50.618,263
50.643,246
50.668,242
50.693,249
50.718,256
50.743,249
50.768,233
50.793,220
50.818,215
50.843,213
50.868,205
50.893,195
50.918,190
50.943,190
50.968,185
50.993,165
51.018,138
51.043,122
51.068,125
51.093,133
51.118,123
51.143,92
51.168,68
51.193,81
51.218,130
51.243,183
51.268,215
51.293,234
51.318,269
51.343,327
51.368,379
51.393,384
51.418,337
51.443,273
51.468,235
51.493,228
51.518,224
51.543,198
51.568,153
51.593,115
51.618,95
51.643,79
51.668,50
51.693,12
51.718,-13
51.743,-15
51.768,-7
51.793,-9
51.818,-26
51.843,-46
51.868,-54
51.893,-58
51.918,-73
51.943,-100
51.968,-119
51.993,-103
52.018,-51
52.043,18
52.068,80
52.093,125
52.118,165
52.143,209
52.168,252
52.193,280
52.218,289
52.243,291
52.268,310
52.293,352
52.318,404
52.343,443
52.368,455
52.393,448
52.418,438
52.443,435
52.468,431
52.493,421
52.518,407
52.543,404
52.568,418
52.593,437
52.618,443
52.643,430
52.668,415
52.693,418
52.718,438
52.743,456
52.768,454
52.793,438
52.818,423
52.843,411
52.868,378
52.893,304
52.918,205
52.943,124
52.968,91
52.993,89
53.018,70
53.043,5
53.068,-84
53.093,-149
53.118,-165
53.143,-148
53.168,-136
53.193,-144
53.218,-157
53.243,-158
53.268,-142
53.293,-123
53.318,-107
53.343,-90
53.368,-67
53.393,-41
53.418,-20
53.443,3
53.468,41
53.493,94
53.518,147
53.543,186
53.568,221
53.593,279
53.618,374
53.643,483
53.668,562
53.693,587
53.718,574
53.743,562
53.768,572
53.793,596
53.818,618
53.843,630
53.868,629
53.893,604
53.918,532
53.943,403
53.968,233
53.993,54
54.018,-106
54.043,-235
54.068,-321
54.093,-348
54.118,-306
54.143,-223
54.168,-155
54.193,-149
54.218,-197
54.243,-237
54.268,-208
54.293,-99
54.318,41
54.343,153
54.368,207
54.393,211
54.418,190
54.443,164
54.468,140
54.493,124
54.518,122
54.543,135
54.568,150
54.593,155
54.618,144
54.643,124
54.668,106
54.693,98
54.718,101
54.743,110
54.768,117
54.793,115
54.818,97
54.843,63
54.868,24
54.893,3
54.918,11
54.943,40
54.968,67
54.993,76
55.018,76
55.043,94
55.068,152
55.093,240
55.118,321
55.143,363
55.168,364
55.193,354
55.218,363
55.243,399
55.268,449
55.293,501
55.318,560
55.343,639
55.368,736
55.393,831
55.418,898
55.443,926
55.468,921
55.493,900
55.518,878
55.543,864
55.568,861
55.593,866
55.618,867
55.643,856
55.668,835
55.693,820
55.718,822
55.743,831
55.768,829
55.793,818
55.818,832
55.843,911
55.868,1053
55.893,1183
55.918,1176
55.943,913
55.968,352
55.993,-440
56.018,-1295
56.043,-1983
56.068,-2315
56.093,-2226
56.118,-1824
56.143,-1332
56.168,-961
56.193,-785
56.218,-732
56.243,-671
56.268,-521
56.293,-300
56.318,-78
56.343,83
56.368,162
56.393,162
56.418,94
56.443,-15
56.468,-119
56.493,-159
56.518,-106
56.543,22
56.568,182
56.593,330
56.618,443
56.643,500
56.668,480
56.693,375
56.718,219
56.743,75
56.768,0
56.793,-4
56.818,24
56.843,45
56.868,59
56.893,97
56.918,179
56.943,282
56.968,361
56.993,378
57.018,337
57.043,268
57.068,200
57.093,152
57.118,131
57.143,136
57.168,163
57.193,196
57.218,216
57.243,212
57.268,191
57.293,173
57.318,177
57.343,212
57.368,276
57.393,357
57.418,440
57.443,513
57.468,574
57.493,627
57.518,677
57.543,720
57.568,747
57.593,755
57.618,756
57.643,764
57.668,780
57.693,788
57.718,766
57.743,713
57.768,642
57.793,570
57.818,498
57.843,418
57.868,336
57.893,276
57.918,252
57.943,248
57.968,225
57.993,155
58.018,54
58.043,-25
58.068,-39
58.093,10
58.118,79
58.143,121
58.168,119
58.193,89
58.218,58
58.243,44
58.268,49
58.293,68
58.318,90
58.343,103
58.368,101
58.393,88
58.418,79
58.443,86
58.468,108
58.493,126
58.518,120
58.543,87
58.568,47
58.593,26
58.618,28
58.643,40
58.668,32
58.693,-8
58.718,-71
58.743,-124
58.768,-138
58.793,-107
58.818,-51
58.843,0
58.868,33
58.893,52
58.918,72
58.943,100
58.968,127
58.993,140
59.018,136
59.043,130
59.068,137
59.093,159
59.118,180
59.143,186
59.168,179
59.193,170
59.218,171
59.243,177
59.268,178
59.293,170
59.318,157
59.343,145
59.368,129
59.393,104
59.418,68
59.443,38
59.468,34
59.493,67
59.518,129
59.543,201
59.568,273
59.593,341
59.618,405
59.643,456
59.668,482
59.693,478
59.718,454
59.743,427
59.768,411
59.793,407
59.818,407
59.843,403
59.868,391
59.893,373
59.918,351
59.943,328
59.968,301
59.993,271
60.018,235
60.043,191
60.068,140
60.093,88
60.118,42
60.143,9
60.168,-6
60.193,-3
60.218,15
60.243,46
60.268,85
60.293,125
60.318,159
60.343,186
60.368,205
60.393,217
60.418,224
60.443,226
60.468,225
60.493,224
60.518,223
60.543,224
60.568,226
60.593,228
60.618,226
60.643,215
60.668,197
60.693,179
60.718,164
60.743,151
60.768,135
60.793,114
60.818,93
60.843,83
60.868,85
60.893,88
60.918,77
60.943,54
60.968,37
60.993,52
61.018,102
61.043,172
61.068,231
61.093,263
61.118,274
61.143,276
61.168,280
61.193,282
61.218,276
61.243,261
61.268,244
61.293,233
61.318,231
61.343,234
61.368,240
61.393,241
61.418,235
61.443,218
61.468,193
61.493,164
61.518,136
61.543,108
61.568,82
61.593,62
61.618,53
61.643,56
61.668,67
61.693,72
61.718,65
61.743,49
61.768,33
61.793,28
61.818,40
61.843,69
61.868,109
61.893,152
61.918,189
61.943,215
61.968,232
61.993,246
62.018,258
62.043,268
62.068,273
62.093,273
62.118,274
62.143,281
62.168,291
62.193,295
62.218,288
62.243,271
62.268,254
62.293,242
62.318,236
62.343,230
62.368,221
62.393,211
62.418,198
62.443,182
62.468,162
62.493,141
62.518,123
62.543,106
62.568,84
62.593,52
62.618,21
62.643,8
62.668,27
62.693,73
62.718,129
62.743,177
62.768,209
62.793,231
62.818,249
62.843,263
62.868,269
62.893,269
62.918,268
62.943,274
62.968,289
62.993,308
63.018,325
63.043,338
63.068,348
63.093,359
63.118,371
63.143,379
63.168,377
63.193,360
63.218,333
63.243,306
63.268,289
63.293,282
63.318,274
63.343,250
63.368,205
63.393,151
63.418,108
63.443,92
63.468,101
63.493,119
63.518,130
63.543,129
63.568,120
63.593,114
63.618,117
63.643,125
63.668,130
63.693,131
63.718,130
63.743,133
63.768,139
63.793,144
63.818,143
63.843,137
63.868,136
63.893,141
63.918,144
63.943,130
63.968,90
63.993,37
64.018,-5
64.043,-17
64.068,-3
64.093,14
64.118,13
64.143,-7
64.168,-28
64.193,-28
64.218,0
64.243,45
64.268,89
64.293,123
64.318,147
64.343,171
64.368,199
64.393,226
64.418,245
64.443,252
64.468,253
64.493,256
64.518,267
64.543,281
64.568,289
64.593,291
64.618,293
64.643,301
64.668,311
64.693,304
64.718,267
64.743,210
64.768,162
64.793,146
64.818,160
64.843,180
64.868,185
64.893,178
64.918,181
64.943,208
64.968,250
64.993,285
65.018,298
65.043,294
65.068,290
65.093,294
65.118,301
65.143,301
65.168,297
65.193,299
65.218,316
65.243,338
65.268,349
65.293,340
65.318,313
65.343,281
65.368,252
65.393,224
65.418,194
65.443,164
65.468,142
65.493,128
65.518,111
65.543,79
65.568,30
65.593,-18
65.618,-42
65.643,-30
65.668,8
65.693,54
65.718,90
65.743,112
65.768,129
65.793,145
65.818,160
65.843,171
65.868,178
65.893,185
65.918,196
65.943,211
65.968,225
65.993,235
66.018,238
66.043,236
66.068,230
66.093,224
66.118,219
66.143,216
66.168,212
66.193,201
66.218,185
66.243,170
66.268,158
66.293,146
66.318,124
66.343,93
66.368,64
66.393,57
66.418,81
66.443,124
66.468,166
66.493,192
66.518,207
66.543,220
66.568,236
66.593,249
66.618,250
66.643,241
66.668,233
66.693,234
66.718,245
66.743,258
66.768,266
66.793,267
66.818,266
66.843,262
66.868,257
66.893,249
66.918,240
66.943,230
66.968,217
66.993,201
67.018,182
67.043,166
67.068,154
67.093,143
67.118,125
67.143,96
67.168,61
67.193,33
67.218,25
67.243,44
67.268,84
67.293,131
67.318,173
67.343,202
67.368,219
67.393,230
67.418,238
67.443,242
67.468,240
67.493,234
67.518,231
67.543,233
67.568,241
67.593,247
67.618,246
67.643,240
67.668,232
67.693,225
67.718,214
67.743,197
67.768,176
67.793,155
67.818,137
67.843,117
67.868,90
67.893,57
67.918,25
67.943,0
67.968,-25
67.993,-56
68.018,-89
68.043,-110
68.068,-103
68.093,-69
68.118,-24
68.143,14
68.168,38
68.193,54
68.218,70
68.243,86
68.268,95
68.293,99
68.318,103
68.343,114
68.368,132
68.393,152
68.418,173
68.443,197
68.468,223
68.493,250
68.518,272
68.543,293
68.568,320
68.593,362
68.618,410
68.643,453
68.668,483
68.693,508
68.718,537
68.743,566
68.768,585
68.793,586
68.818,578
68.843,583
68.868,615
68.893,673
68.918,752
68.943,847
68.968,960
68.993,1072
69.018,1146
69.043,1144
69.068,1056
69.093,910
69.118,752
69.143,608
69.168,478
69.193,343
69.218,194
69.243,37
69.268,-118
69.293,-275
69.318,-443
69.343,-619
69.368,-784
69.393,-904
69.418,-960
69.443,-951
69.468,-905
69.493,-853
69.518,-813
69.543,-782
69.568,-745
69.593,-692
69.618,-632
69.643,-586
69.668,-563
69.693,-544
69.718,-497
69.743,-402
69.768,-264
69.793,-111
69.818,41
69.843,199
69.868,369
69.893,544
69.918,695
69.943,795
69.968,842
69.993,855
70.018,856
70.043,846
70.068,816
70.093,763
70.118,700
70.143,642
70.168,596
70.193,552
70.218,499
70.243,442
70.268,394
70.293,366
70.318,356
70.343,351
70.368,342
70.393,328
70.418,311
70.443,298
70.468,285
70.493,270
70.518,255
70.543,244
70.568,244
70.593,253
70.618,262
70.643,261
70.668,244
70.693,218
70.718,192
70.743,173
70.768,159
70.793,146
70.818,136
70.843,131
70.868,131
70.893,130
70.918,125
70.943,115
70.968,107
70.993,103
71.018,98
71.043,85
71.068,66
71.093,48
71.118,41
71.143,44
71.168,50
71.193,57
71.218,69
71.243,86
71.268,102
71.293,104
71.318,89
71.343,71
71.368,71
71.393,97
71.418,140
71.443,180
71.468,207
71.493,224
71.518,239
71.543,256
71.568,270
71.593,274
71.618,269
71.643,260
71.668,254
71.693,254
71.718,259
71.743,268
71.768,278
71.793,285
71.818,288
71.843,285
71.868,276
71.893,263
71.918,250
71.943,239
71.968,229
71.993,219
72.018,206
72.043,187
72.068,166
72.093,141
72.118,113
72.143,80
72.168,49
72.193,32
72.218,42
72.243,80
72.268,133
72.293,178
72.318,204
72.343,213
72.368,217
72.393,225
72.418,235
72.443,239
72.468,235
72.493,228
72.518,228
72.543,236
72.568,248
72.593,258
72.618,260
72.643,257
72.668,250
72.693,243
72.718,234
72.743,222
72.768,204
72.793,181
72.818,155
72.843,129
72.868,110
72.893,94
72.918,78
72.943,55
72.968,26
72.993,1
73.018,-4
73.043,17
73.068,60
73.093,107
73.118,143
73.143,163
73.168,176
73.193,189
73.218,202
73.243,213
73.268,218
73.293,221
73.318,228
73.343,239
73.368,248
73.393,249
73.418,244
73.443,239
73.468,239
73.493,241
73.518,241
73.543,235
73.568,225
73.593,214
73.618,203
73.643,187
73.668,168
73.693,150
73.718,139
73.743,133
73.768,125
73.793,112
73.818,101
73.843,104
73.868,132
73.893,177
73.918,223
73.943,253
73.968,264
73.993,264
74.018,265
74.043,268
74.068,268
74.093,259
74.118,246
74.143,234
74.168,231
74.193,233
74.218,234
74.243,230
74.268,222
74.293,216
74.318,212
74.343,207
74.368,199
74.393,188
74.418,176
74.443,166
74.468,156
74.493,143
74.518,126
74.543,107
74.568,84
74.593,60
74.618,39
74.643,32
74.668,47
74.693,85
74.718,131
74.743,169
74.768,191
74.793,202
74.818,209
74.843,218
74.868,225
74.893,228
74.918,228
74.943,233
74.968,243
74.993,255
75.018,263
75.043,265
75.068,263
75.093,259
75.118,253
75.143,243
75.168,229
75.193,212
75.218,194
75.243,180
75.268,169
75.293,162
75.318,156
75.343,143
75.368,118
75.393,84
75.418,55
75.443,44
75.468,56
75.493,84
75.518,114
75.543,138
75.568,155
75.593,169
75.618,181
75.643,188
75.668,192
75.693,198
75.718,208
75.743,224
75.768,240
75.793,251
75.818,258
75.843,263
75.868,264
75.893,258
75.918,244
75.943,224
75.968,204
75.993,187
76.018,174
76.043,164
76.068,159
76.093,160
76.118,162
76.143,157
76.168,135
76.193,99
76.218,62
76.243,44
76.268,56
76.293,94
76.318,140
76.343,180
76.368,206
76.393,222
76.418,233
76.443,242
76.468,251
76.493,258
76.518,264
76.543,267
76.568,265
76.593,257
76.618,245
76.643,235
76.668,232
76.693,232
76.718,229
76.743,220
76.768,211
76.793,205
76.818,203
76.843,196
76.868,181
76.893,161
76.918,149
76.943,147
76.968,147
76.993,134
77.018,109
77.043,89
77.068,92
77.093,123
77.118,163
77.143,194
77.168,210
77.193,222
77.218,238
77.243,253
77.268,258
77.293,246
77.318,228
77.343,218
77.368,222
77.393,234
77.418,244
77.443,252
77.468,258
77.493,265
77.518,266
77.543,259
77.568,242
77.593,222
77.618,204
77.643,189
77.668,174
77.693,155
77.718,129
77.743,94
77.768,56
77.793,26
77.818,18
77.843,36
77.868,71
77.893,105
77.918,126
77.943,136
77.968,144
77.993,153
78.018,157
78.043,151
78.068,140
78.093,137
78.118,150
78.143,172
78.168,191
78.193,197
78.218,193
78.243,187
78.268,186
78.293,188
78.318,186
78.343,180
78.368,169
78.393,156
78.418,141
78.443,127
78.468,119
78.493,125
78.518,149
78.543,188
78.568,232
78.593,274
78.618,304
78.643,320
78.668,324
78.693,319
78.718,310
78.743,300
78.768,294
78.793,295
78.818,303
78.843,315
78.868,319
78.893,303
78.918,266
78.943,215
78.968,170
78.993,141
79.018,126
79.043,113
79.068,88
79.093,53
79.118,25
79.143,20
79.168,43
79.193,85
79.218,129
79.243,160
79.268,180
79.293,194
79.318,212
79.343,234
79.368,253
79.393,260
79.418,251
79.443,234
79.468,222
79.493,226
79.518,245
79.543,265
79.568,271
79.593,260
79.618,242
79.643,231
79.668,228
79.693,224
79.718,209
79.743,184
79.768,160
79.793,143
79.818,130
79.843,117
79.868,112
79.893,131
79.918,177
79.943,223
79.968,226
79.993,165
80.018,66
80.043,-12
80.068,-32
80.093,1
80.118,47
80.143,73
80.168,78
80.193,88
80.218,120
80.243,164
80.268,199
80.293,215
80.318,221
80.343,230
80.368,243
80.393,253
80.418,254
80.443,247
80.468,237
80.493,226
80.518,212
80.543,197
80.568,187
80.593,182
80.618,176
80.643,166
80.668,155
80.693,156
80.718,178
80.743,215
80.768,254
80.793,282
80.818,298
80.843,309
80.868,315
80.893,314
80.918,304
80.943,289
80.968,277
80.993,269
81.018,259
81.043,243
81.068,224
81.093,206
81.118,191
81.143,174
81.168,153
81.193,133
81.218,122
81.243,122
81.268,126
81.293,123
81.318,113
81.343,106
81.368,109
81.393,116
81.418,115
81.443,101
81.468,83
81.493,79
81.518,97
81.543,131
81.568,164
81.593,187
81.618,201
81.643,211
81.668,221
81.693,229
81.718,231
81.743,225
81.768,209
81.793,184
81.818,157
81.843,134
81.868,121
81.893,117
81.918,115
81.943,111
81.968,104
81.993,96
82.018,90
82.043,80
82.068,62
82.093,37
82.118,9
82.143,-14
82.168,-31
82.193,-40
82.218,-37
82.243,-21
82.268,8
82.293,40
82.318,67
82.343,91
82.368,132
82.393,211
82.418,335
82.443,485
82.468,631
82.493,747
82.518,825
82.543,864
82.568,864
82.593,826
82.618,754
82.643,670
82.668,595
82.693,543
82.718,506
82.743,468
82.768,415
82.793,350
82.818,284
82.843,230
82.868,194
82.893,170
82.918,145
82.943,108
82.968,52
82.993,-19
83.018,-94
83.043,-157
83.068,-202
83.093,-236
83.118,-271
83.143,-308
83.168,-332
83.193,-324
83.218,-280
83.243,-213
83.268,-148
83.293,-98
83.318,-61
83.343,-25
83.368,15
83.393,58
83.418,95
83.443,120
83.468,135
83.493,145
83.518,156
83.543,172
83.568,196
83.593,224
83.618,249
83.643,267
83.668,282
83.693,303
83.718,334
83.743,370
83.768,394
83.793,395
83.818,377
83.843,351
83.868,324
83.893,290
83.918,245
83.943,197
83.968,165
83.993,165
84.018,195
84.043,235
84.068,265
84.093,279
84.118,283
84.143,287
84.168,292
84.193,293
84.218,287
84.243,279
84.268,273
84.293,271
84.318,271
84.343,268
84.368,265
84.393,260
84.418,255
84.443,247
84.468,234
84.493,215
84.518,191
84.543,167
84.568,143
84.593,124
84.618,108
84.643,91
84.668,66
84.693,30
84.718,-7
84.743,-34
84.768,-36
84.793,-14
84.818,18
84.843,47
84.868,66
84.893,75
84.918,82
84.943,88
84.968,93
84.993,92
85.018,87
85.043,83
85.068,86
85.093,96
85.118,107
85.143,112
85.168,109
85.193,101
85.218,94
85.243,88
85.268,81
85.293,69
85.318,49
85.343,27
85.368,9
85.393,0
85.418,-3
85.443,-9
85.468,-27
85.493,-55
85.518,-80
85.543,-82
85.568,-46
85.593,23
85.618,107
85.643,182
85.668,240
85.693,285
85.718,329
85.743,379
85.768,433
85.793,490
85.818,550
85.843,611
85.868,671
85.893,727
85.918,779
85.943,832
85.968,889
85.993,946
86.018,995
86.043,1037
86.068,1075
86.093,1106
86.118,1119
86.143,1108
86.168,1079
86.193,1047
86.218,1011
86.243,950
86.268,845
86.293,704
86.318,564
86.343,456
86.368,364
86.393,234
86.418,23
86.443,-253
86.468,-528
86.493,-729
86.518,-831
86.543,-857
86.568,-849
86.593,-836
86.618,-827
86.643,-825
86.668,-834
86.693,-855
86.718,-880
86.743,-888
86.768,-855
86.793,-769
86.818,-639
86.843,-488
86.868,-344
86.893,-217
86.918,-95
86.943,45
86.968,208
86.993,364
87.018,469
87.043,506
87.068,500
87.093,502
87.118,539
87.143,603
87.168,664
87.193,697
87.218,695
87.243,652
87.268,561
87.293,430
87.318,291
87.343,187
87.368,140
87.393,130
87.418,120
87.443,86
87.468,35
87.493,-8
87.518,-34
87.543,-48
87.568,-62
87.593,-82
87.618,-106
87.643,-131
87.668,-149
87.693,-153
87.718,-145
87.743,-141
87.768,-160
87.793,-202
87.818,-237
87.843,-231
87.868,-179
87.893,-106
87.918,-44
87.943,6
87.968,67
87.993,153
88.018,250
88.043,330
88.068,391
88.093,460
88.118,560
88.143,679
88.168,781
88.193,840
88.218,869
88.243,904
88.268,957
88.293,1012
88.318,1045
88.343,1054
88.368,1052
88.393,1044
88.418,1013
88.443,938
88.468,811
88.493,651
88.518,489
88.543,359
88.568,299
88.593,337
88.618,464
88.643,625
88.668,753
88.693,821
88.718,861
88.743,921
88.768,1001
88.793,1048
88.818,1018
88.843,941
88.868,893
88.893,905
88.918,908
88.943,799
88.968,554
88.993,271
89.018,83
89.043,33
89.068,37
89.093,-27
89.118,-208
89.143,-461
89.168,-716
89.193,-945
89.218,-1148
89.243,-1309
89.268,-1393
89.293,-1382
89.318,-1298
89.343,-1170
89.368,-998
89.393,-771
89.418,-523
89.443,-333
89.468,-258
89.493,-265
89.518,-258
89.543,-190
89.568,-127
89.593,-171
89.618,-332
89.643,-494
89.668,-527
89.693,-415
89.718,-266
89.743,-193
89.768,-208
89.793,-244
89.818,-260
89.843,-289
89.868,-375
89.893,-496
89.918,-573
89.943,-554
89.968,-472
89.993,-403
90.018,-387
90.043,-396
90.068,-383
90.093,-332
90.118,-265
90.143,-203
90.168,-157
90.193,-140
90.218,-174
90.243,-254
90.268,-306
90.293,-204
90.318,163
90.343,808
90.368,1617
90.393,2403
90.418,3003
90.443,3365
90.468,3579
90.493,3801
90.518,4103
90.543,4371
90.568,4349
90.593,3837
90.618,2881
90.643,1774
90.668,862
90.693,306
90.718,32
90.743,-133
90.768,-292
90.793,-431
90.818,-511
90.843,-541
90.868,-568
90.893,-614
90.918,-659
90.943,-688
90.968,-724
90.993,-801
91.018,-915
91.043,-1018
91.068,-1070
91.093,-1082
91.118,-1083
91.143,-1081
91.168,-1055
91.193,-995
91.218,-927
91.243,-881
91.268,-846
91.293,-766
91.318,-602
91.343,-376
91.368,-146
91.393,43
91.418,197
91.443,324
91.468,408
91.493,416
91.518,357
91.543,292
91.568,279
91.593,317
91.618,339
91.643,291
91.668,190
91.693,108
91.718,104
91.743,175
91.768,268
91.793,339
91.818,377
91.843,379
91.868,328
91.893,210
91.918,55
91.943,-65
91.968,-93
91.993,-48
92.018,-19
92.043,-85
92.068,-235
92.093,-376
92.118,-421
92.143,-367
92.168,-287
92.193,-253
92.218,-268
92.243,-288
92.268,-281
92.293,-245
92.318,-184
92.343,-56
92.368,204
92.393,619
92.418,1122
92.443,1584
92.468,1906
92.493,2067
92.518,2118
92.543,2122
92.568,2105
92.593,2062
92.618,1969
92.643,1816
92.668,1612
92.693,1388
92.718,1183
92.743,1015
92.768,869
92.793,711
92.818,519
92.843,316
92.868,144
92.893,20
92.918,-80
92.943,-199
92.968,-359
92.993,-542
93.018,-712
93.043,-845
93.068,-935
93.093,-997
93.118,-1060
93.143,-1157
93.168,-1300
93.193,-1463
93.218,-1595
93.243,-1673
93.268,-1727
93.293,-1812
93.318,-1932
93.343,-2026
93.368,-2033
93.393,-1974
93.418,-1934
93.443,-1938
93.468,-1866
93.493,-1514
93.518,-788
93.543,152
93.568,976
93.593,1409
93.618,1429
93.643,1249
93.668,1128
93.693,1187
93.718,1380
93.743,1591
93.768,1751
93.793,1858
93.818,1932
93.843,1974
93.868,1973
93.893,1941
93.918,1927
93.943,1970
93.968,2052
93.993,2083
94.018,1962
94.043,1653
94.068,1224
94.093,809
94.118,513
94.143,351
94.168,269
94.193,207
94.218,143
94.243,90
94.268,61
94.293,54
94.318,76
94.343,146
94.368,274
94.393,424
94.418,533
94.443,553
94.468,498
94.493,422
94.518,368
94.543,336
94.568,307
94.593,281
94.618,278
94.643,288
94.668,249
94.693,80
94.718,-253
94.743,-695
94.768,-1137
94.793,-1477
94.818,-1671
94.843,-1720
94.868,-1647
94.893,-1484
94.918,-1270
94.943,-1045
94.968,-837
94.993,-653
95.018,-483
95.043,-321
95.068,-178
95.093,-64
95.118,15
95.143,71
95.168,117
95.193,166
95.218,227
95.243,306
95.268,394
95.293,479
95.318,547
95.343,602
95.368,656
95.393,716
95.418,771
95.443,798
95.468,785
95.493,743
95.518,695
95.543,657
95.568,625
95.593,586
95.618,534
95.643,471
95.668,404
95.693,333
95.718,256
95.743,174
95.768,84
95.793,-14
95.818,-128
95.843,-250
95.868,-363
95.893,-447
95.918,-497
95.943,-525
95.968,-544
95.993,-567
96.018,-598
96.043,-644
96.068,-705
96.093,-747
96.118,-699
96.143,-489
96.168,-99
96.193,398
96.218,868
96.243,1191
96.268,1326
96.293,1313
96.318,1233
96.343,1151
96.368,1088
96.393,1031
96.418,957
96.443,856
96.468,744
96.493,649
96.518,602
96.543,608
96.568,644
96.593,672
96.618,666
96.643,627
96.668,573
96.693,516
96.718,460
96.743,404
96.768,355
96.793,318
96.818,292
96.843,266
96.868,232
96.893,195
96.918,164
96.943,137
96.968,105
96.993,65
97.018,31
97.043,17
97.068,18
97.093,8
97.118,-36
97.143,-109
97.168,-172
97.193,-190
97.218,-164
97.243,-122
97.268,-93
97.293,-81
97.318,-74
97.343,-63
97.368,-57
97.393,-70
97.418,-104
97.443,-146
97.468,-179
97.493,-192
97.518,-178
97.543,-136
97.568,-75
97.593,-13
97.618,34
97.643,71
97.668,118
97.693,192
97.718,279
97.743,334
97.768,316
97.793,231
97.818,129
97.843,69
97.868,72
97.893,119
97.918,172
97.943,213
97.968,248
97.993,285
98.018,321
98.043,338
98.068,328
98.093,299
98.118,269
98.143,252
98.168,248
98.193,247
98.218,243
98.243,234
98.268,225
98.293,217
98.318,211
98.343,207
98.368,204
98.393,206
98.418,212
98.443,221
98.468,229
98.493,230
98.518,218
98.543,194
98.568,165
98.593,142
98.618,134
98.643,143
98.668,159
98.693,171
98.718,167
98.743,148
98.768,123
98.793,101
98.818,86
98.843,74
98.868,64
98.893,67
98.918,98
98.943,164
98.968,248
98.993,317
99.018,343
99.043,327
99.068,294
99.093,274
99.118,270
99.143,269
99.168,251
99.193,214
99.218,174
99.243,140
99.268,107
99.293,58
99.318,-12
99.343,-89
99.368,-143
99.393,-155
99.418,-128
99.443,-83
99.468,-38
99.493,0
99.518,43
99.543,95
99.568,158
99.593,227
99.618,295
99.643,358
99.668,409
99.693,443
99.718,459
99.743,465
99.768,473
99.793,489
99.818,512
99.843,532
99.868,543
99.893,541
99.918,531
99.943,516
99.968,498
99.993,475
100.018,443
100.043,395
100.068,323
100.093,226
100.118,112
100.143,0
100.168,-89
100.193,-146
100.218,-172
100.243,-174
100.268,-161
100.293,-139
100.318,-111
100.343,-82
100.368,-55
100.393,-29
100.418,0
100.443,37
100.468,80
100.493,124
100.518,166
100.543,202
100.568,229
100.593,245
100.618,249
100.643,245
100.668,237
100.693,227
100.718,214
100.743,197
100.768,179
100.793,161
100.818,146
100.843,132
100.868,119
100.893,105
100.918,94
100.943,80
100.968,58
100.993,28
101.018,0
101.043,-10
101.068,10
101.093,56
101.118,110
101.143,152
101.168,178
101.193,195
101.218,210
101.243,223
101.268,232
101.293,235
101.318,240
101.343,254
101.368,276
101.393,298
101.418,309
101.443,309
101.468,302
101.493,295
101.518,290
101.543,282
101.568,271
101.593,258
101.618,247
101.643,238
101.668,229
101.693,216
101.718,201
101.743,184
101.768,165
101.793,140
101.818,108
101.843,74
101.868,48
101.893,39
101.918,49
101.943,76
101.968,111
101.993,145
102.018,170
102.043,188
102.068,200
102.093,211
102.118,222
102.143,228
102.168,226
102.193,217
102.218,209
102.243,209
102.268,221
102.293,238
102.318,252
102.343,258
102.368,255
102.393,243
102.418,226
102.443,209
102.468,196
102.493,188
102.518,179
102.543,161
102.568,134
102.593,107
102.618,93
102.643,94
102.668,101
102.693,98
102.718,83
102.743,68
102.768,67
102.793,88
102.818,122
102.843,156
102.868,183
102.893,204
102.918,224
102.943,241
102.968,251
102.993,253
103.018,250
103.043,249
103.068,255
103.093,267
103.118,274
103.143,273
103.168,263
103.193,252
103.218,247
103.243,248
103.268,251
103.293,247
103.318,236
103.343,222
103.368,209
103.393,199
103.418,188
103.443,174
103.468,156
103.493,132
103.518,104
103.543,73
103.568,49
103.593,44
103.618,64
103.643,99
103.668,132
103.693,150
103.718,155
103.743,154
103.768,158
103.793,164
103.818,165
103.843,161
103.868,154
103.893,152
103.918,156
103.943,161
103.968,161
103.993,155
104.018,147
104.043,140
104.068,134
104.093,126
104.118,115
104.143,102
104.168,89
104.193,81
104.218,77
104.243,74
104.268,68
104.293,59
104.318,50
104.343,48
104.368,63
104.393,95
104.418,135
104.443,172
104.468,199
104.493,216
104.518,228
104.543,237
104.568,244
104.593,250
104.618,257
104.643,270
104.668,288
104.693,309
104.718,330
104.743,345
104.768,355
104.793,358
104.818,356
104.843,353
104.868,355
104.893,362
104.918,367
104.943,361
104.968,342
104.993,319
105.018,311
105.043,331
105.068,375
105.093,424
105.118,458
105.143,464
105.168,442
105.193,397
105.218,338
105.243,271
105.268,202
105.293,137
105.318,80
105.343,33
105.368,1
105.393,-15
105.418,-22
105.443,-30
105.468,-48
105.493,-76
105.518,-100
105.543,-108
105.568,-102
105.593,-97
105.618,-107
105.643,-130
105.668,-142
105.693,-124
105.718,-75
105.743,-13
105.768,40
105.793,81
105.818,115
105.843,149
105.868,176
105.893,189
105.918,187
105.943,183
105.968,188
105.993,208
106.018,233
106.043,253
106.068,263
106.093,267
106.118,270
106.143,277
106.168,286
106.193,294
106.218,294
106.243,284
106.268,271
106.293,269
106.318,289
106.343,329
106.368,370
106.393,394
106.418,398
106.443,394
106.468,394
106.493,398
106.518,393
106.543,372
106.568,342
106.593,318
106.618,306
106.643,301
106.668,289
106.693,264
106.718,227
106.743,184
106.768,140
106.793,99
106.818,66
106.843,39
106.868,1
106.893,-67
106.918,-175
106.943,-292
106.968,-366
106.993,-353
107.018,-252
107.043,-105
107.068,32
107.093,128
107.118,183
107.143,217
107.168,245
107.193,268
107.218,280
107.243,283
107.268,283
107.293,282
107.318,273
107.343,247
107.368,202
107.393,151
107.418,105
107.443,64
107.468,18
107.493,-38
107.518,-94
107.543,-135
107.568,-161
107.593,-199
107.618,-269
107.643,-356
107.668,-397
107.693,-325
107.718,-119
107.743,168
107.768,446
107.793,647
107.818,760
107.843,815
107.868,844
107.893,854
107.918,841
107.943,807
107.968,770
107.993,749
108.018,740
108.043,725
108.068,685
108.093,619
108.118,538
108.143,458
108.168,385
108.193,318
108.218,253
108.243,190
108.268,132
108.293,79
108.318,32
108.343,-8
108.368,-42
108.393,-68
108.418,-89
108.443,-116
108.468,-157
108.493,-211
108.518,-260
108.543,-282
108.568,-266
108.593,-219
108.618,-165
108.643,-121
108.668,-84
108.693,-37
108.718,29
108.743,112
108.768,190
108.793,249
108.818,291
108.843,325
108.868,357
108.893,383
108.918,399
108.943,402
108.968,395
108.993,378
109.018,351
109.043,318
109.068,292
109.093,278
109.118,273
109.143,263
109.168,235
109.193,191
109.218,141
109.243,93
109.268,46
109.293,-2
109.318,-50
109.343,-88
109.368,-111
109.393,-128
109.418,-146
109.443,-164
109.468,-161
109.493,-119
109.518,-33
109.543,79
109.568,192
109.593,281
109.618,340
109.643,372
109.668,387
109.693,394
109.718,399
109.743,403
109.768,404
109.793,402
109.818,398
109.843,392
109.868,382
109.893,365
109.918,343
109.943,320
109.968,300
109.993,281
110.018,258
110.043,229
110.068,202
110.093,185
110.118,182
110.143,184
110.168,178
110.193,161
110.218,139
110.243,120
110.268,108
110.293,97
110.318,80
110.343,53
110.368,18
110.393,-17
110.418,-45
110.443,-52
110.468,-35
110.493,2
110.518,48
110.543,88
110.568,120
110.593,148
110.618,177
110.643,205
110.668,222
110.693,225
110.718,219
110.743,214
110.768,214
110.793,218
110.818,218
110.843,212
110.868,201
110.893,184
110.918,164
110.943,144
110.968,130
110.993,124
111.018,123
111.043,121
111.068,115
111.093,113
111.118,123
111.143,147
111.168,173
111.193,192
111.218,205
111.243,219
111.268,235
111.293,242
111.318,226
111.343,190
111.368,158
111.393,153
111.418,183
111.443,228
111.468,262
111.493,274
111.518,269
111.543,261
111.568,256
111.593,254
111.618,252
111.643,253
111.668,260
111.693,272
111.718,283
111.743,289
111.768,292
111.793,293
111.818,289
111.843,277
111.868,258
111.893,239
111.918,226
111.943,219
111.968,211
111.993,194
112.018,172
112.043,153
112.068,142
112.093,135
112.118,126
112.143,113
112.168,101
112.193,91
112.218,79
112.243,55
112.268,22
112.293,-5
112.318,-11
112.343,9
112.368,48
112.393,87
112.418,115
112.443,133
112.468,144
112.493,154
112.518,161
112.543,165
112.568,169
112.593,177
112.618,194
112.643,216
112.668,240
112.693,258
112.718,269
112.743,270
112.768,267
112.793,263
112.818,262
112.843,261
112.868,255
112.893,243
112.918,229
112.943,218
112.968,211
112.993,200
113.018,181
113.043,155
113.068,130
113.093,112
113.118,95
113.143,69
113.168,34
113.193,1
113.218,-9
113.243,9
113.268,52
113.293,102
113.318,142
113.343,167
113.368,180
113.393,187
113.418,191
113.443,193
113.468,193
113.493,196
113.518,205
113.543,224
113.568,250
113.593,279
113.618,304
113.643,319
113.668,324
113.693,320
113.718,310
113.743,294
113.768,271
113.793,246
113.818,223
113.843,204
113.868,187
113.893,171
113.918,153
113.943,134
113.968,115
113.993,91
114.018,62
114.043,33
114.068,15
114.093,22
114.118,54
114.143,101
114.168,146
114.193,182
114.218,207
114.243,224
114.268,236
114.293,241
114.318,239
114.343,236
114.368,236
114.393,242
114.418,251
114.443,257
114.468,256
114.493,248
114.518,238
114.543,231
114.568,226
114.593,221
114.618,212
114.643,198
114.668,181
114.693,165
114.718,153
114.743,143
114.768,130
114.793,113
114.818,91
114.843,66
114.868,45
114.893,40
114.918,56
114.943,95
114.968,141
114.993,179
115.018,199
115.043,207
115.068,212
115.093,220
115.118,228
115.143,231
115.168,232
115.193,233
115.218,239
115.243,244
115.268,242
115.293,232
115.318,222
115.343,217
115.368,216
115.393,211
115.418,196
115.443,174
115.468,152
115.493,137
115.518,129
115.543,126
115.568,121
115.593,110
115.618,91
115.643,72
115.668,67
115.693,88
115.718,135
115.743,192
115.768,237
115.793,258
115.818,262
115.843,263
115.868,268
115.893,272
115.918,269
115.943,258
115.968,248
115.993,245
116.018,245
116.043,240
116.068,226
116.093,209
116.118,195
116.143,184
116.168,175
116.193,163
116.218,147
116.243,130
116.268,111
116.293,89
116.318,67
116.343,47
116.368,29
116.393,10
116.418,-8
116.443,-17
116.468,-5
116.493,32
116.518,83
116.543,126
116.568,151
116.593,164
116.618,182
116.643,215
116.668,257
116.693,299
116.718,333
116.743,361
116.768,383
116.793,394
116.818,386
116.843,361
116.868,330
116.893,307
116.918,292
116.943,278
116.968,258
116.993,232
117.018,206
117.043,182
117.068,159
117.093,132
117.118,98
117.143,59
117.168,16
117.193,-23
117.218,-50
117.243,-53
117.268,-29
117.293,7
117.318,38
117.343,46
117.368,32
117.393,12
117.418,-1
117.443,-7
117.468,-10
117.493,-18
117.518,-31
117.543,-38
117.568,-25
117.593,18
117.618,95
117.643,191
117.668,288
117.693,366
117.718,420
117.743,452
117.768,470
117.793,471
117.818,455
117.843,426
117.868,398
117.893,383
117.918,376
117.943,359
117.968,318
117.993,264
118.018,227
118.043,229
118.068,266
118.093,307
118.118,326
118.143,319
118.168,301
118.193,290
118.218,287
118.243,277
118.268,251
118.293,217
118.318,192
118.343,187
118.368,196
118.393,205
118.418,205
118.443,198
118.468,192
118.493,191
118.518,188
118.543,177
118.568,154
118.593,125
118.618,97
118.643,74
118.668,58
118.693,45
118.718,27
118.743,1
118.768,-33
118.793,-65
118.818,-80
118.843,-65
118.868,-25
118.893,18
118.918,48
118.943,61
118.968,74
118.993,101
119.018,141
119.043,181
119.068,208
119.093,226
119.118,249
119.143,285
119.168,323
119.193,346
119.218,344
119.243,328
119.268,314
119.293,307
119.318,297
119.343,271
119.368,230
119.393,186
119.418,152
119.443,125
119.468,98
119.493,60
119.518,16
119.543,-24
119.568,-57
119.593,-79
119.618,-94
119.643,-97
119.668,-84
119.693,-52
119.718,-12
119.743,19
119.768,33
119.793,30
119.818,22
119.843,24
119.868,43
119.893,77
119.918,123
119.943,175
119.968,227
119.993,273
120.018,307
120.043,331
120.068,347
120.093,357
120.118,359
120.143,350
120.168,335
120.193,324
120.218,328
120.243,347
120.268,368
120.293,371
120.318,347
120.343,302
120.368,251
120.393,208
120.418,173
120.443,141
120.468,105
120.493,68
120.518,38
120.543,22
120.568,15
120.593,2
120.618,-26
120.643,-61
120.668,-78
120.693,-58
120.718,-9
120.743,42
120.768,76
120.793,97
120.818,127
120.843,184
120.868,263
120.893,348
120.918,431
120.943,521
120.968,622
120.993,723
121.018,805
121.043,859
121.068,888
121.093,898
121.118,892
121.143,889
121.168,943
121.193,1106
121.218,1368
121.243,1611
121.268,1663
121.293,1419
121.318,932
121.343,375
121.368,-81
121.393,-377
121.418,-560
121.443,-696
121.468,-797
121.493,-827
121.518,-763
121.543,-627
121.568,-465
121.593,-320
121.618,-216
121.643,-184
121.668,-252
121.693,-419
121.718,-625
121.743,-778
121.768,-815
121.793,-747
121.818,-633
121.843,-528
121.868,-446
121.893,-373
121.918,-300
121.943,-237
121.968,-196
121.993,-177
122.018,-164
122.043,-143
122.068,-102
122.093,-39
122.118,45
122.143,142
122.168,235
122.193,315
122.218,396
122.243,504
122.268,642
122.293,781
122.318,872
122.343,891
122.368,857
122.393,808
122.418,771
122.443,744
122.468,718
122.493,696
122.518,689
122.543,696
122.568,700
122.593,682
122.618,644
122.643,600
122.668,556
122.693,508
122.718,448
122.743,389
122.768,345
122.793,317
122.818,282
122.843,221
122.868,145
122.893,82
122.918,48
122.943,31
122.968,4
122.993,-31
123.018,-58
123.043,-63
123.068,-67
123.093,-103
123.118,-171
123.143,-224
123.168,-216
123.193,-148
123.218,-76
123.243,-53
123.268,-84
123.293,-127
123.318,-145
123.343,-146
123.368,-158
123.393,-197
123.418,-239
123.443,-247
123.468,-203
123.493,-122
123.518,-27
123.543,64
123.568,144
123.593,206
123.618,243
123.643,257
123.668,260
123.693,263
123.718,264
123.743,258
123.768,247
123.793,242
123.818,255
123.843,277
123.868,294
123.893,302
123.918,317
123.943,357
123.968,420
123.993,487
124.018,536
124.043,565
124.068,588
124.093,616
124.118,639
124.143,642
124.168,625
124.193,600
124.218,581
124.243,571
124.268,560
124.293,538
124.318,507
124.343,473
124.368,432
124.393,376
124.418,300
124.443,213
124.468,130
124.493,63
124.518,14
124.543,-25
124.568,-55
124.593,-68
124.618,-60
124.643,-38
124.668,-18
124.693,-11
124.718,-16
124.743,-23
124.768,-24
124.793,-23
124.818,-29
124.843,-44
124.868,-59
124.893,-64
124.918,-58
124.943,-48
124.968,-38
124.993,-26
125.018,-2
125.043,31
125.068,65
125.093,86
125.118,90
125.143,82
125.168,72
125.193,66
125.218,62
125.243,61
125.268,63
125.293,67
125.318,67
125.343,57
125.368,38
125.393,22
125.418,26
125.443,57
125.468,108
125.493,162
125.518,206
125.543,237
125.568,260
125.593,282
125.618,303
125.643,318
125.668,326
125.693,329
125.718,332
125.743,337
125.768,343
125.793,347
125.818,350
125.843,352
125.868,357
125.893,362
125.918,366
125.943,366
125.968,364
125.993,361
126.018,356
126.043,348
126.068,336
126.093,322
126.118,306
126.143,287
126.168,266
126.193,245
126.218,232
126.243,231
126.268,236
126.293,240
126.318,236
126.343,231
126.368,235
126.393,249
126.418,262
126.443,266
126.468,261
126.493,258
126.518,260
126.543,258
126.568,233
126.593,178
126.618,106
126.643,43
126.668,3
126.693,-14
126.718,-23
126.743,-30
126.768,-35
126.793,-38
126.818,-42
126.843,-52
126.868,-64
126.893,-73
126.918,-77
126.943,-83
126.968,-100
126.993,-126
127.018,-146
127.043,-143
127.068,-113
127.093,-67
127.118,-20
127.143,17
127.168,48
127.193,79
127.218,113
127.243,149
127.268,184
127.293,216
127.318,243
127.343,267
127.368,289
127.393,310
127.418,326
127.443,334
127.468,331
127.493,324
127.518,320
127.543,324
127.568,329
127.593,325
127.618,310
127.643,292
127.668,282
127.693,283
127.718,291
127.743,302
127.768,317
127.793,344
127.818,378
127.843,406
127.868,414
127.893,399
127.918,375
127.943,357
127.968,347
127.993,336
128.018,321
128.043,306
128.068,301
128.093,305
128.118,307
128.143,297
128.168,276
128.193,251
128.218,225
128.243,191
128.268,146
128.293,98
128.318,60
128.343,35
128.368,12
128.393,-22
128.418,-63
128.443,-85
128.468,-68
128.493,-11
128.518,57
128.543,111
128.568,138
128.593,149
128.618,159
128.643,169
128.668,171
128.693,162
128.718,149
128.743,143
128.768,147
128.793,156
128.818,163
128.843,166
128.868,170
128.893,177
128.918,181
128.943,174
128.968,158
128.993,139
129.018,127
129.043,120
129.068,107
129.093,85
129.118,63
129.143,62
129.168,90
129.193,139
129.218,185
129.243,214
129.268,225
129.293,232
129.318,241
129.343,249
129.368,246
129.393,234
129.418,219
129.443,209
129.468,200
129.493,187
129.518,167
129.543,146
129.568,131
129.593,121
129.618,119
129.643,130
129.668,163
129.693,211
129.718,250
129.743,253
129.768,216
129.793,160
129.818,113
129.843,86
129.868,73
129.893,67
129.918,76
129.943,118
129.968,192
129.993,276
130.018,340
130.043,372
130.068,385
130.093,397
130.118,408
130.143,410
130.168,393
130.193,364
130.218,337
130.243,321
130.268,311
130.293,302
130.318,288
130.343,270
130.368,248
130.393,222
130.418,194
130.443,168
130.468,144
130.493,118
130.518,85
130.543,48
130.568,12
130.593,-18
130.618,-51
130.643,-89
130.668,-123
130.693,-134
130.718,-107
130.743,-49
130.768,13
130.793,63
130.818,97
130.843,134
130.868,182
130.893,234
130.918,272
130.943,286
130.968,283
130.993,279
131.018,283
131.043,292
131.068,297
131.093,293
131.118,285
131.143,284
131.168,292
131.193,306
131.218,316
131.243,314
131.268,297
131.293,265
131.318,221
131.343,173
131.368,132
131.393,108
131.418,105
131.443,114
131.468,119
131.493,107
131.518,84
131.543,70
131.568,82
131.593,122
131.618,175
131.643,220
131.668,244
131.693,250
131.718,250
131.743,249
131.768,249
131.793,249
131.818,247
131.843,243
131.868,236
131.893,224
131.918,207
131.943,188
131.968,166
131.993,143
132.018,118
132.043,93
132.068,72
132.093,52
132.118,29
132.143,3
132.168,-19
132.193,-24
132.218,-8
132.243,18
132.268,39
132.293,48
132.318,55
132.343,76
132.368,116
132.393,165
132.418,208
132.443,243
132.468,275
132.493,308
132.518,334
132.543,343
132.568,339
132.593,335
132.618,348
132.643,377
132.668,407
132.693,423
132.718,421
132.743,412
132.768,403
132.793,396
132.818,388
132.843,378
132.868,370
132.893,363
132.918,350
132.943,326
132.968,293
132.993,261
133.018,236
133.043,214
133.068,184
133.093,148
133.118,115
133.143,100
133.168,108
133.193,127
133.218,137
133.243,130
133.268,110
133.293,89
133.318,71
133.343,53
133.368,26
133.393,-8
133.418,-45
133.443,-74
133.468,-95
133.493,-119
133.518,-157
133.543,-211
133.568,-264
133.593,-292
133.618,-280
133.643,-239
133.668,-188
133.693,-144
133.718,-105
133.743,-60
133.768,-6
133.793,46
133.818,84
133.843,101
133.868,110
133.893,131
133.918,176
133.943,241
133.968,311
133.993,365
134.018,391
134.043,388
134.068,364
134.093,334
134.118,310
134.143,297
134.168,299
134.193,320
134.218,364
134.243,430
134.268,502
134.293,563
134.318,603
134.343,625
134.368,640
134.393,648
134.418,636
134.443,595
134.468,527
134.493,447
134.518,370
134.543,297
134.568,224
134.593,153
134.618,100
134.643,79
134.668,88
134.693,111
134.718,125
134.743,125
134.768,119
134.793,116
134.818,117
134.843,113
134.868,101
134.893,84
134.918,71
134.943,69
134.968,75
134.993,80
135.018,79
135.043,73
135.068,67
135.093,64
135.118,58
135.143,40
135.168,8
135.193,-30
135.218,-63
135.243,-84
135.268,-97
135.293,-114
135.318,-142
135.343,-174
135.368,-196
135.393,-195
135.418,-167
135.443,-118
135.468,-60
135.493,-7
135.518,34
135.543,64
135.568,89
135.593,116
135.618,145
135.643,168
135.668,178
135.693,178
135.718,184
135.743,207
135.768,243
135.793,275
135.818,291
135.843,291
135.868,292
135.893,308
135.918,337
135.943,369
135.968,394
135.993,411
136.018,423
136.043,430
136.068,434
136.093,441
136.118,464
136.143,513
136.168,585
136.193,661
136.218,719
136.243,744
136.268,738
136.293,713
136.318,680
136.343,638
136.368,571
136.393,459
136.418,299
136.443,119
136.468,-30
136.493,-107
136.518,-111
136.543,-88
136.568,-90
136.593,-139
136.618,-206
136.643,-244
136.668,-228
136.693,-177
136.718,-127
136.743,-92
136.768,-61
136.793,-11
136.818,54
136.843,108
136.868,122
136.893,98
136.918,68
136.943,65
136.968,96
136.993,140
137.018,170
137.043,178
137.068,177
137.093,182
137.118,195
137.143,205
137.168,205
137.193,201
137.218,207
137.243,232
137.268,268
137.293,297
137.318,309
137.343,308
137.368,305
137.393,315
137.418,339
137.443,368
137.468,388
137.493,388
137.518,360
137.543,308
137.568,249
137.593,203
137.618,179
137.643,163
137.668,123
137.693,42
137.718,-70
137.743,-175
137.768,-235
137.793,-238
137.818,-204
137.843,-163
137.868,-132
137.893,-108
137.918,-79
137.943,-43
137.968,-4
137.993,27
138.018,53
138.043,78
138.068,102
138.093,124
138.118,139
138.143,145
138.168,149
138.193,156
138.218,166
138.243,175
138.268,177
138.293,175
138.318,183
138.343,211
138.368,261
138.393,318
138.418,360
138.443,378
138.468,378
138.493,376
138.518,380
138.543,385
138.568,380
138.593,367
138.618,356
138.643,358
138.668,368
138.693,373
138.718,365
138.743,349
138.768,336
138.793,331
138.818,328
138.843,315
138.868,290
138.893,259
138.918,226
138.943,194
138.968,162
138.993,139
139.018,135
139.043,155
139.068,191
139.093,227
139.118,253
139.143,269
139.168,278
139.193,286
139.218,292
139.243,293
139.268,288
139.293,273
139.318,249
139.343,220
139.368,188
139.393,149
139.418,93
139.443,14
139.468,-70
139.493,-129
139.518,-142
139.543,-124
139.568,-115
139.593,-138
139.618,-171
139.643,-163
139.668,-82
139.693,52
139.718,186
139.743,280
139.768,339
139.793,387
139.818,431
139.843,455
139.868,441
139.893,402
139.918,367
139.943,347
139.968,324
139.993,272
140.018,195
140.043,127
140.068,103
140.093,123
140.118,156
140.143,171
140.168,167
140.193,157
140.218,154
140.243,150
140.268,134
140.293,106
140.318,80
140.343,66
140.368,67
140.393,75
140.418,87
140.443,102
140.468,120
140.493,138
140.518,153
140.543,166
140.568,178
140.593,189
140.618,193
140.643,193
140.668,194
140.693,206
140.718,230
140.743,258
140.768,276
140.793,280
140.818,273
140.843,262
140.868,252
140.893,238
140.918,220
140.943,198
140.968,176
140.993,153
141.018,131
141.043,112
141.068,97
141.093,87
141.118,74
141.143,56
141.168,37
141.193,30
141.218,49
141.243,92
141.268,139
141.293,170
141.318,178
141.343,177
141.368,189
141.393,217
141.418,247
141.443,259
141.468,259
141.493,267
141.518,302
141.543,355
141.568,393
141.593,395
141.618,366
141.643,336
141.668,325
141.693,325
141.718,314
141.743,282
141.768,240
141.793,209
141.818,191
141.843,174
141.868,152
141.893,133
141.918,133
141.943,154
141.968,180
141.993,193
142.018,193
142.043,197
142.068,215
142.093,236
142.118,240
142.143,218
142.168,178
142.193,138
142.218,101
142.243,65
142.268,33
142.293,20
142.318,39
142.343,83
142.368,125
142.393,142
142.418,136
142.443,127
142.468,129
142.493,138
142.518,143
142.543,143
142.568,144
142.593,153
142.618,158
142.643,150
142.668,129
142.693,112
142.718,110
142.743,111
142.768,92
142.793,48
142.818,1
142.843,-13
142.868,20
142.893,85
142.918,150
142.943,196
142.968,227
142.993,253
143.018,276
143.043,285
143.068,277
143.093,262
143.118,253
143.143,254
143.168,258
143.193,259
143.218,257
143.243,258
143.268,261
143.293,258
143.318,246
143.343,227
143.368,210
143.393,198
143.418,187
143.443,171
143.468,153
143.493,137
143.518,123
143.543,107
143.568,84
143.593,62
143.618,58
143.643,81
143.668,125
143.693,171
143.718,205
143.743,227
143.768,242
143.793,254
143.818,261
143.843,258
143.868,248
143.893,239
143.918,237
143.943,242
143.968,248
143.993,248
144.018,244
144.043,236
144.068,229
144.093,221
144.118,211
144.143,197
144.168,182
144.193,169
144.218,159
144.243,149
144.268,135
144.293,112
144.318,84
144.343,59
144.368,47
144.393,56
144.418,84
144.443,121
144.468,159
144.493,188
144.518,205
144.543,212
144.568,214
144.593,217
144.618,221
144.643,227
144.668,230
144.693,232
144.718,234
144.743,238
144.768,242
144.793,241
144.818,235
144.843,226
144.868,218
144.893,212
144.918,202
144.943,184
144.968,162
144.993,144
145.018,130
145.043,115
145.068,89
145.093,59
145.118,40
145.143,50
145.168,89
145.193,138
145.218,177
145.243,196
145.268,203
145.293,209
145.318,217
145.343,224
145.368,224
145.393,220
145.418,218
145.443,221
145.468,225
145.493,224
145.518,217
145.543,206
145.568,196
145.593,188
145.618,181
145.643,173
145.668,162
145.693,149
145.718,138
145.743,129
145.768,121
145.793,108
145.818,90
145.843,72
145.868,67
145.893,83
145.918,121
145.943,165
145.968,200
145.993,220
146.018,231
146.043,240
146.068,251
146.093,259
146.118,258
146.143,251
146.168,246
146.193,248
146.218,253
146.243,256
146.268,251
146.293,241
146.318,231
146.343,224
146.368,216
146.393,205
146.418,190
146.443,172
146.468,158
146.493,147
146.518,137
146.543,121
146.568,97
146.593,67
146.618,45
146.643,43
146.668,63
146.693,97
146.718,132
146.743,159
146.768,180
146.793,202
146.818,223
146.843,238
146.868,241
146.893,234
146.918,227
146.943,227
146.968,232
146.993,236
147.018,234
147.043,227
147.068,220
147.093,216
147.118,213
147.143,207
147.168,198
147.193,189
147.218,180
147.243,172
147.268,163
147.293,151
147.318,134
147.343,111
147.368,82
147.393,55
147.418,43
147.443,56
147.468,92
147.493,137
147.518,174
147.543,195
147.568,205
147.593,212
147.618,219
147.643,223
147.668,222
147.693,217
147.718,217
147.743,224
147.768,235
147.793,242
147.818,243
147.843,239
147.868,236
147.893,236
147.918,232
147.943,223
147.968,208
147.993,193
148.018,181
148.043,173
148.068,166
148.093,158
148.118,148
148.143,133
148.168,110
148.193,81
148.218,55
148.243,45
148.268,59
148.293,95
148.318,139
148.343,176
148.368,200
148.393,211
148.418,218
148.443,225
148.468,230
148.493,233
148.518,232
148.543,231
148.568,233
148.593,239
148.618,244
148.643,245
148.668,240
148.693,232
148.718,225
148.743,220
148.768,216
148.793,209
148.818,197
148.843,181
148.868,164
148.893,148
148.918,136
148.943,125
148.968,111
148.993,89
149.018,61
149.043,36
149.068,28
149.093,45
149.118,82
149.143,127
149.168,163
149.193,188
149.218,205
149.243,222
149.268,239
149.293,252
149.318,257
149.343,256
149.368,256
149.393,258
149.418,261
149.443,262
149.468,258
149.493,252
149.518,244
149.543,235
149.568,225
149.593,214
149.618,202
149.643,189
149.668,174
149.693,157
149.718,139
149.743,126
149.768,116
149.793,104
149.818,82
149.843,49
149.868,17
149.893,1
149.918,13
149.943,50
149.968,99
149.993,143
150.018,174
150.043,194
150.068,211
150.093,227
150.118,241
150.143,249
150.168,252
150.193,254
150.218,259
150.243,266
150.268,271
150.293,271
150.318,266
150.343,261
150.368,257
150.393,253
150.418,246
150.443,233
150.468,217
150.493,200
150.518,184
150.543,169
150.568,155
150.593,141
150.618,125
150.643,102
150.668,73
150.693,45
150.718,30
150.743,41
150.768,77
150.793,125
150.818,169
150.843,200
150.868,217
150.893,224
150.918,224
150.943,221
150.968,217
150.993,216
151.018,221
151.043,231
151.068,240
151.093,245
151.118,247
151.143,248
151.168,249
151.193,249
151.218,244
151.243,235
151.268,223
151.293,210
151.318,195
151.343,177
151.368,158
151.393,139
151.418,120
151.443,100
151.468,76
151.493,52
151.518,35
151.543,35
151.568,57
151.593,96
151.618,141
151.643,178
151.668,202
151.693,215
151.718,224
151.743,233
151.768,240
151.793,243
151.818,241
151.843,239
151.868,242
151.893,249
151.918,254
151.943,253
151.968,246
151.993,238
152.018,231
152.043,222
152.068,209
152.093,191
152.118,171
152.143,153
152.168,139
152.193,127
152.218,114
152.243,97
152.268,72
152.293,43
152.318,17
152.343,7
152.368,22
152.393,61
152.418,110
152.443,154
152.468,181
152.493,195
152.518,203
152.543,211
152.568,219
152.593,223
152.618,224
152.643,224
152.668,228
152.693,234
152.718,240
152.743,243
152.768,243
152.793,241
152.818,240
152.843,239
152.868,236
152.893,229
152.918,218
152.943,204
152.968,188
152.993,174
153.018,160
153.043,142
153.068,115
153.093,82
153.118,56
153.143,51
153.168,73
153.193,117
153.218,165
153.243,202
153.268,225
153.293,238
153.318,245
153.343,248
153.368,245
153.393,240
153.418,237
153.443,241
153.468,249
153.493,257
153.518,257
153.543,249
153.568,237
153.593,226
153.618,217
153.643,209
153.668,200
153.693,188
153.718,171
153.743,153
153.768,136
153.793,122
153.818,109
153.843,89
153.868,63
153.893,39
153.918,30
153.943,45
153.968,81
153.993,122
154.018,157
154.043,179
154.068,193
154.093,204
154.118,215
154.143,221
154.168,222
154.193,219
154.218,216
154.243,217
154.268,223
154.293,229
154.318,232
154.343,229
154.368,221
154.393,213
154.418,205
154.443,198
154.468,189
154.493,177
154.518,164
154.543,153
154.568,143
154.593,130
154.618,108
154.643,81
154.668,62
154.693,62
154.718,85
154.743,124
154.768,165
154.793,196
154.818,214
154.843,224
154.868,231
154.893,237
154.918,241
154.943,240
154.968,232
154.993,223
155.018,219
155.043,222
155.068,228
155.093,231
155.118,225
155.143,215
155.168,207
155.193,204
155.218,201
155.243,191
155.268,173
155.293,156
155.318,143
155.343,132
155.368,114
155.393,90
155.418,69
155.443,66
155.468,88
155.493,124
155.518,158
155.543,179
155.568,190
155.593,198
155.618,210
155.643,222
155.668,228
155.693,226
155.718,220
155.743,218
155.768,224
155.793,233
155.818,238
155.843,234
155.868,223
155.893,211
155.918,203
155.943,198
155.968,192
155.993,182
156.018,168
156.043,155
156.068,144
156.093,131
156.118,113
156.143,89
156.168,65
156.193,52
156.218,58
156.243,82
156.268,117
156.293,153
156.318,183
156.343,202
156.368,212
156.393,218
156.418,223
156.443,227
156.468,228
156.493,228
156.518,230
156.543,234
156.568,241
156.593,243
156.618,238
156.643,228
156.668,218
156.693,212
156.718,207
156.743,200
156.768,186
156.793,167
156.818,148
156.843,133
156.868,123
156.893,114
156.918,100
156.943,79
156.968,56
156.993,46
157.018,58
157.043,93
157.068,136
157.093,172
157.118,192
157.143,201
157.168,210
157.193,220
157.218,227
157.243,228
157.268,225
157.293,225
157.318,234
157.343,245
157.368,252
157.393,252
157.418,247
157.443,242
157.468,234
157.493,224
157.518,215
157.543,209
157.568,204
157.593,195
157.618,178
157.643,160
157.668,148
157.693,142
157.718,130
157.743,103
157.768,70
157.793,52
157.818,66
157.843,108
157.868,154
157.893,185
157.918,199
157.943,209
157.968,220
157.993,231
158.018,234
158.043,230
158.068,226
158.093,228
158.118,234
158.143,238
158.168,236
158.193,230
158.218,224
158.243,217
158.268,207
158.293,195
158.318,186
158.343,178
158.368,168
158.393,153
158.418,136
158.443,124
158.468,119
158.493,113
158.518,96
158.543,70
158.568,46
158.593,42
158.618,63
158.643,101
158.668,140
158.693,168
158.718,185
158.743,195
158.768,202
158.793,209
158.818,215
158.843,216
158.868,214
158.893,211
158.918,212
158.943,220
158.968,231
158.993,238
159.018,236
159.043,228
159.068,219
159.093,213
159.118,206
159.143,195
159.168,180
159.193,166
159.218,155
159.243,142
159.268,123
159.293,104
159.318,97
159.343,115
159.368,154
159.393,197
159.418,227
159.443,239
159.468,241
159.493,242
159.518,245
159.543,243
159.568,233
159.593,220
159.618,212
159.643,210
159.668,211
159.693,207
159.718,198
159.743,186
159.768,175
159.793,164
159.818,149
159.843,131
159.868,115
159.893,105
159.918,98
159.943,88
159.968,72
159.993,60
160.018,66
160.043,97
160.068,146
160.093,194
160.118,226
160.143,238
160.168,239
160.193,241
160.218,246
160.243,247
160.268,241
160.293,227
160.318,216
160.343,213
160.368,216
160.393,217
160.418,210
160.443,195
160.468,176
160.493,161
160.518,150
160.543,141
160.568,129
160.593,113
160.618,96
160.643,81
160.668,73
160.693,78
160.718,100
160.743,134
160.768,170
160.793,196
160.818,210
160.843,216
160.868,222
160.893,231
160.918,237
160.943,236
160.968,227
160.993,219
161.018,217
161.043,221
161.068,225
161.093,222
161.118,211
161.143,195
161.168,183
161.193,174
161.218,169
161.243,161
161.268,148
161.293,128
161.318,103
161.343,80
161.368,70
161.393,79
161.418,107
161.443,146
161.468,182
161.493,208
161.518,222
161.543,228
161.568,230
161.593,230
161.618,228
161.643,226
161.668,227
161.693,232
161.718,238
161.743,241
161.768,236
161.793,226
161.818,213
161.843,202
161.868,192
161.893,181
161.918,171
161.943,160
161.968,150
161.993,136
162.018,113
162.043,84
162.068,62
162.093,60
162.118,84
162.143,123
162.168,160
162.193,184
162.218,195
162.243,203
162.268,212
162.293,221
162.318,223
162.343,218
162.368,213
162.393,215
162.418,223
162.443,231
162.468,232
162.493,226
162.518,215
162.543,207
162.568,201
162.593,195
162.618,186
162.643,175
162.668,163
162.693,152
162.718,138
162.743,116
162.768,88
162.793,66
162.818,63
162.843,85
162.868,124
162.893,161
162.918,183
162.943,192
162.968,198
162.993,210
163.018,221
163.043,224
163.068,216
163.093,205
163.118,204
163.143,213
163.168,223
163.193,225
163.218,218
163.243,210
163.268,206
163.293,205
163.318,198
163.343,185
163.368,167
163.393,150
163.418,135
163.443,119
163.468,102
163.493,90
163.518,90
163.543,105
163.568,133
163.593,166
163.618,193
163.643,211
163.668,220
163.693,223
163.718,223
163.743,221
163.768,215
163.793,205
163.818,197
163.843,196
163.868,203
163.893,211
163.918,213
163.943,207
163.968,197
163.993,189
164.018,183
164.043,176
164.068,165
164.093,152
164.118,139
164.143,123
164.168,100
164.193,73
164.218,54
164.243,58
164.268,91
164.293,138
164.318,181
164.343,207
164.368,217
164.393,223
164.418,230
164.443,237
164.468,239
164.493,234
164.518,230
164.543,233
164.568,240
164.593,243
164.618,233
164.643,213
164.668,194
164.693,187
164.718,193
164.743,202
164.768,200
164.793,183
164.818,160
164.843,141
164.868,131
164.893,122
164.918,103
164.943,81
164.968,68
164.993,79
165.018,112
165.043,150
165.068,179
165.093,193
165.118,200
165.143,208
165.168,218
165.193,226
165.218,229
165.243,229
165.268,232
165.293,237
165.318,242
165.343,246
165.368,245
165.393,239
165.418,228
165.443,214
165.468,200
165.493,191
165.518,186
165.543,180
165.568,167
165.593,147
165.618,124
165.643,99
165.668,74
165.693,53
165.718,43
165.743,55
165.768,88
165.793,129
165.818,161
165.843,178
165.868,185
165.893,194
165.918,208
165.943,222
165.968,229
165.993,227
166.018,222
166.043,220
166.068,223
166.093,227
166.118,227
166.143,223
166.168,214
166.193,204
166.218,195
166.243,186
166.268,177
166.293,165
166.318,151
166.343,136
166.368,120
166.393,106
166.418,93
166.443,79
166.468,66
166.493,61
166.518,71
166.543,97
166.568,134
166.593,172
166.618,204
166.643,227
166.668,244
166.693,254
166.718,259
166.743,257
166.768,252
166.793,249
166.818,251
166.843,258
166.868,264
166.893,264
166.918,257
166.943,244
166.968,231
166.993,219
167.018,207
167.043,195
167.068,183
167.093,171
167.118,159
167.143,144
167.168,123
167.193,96
167.218,70
167.243,57
167.268,65
167.293,92
167.318,129
167.343,162
167.368,184
167.393,196
167.418,205
167.443,215
167.468,226
167.493,233
167.518,233
167.543,227
167.568,223
167.593,224
167.618,229
167.643,230
167.668,224
167.693,212
167.718,200
167.743,192
167.768,187
167.793,177
167.818,162
167.843,146
167.868,134
167.893,125
167.918,114
167.943,91
167.968,59
167.993,31
168.018,25
168.043,46
168.068,88
168.093,135
168.118,171
168.143,194
168.168,206
168.193,217
168.218,226
168.243,233
168.268,233
168.293,231
168.318,231
168.343,238
168.368,247
168.393,251
168.418,249
168.443,242
168.468,236
168.493,233
168.518,229
168.543,219
168.568,204
168.593,187
168.618,171
168.643,160
168.668,149
168.693,134
168.718,112
168.743,82
168.768,54
168.793,38
168.818,47
168.843,82
168.868,130
168.893,173
168.918,199
168.943,208
168.968,213
168.993,222
169.018,232
169.043,236
169.068,231
169.093,225
169.118,229
169.143,242
169.168,256
169.193,261
169.218,257
169.243,251
169.268,250
169.293,250
169.318,244
169.343,227
169.368,203
169.393,180
169.418,163
169.443,149
169.468,134
169.493,114
169.518,86
169.543,54
169.568,24
169.593,7
169.618,12
169.643,43
169.668,90
169.693,136
169.718,166
169.743,177
169.768,175
169.793,172
169.818,174
169.843,185
169.868,199
169.893,213
169.918,223
169.943,231
169.968,237
169.993,244
170.018,251
170.043,255
170.068,256
170.093,253
170.118,249
170.143,241
170.168,227
170.193,207
170.218,185
170.243,166
170.268,150
170.293,132
170.318,105
170.343,72
170.368,44
170.393,35
170.418,54
170.443,95
170.468,142
170.493,181
170.518,205
170.543,220
170.568,233
170.593,247
170.618,261
170.643,268
170.668,268
170.693,265
170.718,265
170.743,269
170.768,270
170.793,265
170.818,253
170.843,237
170.868,221
170.893,205
170.918,188
170.943,173
170.968,161
170.993,155
171.018,150
171.043,139
171.068,117
171.093,86
171.118,54
171.143,29
171.168,23
171.193,42
171.218,85
171.243,139
171.268,184
171.293,206
171.318,208
171.343,204
171.368,205
171.393,212
171.418,216
171.443,213
171.468,206
171.493,206
171.518,213
171.543,217
171.568,213
171.593,201
171.618,190
171.643,188
171.668,189
171.693,186
171.718,176
171.743,164
171.768,153
171.793,140
171.818,122
171.843,99
171.868,81
171.893,83
171.918,107
171.943,146
171.968,185
171.993,214
172.018,232
172.043,243
172.068,249
172.093,251
172.118,246
172.143,236
172.168,226
172.193,219
172.218,219
172.243,223
172.268,226
172.293,225
172.318,217
172.343,204
172.368,190
172.393,178
172.418,167
172.443,157
172.468,144
172.493,128
172.518,108
172.543,84
172.568,63
172.593,55
172.618,67
172.643,98
172.668,137
172.693,172
172.718,194
172.743,207
172.768,215
172.793,222
172.818,227
172.843,227
172.868,221
172.893,215
172.918,214
172.943,219
172.968,225
172.993,227
173.018,223
173.043,216
173.068,209
173.093,202
173.118,193
173.143,180
173.168,165
173.193,149
173.218,132
173.243,111
173.268,87
173.293,64
173.318,52
173.343,60
173.368,87
173.393,122
173.418,155
173.443,179
173.468,196
173.493,209
173.518,222
173.543,230
173.568,231
173.593,227
173.618,224
173.643,227
173.668,237
173.693,248
173.718,250
173.743,242
173.768,229
173.793,220
173.818,219
173.843,220
173.868,215
173.893,199
173.918,178
173.943,160
173.968,150
173.993,142
174.018,127
174.043,101
174.068,71
174.093,49
174.118,46
174.143,66
174.168,104
174.193,146
174.218,180
174.243,199
174.268,208
174.293,214
174.318,223
174.343,234
174.368,240
174.393,242
174.418,243
174.443,245
174.468,248
174.493,245
174.518,236
174.543,228
174.568,226
174.593,231
174.618,232
174.643,223
174.668,205
174.693,187
174.718,174
174.743,164
174.768,153
174.793,140
174.818,126
174.843,109
174.868,84
174.893,53
174.918,28
174.943,26
174.968,52
174.993,93
175.018,134
175.043,165
175.068,192
175.093,222
175.118,250
175.143,265
175.168,262
175.193,250
175.218,240
175.243,238
175.268,238
175.293,236
175.318,233
175.343,231
175.368,229
175.393,223
175.418,212
175.443,202
175.468,200
175.493,201
175.518,194
175.543,175
175.568,151
175.593,135
175.618,131
175.643,126
175.668,110
175.693,87
175.718,71
175.743,78
175.768,104
175.793,134
175.818,156
175.843,171
175.868,186
175.893,207
175.918,226
175.943,235
175.968,231
175.993,218
176.018,204
176.043,195
176.068,191
176.093,191
176.118,192
176.143,194
176.168,194
176.193,191
176.218,185
176.243,175
176.268,163
176.293,148
176.318,135
176.343,124
176.368,116
176.393,105
176.418,85
176.443,59
176.468,38
176.493,37
176.518,61
176.543,104
176.568,148
176.593,182
176.618,205
176.643,225
176.668,244
176.693,260
176.718,265
176.743,259
176.768,250
176.793,246
176.818,247
176.843,248
176.868,244
176.893,237
176.918,231
176.943,224
176.968,215
176.993,202
177.018,189
177.043,177
177.068,164
177.093,145
177.118,122
177.143,107
177.168,110
177.193,129
177.218,151
177.243,163
177.268,166
177.293,169
177.318,175
177.343,177
177.368,169
177.393,155
177.418,147
177.443,152
177.468,158
177.493,155
177.518,142
177.543,134
177.568,138
177.593,148
177.618,150
177.643,147
177.668,156
177.693,193
177.718,242
177.743,271
177.768,259
177.793,220
177.818,189
177.843,188
177.868,215
177.893,253
177.918,291
177.943,328
177.968,357
177.993,362
178.018,336
178.043,294
178.068,265
178.093,264
178.118,276
178.143,276
178.168,256
178.193,229
178.218,209
178.243,195
178.268,171
178.293,134
178.318,98
178.343,78
178.368,72
178.393,59
178.418,28
178.443,-10
178.468,-37
178.493,-46
178.518,-43
178.543,-30
178.568,6
178.593,75
178.618,159
178.643,216
178.668,220
178.693,185
178.718,154
178.743,159
178.768,192
178.793,222
178.818,231
178.843,228
178.868,233
178.893,251
178.918,263
178.943,255
178.968,230
178.993,208
179.018,195
179.043,185
179.068,167
179.093,140
179.118,115
179.143,96
179.168,81
179.193,64
179.218,51
179.243,54
179.268,81
179.293,124
179.318,165
179.343,195
179.368,215
179.393,235
179.418,255
179.443,269
179.468,271
179.493,263
179.518,255
179.543,256
179.568,264
179.593,272
179.618,274
179.643,268
179.668,258
179.693,248
179.718,239
179.743,229
179.768,215
179.793,197
179.818,178
179.843,160
179.868,146
179.893,133
179.918,119
179.943,98
179.968,70
179.993,39
180.018,16
180.043,14
180.068,39
180.093,84
180.118,134
180.143,175
180.168,199
180.193,214
180.218,229
180.243,245
180.268,257
180.293,260
180.318,256
180.343,252
180.368,255
180.393,263
180.418,266
180.443,260
180.468,247
180.493,236
180.518,233
180.543,233
180.568,228
180.593,212
180.618,191
180.643,173
180.668,161
180.693,151
180.718,139
180.743,122
180.768,104
180.793,87
180.818,71
180.843,53
180.868,38
180.893,32
180.918,47
180.943,81
180.968,125
180.993,165
181.018,193
181.043,209
181.068,220
181.093,230
181.118,237
181.143,239
181.168,237
181.193,238
181.218,242
181.243,249
181.268,252
181.293,252
181.318,250
181.343,249
181.368,248
181.393,245
181.418,235
181.443,221
181.468,204
181.493,187
181.518,169
181.543,150
181.568,133
181.593,123
181.618,120
181.643,112
181.668,92
181.693,59
181.718,28
181.743,20
181.768,43
181.793,88
181.818,136
181.843,173
181.868,197
181.893,215
181.918,229
181.943,237
181.968,233
181.993,219
182.018,207
182.043,208
182.068,224
182.093,244
182.118,258
182.143,262
182.168,258
182.193,254
182.218,250
182.243,245
182.268,236
182.293,226
182.318,214
182.343,198
182.368,174
182.393,148
182.418,125
182.443,109
182.468,98
182.493,84
182.518,62
182.543,40
182.568,30
182.593,43
182.618,77
182.643,122
182.668,163
182.693,195
182.718,216
182.743,229
182.768,238
182.793,243
182.818,243
182.843,240
182.868,237
182.893,239
182.918,247
182.943,255
182.968,257
182.993,249
183.018,237
183.043,229
183.068,226
183.093,223
183.118,211
183.143,190
183.168,169
183.193,156
183.218,150
183.243,142
183.268,129
183.293,115
183.318,104
183.343,94
183.368,74
183.393,46
183.418,25
183.443,35
183.468,78
183.493,136
183.518,180
183.543,201
183.568,211
183.593,227
183.618,247
183.643,258
183.668,251
183.693,237
183.718,234
183.743,249
183.768,267
183.793,273
183.818,262
183.843,247
183.868,241
183.893,241
183.918,238
183.943,223
183.968,201
183.993,181
184.018,168
184.043,156
184.068,139
184.093,121
184.118,107
184.143,99
184.168,88
184.193,68
184.218,42
184.243,28
184.268,40
184.293,79
184.318,128
184.343,168
184.368,191
184.393,202
184.418,211
184.443,221
184.468,227
184.493,223
184.518,212
184.543,204
184.568,208
184.593,224
184.618,243
184.643,255
184.668,258
184.693,256
184.718,255
184.743,257
184.768,257
184.793,249
184.818,236
184.843,221
184.868,209
184.893,198
184.918,184
184.943,164
184.968,139
184.993,111
185.018,81
185.043,50
185.068,24
185.093,10
185.118,20
185.143,54
185.168,103
185.193,150
185.218,184
185.243,202
185.268,211
185.293,220
185.318,232
185.343,241
185.368,245
185.393,243
185.418,242
185.443,244
185.468,250
185.493,254
185.518,250
185.543,238
185.568,223
185.593,210
185.618,202
185.643,199
185.668,194
185.693,183
185.718,168
185.743,150
185.768,134
185.793,119
185.818,104
185.843,83
185.868,57
185.893,30
185.918,12
185.943,12
185.968,34
185.993,76
186.018,126
186.043,173
186.068,209
186.093,235
186.118,257
186.143,275
186.168,287
186.193,288
186.218,281
186.243,277
186.268,282
186.293,293
186.318,299
186.343,296
186.368,292
186.393,297
186.418,310
186.443,319
186.468,309
186.493,281
186.518,248
186.543,219
186.568,193
186.593,168
186.618,150
186.643,149
186.668,161
186.693,162
186.718,136
186.743,98
186.768,85
186.793,115
186.818,168
186.843,200
186.868,189
186.893,152
186.918,124
186.943,114
186.968,100
186.993,65
187.018,23
187.043,-2
187.068,-18
187.093,-57
187.118,-142
187.143,-233
187.168,-258
187.193,-179
187.218,-45
187.243,51
187.268,57
187.293,1
187.318,-40
187.343,-25
187.368,22
187.393,52
187.418,46
187.443,24
187.468,15
187.493,21
187.518,34
187.543,57
187.568,109
187.593,198
187.618,298
187.643,363
187.668,369
187.693,333
187.718,298
187.743,299
187.768,340
187.793,411
187.818,497
187.843,590
187.868,676
187.893,743
187.918,785
187.943,819
187.968,864
187.993,933
188.018,1022
188.043,1115
188.068,1200
188.093,1265
188.118,1287
188.143,1225
188.168,1043
188.193,738
188.218,360
188.243,0
188.268,-260
188.293,-381
188.318,-388
188.343,-344
188.368,-305
188.393,-296
188.418,-307
188.443,-320
188.468,-324
188.493,-315
188.518,-292
188.543,-257
188.568,-221
188.593,-214
188.618,-267
188.643,-383
188.668,-530
188.693,-653
188.718,-711
188.743,-695
188.768,-628
188.793,-542
188.818,-463
188.843,-403
188.868,-364
188.893,-339
188.918,-316
188.943,-275
188.968,-209
188.993,-122
189.018,-27
189.043,65
189.068,156
189.093,253
189.118,359
189.143,463
189.168,552
189.193,618
189.218,666
189.243,710
189.268,756
189.293,801
189.318,838
189.343,868
189.368,896
189.393,926
189.418,957
189.443,978
189.468,983
189.493,978
189.518,972
189.543,968
189.568,962
189.593,948
189.618,930
189.643,911
189.668,883
189.693,814
189.718,669
189.743,444
189.768,177
189.793,-72
189.818,-265
189.843,-401
189.868,-502
189.893,-586
189.918,-648
189.943,-678
189.968,-674
189.993,-651
190.018,-627
190.043,-605
190.068,-574
190.093,-518
190.118,-427
190.143,-296
190.168,-134
190.193,34
190.218,178
190.243,268
190.268,297
190.293,285
190.318,259
190.343,237
190.368,220
190.393,199
190.418,171
190.443,136
190.468,99
190.493,67
190.518,50
190.543,58
190.568,95
190.593,150
190.618,206
190.643,247
190.668,268
190.693,275
190.718,270
190.743,258
190.768,241
190.793,226
190.818,215
190.843,210
190.868,205
190.893,204
190.918,217
190.943,250
190.968,298
190.993,348
191.018,387
191.043,413
191.068,427
191.093,431
191.118,419
191.143,391
191.168,358
191.193,334
191.218,328
191.243,331
191.268,328
191.293,314
191.318,295
191.343,285
191.368,285
191.393,282
191.418,266
191.443,239
191.468,224
191.493,236
191.518,273
191.543,307
191.568,306
191.593,264
191.618,199
191.643,146
191.668,124
191.693,125
191.718,127
191.743,118
191.768,107
191.793,107
191.818,117
191.843,124
191.868,111
191.893,82
191.918,61
191.943,70
191.968,114
191.993,175
192.018,225
192.043,250
192.068,251
192.093,236
192.118,214
192.143,187
192.168,159
192.193,136
192.218,126
192.243,133
192.268,150
192.293,164
192.318,165
192.343,150
192.368,127
192.393,105
192.418,83
192.443,56
192.468,23
192.493,-11
192.518,-39
192.543,-63
192.568,-97
192.593,-152
192.618,-221
192.643,-274
192.668,-286
192.693,-250
192.718,-185
192.743,-112
192.768,-34
192.793,60
192.818,178
192.843,302
192.868,405
192.893,469
192.918,504
192.943,530
192.968,560
192.993,588
193.018,599
193.043,585
193.068,555
193.093,523
193.118,500
193.143,483
193.168,464
193.193,437
193.218,400
193.243,358
193.268,313
193.293,265
193.318,213
193.343,157
193.368,106
193.393,73
193.418,73
193.443,104
193.468,152
193.493,195
193.518,218
193.543,224
193.568,223
193.593,222
193.618,218
193.643,206
193.668,182
193.693,156
193.718,138
193.743,131
193.768,130
193.793,125
193.818,108
193.843,84
193.868,58
193.893,36
193.918,22
193.943,14
193.968,9
193.993,2
194.018,-7
194.043,-16
194.068,-21
194.093,-20
194.118,-21
194.143,-31
194.168,-52
194.193,-73
194.218,-76
194.243,-50
194.268,0
194.293,58
194.318,112
194.343,156
194.368,196
194.393,236
194.418,276
194.443,310
194.468,333
194.493,348
194.518,363
194.543,380
194.568,401
194.593,418
194.618,427
194.643,428
194.668,423
194.693,415
194.718,405
194.743,393
194.768,379
194.793,363
194.818,343
194.843,318
194.868,285
194.893,247
194.918,205
194.943,160
194.968,110
194.993,56
195.018,0
195.043,-45
195.068,-69
195.093,-63
195.118,-32
195.143,10
195.168,49
195.193,78
195.218,99
195.243,121
195.268,147
195.293,174
195.318,198
195.343,215
195.368,229
195.393,247
195.418,269
195.443,289
195.468,298
195.493,295
195.518,284
195.543,274
195.568,267
195.593,260
195.618,248
195.643,234
195.668,222
195.693,216
195.718,212
195.743,204
195.768,191
195.793,175
195.818,159
195.843,140
195.868,114
195.893,84
195.918,63
195.943,67
195.968,99
195.993,146
196.018,187
196.043,211
196.068,219
196.093,221
196.118,221
196.143,218
196.168,210
196.193,197
196.218,189
196.243,190
196.268,194
196.293,195
196.318,189
196.343,176
196.368,162
196.393,149
196.418,138
196.443,127
196.468,115
196.493,103
196.518,90
196.543,77
196.568,65
196.593,57
196.618,52
196.643,47
196.668,37
196.693,19
196.718,-1
196.743,-15
196.768,-8
196.793,21
196.818,70
196.843,126
196.868,177
196.893,217
196.918,246
196.943,270
196.968,293
196.993,312
197.018,325
197.043,329
197.068,332
197.093,339
197.118,350
197.143,359
197.168,358
197.193,347
197.218,336
197.243,331
197.268,331
197.293,329
197.318,318
197.343,301
197.368,282
197.393,261
197.418,235
197.443,204
197.468,176
197.493,156
197.518,142
197.543,118
197.568,78
197.593,31
197.618,4
197.643,14
197.668,53
197.693,95
197.718,122
197.743,130
197.768,133
197.793,140
197.818,148
197.843,147
197.868,138
197.893,131
197.918,135
197.943,149
197.968,162
197.993,167
198.018,163
198.043,157
198.068,157
198.093,162
198.118,169
198.143,176
198.168,178
198.193,174
198.218,162
198.243,147
198.268,134
198.293,124
198.318,114
198.343,99
198.368,78
198.393,57
198.418,46
198.443,54
198.468,83
198.493,129
198.518,184
198.543,239
198.568,283
198.593,312
198.618,328
198.643,336
198.668,337
198.693,329
198.718,311
198.743,290
198.768,278
198.793,283
198.818,299
198.843,311
198.868,309
198.893,295
198.918,279
198.943,268
198.968,260
198.993,249
199.018,232
199.043,217
199.068,206
199.093,196
199.118,180
199.143,154
199.168,122
199.193,89
199.218,57
199.243,31
199.268,15
199.293,21
199.318,54
199.343,106
199.368,155
199.393,187
199.418,199
199.443,204
199.468,210
199.493,216
199.518,219
199.543,217
199.568,216
199.593,221
199.618,231
199.643,240
199.668,243
199.693,242
199.718,236
199.743,226
199.768,216
199.793,214
199.818,219
199.843,223
199.868,212
199.893,182
199.918,147
199.943,122
199.968,109
199.993,92
200.018,57
200.043,15
200.068,-6
200.093,6
200.118,40
200.143,73
200.168,95
200.193,119
200.218,159
200.243,202
200.268,222
200.293,207
200.318,173
200.343,147
200.368,137
200.393,132
200.418,121
200.443,112
200.468,113
200.493,118
200.518,108
200.543,80
200.568,53
200.593,43
200.618,43
200.643,21
200.668,-35
200.693,-103
200.718,-144
200.743,-151
200.768,-154
200.793,-177
200.818,-194
200.843,-139
200.868,25
200.893,262
200.918,485
200.943,625
200.968,683
200.993,709
201.018,738
201.043,770
201.068,780
201.093,760
201.118,724
201.143,693
201.168,667
201.193,629
201.218,565
201.243,476
201.268,376
201.293,284
201.318,212
201.343,162
201.368,128
201.393,97
201.418,62
201.443,29
201.468,5
201.493,-6
201.518,-16
201.543,-36
201.568,-66
201.593,-94
201.618,-107
201.643,-99
201.668,-74
201.693,-35
201.718,10
201.743,57
201.768,94
201.793,118
201.818,134
201.843,149
201.868,167
201.893,178
201.918,178
201.943,174
201.968,178
201.993,194
202.018,206
202.043,200
202.068,182
202.093,171
202.118,178
202.143,192
202.168,190
202.193,165
202.218,135
202.243,122
202.268,128
202.293,137
202.318,129
202.343,103
202.368,73
202.393,49
202.418,35
202.443,31
202.468,44
202.493,82
202.518,138
202.543,192
202.568,224
202.593,231
202.618,228
202.643,226
202.668,227
202.693,227
202.718,224
202.743,224
202.768,231
202.793,242
202.818,251
202.843,257
202.868,262
202.893,268
202.918,271
202.943,266
202.968,255
202.993,246
203.018,243
203.043,240
203.068,232
203.093,215
203.118,192
203.143,169
203.168,145
203.193,123
203.218,110
203.243,116
203.268,143
203.293,182
203.318,214
203.343,231
203.368,236
203.393,240
203.418,248
203.443,253
203.468,250
203.493,239
203.518,227
203.543,220
203.568,218
203.593,217
203.618,214
203.643,209
203.668,204
203.693,198
203.718,191
203.743,183
203.768,171
203.793,154
203.818,135
203.843,119
203.868,111
203.893,112
203.918,108
203.943,90
203.968,59
203.993,30
204.018,24
204.043,48
204.068,92
204.093,139
204.118,177
204.143,203
204.168,220
204.193,228
204.218,227
204.243,220
204.268,211
204.293,205
204.318,205
204.343,210
204.368,217
204.393,225
204.418,231
204.443,231
204.468,225
204.493,215
204.518,205
204.543,195
204.568,184
204.593,169
204.618,152
204.643,135
204.668,115
204.693,91
204.718,63
204.743,42
204.768,41
204.793,63
204.818,99
204.843,134
204.868,158
204.893,169
204.918,174
204.943,177
204.968,177
204.993,171
205.018,161
205.043,152
205.068,151
205.093,159
205.118,170
205.143,176
205.168,172
205.193,162
205.218,152
205.243,146
205.268,143
205.293,137
205.318,127
205.343,114
205.368,101
205.393,90
205.418,82
205.443,83
205.468,102
205.493,138
205.518,182
205.543,222
205.568,252
205.593,277
205.618,305
205.643,337
205.668,362
205.693,376
205.718,382
205.743,392
205.768,411
205.793,431
205.818,444
205.843,449
205.868,454
205.893,465
205.918,481
205.943,493
205.968,499
205.993,498
206.018,485
206.043,437
206.068,329
206.093,160
206.118,-39
206.143,-215
206.168,-316
206.193,-320
206.218,-243
206.243,-124
206.268,-2
206.293,96
206.318,167
206.343,217
206.368,253
206.393,275
206.418,281
206.443,278
206.468,274
206.493,275
206.518,268
206.543,235
206.568,175
206.593,105
206.618,50
206.643,16
206.668,-9
206.693,-47
206.718,-95
206.743,-139
206.768,-165
206.793,-177
206.818,-186
206.843,-186
206.868,-162
206.893,-104
206.918,-25
206.943,46
206.968,95
206.993,128
207.018,166
207.043,214
207.068,263
207.093,308
207.118,357
207.143,423
207.168,502
207.193,566
207.218,587
207.243,564
207.268,519
207.293,479
207.318,448
207.343,417
207.368,374
207.393,321
207.418,269
207.443,225
207.468,190
207.493,162
207.518,140
207.543,120
207.568,98
207.593,70
207.618,37
207.643,11
207.668,4
207.693,19
207.718,49
207.743,85
207.768,117
207.793,141
207.818,158
207.843,168
207.868,174
207.893,175
207.918,168
207.943,151
207.968,130
207.993,119
208.018,126
208.043,148
208.068,174
208.093,192
208.118,203
208.143,213
208.168,227
208.193,244
208.218,255
208.243,257
208.268,252
208.293,241
208.318,222
208.343,197
208.368,170
208.393,147
208.418,125
208.443,97
208.468,60
208.493,27
208.518,18
208.543,44
208.568,94
208.593,148
208.618,189
208.643,220
208.668,249
208.693,280
208.718,302
208.743,309
208.768,301
208.793,293
208.818,293
208.843,300
208.868,306
208.893,302
208.918,287
208.943,264
208.968,238
208.993,210
209.018,182
209.043,159
209.068,140
209.093,125
209.118,112
209.143,99
209.168,90
209.193,85
209.218,80
209.243,74
209.268,61
209.293,41
209.318,18
209.343,0
209.368,-2
209.393,16
209.418,56
209.443,107
209.468,157
209.493,196
209.518,227
209.543,252
209.568,275
209.593,293
209.618,306
209.643,319
209.668,335
209.693,359
209.718,386
209.743,410
209.768,426
209.793,437
209.818,444
209.843,444
209.868,436
209.893,417
209.918,390
209.943,359
209.968,321
209.993,273
210.018,216
210.043,155
210.068,96
210.093,41
210.118,-11
210.143,-63
210.168,-106
210.193,-131
210.218,-130
210.243,-102
210.268,-58
210.293,-8
210.318,39
210.343,79
210.368,113
210.393,139
210.418,161
210.443,175
210.468,177
210.493,163
210.518,132
210.543,93
210.568,56
210.593,35
210.618,33
210.643,48
210.668,74
210.693,105
210.718,131
210.743,149
210.768,156
210.793,155
210.818,155
210.843,160
210.868,169
210.893,174
210.918,167
210.943,147
210.968,126
210.993,117
211.018,132
211.043,165
211.068,206
211.093,242
211.118,268
211.143,286
211.168,301
211.193,312
211.218,318
211.243,322
211.268,330
211.293,349
211.318,376
211.343,403
211.368,422
211.393,429
211.418,424
211.443,413
211.468,398
211.493,381
211.518,364
211.543,349
211.568,331
211.593,305
211.618,269
211.643,224
211.668,175
211.693,126
211.718,77
211.743,32
211.768,3
211.793,-2
211.818,12
211.843,32
211.868,45
211.893,49
211.918,55
211.943,74
211.968,101
211.993,122
212.018,127
212.043,121
212.068,115
212.093,116
212.118,123
212.143,129
212.168,131
212.193,129
212.218,122
212.243,111
212.268,96
212.293,83
212.318,72
212.343,65
212.368,58
212.393,52
212.418,50
212.443,51
212.468,50
212.493,42
212.518,32
212.543,33
212.568,60
212.593,109
212.618,163
212.643,204
212.668,228
212.693,242
212.718,256
212.743,269
212.768,276
212.793,277
212.818,277
212.843,284
212.868,296
212.893,310
212.918,317
212.943,318
212.968,315
212.993,313
213.018,312
213.043,308
213.068,299
213.093,284
213.118,267
213.143,250
213.168,233
213.193,212
213.218,181
213.243,142
213.268,109
213.293,96
213.318,111
213.343,147
213.368,191
213.393,230
213.418,258
213.443,273
213.468,275
213.493,262
213.518,241
213.543,221
213.568,213
213.593,216
213.618,223
213.643,226
213.668,223
213.693,216
213.718,207
213.743,192
213.768,171
213.793,147
213.818,125
213.843,106
213.868,88
213.893,70
213.918,50
213.943,31
213.968,13
213.993,-1
214.018,-10
214.043,-6
214.068,15
214.093,55
214.118,102
214.143,143
214.168,170
214.193,182
214.218,186
214.243,192
214.268,206
214.293,229
214.318,253
214.343,271
214.368,278
214.393,278
214.418,280
214.443,287
214.468,297
214.493,304
214.518,306
214.543,301
214.568,290
214.593,271
214.618,245
214.643,218
214.668,199
214.693,188
214.718,176
214.743,152
214.768,115
214.793,84
214.818,76
214.843,99
214.868,143
214.893,189
214.918,229
214.943,256
214.968,268
214.993,261
215.018,234
215.043,193
215.068,152
215.093,119
215.118,96
215.143,76
215.168,56
215.193,35
215.218,15
215.243,-8
215.268,-36
215.293,-66
215.318,-89
215.343,-101
215.368,-109
215.393,-121
215.418,-140
215.443,-160
215.468,-173
215.493,-181
215.518,-188
215.543,-193
215.568,-185
215.593,-148
215.618,-86
215.643,-19
215.668,29
215.693,55
215.718,72
215.743,96
215.768,135
215.793,177
215.818,213
215.843,243
215.868,276
215.893,319
215.918,371
215.943,426
215.968,482
215.993,540
216.018,600
216.043,660
216.068,719
216.093,779
216.118,845
216.143,918
216.168,993
216.193,1067
216.218,1142
216.243,1220
216.268,1297
216.293,1364
216.318,1420
216.343,1479
216.368,1563
216.393,1681
216.418,1812
216.443,1899
216.468,1870
216.493,1671
216.518,1293
216.543,785
216.568,252
216.593,-200
216.618,-517
216.643,-728
216.668,-928
216.693,-1196
216.718,-1537
216.743,-1870
216.768,-2093
216.793,-2148
216.818,-2053
216.843,-1861
216.868,-1627
216.893,-1380
216.918,-1146
216.943,-953
216.968,-820
216.993,-739
217.018,-677
217.043,-602
217.068,-512
217.093,-427
217.118,-364
217.143,-317
217.168,-257
217.193,-163
217.218,-38
217.243,97
217.268,220
217.293,313
217.318,373
217.343,413
217.368,455
217.393,521
217.418,617
217.443,724
217.468,810
217.493,854
217.518,864
217.543,866
217.568,883
217.593,916
217.618,944
217.643,949
217.668,929
217.693,890
217.718,844
217.743,791
217.768,728
217.793,658
217.818,594
217.843,550
217.868,533
217.893,534
217.918,537
217.943,528
217.968,501
217.993,465
218.018,430
218.043,401
218.068,371
218.093,332
218.118,285
218.143,242
218.168,212
218.193,196
218.218,180
218.243,153
218.268,115
218.293,79
218.318,55
218.343,39
218.368,17
218.393,-14
218.418,-51
218.443,-84
218.468,-114
218.493,-153
218.518,-208
218.543,-273
218.568,-328
218.593,-356
218.618,-355
218.643,-338
218.668,-321
218.693,-313
218.718,-314
218.743,-321
218.768,-330
218.793,-344
218.818,-364
218.843,-389
218.868,-411
218.893,-420
218.918,-414
218.943,-398
218.968,-379
218.993,-362
219.018,-342
219.043,-319
219.068,-300
219.093,-294
219.118,-298
219.143,-298
219.168,-288
219.193,-275
219.218,-277
219.243,-298
219.268,-321
219.293,-319
219.318,-274
219.343,-188
219.368,-75
219.393,51
219.418,182
219.443,307
219.468,429
219.493,557
219.518,704
219.543,859
219.568,997
219.593,1106
219.618,1213
219.643,1364
219.668,1573
219.693,1801
219.718,2002
219.743,2170
219.768,2342
219.793,2537
219.818,2729
219.843,2895
219.868,3062
219.893,3278
219.918,3506
219.943,3601
219.968,3428
219.993,3026
220.018,2620
220.043,2413
220.068,2384
220.093,2299
220.118,1938
220.143,1283
220.168,461
220.193,-435
220.218,-1411
220.243,-2415
220.268,-3223
220.293,-3557
220.318,-3364
220.343,-2920
220.368,-2575
220.393,-2399
220.418,-2120
220.443,-1449
220.468,-459
220.493,423
220.518,783
220.543,564
220.568,54
220.593,-427
220.618,-786
220.643,-1112
220.668,-1475
220.693,-1807
220.718,-1988
220.743,-1966
220.768,-1771
220.793,-1441
220.818,-987
220.843,-450
220.868,58
220.893,404
220.918,550
220.943,592
220.968,668
220.993,827
221.018,986
221.043,1023
221.068,907
221.093,731
221.118,622
221.143,622
221.168,650
221.193,586
221.218,388
221.243,123
221.268,-113
221.293,-307
221.318,-540
221.343,-896
221.368,-1382
221.393,-1929
221.418,-2483
221.443,-3045
221.468,-3607
221.493,-4046
221.518,-4122
221.543,-3618
221.568,-2512
221.593,-1036
221.618,415
221.643,1477
221.668,1971
221.693,1976
221.718,1768
221.743,1637
221.768,1687
221.793,1790
221.818,1744
221.843,1513
221.868,1281
221.893,1245
221.918,1376
221.943,1453
221.968,1352
221.993,1253
222.018,1466
222.043,2034
222.068,2584
222.093,2656
222.118,2185
222.143,1594
222.168,1377
222.193,1617
222.218,1951
222.243,1987
222.268,1692
222.293,1331
222.318,1125
222.343,1039
222.368,911
222.393,697
222.418,506
222.443,421
222.468,382
222.493,282
222.518,124
222.543,26
222.568,54
222.593,120
222.618,74
222.643,-113
222.668,-317
222.693,-396
222.718,-343
222.743,-278
222.768,-306
222.793,-431
222.818,-576
222.843,-683
222.868,-751
222.893,-809
222.918,-865
222.943,-888
222.968,-833
222.993,-687
223.018,-496
223.043,-347
223.068,-299
223.093,-325
223.118,-329
223.143,-235
223.168,-44
223.193,217
223.218,573
223.243,1076
223.268,1655
223.293,2037
223.318,1908
223.343,1224
223.368,326
223.393,-307
223.418,-458
223.443,-300
223.468,-153
223.493,-150
223.518,-187
223.543,-163
223.568,-140
223.593,-220
223.618,-322
223.643,-195
223.668,278
223.693,874
223.718,1182
223.743,1002
223.768,548
223.793,223
223.818,236
223.843,462
223.868,643
223.893,647
223.918,530
223.943,391
223.968,266
223.993,139
224.018,7
224.043,-131
224.068,-308
224.093,-547
224.118,-808
224.143,-1002
224.168,-1094
224.193,-1164
224.218,-1295
224.243,-1418
224.268,-1336
224.293,-942
224.318,-403
224.343,-44
224.368,-49
224.393,-282
224.418,-433
224.443,-331
224.468,-67
224.493,161
224.518,278
224.543,358
224.568,479
224.593,602
224.618,636
224.643,571
224.668,497
224.693,492
224.718,533
224.743,542
224.768,496
224.793,455
224.818,477
224.843,544
224.868,585
224.893,563
224.918,517
224.943,500
224.968,516
224.993,524
225.018,497
225.043,453
225.068,425
225.093,416
225.118,402
225.143,368
225.168,325
225.193,287
225.218,249
225.243,198
225.268,142
225.293,108
225.318,107
225.343,118
225.368,102
225.393,53
225.418,1
225.443,-13
225.468,15
225.493,60
225.518,94
225.543,116
225.568,140
225.593,175
225.618,210
225.643,231
225.668,235
225.693,231
225.718,224
225.743,214
225.768,197
225.793,177
225.818,163
225.843,158
225.868,156
225.893,149
225.918,136
225.943,117
225.968,94
225.993,68
226.018,39
226.043,11
226.068,-9
226.093,-20
226.118,-18
226.143,-3
226.168,21
226.193,54
226.218,90
226.243,124
226.268,152
226.293,178
226.318,201
226.343,220
226.368,232
226.393,232
226.418,225
226.443,216
226.468,213
226.493,214
226.518,215
226.543,211
226.568,203
226.593,195
226.618,186
226.643,175
226.668,163
226.693,151
226.718,136
226.743,112
226.768,72
226.793,25
226.818,-7
226.843,-5
226.868,32
226.893,81
226.918,115
226.943,125
226.968,130
226.993,147
227.018,177
227.043,199
227.068,200
227.093,186
227.118,177
227.143,186
227.168,206
227.193,219
227.218,220
227.243,221
227.268,231
227.293,247
227.318,256
227.343,246
227.368,223
227.393,201
227.418,184
227.443,165
227.468,136
227.493,99
227.518,70
227.543,66
227.568,88
227.593,122
227.618,154
227.643,179
227.668,197
227.693,211
227.718,215
227.743,209
227.768,193
227.793,176
227.818,165
227.843,158
227.868,149
227.893,136
227.918,120
227.943,107
227.968,99
227.993,93
228.018,86
228.043,81
228.068,79
228.093,78
228.118,71
228.143,56
228.168,43
228.193,50
228.218,84
228.243,135
228.268,178
228.293,200
228.318,207
228.343,217
228.368,239
228.393,266
228.418,283
228.443,285
228.468,282
228.493,285
228.518,294
228.543,296
228.568,288
228.593,276
228.618,271
228.643,273
228.668,273
228.693,264
228.718,252
228.743,245
228.768,242
228.793,225
228.818,179
228.843,111
228.868,49
228.893,23
228.918,36
228.943,69
228.968,95
228.993,108
229.018,114
229.043,126
229.068,145
229.093,162
229.118,169
229.143,164
229.168,149
229.193,129
229.218,105
229.243,76
229.268,46
229.293,16
229.318,-11
229.343,-36
229.368,-60
229.393,-83
229.418,-105
229.443,-123
229.468,-133
229.493,-133
229.518,-125
229.543,-111
229.568,-87
229.593,-45
229.618,21
229.643,108
229.668,200
229.693,279
229.718,332
229.743,360
229.768,372
229.793,374
229.818,370
229.843,362
229.868,352
229.893,339
229.918,323
229.943,303
229.968,280
229.993,258
230.018,242
230.043,229
230.068,213
230.093,193
230.118,174
230.143,167
230.168,177
230.193,198
230.218,214
230.243,213
230.268,195
230.293,179
230.318,184
230.343,221
230.368,282
230.393,342
230.418,381
230.443,392
230.468,378
230.493,352
230.518,318
230.543,278
230.568,234
230.593,191
230.618,159
230.643,143
230.668,142
230.693,147
230.718,151
230.743,149
230.768,142
230.793,132
230.818,119
230.843,97
230.868,62
230.893,18
230.918,-25
230.943,-62
230.968,-89
230.993,-113
231.018,-138
231.043,-160
231.068,-164
231.093,-142
231.118,-101
231.143,-60
231.168,-32
231.193,-17
231.218,-3
231.243,10
231.268,19
231.293,19
231.318,14
231.343,16
231.368,25
231.393,29
231.418,18
231.443,-3
231.468,-17
231.493,-10
231.518,5
231.543,17
231.568,25
231.593,49
231.618,105
231.643,181
231.668,238
231.693,246
231.718,209
231.743,166
231.768,160
231.793,211
231.818,309
231.843,436
231.868,572
231.893,703
231.918,817
231.943,910
231.968,986
231.993,1054
232.018,1122
232.043,1189
232.068,1254
232.093,1319
232.118,1381
232.143,1424
232.168,1421
232.193,1344
232.218,1179
232.243,933
232.268,629
232.293,297
232.318,-29
232.343,-318
232.368,-546
232.393,-712
232.418,-830
232.443,-920
232.468,-998
232.493,-1071
232.518,-1144
232.543,-1217
232.568,-1271
232.593,-1275
232.618,-1199
232.643,-1040
232.668,-833
232.693,-629
232.718,-465
232.743,-348
232.768,-264
232.793,-198
232.818,-147
232.843,-110
232.868,-80
232.893,-49
232.918,-8
232.943,37
232.968,79
232.993,111
233.018,135
233.043,154
233.068,170
233.093,183
233.118,191
233.143,194
233.168,193
233.193,187
233.218,177
233.243,163
233.268,149
233.293,142
233.318,151
233.343,181
233.368,229
233.393,284
233.418,337
233.443,388
233.468,442
233.493,497
233.518,544
233.543,574
233.568,587
233.593,600
233.618,624
233.643,653
233.668,672
233.693,677
233.718,683
233.743,715
233.768,780
233.793,863
233.818,939
233.843,998
233.868,1047
233.893,1089
233.918,1120
233.943,1138
233.968,1156
233.993,1196
234.018,1265
234.043,1337
234.068,1376
234.093,1366
234.118,1324
234.143,1276
234.168,1223
234.193,1137
234.218,996
234.243,803
234.268,581
234.293,341
234.318,72
234.343,-239
234.368,-579
234.393,-898
234.418,-1146
234.443,-1302
234.468,-1380
234.493,-1405
234.518,-1395
234.543,-1364
234.568,-1332
234.593,-1321
234.618,-1336
234.643,-1359
234.668,-1355
234.693,-1310
234.718,-1237
234.743,-1166
234.768,-1116
234.793,-1078
234.818,-1033
234.843,-973
234.868,-914
234.893,-879
234.918,-873
234.943,-863
234.968,-788
234.993,-601
235.018,-299
235.043,71
235.068,438
235.093,748
235.118,981
235.143,1142
235.168,1238
235.193,1275
235.218,1260
235.243,1217
235.268,1169
235.293,1123
235.318,1069
235.343,995
235.368,909
235.393,835
235.418,791
235.443,773
235.468,757
235.493,724
235.518,676
235.543,628
235.568,589
235.593,551
235.618,506
235.643,453
235.668,402
235.693,362
235.718,334
235.743,308
235.768,274
235.793,229
235.818,179
235.843,130
235.868,91
235.893,59
235.918,27
235.943,-10
235.968,-49
235.993,-74
236.018,-71
236.043,-42
236.068,-5
236.093,29
236.118,65
236.143,121
236.168,203
236.193,298
236.218,378
236.243,432
236.268,468
236.293,507
236.318,555
236.343,604
236.368,642
236.393,673
236.418,711
236.443,761
236.468,814
236.493,842
236.518,826
236.543,760
236.568,653
236.593,522
236.618,384
236.643,251
236.668,127
236.693,4
236.718,-123
236.743,-258
236.768,-384
236.793,-487
236.818,-556
236.843,-590
236.868,-592
236.893,-562
236.918,-505
236.943,-436
236.968,-374
236.993,-327
237.018,-291
237.043,-253
237.068,-210
237.093,-176
237.118,-161
237.143,-161
237.168,-158
237.193,-143
237.218,-122
237.243,-110
237.268,-110
237.293,-106
237.318,-88
237.343,-59
237.368,-39
237.393,-38
237.418,-49
237.443,-53
237.468,-41
237.493,-21
237.518,-5
237.543,9
237.568,35
237.593,84
237.618,148
237.643,212
237.668,267
237.693,316
237.718,370
237.743,428
237.768,479
237.793,508
237.818,508
237.843,483
237.868,447
237.893,410
237.918,379
237.943,353
237.968,336
237.993,336
238.018,369
238.043,452
238.068,588
238.093,757
238.118,910
238.143,994
238.168,973
238.193,862
238.218,713
238.243,580
238.268,485
238.293,409
238.318,332
238.343,259
238.368,216
238.393,210
238.418,207
238.443,166
238.468,95
238.493,60
238.518,116
238.543,245
238.568,351
238.593,347
238.618,227
238.643,49
238.668,-132
238.693,-306
238.718,-454
238.743,-509
238.768,-388
238.793,-99
238.818,209
238.843,348
238.868,248
238.893,9
238.918,-210
238.943,-353
238.968,-476
238.993,-629
239.018,-753
239.043,-725
239.068,-505
239.093,-197
239.118,47
239.143,174
239.168,242
239.193,304
239.218,321
239.243,213
239.268,-10
239.293,-211
239.318,-242
239.343,-91
239.368,118
239.393,258
239.418,313
239.443,358
239.468,438
239.493,507
239.518,496
239.543,401
239.568,302
239.593,270
239.618,303
239.643,339
239.668,335
239.693,306
239.718,288
239.743,295
239.768,303
239.793,294
239.818,273
239.843,267
239.868,285
239.893,318
239.918,349
239.943,370
239.968,380
239.993,377
240.018,361
240.043,338
240.068,317
240.093,299
240.118,275
240.143,236
240.168,188
240.193,141
240.218,103
240.243,68
240.268,37
240.293,19
240.318,25
240.343,51
240.368,79
240.393,92
240.418,93
240.443,96
240.468,106
240.493,114
240.518,109
240.543,94
240.568,85
240.593,91
240.618,108
240.643,123
240.668,130
240.693,134
240.718,140
240.743,146
240.768,145
240.793,137
240.818,128
240.843,124
240.868,123
240.893,120
240.918,109
240.943,93
240.968,72
240.993,51
241.018,38
241.043,41
241.068,64
241.093,99
241.118,132
241.143,153
241.168,166
241.193,182
241.218,201
241.243,217
241.268,223
241.293,222
241.318,220
241.343,223
241.368,229
241.393,233
241.418,234
241.443,235
241.468,238
241.493,239
241.518,235
241.543,228
241.568,224
241.593,224
241.618,222
241.643,214
241.668,201
241.693,188
241.718,177
241.743,163
241.768,141
241.793,120
241.818,113
241.843,131
241.868,166
241.893,199
241.918,217
241.943,221
241.968,221
241.993,227
242.018,234
242.043,232
242.068,214
242.093,185
242.118,149
242.143,109
242.168,64
242.193,13
242.218,-39
242.243,-86
242.268,-121
242.293,-143
242.318,-154
242.343,-154
242.368,-146
242.393,-137
242.418,-131
242.443,-128
242.468,-125
242.493,-120
242.518,-115
242.543,-116
242.568,-122
242.593,-119
242.618,-98
242.643,-53
242.668,1
242.693,52
242.718,94
242.743,131
242.768,172
242.793,219
242.818,266
242.843,308
242.868,346
242.893,383
242.918,419
242.943,453
242.968,486
242.993,519
243.018,556
243.043,594
243.068,631
243.093,666
243.118,698
243.143,726
243.168,747
243.193,753
243.218,745
243.243,728
243.268,704
243.293,671
243.318,619
243.343,551
243.368,479
243.393,421
243.418,385
243.443,361
243.468,337
243.493,306
243.518,274
243.543,244
243.568,210
243.593,165
243.618,108
243.643,50
243.668,8
243.693,-14
243.718,-24
243.743,-35
243.768,-54
243.793,-82
243.818,-112
243.843,-145
243.868,-180
243.893,-221
243.918,-265
243.943,-307
243.968,-345
243.993,-374
244.018,-399
244.043,-421
244.068,-444
244.093,-459
244.118,-457
244.143,-428
244.168,-376
244.193,-313
244.218,-252
244.243,-199
244.268,-151
244.293,-104
244.318,-59
244.343,-17
244.368,20
244.393,60
244.418,101
244.443,142
244.468,180
244.493,219
244.518,263
244.543,311
244.568,354
244.593,382
244.618,394
244.643,400
244.668,408
244.693,420
244.718,428
244.743,427
244.768,420
244.793,411
244.818,401
244.843,383
244.868,361
244.893,349
244.918,361
244.943,397
244.968,438
244.993,462
245.018,462
245.043,449
245.068,435
245.093,422
245.118,403
245.143,375
245.168,341
245.193,310
245.218,283
245.243,259
245.268,237
245.293,220
245.318,208
245.343,191
245.368,159
245.393,115
245.418,72
245.443,47
245.468,37
245.493,31
245.518,24
245.543,27
245.568,55
245.593,103
245.618,148
245.643,166
245.668,154
245.693,127
245.718,95
245.743,52
245.768,0
245.793,-33
245.818,3
245.843,130
245.868,299
245.893,417
245.918,412
245.943,298
245.968,156
245.993,67
246.018,47
246.043,52
246.068,38
246.093,3
246.118,-23
246.143,-25
246.168,-16
246.193,-23
246.218,-49
246.243,-72
246.268,-67
246.293,-35
246.318,1
246.343,25
246.368,39
246.393,59
246.418,89
246.443,119
246.468,138
246.493,150
246.518,164
246.543,185
246.568,204
246.593,210
246.618,199
246.643,183
246.668,174
246.693,177
246.718,188
246.743,197
246.768,202
246.793,206
246.818,211
246.843,215
246.868,219
246.893,223
246.918,228
246.943,233
246.968,235
246.993,228
247.018,211
247.043,188
247.068,170
247.093,165
247.118,177
247.143,199
247.168,225
247.193,250
247.218,272
247.243,288
247.268,296
247.293,293
247.318,283
247.343,278
247.368,287
247.393,309
247.418,340
247.443,373
247.468,411
247.493,454
247.518,501
247.543,547
247.568,584
247.593,615
247.618,645
247.643,675
247.668,702
247.693,715
247.718,703
247.743,656
247.768,565
247.793,426
247.818,252
247.843,72
247.868,-81
247.893,-193
247.918,-269
247.943,-325
247.968,-369
247.993,-398
248.018,-405
248.043,-395
248.068,-380
248.093,-371
248.118,-364
248.143,-351
248.168,-326
248.193,-296
248.218,-269
248.243,-248
248.268,-228
248.293,-206
248.318,-183
248.343,-163
248.368,-143
248.393,-121
248.418,-93
248.443,-63
248.468,-37
248.493,-17
248.518,1
248.543,24
248.568,55
248.593,97
248.618,149
248.643,206
248.668,262
248.693,309
248.718,343
248.743,368
248.768,388
248.793,405
248.818,415
248.843,413
248.868,405
248.893,396
248.918,393
248.943,394
248.968,392
248.993,381
249.018,362
249.043,339
249.068,320
249.093,303
249.118,287
249.143,265
249.168,235
249.193,198
249.218,161
249.243,136
249.268,132
249.293,147
249.318,169
249.343,183
249.368,187
249.393,187
249.418,194
249.443,209
249.468,223
249.493,225
249.518,213
249.543,198
249.568,191
249.593,196
249.618,206
249.643,212
249.668,211
249.693,210
249.718,213
249.743,220
249.768,223
249.793,218
249.818,209
249.843,203
249.868,201
249.893,196
249.918,183
249.943,163
249.968,149
249.993,149
250.018,162
250.043,180
250.068,195
250.093,209
250.118,226
250.143,242
250.168,248
250.193,235
250.218,208
250.243,178
250.268,157
250.293,143
250.318,126
250.343,100
250.368,71
250.393,49
250.418,40
250.443,40
250.468,38
250.493,29
250.518,19
250.543,17
250.568,26
250.593,41
250.618,49
250.643,45
250.668,36
250.693,34
250.718,50
250.743,83
250.768,122
250.793,159
250.818,192
250.843,224
250.868,256
250.893,285
250.918,302
250.943,308
250.968,305
250.993,300
251.018,293
251.043,284
251.068,268
251.093,249
251.118,228
251.143,207
251.168,186
251.193,166
251.218,148
251.243,131
251.268,119
251.293,109
251.318,102
251.343,97
251.368,90
251.393,76
251.418,57
251.443,43
251.468,43
251.493,61
251.518,88
251.543,113
251.568,131
251.593,145
251.618,160
251.643,174
251.668,183
251.693,182
251.718,175
251.743,170
251.768,172
251.793,176
251.818,181
251.843,185
251.868,192
251.893,201
251.918,209
251.943,208
251.968,198
251.993,184
252.018,175
252.043,172
252.068,172
252.093,165
252.118,147
252.143,125
252.168,109
252.193,110
252.218,129
252.243,156
252.268,180
252.293,197
252.318,210
252.343,224
252.368,237
252.393,245
252.418,243
252.443,236
252.468,230
252.493,227
252.518,225
252.543,219
252.568,214
252.593,212
252.618,212
252.643,207
252.668,192
252.693,169
252.718,149
252.743,136
252.768,124
252.793,104
252.818,73
252.843,43
252.868,25
252.893,25
252.918,36
252.943,52
252.968,67
252.993,82
253.018,95
253.043,106
253.068,117
253.093,128
253.118,140
253.143,150
253.168,153
253.193,149
253.218,143
253.243,141
253.268,142
253.293,143
253.318,148
253.343,165
253.368,192
253.393,222
253.418,236
253.443,226
253.468,195
253.493,154
253.518,114
253.543,83
253.568,68
253.593,75
253.618,106
253.643,142
253.668,158
253.693,138
253.718,86
253.743,23
253.768,-33
253.793,-73
253.818,-97
253.843,-102
253.868,-78
253.893,-17
253.918,76
253.943,189
253.968,300
253.993,390
254.018,448
254.043,468
254.068,457
254.093,431
254.118,405
254.143,384
254.168,360
254.193,326
254.218,283
254.243,245
254.268,225
254.293,221
254.318,220
254.343,211
254.368,194
254.393,177
254.418,168
254.443,166
254.468,165
254.493,162
254.518,158
254.543,158
254.568,163
254.593,173
254.618,182
254.643,188
254.668,191
254.693,189
254.718,185
254.743,178
254.768,168
254.793,155
254.818,142
254.843,132
254.868,126
254.893,118
254.918,103
254.943,77
254.968,47
254.993,24
255.018,15
255.043,20
255.068,33
255.093,47
255.118,59
255.143,72
255.168,86
255.193,99
255.218,106
255.243,107
255.268,103
255.293,100
255.318,101
255.343,106
255.368,112
255.393,120
255.418,129
255.443,143
255.468,158
255.493,170
255.518,174
255.543,171
255.568,168
255.593,169
255.618,171
255.643,168
255.668,158
255.693,148
255.718,147
255.743,160
255.768,178
255.793,190
255.818,193
255.843,200
255.868,220
255.893,251
255.918,279
255.943,288
255.968,277
255.993,254
256.018,230
256.043,210
256.068,192
256.093,175
256.118,160
256.143,149
256.168,141
256.193,136
256.218,135
256.243,136
256.268,132
256.293,115
256.318,88
256.343,61
256.368,52
256.393,68
256.418,104
256.443,145
256.468,177
256.493,193
256.518,188
256.543,169
256.568,149
256.593,146
256.618,166
256.643,196
256.668,213
256.693,207
256.718,193
256.743,197
256.768,228
256.793,268
256.818,285
256.843,264
256.868,221
256.893,183
256.918,167
256.943,163
256.968,151
256.993,121
257.018,83
257.043,56
257.068,53
257.093,72
257.118,100
257.143,122
257.168,130
257.193,124
257.218,117
257.243,121
257.268,143
257.293,174
257.318,201
257.343,214
257.368,214
257.393,209
257.418,207
257.443,208
257.468,204
257.493,196
257.518,184
257.543,173
257.568,163
257.593,151
257.618,137
257.643,129
257.668,132
257.693,140
257.718,139
257.743,118
257.768,80
257.793,43
257.818,25
257.843,32
257.868,56
257.893,82
257.918,108
257.943,134
257.968,159
257.993,177
258.018,183
258.043,181
258.068,182
258.093,190
258.118,197
258.143,192
258.168,173
258.193,152
258.218,144
258.243,155
258.268,174
258.293,188
258.318,190
258.343,183
258.368,164
258.393,133
258.418,91
258.443,57
258.468,54
258.493,95
258.518,167
258.543,242
258.568,298
258.593,326
258.618,328
258.643,309
258.668,272
258.693,223
258.718,178
258.743,150
258.768,138
258.793,131
258.818,118
258.843,103
258.868,94
258.893,97
258.918,101
258.943,96
258.968,82
258.993,70
259.018,73
259.043,92
259.068,112
259.093,124
259.118,128
259.143,133
259.168,143
259.193,153
259.218,154
259.243,146
259.268,135
259.293,135
259.318,152
259.343,180
259.368,211
259.393,237
259.418,257
259.443,273
259.468,286
259.493,291
259.518,285
259.543,268
259.568,247
259.593,231
259.618,227
259.643,234
259.668,240
259.693,237
259.718,223
259.743,205
259.768,192
259.793,185
259.818,180
259.843,171
259.868,155
259.893,134
259.918,109
259.943,85
259.968,69
259.993,68
260.018,85
260.043,113
260.068,139
260.093,154
260.118,157
260.143,158
260.168,165
260.193,178
260.218,189
260.243,188
260.268,176
260.293,163
260.318,156
260.343,157
260.368,156
260.393,147
260.418,129
260.443,110
260.468,96
260.493,85
260.518,71
260.543,50
260.568,28
260.593,10
260.618,-1
260.643,-12
260.668,-22
260.693,-23
260.718,-7
260.743,22
260.768,48
260.793,56
260.818,54
260.843,72
260.868,136
260.893,240
260.918,347
260.943,416
260.968,434
260.993,418
261.018,395
261.043,373
261.068,349
261.093,313
261.118,273
261.143,237
261.168,211
261.193,190
261.218,169
261.243,148
261.268,131
261.293,117
261.318,97
261.343,65
261.368,31
261.393,15
261.418,32
261.443,77
261.468,130
261.493,171
261.518,192
261.543,200
261.568,208
261.593,218
261.618,226
261.643,225
261.668,214
261.693,202
261.718,197
261.743,199
261.768,204
261.793,202
261.818,191
261.843,177
261.868,166
261.893,156
261.918,143
261.943,125
261.968,109
261.993,101
262.018,98
262.043,92
262.068,74
262.093,52
262.118,44
262.143,60
262.168,96
262.193,132
262.218,154
262.243,166
262.268,176
262.293,193
262.318,209
262.343,217
262.368,213
262.393,206
262.418,201
262.443,201
262.468,200
262.493,196
262.518,189
262.543,183
262.568,176
262.593,170
262.618,164
262.643,159
262.668,154
262.693,148
262.718,140
262.743,132
262.768,128
262.793,124
262.818,113
262.843,93
262.868,72
262.893,64
262.918,79
262.943,107
262.968,135
262.993,154
263.018,170
263.043,193
263.068,219
263.093,236
263.118,234
263.143,219
263.168,207
263.193,206
