df_hash,22ZHK4.ZXX6DZ
device,HZ2X61
project_hash,29R7
project_name,istanbul_aydin_university
person_hash,29R7.JBFB
person_label,V65
date_time_start,2025-10-31_16-53-13.121000_+03
date_time_start_unix,1761915193.121
date_time_end,2025-10-31_17-01-29.357000_+03
length_difference_noticed,no

time,ppg_ir,ppg_ambient,ppg_red
5.182,139212,200,102195
5.186,139207,198,102191
5.191,139211,202,102188
5.196,139200,202,102189
5.201,139209,201,102180
5.206,139214,199,102179
5.211,139211,198,102176
5.216,139215,197,102173
5.221,139203,197,102165
5.226,139223,196,102164
5.231,139227,208,102169
5.236,139218,206,102163
5.241,139221,199,102165
5.246,139223,197,102157
5.251,139210,196,102155
5.256,139222,207,102162
5.261,139234,206,102152
5.266,139227,204,102163
5.271,139227,204,102160
5.276,139229,202,102150
5.281,139228,202,102164
5.286,139236,200,102151
5.291,139249,203,102161
5.296,139248,201,102167
5.301,139234,201,102165
5.306,139249,198,102162
5.311,139247,198,102154
5.316,139259,197,102150
5.321,139253,208,102141
5.326,139254,206,102151
5.330,139257,204,102151
5.335,139262,203,102151
5.340,139269,201,102142
5.345,139265,200,102155
5.350,139267,199,102138
5.355,139272,198,102153
5.360,139246,196,102150
5.365,139256,206,102155
5.370,139262,206,102159
5.375,139275,204,102153
5.380,139242,203,102161
5.385,139254,202,102156
5.390,139240,199,102149
5.395,139233,198,102155
5.400,139228,196,102154
5.405,139225,207,102161
5.410,139220,205,102163
5.415,139194,204,102145
5.420,139202,202,102149
5.425,139189,202,102151
5.430,139172,201,102142
5.435,139176,199,102144
5.440,139166,205,102148
5.445,139156,204,102143
5.450,139145,203,102154
5.455,139139,202,122081
5.460,139127,201,121607
5.465,139112,198,121624
5.470,139110,197,121622
5.474,139095,207,121612
5.479,139090,207,121611
5.484,139106,198,121616
5.489,139082,197,121611
5.494,139075,208,121614
5.499,139064,207,121603
5.504,139069,204,121608
5.509,139052,202,121612
5.514,139054,201,121610
5.519,139039,200,121598
5.524,139024,198,121589
5.529,139024,196,121589
5.534,139023,200,121593
5.539,139016,199,121594
5.544,139002,197,121581
5.549,138994,196,121587
5.554,138970,207,121578
5.559,138981,206,121586
5.564,138962,204,121563
5.569,138961,203,121580
5.574,138954,201,121568
5.579,138961,200,121579
5.584,138938,203,121572
5.589,138932,202,121557
5.594,138928,201,121555
5.599,138923,200,121563
5.604,138914,198,121554
5.609,138904,197,121561
5.614,138919,206,121542
5.618,138915,204,121565
5.623,138905,201,121558
5.628,138899,200,121546
5.633,138894,199,121547
5.638,138898,197,121542
5.643,138905,208,121539
5.648,138906,206,121547
5.653,138896,203,121548
5.658,138912,201,121546
5.663,138899,199,121552
5.668,138883,197,121554
5.673,138901,206,121543
5.678,138901,207,121528
5.683,138876,199,121531
5.688,138890,197,121526
5.693,138880,196,121522
5.698,138877,207,121526
5.703,138880,205,121514
5.708,138868,203,121512
5.713,138876,202,121522
5.718,138874,199,121515
5.723,138867,197,121509
5.728,138877,199,121507
5.733,138869,198,121497
5.738,138858,196,121501
5.743,138850,206,121492
5.748,138850,205,121491
5.753,138854,202,121506
5.758,138849,200,121490
5.762,138843,199,121491
5.767,138844,195,121485
5.772,138845,206,121485
5.777,138837,197,121484
5.782,138843,196,121474
5.787,138848,206,121480
5.792,138846,204,121469
5.797,138841,202,121483
5.802,138849,200,121484
5.807,138855,198,121491
5.812,138845,196,121487
5.817,138854,207,121491
5.822,138843,204,121481
5.827,138828,207,121478
5.832,138848,206,121475
5.837,138845,205,121471
5.842,138836,203,121466
5.847,138844,200,121465
5.852,138839,197,121463
5.857,138837,196,121470
5.862,138859,206,121472
5.867,138853,203,121461
5.872,138838,201,121460
5.877,138852,204,121470
5.882,138843,202,121470
5.887,138860,199,121466
5.892,138847,197,121458
5.897,138848,207,121458
5.902,138846,205,121457
5.907,138842,202,121462
5.911,138853,200,121457
5.916,138844,197,121455
5.921,138866,207,121444
5.926,138858,198,121455
5.931,138863,195,121451
5.936,138863,207,121453
5.941,138852,205,121449
5.946,138864,204,121435
5.951,138851,203,121442
5.956,138855,201,121449
5.961,138855,201,121444
5.966,138858,200,121445
5.971,138874,202,121433
5.976,138860,201,121438
5.981,138863,201,121445
5.986,138860,199,121445
5.991,138862,198,121452
5.996,138865,197,121444
6.001,138866,196,121455
6.006,138871,207,121450
6.011,138865,206,121442
6.016,138862,204,121446
6.021,138886,197,121454
6.026,138862,198,121452
6.031,138867,208,121449
6.036,138861,207,121449
6.041,138875,206,121448
6.046,138874,204,121454
6.051,138888,203,121453
6.055,138875,202,121460
6.060,138878,202,121447
6.065,138876,201,121451
6.070,138893,196,121468
6.075,138886,198,121453
6.080,138871,199,121464
6.085,138878,197,121464
6.090,138898,196,121467
6.095,138893,207,121474
6.100,138895,207,121463
6.105,138887,206,121465
6.110,138898,204,121466
6.115,138898,204,121460
6.120,138893,196,121470
6.125,138900,207,121477
6.130,138911,206,121471
6.135,138904,205,121478
6.140,138913,205,121484
6.145,138894,204,121476
6.150,138922,203,121477
6.155,138918,202,121475
6.160,138906,202,121479
6.165,138928,200,121483
6.170,138917,204,121488
6.175,138931,202,121488
6.180,138921,200,121485
6.185,138921,199,121481
6.190,138918,198,121476
6.195,138920,197,121485
6.199,138920,197,121481
6.204,138915,208,121472
6.209,138918,207,121471
6.214,138936,207,121476
6.219,138931,198,121477
6.224,138919,197,121469
6.229,138927,198,121483
6.234,138919,197,121480
6.239,138917,197,121469
6.244,138938,197,121487
6.249,138947,197,121477
6.254,138932,197,121494
6.259,138936,197,121497
6.264,138948,200,121491
6.269,138959,201,121478
6.274,138936,199,121497
6.279,138946,198,121488
6.284,138957,197,121496
6.289,138958,196,121497
6.294,138962,207,121509
6.299,138955,206,121496
6.304,138955,204,121509
6.309,138966,203,121490
6.314,138951,199,121492
6.319,138969,202,121492
6.324,138975,201,121498
6.329,138983,200,121495
6.334,138960,199,121509
6.339,138969,198,121508
6.343,138980,197,121499
6.348,138968,198,121523
6.353,138984,197,121523
6.358,138978,197,121531
6.363,138983,200,121528
6.368,138975,200,121536
6.373,138967,200,121534
6.378,138957,199,121539
6.383,138969,199,121539
6.388,138942,199,121546
6.393,138940,199,121543
6.398,138926,198,121537
6.403,138903,199,121532
6.408,138903,198,121538
6.413,138898,204,121538
6.418,138889,204,121544
6.423,138887,204,121533
6.428,138871,204,121527
6.433,138884,204,121558
6.438,138868,204,121552
6.443,138861,204,121554
6.448,138851,205,121563
6.453,138847,205,121565
6.458,138845,206,121568
6.463,138832,199,121566
6.468,138826,198,121576
6.473,138817,198,121593
6.478,138811,198,121597
6.483,138805,199,121599
6.487,138797,198,121598
6.492,138797,198,121615
6.497,138788,198,121634
6.502,138792,199,121646
6.507,138796,200,121638
6.512,138779,204,121658
6.517,138780,203,121679
6.522,138768,203,121688
6.527,138764,203,121698
6.532,138755,203,121708
6.537,138758,202,121721
6.542,138761,202,121730
6.547,138756,201,121741
6.552,138751,202,121751
6.557,138737,206,121751
6.562,138749,206,121756
6.567,138737,205,121763
6.572,138724,204,121772
6.577,138707,203,121772
6.582,138717,203,121782
6.587,138708,202,121787
6.592,138711,203,121779
6.597,138710,202,121789
6.602,138698,202,121789
6.607,138702,206,121814
6.612,138699,207,121802
6.617,138702,207,121802
6.622,138694,207,121791
6.627,138693,207,121797
6.631,138699,205,121807
6.636,138689,205,121804
6.641,138681,206,121815
6.646,138689,205,121818
6.651,138694,204,121811
6.656,138698,197,121819
6.661,138696,208,121834
6.666,138691,207,121825
6.671,138690,206,121822
6.676,138699,204,121820
6.681,138686,204,121818
6.686,138678,203,121818
6.691,138674,203,121825
6.696,138659,202,121822
6.701,138665,202,121830
6.706,138660,207,121834
6.711,138650,207,121834
6.716,138650,207,121838
6.721,138648,207,121826
6.726,138656,205,121831
6.731,138648,204,121825
6.736,138655,202,121827
6.741,138641,202,121834
6.746,138644,200,121827
6.751,138650,201,121799
6.756,138640,197,121814
6.761,138640,196,121808
6.766,138640,208,121794
6.771,138620,207,121779
6.775,138625,206,121773
6.780,138616,205,121755
6.785,138627,204,121745
6.790,138618,204,121734
6.795,138617,202,121737
6.800,138634,207,121739
6.805,138603,207,121742
6.810,138605,206,121736
6.815,138595,205,121724
6.820,138602,205,121733
6.825,138602,205,121724
6.830,138595,204,121726
6.835,138600,204,121737
6.840,138608,204,121721
6.845,138595,202,121703
6.850,138596,207,121734
6.855,138598,207,121734
6.860,138605,207,121732
6.865,138625,206,121737
6.870,138616,206,121744
6.875,138618,206,121740
6.880,138615,204,121738
6.885,138617,203,121749
6.890,138629,202,121746
6.895,138613,201,121733
6.900,138598,198,121735
6.905,138634,198,121724
6.910,138626,198,121716
6.915,138622,197,121713
6.920,138635,195,121727
6.924,138622,196,121711
6.929,138636,196,121713
6.934,138630,196,121718
6.939,138622,196,121715
6.944,138635,196,121701
6.949,138645,200,121702
6.954,138640,200,121691
6.959,138647,199,121695
6.964,138651,198,121673
6.969,138648,197,121677
6.974,138649,196,121668
6.979,138653,207,121658
6.984,138658,207,121641
6.989,138661,204,121645
6.994,138664,205,121640
6.999,138671,197,121637
7.004,138682,208,121622
7.009,138673,207,121613
7.014,138678,207,121605
7.019,138664,206,121611
7.024,138681,243,121600
7.029,138675,205,121597
7.034,138678,204,121588
7.039,138690,204,121593
7.044,138692,216,121591
7.049,138689,197,121578
7.054,138695,196,121580
7.059,138697,207,121594
7.064,138707,207,121590
7.068,138718,206,121571
7.073,138721,205,121579
7.078,138716,204,121578
7.083,138711,203,121573
7.088,138706,201,121576
7.093,138718,205,121569
7.098,138736,204,121551
7.103,138738,204,121538
7.108,138732,203,121546
7.113,138738,204,121540
7.118,138750,203,121545
7.123,138759,202,121528
7.128,138746,200,121532
7.133,138760,199,121523
7.138,138767,198,121531
7.143,138742,210,121522
7.148,138755,198,121525
7.153,138767,197,121529
7.158,138769,196,121518
7.163,138777,207,121512
7.168,138766,206,121512
7.173,138778,204,121525
7.178,138779,204,121518
7.183,138774,203,121514
7.188,138789,202,121508
7.193,138784,207,121517
7.198,138795,207,121516
7.203,138791,207,121519
7.208,138793,206,121513
7.212,138804,206,121513
7.217,138806,206,121508
7.222,138801,205,121517
7.227,138801,206,121526
7.232,138812,205,121511
7.237,138791,204,121519
7.242,138812,196,121524
7.247,138810,208,121532
7.252,138813,207,121546
7.257,138812,206,121539
7.262,138813,206,121520
7.267,138826,205,121535
7.272,138811,205,121531
7.277,138818,204,121538
7.282,138816,204,121538
7.287,138835,207,121539
7.292,138829,207,121543
7.297,138831,207,121549
7.302,138839,207,121527
7.307,138836,207,121530
7.312,138832,207,121528
7.317,138838,206,121546
7.322,138838,206,121525
7.327,138845,205,121536
7.332,138838,204,121540
7.337,138832,196,121545
7.342,138841,196,121540
7.347,138833,196,121540
7.352,138823,196,121540
7.356,138812,208,121538
7.361,138798,207,121524
7.366,138791,206,121534
7.371,138789,206,121528
7.376,138772,205,121524
7.381,138766,206,121540
7.386,138761,198,121532
7.391,138746,196,121539
7.396,138731,208,121523
7.401,138733,207,121517
7.406,138725,206,121534
7.411,138722,205,121535
7.416,138719,204,121542
7.421,138700,204,121544
7.426,138697,204,121548
7.431,138697,203,121539
7.436,138692,199,121540
7.441,138683,201,121551
7.446,138680,199,121547
7.451,138689,197,121549
7.456,138659,196,121538
7.461,138652,208,121537
7.466,138652,206,121538
7.471,138653,206,121550
7.476,138646,205,121544
7.481,138648,207,121543
7.486,138647,204,121557
7.491,138624,204,121544
7.496,138617,204,121553
7.500,138617,204,121543
7.505,138611,204,121556
7.510,138608,203,121555
7.515,138608,202,121546
7.520,138591,201,121555
7.525,138588,200,121554
7.530,138596,201,121553
7.535,138582,202,121560
7.540,138575,202,121552
7.545,138567,201,121569
7.550,138570,200,121551
7.555,138560,199,121553
7.560,138568,199,121544
7.565,138541,197,121554
7.570,138558,197,121548
7.575,138563,196,121554
7.580,138516,197,121546
7.585,138542,200,121541
7.590,138533,199,121547
7.595,138537,198,121550
7.600,138540,197,121549
7.605,138554,196,121556
7.610,138556,208,121564
7.615,138556,206,121575
7.620,138538,206,121578
7.625,138553,204,121580
7.630,138552,208,121570
7.635,138550,207,121558
7.640,138544,205,121554
7.644,138535,203,121555
7.649,138538,201,121559
7.654,138539,200,121571
7.659,138541,200,121558
7.664,138537,199,121557
7.669,138545,198,121566
7.674,138520,197,121570
7.679,138531,202,121569
7.684,138537,201,121567
7.689,138536,199,121574
7.694,138522,198,121571
7.699,138532,197,121576
7.704,138512,208,121569
7.709,138535,207,121576
7.714,138524,205,121571
7.719,138532,205,121573
7.724,138531,206,121579
7.729,138525,197,121580
7.734,138514,196,121592
7.739,138512,196,121586
7.744,138527,207,121582
7.749,138526,207,121587
7.754,138528,205,121598
7.759,138530,204,121588
7.764,138533,203,121599
7.769,138519,201,121594
7.774,138527,200,121594
7.779,138526,207,121597
7.784,138541,207,121583
7.788,138526,206,121593
7.793,138523,205,121595
7.798,138539,204,121595
7.803,138538,203,121596
7.808,138533,202,121588
7.813,138540,202,121597
7.818,138534,201,121605
7.823,138530,204,121625
7.828,138546,206,121593
7.833,138536,205,121592
7.838,138526,204,121593
7.843,138548,203,121602
7.848,138545,201,121596
7.853,138552,200,121596
7.858,138545,198,121587
7.863,138562,197,121599
7.868,138549,207,121591
7.873,138560,199,121576
7.878,138561,204,121598
7.883,138547,204,121611
7.888,138559,202,121601
7.893,138565,201,121608
7.898,138563,199,121609
7.903,138552,199,121607
7.908,138567,198,121607
7.913,138565,197,121613
7.918,138583,196,121614
7.923,138576,199,121618
7.928,138580,199,121616
7.932,138575,199,121623
7.937,138582,198,121619
7.942,138580,197,121625
7.947,138588,197,121625
7.952,138569,207,121622
7.957,138576,205,121624
7.962,138596,204,121597
7.967,138591,202,121611
7.972,138590,206,121626
7.977,138599,204,121618
7.982,138600,204,121622
7.987,138608,203,121622
7.992,138593,202,121611
7.997,138592,200,121609
8.002,138611,199,121617
8.007,138614,198,121611
8.012,138599,197,121621
8.017,138625,207,121621
8.022,138621,199,121624
8.027,138620,198,121627
8.032,138614,208,121625
8.037,138620,206,121624
8.042,138637,205,121637
8.047,138635,202,121650
8.052,138632,202,121625
8.057,138636,201,121637
8.062,138634,200,121641
8.067,138633,199,121659
8.072,138635,203,121634
8.077,138639,201,121632
8.081,138637,201,121643
8.086,138642,198,121648
8.091,138651,198,121647
8.096,138658,207,121664
8.101,138653,206,121643
8.106,138660,206,121666
8.111,138666,205,121657
8.116,138627,205,121670
8.121,138669,208,121677
8.126,138671,206,121696
8.131,138679,205,121688
8.136,138676,203,121699
8.141,138672,202,121694
8.146,138682,199,121692
8.151,138685,198,121698
8.156,138685,197,121710
8.161,138681,208,121704
8.166,138689,199,121706
8.171,138690,198,121711
8.176,138691,197,121710
8.181,138690,198,121709
8.186,138709,196,121713
8.191,138709,208,121717
8.196,138710,206,121712
8.201,138708,206,121716
8.206,138706,204,121720
8.211,138716,204,121731
8.216,138707,208,121727
8.221,138688,207,121727
8.225,138693,206,121727
8.230,138686,206,121727
8.235,138675,204,121746
8.240,138680,205,121743
8.245,138657,203,121733
8.250,138653,202,121732
8.255,138643,201,121730
8.260,138653,201,121730
8.265,138640,198,121723
8.270,138626,197,121735
8.275,138622,196,121745
8.280,138613,207,121728
8.285,138606,205,121730
8.290,138591,204,121724
8.295,138584,204,121732
8.300,138583,202,121739
8.305,138577,201,121734
8.310,138575,201,121726
8.315,138569,206,121731
8.320,138550,203,121719
8.325,138541,203,121717
8.330,138548,201,121726
8.335,138531,201,121722
8.340,138534,200,121728
8.345,138530,199,121728
8.350,138523,197,121734
8.355,138528,197,121737
8.360,138520,199,121743
8.365,138518,205,121737
8.369,138505,204,121741
8.374,138503,203,121752
8.379,138495,203,121716
8.384,138493,202,121736
8.389,138477,200,121730
8.394,138473,199,121736
8.399,138467,198,121723
8.404,138472,197,121724
8.409,138474,200,121729
8.414,138462,198,121728
8.419,138466,197,121735
8.424,138461,207,121728
8.429,138443,205,121732
8.434,138446,204,121732
8.439,138448,201,121742
8.444,138447,199,121753
8.449,138446,197,121740
8.454,138430,196,121745
8.459,138434,201,121753
8.464,138435,200,121758
8.469,138443,200,121762
8.474,138439,200,121774
8.479,138444,199,121790
8.484,138433,198,121790
8.489,138448,197,121807
8.494,138438,208,121793
8.499,138444,207,121808
8.504,138444,206,121816
8.509,138461,197,121814
8.513,138454,208,121824
8.518,138448,207,121841
8.523,138455,206,121836
8.528,138436,204,121828
8.533,138456,202,121824
8.538,138427,199,121830
8.543,138440,199,121831
8.548,138431,196,121821
8.553,138444,207,121826
8.558,138435,205,121832
8.563,138435,204,121826
8.568,138444,202,121832
8.573,138443,201,121827
8.578,138434,200,121840
8.583,138450,200,121843
8.588,138441,198,121838
8.593,138454,197,121850
8.598,138444,195,121837
8.603,138435,196,121875
8.608,138426,198,121850
8.613,138437,198,121839
8.618,138440,196,121830
8.623,138449,197,121838
8.628,138437,196,121836
8.633,138443,207,121835
8.638,138445,205,121837
8.643,138441,204,121813
8.648,138449,202,121833
8.653,138419,204,121836
8.657,138454,205,121833
8.662,138448,204,121824
8.667,138452,203,121837
8.672,138458,202,121844
8.677,138449,201,121847
8.682,138462,200,121842
8.687,138458,199,121843
8.692,138454,198,121834
8.697,138457,197,121837
8.702,138452,202,121819
8.707,138452,200,121830
8.712,138457,200,121814
8.717,138452,200,121805
8.722,138460,200,121811
8.727,138462,199,121812
8.732,138459,198,121813
8.737,138476,196,121818
8.742,138467,209,121820
8.747,138471,207,121818
8.752,138478,199,121828
8.757,138467,198,121819
8.762,138483,197,121832
8.767,138488,196,121843
8.772,138479,208,121833
8.777,138479,207,121817
8.782,138478,207,121820
8.787,138485,206,121830
8.792,138490,206,121813
8.797,138476,204,121835
8.801,138491,197,121825
8.806,138493,207,121826
8.811,138496,206,121831
8.816,138485,206,121834
8.821,138491,206,121820
8.826,138504,204,121834
8.831,138505,204,121827
8.836,138507,202,121838
8.841,138518,201,121841
8.846,138526,200,121844
8.851,138517,204,121839
8.856,138528,203,121837
8.861,138532,202,121855
8.866,138523,200,121858
8.871,138529,200,121857
8.876,138542,199,121851
8.881,138548,199,121857
8.886,138545,198,121844
8.891,138551,197,121862
8.896,138536,200,121867
8.901,138549,200,121852
8.906,138546,199,121864
8.911,138550,199,121845
8.916,138555,198,121861
8.921,138573,195,121864
8.926,138561,206,121858
8.931,138565,204,121883
8.936,138573,204,121881
8.941,138600,202,121883
8.945,138605,206,121886
8.950,138594,198,121885
8.955,138582,196,121877
8.960,138575,196,121871
8.965,138573,196,121872
8.970,138571,195,121871
8.975,138562,207,121862
8.980,138561,207,121873
8.985,138563,207,121875
8.990,138550,206,121878
8.995,138544,199,121852
9.000,138546,202,121886
9.005,138540,202,121899
9.010,138531,201,121898
9.015,138518,202,121895
9.020,138524,201,121883
9.025,138498,203,121875
9.030,138504,200,121887
9.035,138493,201,121869
9.040,138481,200,121866
9.045,138476,205,121859
9.050,138468,204,121867
9.055,138476,205,121873
9.060,138466,204,121862
9.065,138453,203,121874
9.070,138457,201,121870
9.075,138450,202,121844
9.080,138458,202,121855
9.085,138436,202,121858
9.090,138451,202,121849
9.094,138432,206,121856
9.099,138442,205,121851
9.104,138428,205,121847
9.109,138404,205,121854
9.114,138408,204,121857
9.119,138415,204,121851
9.124,138398,205,121859
9.129,138394,205,121856
9.134,138399,205,121843
9.139,138386,207,121832
9.144,138382,198,121838
9.149,138375,198,121837
9.154,138375,199,121828
9.159,138350,199,121824
9.164,138355,200,121827
9.169,138349,200,121809
9.174,138339,199,121812
9.179,138331,199,121806
9.184,138331,199,121808
9.189,138363,201,121799
9.194,138335,204,121791
9.199,138335,203,121784
9.204,138333,203,121786
9.209,138330,201,121801
9.214,138320,203,121778
9.219,138321,202,121793
9.224,138320,204,121790
9.229,138320,204,121786
9.234,138314,205,121793
9.238,138311,197,121779
9.243,138320,197,121773
9.248,138317,195,121778
9.253,138317,196,121767
9.258,138315,208,121772
9.263,138314,197,121776
9.268,138327,207,121776
9.273,138316,208,121781
9.278,138313,207,121774
9.283,138314,207,121785
9.288,138318,199,121786
9.293,138314,198,121789
9.298,138300,197,121787
9.303,138313,197,121795
9.308,138312,196,121800
9.313,138315,196,121799
9.318,138317,208,121797
9.323,138321,208,121807
9.328,138324,207,121812
9.333,138330,211,121807
9.338,138319,199,121805
9.343,138330,199,121817
9.348,138323,197,121825
9.353,138330,199,121831
9.358,138336,198,121822
9.363,138329,199,121825
9.368,138328,198,121834
9.373,138330,198,121843
9.378,138331,198,121838
9.382,138332,197,121837
9.387,138340,196,121849
9.392,138337,208,121846
9.397,138354,208,121860
9.402,138354,208,121865
9.407,138364,206,121882
9.412,138374,206,121874
9.417,138363,205,121880
9.422,138379,205,121894
9.427,138381,204,121893
9.432,138383,209,121905
9.437,138365,196,121889
9.442,138371,197,121897
9.447,138380,197,121897
9.452,138389,196,121894
9.457,138373,198,121892
9.462,138376,198,121887
9.467,138381,198,121886
9.472,138383,198,121886
9.477,138392,198,121881
9.482,138387,203,121895
9.487,138395,203,121902
9.492,138396,203,121886
9.497,138405,202,121906
9.502,138399,203,121905
9.507,138406,201,121913
9.512,138399,199,121911
9.517,138413,198,121916
9.522,138408,196,121926
9.526,138419,207,121907
9.531,138413,198,121921
9.536,138420,196,121930
9.541,138435,208,121926
9.546,138417,206,121926
9.551,138439,204,121937
9.556,138443,203,121945
9.561,138444,203,121945
9.566,138455,201,121946
9.571,138449,200,121935
9.576,138449,199,121935
9.581,138450,206,121961
9.586,138467,207,121949
9.591,138464,207,121962
9.596,138471,206,121948
9.601,138474,206,121966
9.606,138478,204,121963
9.611,138472,203,121962
9.616,138485,202,121970
9.621,138472,201,121965
9.626,138484,198,121973
9.631,138478,203,121973
9.636,138483,201,121976
9.641,138483,199,121975
9.646,138476,197,121964
9.651,138475,207,121964
9.656,138473,205,121968
9.661,138462,204,121962
9.666,138456,203,121970
9.670,138456,203,121973
9.675,138449,204,122003
9.680,138450,200,121976
9.685,138423,199,121979
9.690,138431,197,121989
9.695,138416,207,121979
9.700,138412,207,121984
9.705,138406,205,121980
9.710,138396,204,121970
9.715,138392,203,121966
9.720,138389,202,121965
9.725,138386,206,121974
9.730,138370,205,121964
9.735,138386,205,121974
9.740,138363,205,121966
9.745,138357,204,121961
9.750,138365,203,121959
9.755,138361,201,121953
9.760,138350,201,121958
9.765,138359,200,121973
9.770,138333,199,121942
9.775,138341,202,121974
9.780,138336,201,121967
9.785,138337,200,121968
9.790,138330,198,121971
9.795,138319,196,121980
9.800,138332,196,121984
9.805,138321,207,121980
9.810,138309,206,121976
9.814,138311,204,121976
9.819,138297,204,121981
9.824,138293,196,121975
9.829,138304,207,121971
9.834,138295,206,121967
9.839,138281,205,121964
9.844,138295,204,121963
9.849,138277,200,121965
9.854,138271,200,121973
9.859,138285,199,121973
9.864,138269,199,121974
9.869,138274,198,121979
9.874,138271,197,121967
9.879,138283,196,121980
9.884,138259,197,121976
9.889,138284,207,121974
9.894,138283,205,121986
9.899,138280,203,121991
9.904,138301,201,122013
9.909,138285,201,121980
9.914,138287,199,121988
9.919,138327,193,121998
9.924,138291,201,121980
9.929,138275,199,121989
9.934,138285,199,121968
9.939,138279,197,121979
9.944,138287,207,121975
9.949,138284,204,121978
9.954,138289,204,121992
9.958,138301,202,121990
9.963,138289,202,122004
9.968,138288,211,122002
9.973,138297,206,122010
9.978,138296,207,122010
9.983,138300,207,122011
9.988,138303,206,122017
9.993,138299,206,122006
9.998,138290,205,122016
10.003,138303,205,122021
10.008,138289,204,122012
10.013,138305,204,122019
10.018,138300,200,122014
10.023,138295,196,121955
10.028,138304,196,122025
10.033,138299,208,122015
10.038,138306,207,122018
10.043,138302,205,122020
10.048,138302,204,122021
10.053,138308,204,122016
10.058,138321,203,122023
10.063,138304,202,122024
10.068,138327,209,122015
10.073,138325,201,122015
10.078,138310,200,122017
10.083,138337,200,122023
10.088,138321,199,122017
10.093,138319,198,122033
10.098,138329,197,122029
10.103,138338,196,122035
10.107,138327,207,122038
10.112,138333,205,122019
10.117,138334,198,122018
10.122,138335,196,122022
10.127,138341,207,122016
10.132,138336,206,122019
10.137,138336,204,122024
10.142,138347,204,122023
10.147,138348,202,122015
10.152,138354,200,122020
10.157,138354,199,122015
10.162,138358,198,122029
10.167,138355,201,122021
10.172,138356,200,122004
10.177,138358,199,122008
10.182,138356,198,122011
10.187,138364,196,121978
10.192,138357,207,122013
10.197,138367,205,122017
10.202,138366,205,122017
10.207,138378,203,122004
10.212,138371,205,122068
10.217,138379,206,121998
10.222,138384,205,121999
10.227,138379,204,121987
10.232,138373,202,121999
10.237,138383,200,121991
10.242,138391,199,121982
10.247,138393,196,121987
10.251,138390,207,121976
10.256,138407,205,121975
10.261,138389,196,121977
10.266,138425,208,121982
10.271,138414,206,121976
10.276,138410,205,121968
10.281,138420,202,121976
10.286,138431,200,121968
10.291,138433,198,121977
10.296,138432,196,121968
10.301,138425,207,121956
10.306,138423,204,121949
10.311,138427,196,121929
10.316,138433,208,121934
10.321,138440,206,121944
10.326,138419,204,121938
10.331,138420,202,121927
10.336,138403,202,121920
10.341,138414,200,121922
10.346,138399,200,121904
10.351,138391,199,121899
10.356,138387,199,121904
10.361,138382,206,121915
10.366,138377,208,121898
10.371,138375,206,121907
10.376,138353,205,121896
10.381,138342,204,121892
10.386,138349,203,121899
10.391,138331,203,121890
10.395,138330,201,121898
10.400,138330,201,121911
10.405,138319,199,121883
10.410,138306,198,121880
10.415,138303,198,121881
10.420,138292,196,121879
10.425,138292,208,121869
10.430,138276,207,121876
10.435,138278,206,121864
10.440,138274,206,121863
10.445,138267,205,121845
10.450,138247,204,121837
10.455,138244,204,121846
10.460,138251,201,121839
10.465,138222,201,121825
10.470,138220,199,121832
10.475,138213,198,121829
10.480,138206,198,121809
10.485,138213,198,121815
10.490,138204,197,121819
10.495,138201,197,121813
10.500,138190,197,121802
10.505,138187,204,121807
10.510,138183,200,121804
10.515,138173,199,121812
10.520,138167,199,121811
10.525,138165,199,121810
10.530,138157,198,121803
10.535,138152,198,121781
10.539,138137,196,121790
10.544,138129,207,121786
10.549,138117,206,121782
10.554,138121,197,121771
10.559,138110,197,121770
10.564,138100,197,121768
10.569,138111,197,121762
10.574,138090,197,121755
10.579,138098,196,121756
10.584,138099,196,121756
10.589,138106,196,121760
10.594,138091,196,121767
10.599,138094,196,121770
10.604,138095,201,121774
10.609,138102,200,121776
10.614,138110,200,121782
10.619,138116,200,121779
10.624,138089,201,121784
10.629,138112,202,121783
10.634,138105,201,121769
10.639,138086,200,121768
10.644,138079,200,121757
10.649,138097,199,121755
10.654,138087,204,121761
10.659,138094,202,121771
10.664,138096,202,121777
10.669,138095,200,121780
10.674,138099,199,121792
10.679,138093,198,121804
10.683,138106,198,121804
10.688,138082,197,121814
10.693,138123,196,121828
10.698,138122,207,121833
10.703,138124,199,121848
10.708,138119,198,121856
10.713,138118,197,121859
10.718,138116,196,121874
10.723,138104,208,121865
10.728,138106,206,121863
10.733,138104,206,121870
10.738,138110,204,121885
10.743,138105,204,121878
10.748,138095,206,121912
10.753,138112,205,121870
10.758,138087,205,121871
10.763,138100,204,121865
10.768,138092,205,121881
10.773,138102,205,121863
10.778,138114,206,121881
10.783,138103,206,121877
10.788,138089,206,121881
10.793,138110,206,121881
10.798,138124,197,121878
10.803,138114,197,121888
10.808,138097,196,121889
10.813,138120,208,121879
10.818,138123,208,121897
10.823,138120,206,121895
10.827,138126,206,121901
10.832,138121,205,121890
10.837,138126,205,121889
10.842,138123,205,121893
10.847,138129,197,121893
10.852,138127,196,121894
10.857,138149,196,121900
10.862,138127,196,121894
10.867,138145,196,121902
10.872,138135,197,121900
10.877,138138,197,121892
10.882,138148,197,121891
10.887,138134,197,121897
10.892,138142,197,121883
10.897,138136,202,121878
10.902,138134,201,121877
10.907,138149,201,121881
10.912,138148,201,121883
10.917,138137,202,121863
10.922,138158,201,121868
10.927,138155,201,121862
10.932,138149,201,121857
10.937,138132,199,121841
10.942,138147,200,121836
10.947,138166,204,121830
10.952,138157,205,121816
10.957,138157,206,121826
10.962,138162,207,121811
10.967,138161,207,121809
10.971,138168,206,121802
10.976,138156,207,121801
10.981,138154,206,121786
10.986,138165,204,121788
10.991,138172,203,121795
10.996,138161,207,121791
11.001,138169,205,121798
11.006,138174,204,121805
11.011,138176,204,121804
11.016,138189,204,121801
11.021,138184,204,121793
11.026,138175,204,121800
11.031,138188,206,121787
11.036,138195,206,121788
11.041,138195,197,121791
11.046,138209,199,121781
11.051,138195,197,121786
11.056,138202,197,121782
11.061,138207,197,121790
11.066,138212,196,121790
11.071,138228,208,121782
11.076,138220,207,121781
11.081,138208,207,121792
11.086,138223,207,121786
11.091,138222,198,121781
11.096,138227,197,121778
11.101,138235,208,121782
11.106,138234,206,121776
11.111,138250,204,121776
11.116,138249,203,121779
11.120,138246,202,121791
11.125,138242,201,121793
11.130,138250,200,121786
11.135,138257,199,121794
11.140,138257,204,121795
11.145,138272,202,121801
11.150,138270,202,121788
11.155,138276,202,121806
11.160,138270,202,121791
11.165,138282,201,121780
11.170,138295,200,121792
11.175,138298,200,121806
11.180,138295,198,121796
11.185,138301,198,121817
11.190,138306,207,121816
11.195,138307,207,121811
11.200,138308,206,121814
11.205,138306,206,121831
11.210,138308,205,121820
11.215,138311,206,121822
11.220,138325,205,121813
11.225,138314,205,121822
11.230,138328,204,121824
11.235,138332,204,121817
11.240,138345,196,121826
11.245,138348,196,121831
11.250,138330,208,121827
11.255,138334,207,121828
11.260,138338,205,121832
11.264,138342,205,121815
11.269,138353,205,121832
11.274,138364,204,121831
11.279,138363,204,121837
11.284,138370,209,121837
11.289,138367,196,121835
11.294,138369,208,121842
11.299,138374,207,121823
11.304,138381,206,121839
11.309,138390,205,121842
11.314,138384,205,121843
11.319,138394,204,121839
11.324,138399,204,121855
11.329,138395,203,121854
11.334,138423,208,121855
11.339,138411,207,121859
11.344,138401,207,121854
11.349,138419,206,121862
11.354,138408,206,121856
11.359,138425,206,121870
11.364,138421,206,121871
11.369,138409,206,121873
11.374,138406,207,121876
11.379,138398,207,121879
11.384,138412,202,121826
11.389,138391,205,121865
11.394,138381,206,121884
11.399,138373,205,121861
11.404,138368,206,121870
11.408,138368,205,121865
11.413,138351,206,121870
11.418,138338,206,121869
11.423,138335,207,121860
11.428,138332,206,121862
11.433,138321,198,121862
11.438,138312,198,121865
11.443,138302,199,121847
11.448,138299,198,121851
11.453,138295,199,121856
11.458,138289,198,121842
11.463,138280,199,121841
11.468,138283,198,121846
11.473,138286,199,121848
11.478,138272,199,121845
11.483,138264,197,121842
11.488,138254,198,121844
11.493,138256,198,121837
11.498,138253,197,121832
11.503,138237,196,121831
11.508,138236,207,121831
11.513,138227,206,121829
11.518,138241,205,121841
11.523,138217,204,121842
11.528,138231,204,121814
11.533,138220,207,121839
11.538,138222,207,121847
11.543,138205,207,121836
11.548,138199,206,121850
11.552,138193,205,121840
11.557,138190,204,121827
11.562,138176,203,121838
11.567,138180,201,121841
11.572,138168,200,121836
11.577,138209,204,121833
11.582,138162,205,121826
11.587,138153,203,121838
11.592,138147,202,121837
11.597,138149,200,121830
11.602,138139,200,121829
11.607,138143,198,121830
11.612,138151,198,121836
11.617,138147,198,121839
11.622,138157,198,121824
11.627,138142,202,121817
11.632,138156,202,121824
11.637,138159,201,121831
11.642,138147,201,121840
11.647,138153,201,121837
11.652,138164,201,121834
11.657,138161,201,121843
11.662,138170,201,121832
11.667,138155,202,121830
11.672,138149,202,121829
11.677,138154,197,121814
11.682,138139,197,121813
11.687,138145,197,121824
11.692,138155,197,121819
11.696,138166,197,121827
11.701,138144,198,121809
11.706,138153,198,121822
11.711,138141,198,121817
11.716,138144,199,121804
11.721,138149,200,121810
11.726,138145,204,121820
11.731,138154,203,121829
11.736,138161,204,121816
11.741,138161,205,121837
11.746,138171,205,121834
11.751,138157,204,121847
11.756,138169,206,121846
11.761,138175,205,121857
11.766,138182,205,121864
11.771,138193,205,121868
11.776,138185,198,121878
11.781,138198,198,121892
11.786,138192,198,121885
11.791,138188,198,121898
11.796,138213,198,121909
11.801,138195,197,121900
11.806,138197,197,121886
11.811,138199,198,121910
11.816,138204,199,121910
11.821,138208,204,121906
11.826,138205,204,121903
11.831,138219,205,121898
11.836,138222,205,121916
11.840,138214,206,121902
11.845,138233,207,121919
11.850,138237,207,121907
11.855,138243,207,121911
11.860,138229,206,121897
11.865,138244,205,121907
11.870,138216,198,121906
11.875,138244,204,121901
11.880,138240,203,121902
11.885,138234,204,121905
11.890,138248,202,121897
11.895,138251,201,121902
11.900,138262,201,121908
11.905,138258,200,121897
11.910,138258,198,121901
11.915,138259,198,121900
11.920,138263,199,121907
11.925,138262,200,121900
11.930,138277,198,121908
11.935,138264,199,121903
11.940,138258,198,121911
11.945,138286,198,121919
11.950,138278,196,121898
11.955,138272,207,121921
11.960,138268,206,121910
11.965,138266,205,121888
11.970,138307,200,121912
11.975,138265,201,121913
11.980,138280,200,121924
11.984,138285,199,121919
11.989,138285,198,121926
11.994,138274,197,121893
11.999,138286,195,121920
12.004,138288,207,121918
12.009,138283,206,121915
12.014,138302,205,121921
12.019,138285,197,121929
12.024,138281,199,121920
12.029,138289,196,121921
12.034,138286,207,121927
12.039,138302,206,121922
12.044,138294,206,121936
12.049,138300,205,121927
12.054,138304,204,121931
12.059,138299,202,121938
12.064,138292,204,121971
12.069,138307,205,121940
12.074,138318,204,121944
12.079,138310,203,121946
12.084,138319,202,121943
12.089,138314,199,121951
12.094,138336,198,121943
12.099,138333,196,121958
12.104,138340,207,121951
12.109,138338,206,121949
12.114,138305,197,121950
12.119,138347,208,121941
12.124,138345,207,121950
12.128,138354,206,121962
12.133,138349,205,121954
12.138,138349,204,121957
12.143,138346,203,121961
12.148,138346,201,121970
12.153,138366,200,121968
12.158,138362,198,121970
12.163,138359,202,121967
12.168,138368,201,121971
12.173,138357,200,121969
12.178,138372,200,121964
12.183,138378,200,121982
12.188,138370,199,121973
12.193,138390,199,121978
12.198,138371,198,121985
12.203,138377,199,121987
12.208,138392,198,121985
12.213,138400,202,122000
12.218,138390,201,121987
12.223,138416,201,121994
12.228,138427,200,122009
12.233,138405,200,121998
12.238,138417,199,122010
12.243,138422,198,122013
12.248,138424,197,122007
12.253,138433,208,122010
12.258,138416,205,122011
12.263,138434,199,122025
12.268,138444,197,122021
12.273,138425,196,122030
12.277,138447,206,122016
12.282,138444,205,122036
12.287,138450,203,122041
12.292,138472,201,122033
12.297,138471,201,122038
12.302,138465,199,122037
12.307,138457,198,122025
12.312,138474,196,122034
12.317,138479,207,122041
12.322,138479,207,122033
12.327,138477,207,122039
12.332,138478,206,122034
12.337,138488,206,122039
12.342,138479,205,122044
12.347,138486,205,122035
12.352,138503,203,122052
12.357,138506,214,122065
12.362,138496,207,122055
12.367,138493,208,122046
12.372,138503,207,122066
12.377,138486,207,122062
12.382,138487,206,122056
12.387,138467,206,122045
12.392,138474,206,122051
12.397,138451,206,122055
12.402,138448,206,122050
12.407,138440,198,122054
12.412,138420,197,122055
12.417,138420,198,122064
12.421,138421,197,122070
12.426,138421,197,122066
12.431,138402,208,122067
12.436,138385,207,122066
12.441,138386,207,122052
12.446,138392,206,122065
12.451,138361,204,122067
12.456,138378,197,122072
12.461,138373,197,122065
12.466,138367,196,122073
12.471,138356,207,122062
12.476,138359,206,122069
12.481,138339,204,122066
12.486,138324,204,122054
12.491,138322,203,122058
12.496,138330,202,122069
12.501,138319,201,122059
12.506,138312,206,122072
12.511,138299,204,122080
12.516,138311,203,122090
12.521,138297,203,122088
12.526,138289,202,122085
12.531,138290,201,122100
12.536,138269,200,122103
12.541,138277,199,122103
12.546,138272,197,122119
12.551,138255,196,122125
12.556,138272,196,122116
12.561,138246,198,122118
12.565,138250,197,122127
12.570,138239,196,122123
12.575,138242,207,122130
12.580,138246,207,122120
12.585,138232,207,122120
12.590,138216,206,122133
12.595,138207,205,122123
12.600,138205,207,122183
12.605,138217,208,122134
12.610,138208,206,122136
12.615,138207,205,122130
12.620,138192,204,122134
12.625,138203,204,122119
12.630,138202,203,122129
12.635,138181,203,122127
12.640,138187,201,122143
12.645,138210,201,122130
12.650,138176,204,122124
12.655,138201,204,122142
12.660,138206,203,122123
12.665,138194,203,122122
12.670,138206,201,122121
12.675,138205,200,122117
12.680,138202,199,122122
12.685,138186,199,122124
12.690,138182,198,122115
12.695,138183,198,122121
12.700,138191,201,122113
12.705,138181,201,122121
12.709,138184,199,122121
12.714,138187,198,122123
12.719,138186,197,122122
12.724,138196,196,122124
12.729,138187,206,122119
12.734,138179,205,122119
12.739,138189,203,122106
12.744,138198,203,122120
12.749,138194,206,122119
12.754,138179,206,122123
12.759,138188,205,122127
12.764,138192,205,122123
12.769,138191,204,122134
12.774,138192,204,122132
12.779,138188,202,122120
12.784,138181,202,122121
12.789,138188,201,122123
12.794,138199,201,122118
12.799,138193,205,122110
12.804,138181,205,122120
12.809,138185,204,122113
12.814,138201,202,122107
12.819,138185,201,122119
12.824,138193,201,122123
12.829,138184,201,122129
12.834,138190,201,122133
12.839,138197,199,122111
12.844,138203,199,122140
12.849,138204,200,122126
12.853,138194,199,122129
12.858,138220,198,122139
12.863,138208,198,122143
12.868,138209,196,122142
12.873,138216,208,122150
12.878,138204,207,122138
12.883,138209,207,122131
12.888,138211,207,122135
12.893,138219,192,122136
12.898,138214,198,122150
12.903,138221,197,122150
12.908,138228,197,122145
12.913,138215,198,122146
12.918,138278,192,122151
12.923,138222,196,122148
12.928,138238,196,122163
12.933,138224,208,122151
12.938,138225,207,122166
12.943,138232,200,122166
12.948,138231,199,122162
12.953,138229,198,122150
12.958,138229,197,122145
12.963,138237,197,122164
12.968,138242,197,122150
12.973,138241,197,122147
12.978,138234,197,122137
12.983,138226,197,122140
12.988,138243,197,122137
12.993,138260,204,122126
12.997,138224,207,122137
13.002,138236,207,122123
13.007,138237,206,122121
13.012,138227,204,122109
13.017,138227,203,122121
13.022,138222,203,122280
13.027,138227,203,122095
13.032,138239,200,122099
13.037,138235,200,122115
13.042,138250,205,122087
13.047,138235,204,122082
13.052,138228,203,122082
13.057,138248,202,122086
13.062,138245,200,122095
13.067,138230,199,122102
13.072,138244,197,122094
13.077,138249,197,122100
13.082,138240,207,122093
13.087,138233,207,122099
13.092,138245,199,122101
13.097,138236,198,122103
13.102,138247,198,122117
13.107,138259,198,122120
13.112,138261,197,122108
13.117,138258,196,122121
13.122,138259,197,122125
13.127,138264,208,122135
13.132,138253,206,122111
13.137,138259,208,122113
13.141,138266,198,122125
13.146,138267,197,122129
13.151,138267,196,122138
13.156,138276,208,122130
13.161,138277,208,122134
13.166,138262,207,122133
13.171,138270,207,122142
13.176,138274,207,122122
13.181,138279,206,122128
13.186,138278,199,122140
13.191,138278,199,122123
13.196,138286,200,122140
13.201,138286,199,122135
13.206,138292,199,122134
13.211,138289,197,122138
13.216,138290,208,122143
13.221,138306,207,122132
13.226,138308,207,122139
13.231,138303,206,122141
13.236,138302,199,122138
13.241,138320,198,122152
13.246,138305,197,122132
13.251,138311,196,122141
13.256,138314,208,122134
13.261,138316,207,122144
13.266,138320,207,122134
13.271,138335,204,122153
13.276,138306,203,122148
13.281,138325,202,122152
13.286,138333,207,122144
13.290,138328,206,122147
13.295,138340,205,122152
13.300,138341,204,122165
13.305,138345,202,122167
13.310,138351,200,122157
13.315,138348,198,122167
13.320,138352,196,122172
13.325,138356,206,122175
13.330,138359,203,122175
13.335,138361,207,122183
13.340,138367,206,122171
13.345,138371,205,122176
13.350,138372,203,122179
13.355,138384,201,122171
13.360,138399,200,122164
13.365,138387,199,122175
13.370,138398,196,122171
13.375,138403,207,122191
13.380,138392,207,122189
13.385,138402,198,122190
13.390,138404,208,122197
13.395,138421,206,122201
13.400,138425,204,122215
13.405,138417,204,122200
13.410,138421,202,122217
13.415,138412,202,122217
13.420,138401,201,122214
13.425,138405,201,122212
13.430,138387,206,122207
13.434,138374,201,122197
13.439,138365,204,122201
13.444,138361,204,122203
13.449,138345,204,122191
13.454,138329,203,122215
13.459,138326,202,122210
13.464,138323,202,122203
13.469,138309,200,122194
13.474,138297,198,122202
13.479,138303,202,122211
13.484,138296,202,122190
13.489,138260,200,122192
13.494,138273,200,122186
13.499,138269,200,122183
13.504,138254,199,122180
13.509,138252,198,122180
13.514,138246,198,122175
13.519,138250,197,122187
13.524,138240,197,122191
13.529,138239,201,122174
13.534,138218,199,122159
13.539,138219,198,122173
13.544,138205,196,122169
13.549,138205,209,122161
13.554,138200,207,122161
13.559,138194,206,122162
13.564,138179,205,122153
13.569,138184,204,122151
13.574,138175,204,122168
13.578,138165,196,122155
13.583,138164,208,122149
13.588,138140,206,122145
13.593,138143,204,122134
13.598,138146,203,122146
13.603,138133,203,122145
13.608,138132,201,122136
13.613,138122,200,122137
13.618,138126,200,122140
13.623,138109,200,122128
13.628,138100,203,122122
13.633,138100,203,122120
13.638,138090,204,122117
13.643,138089,204,122126
13.648,138092,205,122116
13.653,138078,205,122114
13.658,138095,204,122131
13.663,138085,204,122124
13.668,138090,203,122116
13.673,138079,206,122097
13.678,138075,200,122113
13.683,138089,201,122120
13.688,138095,201,122123
13.693,138092,201,122128
13.698,138089,201,122129
13.703,138078,201,122122
13.708,138085,200,122126
13.713,138096,198,122119
13.718,138072,196,122107
13.722,138108,200,122115
13.727,138074,200,122104
13.732,138077,198,122110
13.737,138079,198,122106
13.742,138066,196,122106
13.747,138074,208,122102
13.752,138079,206,122091
13.757,138079,205,122097
13.762,138063,205,122092
13.767,138060,204,122096
13.772,138072,197,122085
13.777,138068,197,122100
13.782,138049,197,122094
13.787,138052,196,122089
13.792,138054,207,122087
13.797,138063,205,122096
13.802,138058,204,122088
13.807,138054,204,122068
13.812,138055,203,122082
13.817,138039,202,122067
13.822,138046,205,122072
13.827,138053,204,122059
13.832,138049,203,122061
13.837,138034,202,122054
13.842,138034,200,122045
13.847,138037,200,122047
13.852,138034,198,122039
13.857,138057,197,122028
13.862,138049,195,122038
13.866,138033,207,122017
13.871,138052,199,122025
13.876,138042,198,122021
13.881,138063,208,122013
13.886,138058,206,122024
13.891,138060,205,122015
13.896,138072,203,122030
13.901,138073,201,122024
13.906,138062,201,122020
13.911,138059,199,122025
13.916,138063,199,122025
13.921,138049,200,122008
13.926,138068,201,122009
13.931,138067,199,122005
13.936,138072,198,122023
13.941,138078,197,122023
13.946,138078,196,122008
13.951,138068,207,122011
13.956,138072,206,122019
13.961,138067,206,122005
13.966,138105,198,121986
13.971,138081,198,122013
13.976,138082,198,122019
13.981,138091,196,122011
13.986,138074,208,122009
13.991,138084,205,122015
13.996,138085,205,122017
14.001,138082,203,121998
14.006,138103,202,122007
14.010,138077,200,122009
14.015,138136,197,122001
14.020,138104,205,121999
14.025,138087,205,122010
14.030,138099,201,122012
14.035,138108,201,122010
14.040,138112,199,121998
14.045,138117,199,121999
14.050,138111,197,122002
14.055,138101,197,121992
14.060,138110,208,121995
14.065,138115,200,121991
14.070,138121,199,121999
14.075,138117,197,121999
14.080,138118,207,122016
14.085,138123,205,121989
14.090,138139,203,121989
14.095,138113,203,121999
14.100,138126,200,121994
14.105,138139,199,121995
14.110,138126,197,121998
14.115,138156,207,121986
14.120,138145,207,122000
14.125,138156,205,122001
14.130,138150,204,121999
14.135,138157,203,121998
14.140,138143,202,122008
14.145,138160,203,121997
14.150,138156,202,122012
14.154,138166,202,122005
14.159,138158,200,121999
14.164,138172,204,122016
14.169,138164,202,122010
14.174,138174,201,122013
14.179,138176,200,122004
14.184,138180,200,122008
14.189,138194,198,122012
14.194,138185,198,122013
14.199,138195,197,122027
14.204,138201,196,122026
14.209,138200,199,121949
14.214,138202,199,122033
14.219,138199,199,122020
14.224,138209,199,122019
14.229,138206,198,122039
14.234,138210,197,122025
14.239,138204,196,122050
14.244,138229,208,122034
14.249,138208,207,122034
14.254,138222,205,122042
14.259,138221,196,122036
14.264,138221,197,122041
14.269,138222,208,122038
14.274,138231,207,122046
14.279,138234,206,122042
14.284,138240,205,122043
14.289,138248,202,122042
14.294,138246,201,122043
14.299,138244,199,122043
14.303,138251,199,122056
14.308,138257,204,122039
14.313,138258,202,122054
14.318,138267,201,122042
14.323,138264,200,122050
14.328,138284,199,122046
14.333,138269,199,122058
14.338,138280,198,122052
14.343,138273,198,122051
14.348,138277,197,122034
14.353,138296,207,122049
14.358,138282,203,122052
14.363,138279,203,122050
14.368,138291,202,122037
14.373,138290,200,122039
14.378,138279,199,122045
14.383,138293,197,122043
14.388,138306,208,122040
14.393,138289,206,122035
14.398,138293,204,122039
14.403,138285,202,122034
14.408,138282,199,122034
14.413,138280,197,122043
14.418,138269,207,122028
14.423,138272,204,122023
14.428,138248,202,122034
14.433,138255,200,122029
14.438,138237,197,122035
14.443,138235,195,122034
14.447,138227,206,122031
14.452,138198,204,122045
14.457,138208,208,122038
14.462,138188,207,122033
14.467,138186,205,122025
14.472,138192,203,122024
14.477,138174,201,122021
14.482,138149,199,122019
14.487,138149,198,122016
14.492,138146,196,122012
14.497,138136,207,122010
14.502,138128,195,122013
14.507,138122,198,121995
14.512,138134,195,122000
14.517,138104,206,121994
14.522,138110,204,121992
14.527,138107,203,121988
14.532,138092,201,121991
14.537,138092,199,121981
14.542,138079,198,121992
14.547,138071,197,121982
14.552,138077,200,121986
14.557,138050,199,121975
14.562,138047,198,121968
14.567,138053,197,121975
14.572,138042,206,121970
14.577,138033,205,121969
14.582,138030,202,121960
14.587,138016,201,121968
14.591,138009,199,121958
14.596,138010,198,121963
14.601,138001,201,121961
14.606,137981,201,121959
14.611,137991,199,121969
14.616,137986,199,121953
14.621,137973,198,121962
14.626,137971,198,121950
14.631,137963,197,121957
14.636,137945,196,121928
14.641,137957,207,121950
14.646,137950,207,121936
14.651,137952,201,121954
14.656,137942,200,121934
14.661,137929,199,121942
14.666,137945,198,121943
14.671,137948,196,121954
14.676,137946,196,121955
14.681,137943,207,121947
14.686,137946,205,121954
14.691,137948,203,121969
14.696,137955,201,121974
14.701,137957,205,121968
14.706,137951,204,121957
14.711,137937,202,121963
14.716,137944,200,121935
14.721,137933,199,121941
14.726,137929,197,121949
14.731,137937,196,121944
14.735,137926,196,121945
14.740,137925,207,121954
14.745,137917,209,121961
14.750,137924,198,121956
14.755,137933,198,121956
14.760,137940,196,121946
14.765,137913,196,121961
14.770,137925,195,121977
14.775,137922,207,121962
14.780,137920,207,121948
14.785,137921,207,121947
14.790,137918,206,121945
14.795,137899,197,121951
14.800,137936,204,121952
14.805,137919,203,121944
14.810,137911,202,121956
14.815,137903,201,121940
14.820,137914,199,121948
14.825,137912,198,121949
14.830,137907,197,121943
14.835,137931,197,121948
14.840,137921,207,121944
14.845,137925,199,121947
14.850,137909,197,121949
14.855,137920,196,121946
14.860,137912,208,121951
14.865,137913,207,121944
14.870,137907,206,121949
14.875,137923,205,121949
14.879,137929,204,121951
14.884,137925,204,121947
14.889,137915,203,121948
14.894,137913,207,121959
14.899,137919,207,121957
14.904,137919,205,121953
14.909,137932,204,121963
14.914,137935,203,121950
14.919,137944,200,121956
14.924,137931,199,121967
14.929,137954,198,121944
14.934,137950,197,121959
14.939,137943,195,121951
14.944,137954,202,121957
14.949,137943,201,121952
14.954,137949,200,121966
14.959,137949,199,121958
14.964,137939,198,121956
14.969,137953,197,121959
14.974,137944,196,121952
14.979,137968,207,121967
14.984,137958,205,121964
14.989,137957,204,121960
14.994,137967,203,121955
14.999,137976,202,121952
15.004,137974,200,121971
15.009,137971,198,121953
15.014,137978,207,121970
15.019,137984,205,121954
15.023,137977,206,121958
15.028,137986,202,121968
15.033,137990,200,121960
15.038,138004,208,121963
15.043,137994,203,121954
15.048,138006,202,121957
15.053,138005,200,121968
15.058,138004,198,121954
15.063,137997,196,121954
15.068,138003,207,121951
15.073,138018,204,121957
15.078,138026,201,121954
15.083,138011,199,121972
15.088,138027,204,121963
15.093,138017,201,121954
15.098,138025,199,121968
15.103,138023,197,121948
15.108,138038,206,121961
15.113,138036,203,121957
15.118,138044,201,121961
15.123,138055,198,121962
15.128,138044,197,121970
15.133,138060,207,121956
15.138,138048,199,121951
15.143,138048,196,121968
15.148,138058,207,121975
15.153,138062,204,121970
15.158,138067,204,121981
15.163,138047,202,121972
15.167,138071,200,121971
15.172,138074,197,121969
15.177,138081,208,121978
15.182,138073,205,122004
15.187,138074,197,121981
15.192,138084,207,121978
15.197,138083,205,121981
15.202,138084,203,121986
15.207,138105,202,121977
15.212,138084,200,121981
15.217,138104,199,122002
15.222,138099,198,121995
15.227,138110,197,121992
15.232,138102,207,121983
15.237,138117,204,121993
15.242,138116,202,121975
15.247,138115,201,121993
15.252,138108,198,121994
15.257,138114,196,121994
15.262,138124,206,121989
15.267,138118,203,121996
15.272,138112,201,121993
15.277,138149,199,121991
15.282,138142,198,121957
15.287,138145,201,122006
15.292,138131,199,121996
15.297,138143,198,121999
15.302,138152,196,122008
15.307,138148,197,122006
15.312,138156,207,121992
15.316,138165,205,122001
15.321,138160,203,122002
15.326,138171,201,122014
15.331,138226,204,121996
15.336,138173,204,122001
15.341,138181,203,122006
15.346,138176,202,122000
15.351,138180,201,122011
15.356,138194,199,122002
15.361,138203,199,122014
15.366,138190,199,122020
15.371,138181,196,122016
15.376,138197,206,122020
15.381,138186,198,122023
15.386,138171,196,122022
15.391,138174,207,122021
15.396,138163,206,122003
15.401,138169,204,122009
15.406,138156,202,122019
15.411,138152,200,122009
15.416,138131,199,122029
15.421,138118,198,122023
15.426,138109,198,122023
15.431,138100,202,122011
15.436,138094,200,122018
15.441,138082,198,122011
15.446,138062,197,122020
15.451,138051,208,122013
15.456,138055,206,122006
15.460,138038,204,121995
15.465,138039,203,122005
15.470,138019,201,121996
15.475,138024,201,121993
15.480,138007,197,121994
15.485,137998,196,122001
15.490,137986,206,121998
15.495,137986,204,121994
15.500,137992,202,121973
15.505,137993,201,121985
15.510,137956,200,121991
15.515,137953,199,121991
15.520,137951,197,121982
15.525,137951,197,121989
15.530,137945,204,121988
15.535,137938,201,121986
15.540,137929,198,121993
15.545,137924,196,121990
15.550,137919,207,121992
15.555,137899,204,121995
15.560,137893,202,121987
15.565,137889,200,121982
15.570,137888,198,121981
15.575,137880,198,121981
15.580,137858,200,121982
15.585,137870,197,121974
15.590,137852,196,121967
15.595,137847,206,121972
15.600,137841,204,121967
15.604,137836,201,121983
15.609,137821,200,121965
15.614,137838,198,121968
15.619,137832,196,121968
15.624,137825,200,121973
15.629,137819,199,121966
15.634,137827,196,121970
15.639,137819,207,121964
15.644,137808,204,121975
15.649,137801,203,121967
15.654,137802,201,121979
15.659,137827,200,121989
15.664,137832,199,121988
15.669,137836,198,121999
15.674,137831,202,121996
15.679,137848,201,122004
15.684,137821,199,122006
15.689,137820,198,122005
15.694,137828,195,121999
15.699,137809,207,122005
15.704,137811,205,121989
15.709,137802,203,122001
15.714,137812,201,122004
15.719,137813,201,121992
15.724,137807,206,122006
15.729,137806,204,122007
15.734,137799,202,122017
15.739,137807,200,122019
15.744,137811,198,122036
15.748,137792,197,122012
15.753,137797,196,122014
15.758,137805,207,122017
15.763,137804,205,122014
15.768,137800,204,122025
15.773,137804,207,122016
15.778,137805,206,122016
15.783,137789,204,122021
15.788,137799,203,122028
15.793,137795,201,122033
15.798,137802,200,122023
15.803,137802,199,122032
15.808,137801,198,122034
15.813,137790,196,122026
15.818,137808,207,122035
15.823,137800,203,122032
15.828,137805,202,122024
15.833,137798,198,122014
15.838,137784,197,122014
15.843,137788,207,122010
15.848,137786,205,122022
15.853,137797,201,122033
15.858,137808,200,122027
15.863,137806,196,122040
15.868,137806,194,122053
15.873,137807,197,122058
15.878,137820,207,122064
15.883,137826,204,122073
15.888,137813,203,122072
15.892,137825,202,122070
15.897,137817,200,122089
15.902,137816,199,122087
15.907,137827,198,122074
15.912,137827,197,122089
15.917,137893,202,121977
15.922,137822,195,122091
15.927,137828,206,122091
15.932,137832,204,122100
15.937,137837,203,122101
15.942,137841,201,122110
15.947,137830,199,122123
15.952,137839,198,122116
15.957,137843,196,122126
15.962,137844,206,122125
15.967,137844,198,122136
15.972,137846,196,122150
15.977,137851,195,122152
15.982,137846,206,122148
15.987,137857,205,122153
15.992,137853,203,122167
15.997,137853,201,122164
16.002,137855,199,122176
16.007,137868,197,122165
16.012,137863,196,122190
16.017,137873,200,122183
16.022,137866,198,122197
16.027,137858,197,122194
16.032,137857,196,122206
16.036,137871,209,122209
16.041,137876,206,122223
16.046,137861,204,122221
16.051,137880,202,122238
16.056,137896,201,122248
16.061,137888,200,122264
16.066,137902,206,122265
16.071,137900,204,122281
16.076,137910,205,122283
16.081,137899,203,122285
16.086,137919,201,122296
16.091,137926,199,122300
16.096,137927,197,122302
16.101,137927,196,122309
16.106,137915,207,122307
16.111,137916,209,122258
16.116,137918,197,122310
16.121,137922,208,122313
16.126,137924,206,122314
16.131,137934,205,122310
16.136,137930,203,122306
16.141,137932,203,122300
16.146,137932,202,122296
16.151,137932,200,122311
16.156,137947,198,122311
16.161,137953,201,122281
16.166,137938,200,122300
16.171,137961,199,122296
16.176,137949,197,122293
16.180,137957,207,122274
16.185,137952,206,122275
16.190,137952,204,122281
16.195,137968,202,122262
16.200,137955,201,122275
16.205,137958,199,122265
16.210,137946,203,122250
16.215,137964,201,122254
16.220,137967,199,122254
16.225,137965,197,122254
16.230,137953,207,122252
16.235,137977,205,122255
16.240,137968,203,122244
16.245,137981,202,122235
16.250,137983,200,122251
16.255,137978,197,122248
16.260,137983,201,122250
16.265,137991,199,122255
16.270,137994,196,122253
16.275,138004,206,122260
16.280,138004,204,122247
16.285,138006,203,122244
16.290,138010,202,122250
16.295,138012,199,122267
16.300,138015,196,122276
16.305,138008,206,122266
16.310,138016,204,122268
16.315,138028,201,122271
16.320,138027,200,122280
16.324,138026,198,122268
16.329,138049,196,122284
16.334,138048,205,122281
16.339,138040,203,122285
16.344,138052,201,122295
16.349,138044,200,122288
16.354,138051,198,122294
16.359,138037,196,122291
16.364,138015,205,122292
16.369,138019,204,122280
16.374,137998,201,122284
16.379,138004,200,122295
16.384,137999,199,122277
16.389,137965,197,122279
16.394,137969,196,122266
16.399,137949,207,122275
16.404,137948,203,122263
16.409,137918,204,122257
16.414,137900,201,122261
16.419,137895,200,122248
16.424,137898,199,122250
16.429,137880,199,122243
16.434,137875,198,122251
16.439,137875,197,122256
16.444,137871,196,122227
16.449,137864,208,122235
16.454,137849,198,122233
16.459,137844,196,122236
16.464,137839,205,122232
16.469,137825,203,122234
16.473,137826,200,122219
16.478,137823,197,122222
16.483,137821,207,122206
16.488,137802,204,122219
16.493,137800,201,122197
16.498,137783,198,122213
16.503,137782,201,122205
16.508,137787,200,122204
16.513,137771,195,122206
16.518,137770,205,122195
16.523,137767,201,122201
16.528,137747,198,122191
16.533,137737,196,122204
16.538,137739,207,122187
16.543,137731,204,122185
16.548,137730,202,122197
16.553,137722,205,122184
16.558,137711,204,122181
16.563,137713,202,122174
16.568,137706,201,122164
16.573,137695,199,122176
16.578,137688,198,122181
16.583,137688,196,122186
16.588,137675,207,122161
16.593,137675,206,122170
16.598,137674,205,122162
16.603,137672,204,122156
16.608,137668,202,122149
16.613,137679,200,122167
16.617,137665,198,122173
16.622,137667,196,122171
16.627,137683,207,122175
16.632,137677,204,122191
16.637,137689,202,122193
16.642,137692,201,122193
16.647,137675,201,122168
16.652,137669,204,122180
16.657,137663,202,122172
16.662,137662,201,122162
16.667,137660,201,122164
16.672,137667,200,122172
16.677,137649,198,122167
16.682,137665,198,122160
16.687,137649,196,122161
16.692,137654,207,122157
16.697,137724,197,122156
16.702,137645,197,122165
16.707,137652,196,122156
16.712,137656,207,122149
16.717,137643,205,122172
16.722,137644,204,122128
16.727,137652,203,122154
16.732,137640,202,122154
16.737,137645,201,122158
16.742,137647,199,122162
16.747,137670,203,122150
16.752,137655,203,122161
16.757,137651,202,122160
16.761,137646,200,122150
16.766,137662,198,122155
16.771,137652,197,122150
16.776,137630,207,122149
16.781,137644,205,122161
16.786,137651,204,122166
16.791,137647,203,122151
16.796,137648,207,122161
16.801,137639,205,122150
16.806,137648,203,122150
16.811,137653,202,122139
16.816,137655,201,122143
16.821,137644,200,122144
16.826,137653,199,122148
16.831,137643,196,122150
16.836,137658,207,122153
16.841,137658,208,122156
16.846,137650,197,122148
16.851,137669,208,122157
16.856,137686,204,122165
16.861,137662,203,122172
16.866,137679,201,122156
16.871,137687,200,122162
16.876,137673,198,122165
16.881,137683,198,122167
16.886,137682,197,122182
16.891,137688,208,122174
16.896,137684,199,122173
16.901,137691,198,122182
16.905,137696,196,122165
16.910,137704,206,122172
16.915,137701,203,122185
16.920,137711,199,122190
16.925,137711,198,122185
16.930,137710,197,122198
16.935,137709,206,122198
16.940,137714,208,122213
16.945,137714,196,122196
16.950,137723,207,122212
16.955,137720,204,122206
16.960,137725,203,122217
16.965,137737,201,122225
16.970,137728,200,122230
16.975,137728,197,122230
16.980,137737,196,122232
16.985,137735,195,122244
16.990,137723,199,122235
16.995,137760,197,122252
17.000,137757,196,122231
17.005,137755,206,122239
17.010,137764,204,122249
17.015,137752,202,122250
17.020,137756,201,122246
17.025,137760,203,122243
17.030,137766,199,122262
17.035,137769,207,122264
17.040,137787,201,122239
17.045,137778,202,122270
17.049,137779,201,122293
17.054,137787,200,122301
17.059,137784,199,122294
17.064,137787,197,122295
17.069,137793,208,122306
17.074,137793,205,122317
17.079,137805,204,122322
17.084,137798,202,122312
17.089,137803,199,122322
17.094,137793,199,122329
17.099,137822,198,122342
17.104,137813,196,122332
17.109,137815,207,122344
17.114,137826,205,122336
17.119,137818,204,122347
17.124,137821,201,122353
17.129,137832,201,122361
17.134,137830,198,122358
17.139,137843,202,122357
17.144,137836,201,122362
17.149,137845,200,122362
17.154,137844,199,122362
17.159,137843,198,122369
17.164,137866,197,122363
17.169,137837,196,122355
17.174,137857,207,122355
17.179,137851,206,122345
17.184,137854,204,122376
17.189,137862,207,122355
17.193,137855,206,122352
17.198,137872,204,122352
17.203,137864,203,122350
17.208,137881,202,122353
17.213,137877,199,122350
17.218,137883,197,122341
17.223,137879,196,122336
17.228,137887,206,122350
17.233,137885,193,122339
17.238,137892,196,122352
17.243,137896,206,122341
17.248,137898,204,122321
17.253,137909,204,122323
17.258,137909,202,122326
17.263,137906,201,122313
17.268,137913,199,122311
17.273,137911,197,122310
17.278,137903,197,122305
17.283,137922,200,122305
17.288,137927,199,122289
17.293,137939,197,122287
17.298,137924,196,122285
17.303,137940,207,122285
17.308,137932,205,122263
17.313,137942,203,122269
17.318,137933,200,122252
17.323,137931,198,122244
17.328,137914,196,122237
17.333,137932,203,122226
17.337,137911,203,122228
17.342,137907,201,122217
17.347,137894,199,122206
17.352,137887,197,122212
17.357,137890,208,122202
17.362,137872,205,122194
17.367,137858,204,122201
17.372,137846,203,122185
17.377,137842,201,122200
17.382,137824,206,122183
17.387,137815,205,122183
17.392,137807,204,122185
17.397,137802,202,122176
17.402,137796,201,122186
17.407,137782,200,122183
17.412,137781,198,122191
17.417,137765,197,122187
17.422,137755,197,122190
17.427,137764,207,122194
17.432,137753,205,122204
17.437,137744,203,122203
17.442,137739,203,122205
17.447,137740,202,122208
17.452,137726,202,122219
17.457,137732,201,122229
17.462,137750,200,122240
17.467,137730,200,122247
17.472,137724,201,122251
17.477,137716,204,122221
17.482,137724,205,122249
17.486,137714,205,122264
17.491,137714,204,122267
17.496,137713,201,122274
17.501,137686,201,122269
17.506,137693,200,122280
17.511,137699,199,122280
17.516,137697,197,122276
17.521,137689,195,122285
17.526,137701,198,122281
17.531,137682,197,122298
17.536,137679,195,122287
17.541,137671,205,122296
17.546,137671,203,122304
17.551,137676,202,122307
17.556,137670,200,122287
17.561,137671,199,122311
17.566,137668,198,122317
17.571,137673,196,122304
17.576,137670,200,122315
17.581,137675,198,122312
17.586,137678,196,122329
17.591,137675,208,122332
17.596,137686,205,122345
17.601,137677,204,122345
17.606,137679,202,122358
17.611,137690,201,122362
17.616,137686,199,122359
17.621,137685,197,122356
17.626,137676,203,122364
17.630,137669,202,122361
17.635,137673,200,122368
17.640,137668,199,122357
17.645,137688,197,122366
17.650,137682,197,122372
17.655,137679,195,122375
17.660,137670,206,122384
17.665,137675,203,122382
17.670,137668,201,122376
17.675,137681,204,122383
17.680,137665,204,122386
17.685,137669,205,122385
17.690,137692,205,122414
17.695,137669,205,122414
17.700,137673,205,122390
17.705,137668,205,122391
17.710,137673,206,122400
17.715,137676,205,122409
17.720,137659,206,122406
17.725,137665,203,122421
17.730,137680,204,122409
17.735,137679,204,122425
17.740,137679,203,122414
17.745,137685,204,122421
17.750,137690,203,122433
17.755,137672,202,122422
17.760,137670,202,122444
17.765,137666,203,122449
17.770,137691,204,122441
17.774,137691,197,122442
17.779,137700,198,122438
17.784,137686,198,122438
17.789,137689,199,122461
17.794,137694,200,122451
17.799,137704,201,122452
17.804,137704,200,122451
17.809,137680,201,122451
17.814,137687,200,122461
17.819,137690,206,122475
17.824,137711,206,122476
17.829,137713,205,122487
17.834,137705,205,122496
17.839,137712,205,122483
17.844,137711,205,122481
17.849,137719,206,122484
17.854,137711,206,122487
17.859,137714,206,122493
17.864,137726,206,122497
17.869,137722,200,122499
17.874,137724,200,122500
17.879,137745,201,122520
17.884,137741,202,122514
17.889,137736,202,122526
17.894,137740,202,122504
17.899,137736,202,122520
17.904,137754,203,122504
17.909,137748,203,122513
17.914,137746,203,122513
17.918,137883,196,122521
17.923,137759,201,122526
17.928,137750,202,122507
17.933,137754,203,122521
17.938,137765,203,122510
17.943,137767,202,122512
17.948,137774,202,122521
17.953,137780,203,122524
17.958,137767,202,122520
17.963,137776,202,122521
17.968,137771,208,122510
17.973,137786,208,122536
17.978,137778,207,122526
17.983,137792,206,122525
17.988,137784,206,122508
17.993,137778,205,122517
17.998,137784,205,122511
18.003,137790,206,122502
18.008,137793,207,122513
18.013,137793,195,122505
18.018,137802,199,122518
18.023,137796,199,122726
18.028,137805,201,122515
18.033,137805,201,122518
18.038,137804,203,122517
18.043,137803,204,122517
18.048,137801,205,122520
18.053,137824,207,122516
18.058,137821,208,122521
18.062,137837,201,122505
18.067,137819,203,122527
18.072,137831,203,122524
18.077,137837,204,122525
18.082,137822,204,122511
18.087,137830,204,122516
18.092,137842,205,122517
18.097,137837,205,122513
18.102,137856,206,122510
18.107,137843,206,122519
18.112,137840,200,122503
18.117,137854,200,122498
18.122,137842,201,122504
18.127,137854,202,122494
18.132,137858,203,122499
18.137,137856,203,122500
18.142,137865,204,122500
18.147,137862,205,122500
18.152,137860,206,122490
18.157,137875,206,122503
18.162,137885,204,122493
18.167,137879,205,122496
18.172,137870,205,122499
18.177,137874,205,122497
18.182,137883,205,122482
18.187,137898,206,122491
18.192,137887,206,122498
18.197,137892,206,122490
18.202,137891,206,122488
18.206,137900,207,122482
18.211,137904,205,122490
18.216,137916,207,122484
18.221,137912,197,122481
18.226,137917,199,122491
18.231,137911,200,122485
18.236,137933,201,122494
18.241,137922,201,122484
18.246,137928,202,122501
18.251,137939,204,122478
18.256,137936,208,122511
18.261,137939,199,122505
18.266,137931,200,122499
18.271,137928,203,122496
18.276,137922,203,122479
18.281,137918,204,122494
18.286,137903,206,122484
18.291,137891,207,122476
18.296,137886,197,122475
18.301,137874,198,122472
18.306,137881,203,122477
18.311,137858,206,122472
18.316,137849,207,122478
18.321,137831,196,122469
18.326,137829,197,122473
18.331,137813,200,122464
18.336,137812,201,122471
18.341,137811,203,122471
18.346,137784,204,122461
18.350,137780,207,122463
18.355,137776,200,122457
18.360,137777,202,122464
18.365,137753,202,122450
18.370,137753,204,122452
18.375,137754,204,122452
18.380,137739,205,122438
18.385,137737,206,122454
18.390,137727,208,122450
18.395,137734,197,122436
18.400,137722,198,122423
18.405,137706,196,122434
18.410,137706,199,122434
18.415,137709,200,122432
18.420,137696,201,122426
18.425,137689,202,122426
18.430,137681,204,122407
18.435,137688,204,122414
18.440,137673,206,122411
18.445,137666,206,122408
18.450,137662,196,122403
18.455,137655,200,122402
18.460,137647,201,122403
18.465,137653,201,122401
18.470,137648,203,122391
18.475,137628,203,122388
18.480,137635,205,122384
18.485,137639,205,122388
18.490,137630,207,122387
18.495,137620,196,122370
18.499,137639,198,122337
18.504,137607,204,122375
18.509,137606,204,122387
18.514,137616,205,122358
18.519,137601,207,122362
18.524,137606,195,122368
18.529,137619,198,122354
18.534,137619,199,122371
18.539,137609,200,122366
18.544,137613,201,122365
18.549,137668,206,122345
18.554,137641,196,122361
18.559,137624,196,122358
18.564,137630,198,122347
18.569,137611,198,122336
18.574,137606,200,122343
18.579,137611,201,122351
18.584,137609,201,122337
18.589,137614,204,122326
18.594,137609,205,122351
18.599,137595,198,122335
18.604,137608,199,122338
18.609,137594,201,122332
18.614,137611,201,122351
18.619,137601,202,122328
18.624,137607,201,122322
18.629,137591,201,122327
18.634,137612,200,122337
18.639,137609,198,122326
18.643,137609,197,122334
18.648,137624,201,122332
18.653,137610,200,122328
18.658,137605,199,122325
18.663,137620,199,122322
18.668,137600,197,122338
18.673,137617,195,122317
18.678,137601,206,122319
18.683,137603,204,122320
18.688,137622,203,122324
18.693,137616,199,122328
18.698,137611,206,122331
18.703,137611,205,122316
18.708,137625,205,122332
18.713,137614,204,122320
18.718,137616,204,122314
18.723,137605,203,122309
18.728,137617,202,122315
18.733,137622,202,122314
18.738,137627,201,122321
18.743,137631,200,122314
18.748,137628,204,122311
18.753,137629,204,122316
18.758,137640,203,122315
18.763,137631,202,122307
18.768,137630,201,122317
18.773,137635,199,122315
18.778,137647,198,122300
18.783,137655,198,122298
18.787,137637,196,122304
18.792,137660,195,122292
18.797,137650,197,122280
18.802,137650,197,122280
18.807,137659,196,122287
18.812,137656,196,122278
18.817,137659,207,122277
18.822,137666,206,122290
18.827,137660,206,122285
18.832,137656,206,122294
18.837,137668,205,122272
18.842,137683,198,122280
18.847,137667,199,122280
18.852,137685,199,122283
18.857,137677,198,122285
18.862,137693,197,122282
18.867,137673,196,122279
18.872,137690,207,122286
18.877,137700,204,122283
18.882,137683,202,122285
18.887,137692,201,122286
18.892,137690,196,122282
18.897,137710,197,122278
18.902,137706,197,122282
18.907,137706,196,122292
18.912,137720,208,122296
18.917,137709,207,122298
18.922,137714,205,122302
18.927,137718,204,122302
18.931,137721,204,122295
18.936,137708,203,122281
18.941,137714,202,122298
18.946,137735,201,122306
18.951,137735,201,122301
18.956,137724,200,122309
18.961,137732,200,122305
18.966,137723,199,122300
18.971,137738,199,122307
18.976,137740,197,122297
18.981,137756,197,122310
18.986,137757,195,122312
18.991,137747,200,122306
18.996,137738,198,122315
19.001,137751,198,122308
19.006,137761,196,122316
19.011,137770,207,122319
19.016,137776,205,122319
19.021,137755,204,122318
19.026,137755,204,122320
19.031,137771,202,122317
19.036,137780,204,122382
19.041,137774,206,122317
19.046,137770,204,122325
19.051,137767,203,122310
19.056,137783,200,122328
19.061,137785,199,122325
19.066,137789,197,122334
19.071,137801,196,122322
19.075,137791,207,122321
19.080,137788,206,122330
19.085,137753,196,122331
19.090,137797,196,122333
19.095,137815,205,122332
19.100,137804,204,122334
19.105,137814,201,122341
19.110,137828,199,122343
19.115,137814,196,122347
19.120,137828,207,122348
19.125,137835,204,122359
19.130,137831,204,122361
19.135,137848,206,122350
19.140,137833,205,122349
19.145,137835,204,122351
19.150,137849,202,122354
19.155,137834,201,122359
19.160,137856,200,122354
19.165,137865,198,122371
19.170,137860,198,122371
19.175,137856,196,122375
19.180,137854,208,122374
19.185,137872,198,122366
19.190,137863,197,122369
19.195,137884,196,122370
19.200,137876,207,122384
19.205,137875,205,122387
19.210,137880,205,122384
19.215,137868,204,122373
19.219,137870,203,122383
19.224,137854,201,122373
19.229,137845,199,122379
19.234,137842,203,122377
19.239,137819,202,122367
19.244,137808,200,122372
19.249,137806,200,122378
19.254,137811,199,122384
19.259,137779,198,122382
19.264,137782,196,122380
19.269,137771,207,122379
19.274,137768,206,122375
19.279,137754,204,122389
19.284,137746,201,122382
19.289,137739,200,122387
19.294,137722,198,122391
19.299,137730,196,122382
19.304,137710,205,122377
19.309,137706,204,122379
19.314,137683,202,122370
19.319,137699,200,122360
19.324,137687,198,122369
19.329,137692,206,122366
19.334,137675,200,122364
19.339,137670,197,122366
19.344,137675,196,122373
19.349,137657,205,122372
19.354,137665,204,122358
19.359,137658,201,122368
19.363,137655,200,122352
19.368,137636,199,122361
19.373,137634,197,122353
19.378,137636,197,122350
19.383,137626,202,122343
19.388,137631,202,122357
19.393,137623,201,122343
19.398,137618,198,122340
19.403,137603,197,122342
19.408,137599,207,122332
19.413,137594,206,122340
19.418,137589,203,122337
19.423,137575,201,122342
19.428,137591,205,122342
19.433,137571,198,122330
19.438,137569,196,122350
19.443,137573,207,122336
19.448,137566,205,122346
19.453,137573,203,122333
19.458,137569,200,122335
19.463,137574,200,122335
19.468,137569,199,122351
19.473,137569,198,122364
19.478,137567,202,122360
19.483,137574,201,122368
19.488,137577,200,122363
19.493,137566,199,122367
19.498,137574,197,122379
19.503,137568,197,122360
19.508,137574,195,122363
19.512,137563,207,122374
19.517,137563,205,122368
19.522,137555,204,122362
19.527,137556,201,122372
19.532,137574,200,122380
19.537,137554,197,122377
19.542,137562,196,122397
19.547,137565,206,122397
19.552,137565,204,122416
19.557,137559,202,122422
19.562,137575,201,122425
19.567,137567,199,122435
19.572,137571,199,122429
19.577,137568,202,122455
19.582,137560,200,122446
19.587,137583,197,122469
19.592,137579,197,122477
19.597,137572,195,122484
19.602,137565,207,122490
19.607,137577,204,122487
19.612,137580,203,122505
19.617,137580,200,122495
19.622,137622,202,122506
19.627,137584,202,122505
19.632,137592,201,122521
19.637,137580,198,122531
19.642,137573,197,122521
19.647,137587,196,122532
19.652,137583,207,122536
19.656,137582,205,122544
19.661,137584,204,122538
19.666,137585,201,122545
19.671,137586,206,122539
19.676,137596,204,122546
19.681,137592,202,122567
19.686,137581,201,122562
19.691,137595,199,122576
19.696,137588,196,122569
19.701,137595,207,122567
19.706,137602,204,122575
19.711,137594,202,122583
19.716,137610,200,122573
19.721,137611,207,122571
19.726,137611,206,122571
19.731,137610,205,122576
19.736,137613,203,122579
19.741,137595,202,122572
19.746,137629,201,122579
19.751,137617,200,122575
19.756,137615,198,122570
19.761,137625,196,122574
19.766,137626,208,122580
19.771,137638,199,122571
19.776,137632,198,122574
19.781,137627,197,122596
19.786,137619,195,122579
19.791,137631,206,122588
19.796,137638,204,122583
19.800,137619,202,122594
19.805,137626,201,122593
19.810,137634,199,122597
19.815,137640,196,122595
19.820,137631,201,122606
19.825,137643,199,122587
19.830,137644,198,122597
19.835,137653,197,122595
19.840,137655,196,122591
19.845,137647,205,122617
19.850,137652,203,122605
19.855,137651,201,122611
19.860,137675,200,122616
19.865,137660,199,122616
19.870,137669,202,122610
19.875,137675,200,122611
19.880,137666,200,122620
19.885,137669,198,122624
19.890,137671,197,122625
19.895,137686,195,122636
19.900,137684,206,122617
19.905,137692,205,122638
19.910,137688,204,122627
19.915,137684,196,122626
19.920,137704,206,122634
19.925,137691,203,122627
19.930,137686,202,122641
19.935,137691,201,122627
19.940,137698,200,122633
19.944,137703,197,122637
19.949,137693,196,122641
19.954,137702,207,122633
19.959,137700,206,122639
19.964,137698,201,122614
19.969,137712,202,122635
19.974,137716,200,122645
19.979,137712,198,122647
19.984,137714,197,122653
19.989,137721,196,122650
19.994,137722,205,122654
19.999,137717,203,122653
20.004,137723,203,122651
20.009,137724,202,122653
20.014,137723,206,122655
20.019,137732,204,122668
20.024,137748,202,122661
20.029,137728,202,122666
20.034,137729,199,122670
20.039,137728,196,122678
20.044,137737,207,122675
20.049,137750,204,122678
20.054,137759,201,122693
20.059,137763,200,122688
20.064,137758,204,122689
20.069,137755,202,122687
20.074,137780,201,122693
20.079,137771,199,122673
20.084,137766,197,122689
20.088,137771,207,122696
20.093,137777,206,122691
20.098,137774,203,122705
20.103,137771,202,122697
20.108,137779,202,122722
20.113,137784,206,122701
20.118,137780,205,122711
20.123,137780,204,122717
20.128,137788,203,122726
20.133,137785,203,122722
20.138,137777,201,122728
20.143,137772,200,122729
20.148,137770,199,122732
20.153,137773,198,122729
20.158,137736,197,122734
20.163,137734,201,122727
20.168,137731,201,122730
20.173,137702,202,122722
20.178,137698,201,122722
20.183,137690,200,122728
20.188,137679,198,122727
20.193,137671,197,122715
20.198,137658,195,122722
20.203,137647,206,122711
20.208,137640,197,122696
20.213,137636,196,122686
20.218,137608,207,122685
20.223,137607,206,122679
20.228,137596,204,122668
20.232,137583,203,122661
20.237,137580,201,122647
20.242,137580,201,122618
20.247,137564,199,122619
20.252,137554,198,122603
20.257,137557,202,122588
20.262,137546,202,122572
20.267,137540,201,122562
20.272,137545,200,122553
20.277,137532,200,122546
20.282,137530,200,122541
20.287,137528,200,122534
20.292,137532,200,122533
20.297,137522,201,122517
20.302,137518,200,122525
20.307,137518,198,122521
20.312,137520,198,122517
20.317,137518,196,122519
20.322,137515,207,122503
20.327,137497,206,122516
20.332,137506,204,122530
20.337,137490,203,122521
20.342,137497,201,122500
20.347,137499,198,122504
20.352,137493,196,122523
20.357,137485,205,122521
20.362,137483,204,122521
20.367,137486,201,122537
20.372,137477,201,122537
20.376,137474,199,122541
20.381,137469,197,122546
20.386,137464,207,122549
20.391,137465,205,122538
20.396,137465,203,122545
20.401,137467,206,122548
20.406,137485,198,122565
20.411,137476,197,122574
20.416,137479,207,122573
20.421,137492,206,122579
20.426,137480,204,122591
20.431,137480,204,122598
20.436,137480,202,122592
20.441,137499,201,122591
20.446,137480,200,122596
20.451,137481,204,122602
20.456,137465,203,122596
20.461,137470,202,122587
20.466,137457,201,122600
20.471,137471,200,122617
20.476,137460,199,122599
20.481,137467,196,122605
20.486,137464,207,122611
20.491,137452,207,122605
20.496,137442,207,122603
20.501,137448,198,122591
20.506,137445,197,122595
20.511,137444,197,122588
20.516,137440,196,122587
20.521,137456,208,122587
20.525,137434,207,122575
20.530,137443,207,122582
20.535,137438,205,122581
20.540,137431,204,122587
20.545,137443,203,122578
20.550,137440,206,122604
20.555,137430,205,122593
20.560,137430,203,122592
20.565,137429,202,122599
20.570,137424,201,122592
20.575,137427,199,122591
20.580,137416,198,122595
20.585,137428,196,122588
20.590,137415,207,122598
20.595,137425,206,122581
20.600,137420,200,122600
20.605,137432,199,122597
20.610,137437,198,122621
20.615,137433,198,122622
20.620,137434,196,122618
20.625,137439,208,122623
20.630,137440,206,122623
20.635,137431,204,122636
20.640,137443,201,122629
20.645,137447,200,122643
20.650,137433,201,122629
20.655,137433,200,122633
20.660,137433,198,122644
20.665,137432,197,122649
20.669,137446,196,122659
20.674,137430,196,122658
20.679,137446,207,122675
20.684,137454,207,122684
20.689,137462,205,122684
20.694,137453,205,122696
20.699,137469,195,122720
20.704,137461,207,122711
20.709,137458,206,122720
20.714,137469,205,122718
20.719,137470,202,122731
20.724,137473,202,122731
20.729,137470,201,122733
20.734,137471,199,122746
20.739,137476,197,122747
20.744,137477,202,122762
20.749,137499,201,122773
20.754,137496,201,122779
20.759,137491,199,122794
20.764,137523,199,122820
20.769,137512,197,122823
20.774,137518,196,122822
20.779,137508,206,122828
20.784,137528,204,122838
20.789,137514,202,122844
20.794,137514,207,122863
20.799,137512,204,122864
20.804,137534,203,122859
20.809,137532,201,122871
20.813,137525,200,122881
20.818,137532,199,122888
20.823,137530,198,122889
20.828,137537,196,122892
20.833,137534,196,122905
20.838,137523,206,122902
20.843,137522,198,122911
20.848,137533,196,122909
20.853,137533,207,122914
20.858,137545,205,122925
20.863,137553,204,122923
20.868,137548,201,122931
20.873,137546,199,122932
20.878,137551,196,122938
20.883,137565,205,122952
20.888,137566,202,122958
20.893,137554,202,122961
20.898,137576,199,122971
20.903,137564,198,122960
20.908,137584,197,122973
20.913,137584,207,122976
20.918,137726,195,122963
20.923,137576,202,122980
20.928,137573,201,122976
20.933,137583,200,122975
20.938,137576,200,122928
20.943,137574,201,122978
20.948,137576,199,122982
20.953,137587,198,122995
20.957,137593,196,122979
20.962,137585,196,122991
20.967,137594,196,122997
20.972,137594,207,122998
20.977,137599,204,123012
20.982,137606,202,122996
20.987,137619,205,123012
20.992,137607,203,122998
20.997,137618,201,123009
21.002,137622,200,123024
21.007,137638,199,123026
21.012,137629,197,123016
21.017,137635,207,123032
21.022,137652,204,123027
21.027,137646,204,123024
21.032,137635,202,123037
21.037,137652,196,123032
21.042,137647,200,123029
21.047,137644,197,123034
21.052,137646,197,123044
21.057,137624,196,123025
21.062,137625,207,123030
21.067,137605,205,123026
21.072,137596,204,123033
21.077,137585,202,123035
21.082,137587,201,123041
21.087,137571,196,123031
21.092,137563,197,123043
21.097,137556,207,123045
21.101,137565,205,123048
21.106,137560,202,123058
21.111,137545,201,123062
21.116,137521,199,123060
21.121,137525,198,123053
21.126,137501,196,123035
21.131,137492,206,123039
21.136,137476,197,123015
21.141,137468,207,123007
21.146,137454,205,122996
21.151,137443,204,122992
21.156,137431,201,122991
21.161,137426,199,122986
21.166,137436,197,122988
21.171,137435,196,122982
21.176,137433,206,122979
21.181,137429,205,122991
21.186,137426,196,122972
21.191,137411,207,122974
21.196,137424,205,122964
21.201,137397,201,122964
21.206,137406,199,122958
21.211,137399,197,122960
21.216,137392,196,122953
21.221,137381,207,122949
21.226,137388,207,122951
21.231,137381,198,122931
21.236,137377,196,122927
21.241,137366,207,122929
21.245,137363,205,122926
21.250,137360,202,122917
21.255,137355,200,122928
21.260,137356,198,122913
21.265,137365,195,122917
21.270,137356,205,122908
21.275,137349,204,122889
21.280,137346,207,122882
21.285,137333,205,122876
21.290,137331,203,122874
21.295,137316,201,122848
21.300,137315,198,122834
21.305,137308,196,122827
21.310,137307,207,122829
21.315,137305,205,122824
21.320,137298,201,122822
21.325,137294,198,122808
21.330,137311,205,122753
21.335,137308,207,122790
21.340,137302,205,122780
21.345,137317,203,122770
21.350,137298,201,122768
21.355,137310,199,122780
21.360,137317,197,122779
21.365,137316,207,122762
21.370,137298,204,122746
21.375,137304,202,122744
21.380,137292,206,122753
21.385,137289,203,122734
21.389,137289,201,122728
21.394,137290,199,122720
21.399,137265,197,122725
21.404,137252,207,122726
21.409,137265,204,122700
21.414,137261,202,122709
21.419,137249,200,122693
21.424,137224,198,122682
21.429,137237,201,122674
21.434,137224,200,122675
21.439,137226,196,122690
21.444,137221,206,122684
21.449,137215,202,122673
21.454,137206,201,122665
21.459,137204,197,122666
21.464,137201,196,122664
21.469,137193,204,122657
21.474,137190,204,122616
21.479,137182,196,122645
21.484,137174,206,122643
21.489,137171,203,122632
21.494,137155,201,122615
21.499,137152,199,122604
21.504,137155,197,122596
21.509,137146,207,122605
21.514,137120,206,122592
21.519,137127,203,122594
21.524,137174,203,122608
21.529,137128,204,122600
21.534,137137,203,122608
21.538,137122,201,122607
21.543,137127,198,122601
21.548,137123,197,122597
21.553,137127,207,122594
21.558,137118,204,122594
21.563,137116,203,122590
21.568,137122,201,122579
21.573,137123,204,122595
21.578,137122,201,122598
21.583,137127,200,122610
21.588,137125,198,122609
21.593,137126,196,122620
21.598,137132,206,122620
21.603,137135,203,122623
21.608,137141,201,122620
21.613,137143,200,122634
21.618,137158,197,122647
21.623,137164,204,122632
21.628,137148,202,122652
21.633,137152,199,122648
21.638,137143,197,122639
21.643,137153,207,122655
21.648,137150,205,122646
21.653,137159,203,122660
21.658,137161,200,122647
21.663,137168,198,122664
21.668,137166,197,122660
21.673,137142,200,122667
21.678,137154,198,122674
21.682,137163,197,122677
21.687,137167,196,122690
21.692,137166,207,122676
21.697,137156,204,122682
21.702,137175,202,122676
21.707,137168,201,122689
21.712,137158,199,122691
21.717,137160,197,122692
21.722,137162,202,122699
21.727,137181,199,122707
21.732,137170,197,122713
21.737,137182,207,122716
21.742,137166,205,122729
21.747,137171,202,122728
21.752,137173,201,122723
21.757,137174,199,122722
21.762,137164,196,122737
21.767,137167,200,122746
21.772,137161,196,122738
21.777,137174,206,122742
21.782,137180,203,122757
21.787,137178,201,122759
21.792,137194,198,122760
21.797,137187,208,122763
21.802,137183,204,122766
21.807,137189,201,122777
21.812,137196,200,122781
21.817,137210,203,122780
21.822,137214,202,122783
21.826,137206,200,122799
21.831,137215,198,122781
21.836,137205,196,122791
21.841,137203,205,122790
21.846,137201,203,122797
21.851,137216,201,122792
21.856,137218,198,122787
21.861,137223,196,122808
21.866,137224,201,122805
21.871,137220,199,122806
21.876,137223,199,122813
21.881,137238,196,122828
21.886,137247,207,122809
21.891,137251,205,122830
21.896,137232,203,122829
21.901,137236,201,122820
21.906,137234,198,122816
21.911,137225,196,122813
21.916,137229,204,122811
21.921,137233,201,122811
21.926,137208,199,122803
21.931,137213,198,122820
21.936,137196,196,122810
21.941,137187,207,122807
21.946,137176,206,122786
21.951,137168,204,122798
21.956,137160,204,122802
21.961,137132,202,122801
21.966,137140,206,122798
21.970,137131,205,122803
21.975,137127,204,122797
21.980,137120,202,122804
21.985,137104,202,122791
21.990,137107,200,122797
21.995,137095,199,122799
22.000,137086,196,122799
22.005,137082,208,122784
22.010,137099,205,122801
22.015,137083,196,122794
22.020,137083,206,122793
22.025,137053,207,122789
22.030,137063,203,122788
22.035,137045,201,122776
22.040,137060,199,122793
22.045,137053,198,122792
22.050,137056,196,122786
22.055,137057,206,122786
22.060,137069,209,122788
22.065,137050,196,122791
22.070,137052,207,122812
22.075,137054,207,122811
22.080,137053,205,122810
22.085,137051,204,122815
22.090,137066,204,122829
22.095,137049,203,122821
22.100,137058,202,122826
22.105,137045,200,122824
22.110,137045,205,122826
22.114,137032,203,122828
22.119,137033,202,122820
22.124,137028,199,122822
22.129,137029,197,122815
22.134,137031,196,122808
22.139,137032,207,122821
22.144,137031,206,122820
22.149,137016,204,122795
22.154,137021,203,122801
22.159,137032,198,122798
22.164,137020,199,122817
22.169,137040,199,122798
22.174,137031,198,122806
22.179,137037,196,122820
22.184,137040,206,122803
22.189,137047,204,122806
22.194,137043,203,122800
22.199,137057,202,122805
22.204,137035,201,122808
22.209,137026,198,122797
22.214,137044,197,122785
22.219,137039,195,122780
22.224,137029,206,122773
22.229,137032,205,122782
22.234,137026,204,122784
22.239,137045,202,122781
22.244,137046,201,122778
22.249,137037,200,122775
22.254,137039,199,122773
22.258,137043,202,122782
22.263,137033,200,122780
22.268,137028,199,122774
22.273,137032,198,122766
22.278,137046,196,122799
22.283,137047,208,122763
22.288,137052,207,122785
22.293,137055,205,122776
22.298,137061,203,122788
22.303,137055,204,122780
22.308,137053,205,122781
22.313,137057,203,122781
22.318,137061,201,122785
22.323,137053,199,122797
22.328,137063,196,122784
22.333,137068,207,122794
22.338,137072,205,122791
22.343,137067,202,122786
22.348,137070,200,122777
22.353,137037,203,122776
22.358,137087,201,122797
22.363,137063,198,122789
22.368,137088,196,122797
22.373,137082,206,122796
22.378,137080,206,122785
22.383,137095,203,122810
22.388,137093,201,122795
22.393,137104,201,122810
22.398,137105,199,122805
22.402,137104,205,122796
22.407,137107,207,122813
22.412,137116,205,122817
22.417,137117,202,122832
22.422,137104,201,122812
22.427,137111,200,122816
22.432,137120,198,122813
22.437,137118,197,122821
22.442,137125,207,122815
22.447,137122,204,122814
22.452,137131,203,122816
22.457,137147,203,122829
22.462,137145,201,122824
22.467,137141,199,122820
22.472,137148,197,122826
22.477,137154,208,122823
22.482,137164,205,122824
22.487,137154,202,122822
22.492,137157,201,122816
22.497,137147,198,122819
22.502,137164,202,122806
22.507,137162,201,122814
22.512,137165,201,122820
22.517,137167,201,122814
22.522,137185,200,122825
22.527,137185,200,122817
22.532,137187,198,122813
22.537,137194,197,122824
22.542,137203,207,122822
22.546,137195,205,122837
22.551,137220,196,122816
22.556,137203,208,122812
22.561,137214,206,122822
22.566,137214,205,122830
22.571,137230,204,122816
22.576,137226,204,122826
22.581,137223,203,122818
22.586,137231,202,122818
22.591,137225,201,122825
22.596,137232,210,122829
22.601,137233,203,122806
22.606,137249,202,122811
22.611,137244,200,122819
22.616,137248,198,122815
22.621,137250,196,122817
22.626,137246,207,122817
22.631,137253,205,122813
22.636,137238,202,122812
22.641,137245,199,122808
22.646,137239,203,122800
22.651,137207,200,122806
22.656,137209,198,122804
22.661,137202,207,122787
22.666,137184,203,122787
22.671,137175,200,122784
22.676,137159,199,122779
22.681,137157,197,122786
22.686,137150,207,122777
22.691,137142,203,122774
22.695,137125,198,122763
22.700,137123,207,122765
22.705,137120,204,122763
22.710,137124,200,122761
22.715,137104,199,122760
22.720,137105,196,122762
22.725,137111,207,122770
22.730,137105,204,122764
22.735,137110,203,122762
22.740,137094,201,122780
22.745,137093,205,122755
22.750,137076,203,122754
22.755,137083,202,122756
22.760,137071,200,122733
22.765,137066,199,122738
22.770,137061,197,122728
22.775,137059,208,122725
22.780,137053,204,122730
22.785,137031,201,122707
22.790,137029,198,122709
22.795,137037,201,122719
22.800,137028,198,122721
22.805,137023,196,122715
22.810,137029,206,122708
22.815,137028,205,122711
22.820,137015,203,122719
22.825,137017,201,122704
22.830,137016,198,122714
22.835,137010,198,122711
22.839,136997,198,122649
22.844,137003,200,122701
22.849,136998,199,122699
22.854,137005,198,122699
22.859,137006,195,122710
22.864,136987,205,122703
22.869,136989,203,122701
22.874,136987,203,122690
22.879,136982,200,122689
22.884,136991,197,122697
22.889,137018,199,122706
22.894,136995,205,122702
22.899,137000,203,122711
22.904,137019,200,122704
22.909,137007,197,122713
22.914,137000,197,122707
22.919,137018,203,122714
22.924,137015,204,122704
22.929,137004,202,122694
22.934,137001,200,122701
22.939,137000,204,122697
22.944,137007,202,122702
22.949,136990,199,122695
22.954,137008,197,122710
22.959,136992,195,122702
22.964,136998,205,122688
22.969,136994,203,122696
22.974,136992,201,122703
22.979,136978,199,122690
22.983,136983,197,122693
22.988,137004,199,122695
22.993,136979,197,122703
22.998,136992,207,122703
23.003,136989,204,122690
23.008,136989,202,122705
23.013,136996,201,122702
23.018,137009,200,122698
23.023,137020,196,122612
23.028,136987,196,122708
23.033,136996,206,122708
23.038,137010,199,122706
23.043,136999,197,122698
23.048,136999,206,122700
23.053,136989,204,122695
23.058,136998,202,122697
23.063,137009,200,122697
23.068,136986,198,122695
23.073,136994,197,122697
23.078,137006,206,122714
23.083,137016,203,122713
23.088,137008,206,122708
23.093,137011,204,122710
23.098,137025,202,122719
23.103,137004,199,122725
23.108,137025,197,122714
23.113,137044,195,122737
23.118,137044,205,122733
23.123,137041,202,122719
23.127,137043,201,122730
23.132,137048,203,122738
23.137,137040,201,122725
23.142,137031,198,122726
23.147,137023,197,122715
23.152,137037,207,122715
23.157,137043,204,122719
23.162,137041,201,122705
23.167,137049,199,122709
23.172,137050,196,122711
23.177,137031,206,122692
23.182,137042,196,122706
23.187,137033,207,122699
23.192,137037,203,122707
23.197,137043,201,122702
23.202,137039,198,122704
23.207,137048,196,122698
23.212,137053,206,122702
23.217,137044,204,122683
23.222,137050,201,122703
23.227,137059,200,122704
23.232,137052,202,122701
23.237,137057,200,122706
23.242,137056,197,122704
23.247,137066,207,122705
23.252,137075,204,122724
23.257,137071,202,122710
23.262,137079,198,122721
23.267,137092,196,122734
23.271,137094,205,122724
23.276,137084,203,122718
23.281,137081,201,122733
23.286,137088,205,122719
23.291,137091,203,122717
23.296,137097,201,122712
23.301,137097,199,122715
23.306,137110,197,122712
23.311,137109,196,122726
23.316,137125,196,122705
23.321,137122,207,122717
23.326,137124,205,122726
23.331,137112,197,122724
23.336,137116,196,122725
23.341,137121,206,122728
23.346,137127,204,122727
23.351,137135,201,122727
23.356,137115,201,122737
23.361,137103,198,122733
23.366,137089,196,122730
23.371,137101,207,122717
23.376,137098,205,122729
23.381,137073,207,122734
23.386,137065,205,122724
23.391,137051,203,122724
23.396,137038,201,122704
23.401,137028,199,122723
23.406,137021,198,122717
23.411,137023,196,122711
23.415,136999,207,122720
23.420,136998,204,122720
23.425,136986,210,122728
23.430,136993,195,122723
23.435,136970,207,122740
23.440,136969,204,122742
23.445,136963,203,122753
23.450,136959,202,122753
23.455,136951,201,122767
23.460,136958,199,122775
23.465,136957,197,122781
23.470,136957,195,122796
23.475,136956,201,122817
23.480,136955,199,122814
23.485,136947,198,122821
23.490,136953,196,122837
23.495,136941,195,122860
23.500,136963,205,122886
23.505,136968,203,122910
23.510,136964,200,122938
23.515,136981,198,122967
23.520,136989,196,122984
23.525,136983,199,123016
23.530,137007,198,123040
23.535,136998,199,123050
23.540,137002,198,123070
23.545,136999,198,123088
23.550,137002,196,123093
23.555,136995,207,123103
23.559,136985,205,123107
23.564,136991,205,123117
23.569,136995,203,123105
23.574,137024,195,123104
23.579,136978,204,123120
23.584,136990,202,123108
23.589,136978,201,123119
23.594,136969,200,123114
23.599,136966,198,123100
23.604,136968,198,123108
23.609,136975,196,123110
23.614,136971,196,123107
23.619,136979,206,123103
23.624,136967,198,123093
23.629,136974,197,123097
23.634,136958,197,123085
23.639,136942,195,123084
23.644,136958,207,123057
23.649,136943,205,123047
23.654,136929,204,123037
23.659,136915,203,123028
23.664,136926,201,123021
23.669,136929,204,123074
23.674,136909,205,122995
23.679,136904,204,122984
23.684,136904,202,122974
23.689,136893,201,122976
23.694,136889,200,122958
23.699,136902,199,122952
23.704,136880,198,122929
23.708,136883,197,122933
23.713,136869,197,122926
23.718,136837,201,122919
23.723,136864,200,122914
23.728,136879,200,122904
23.733,136867,198,122889
23.738,136859,198,122884
23.743,136853,196,122876
23.748,136853,196,122874
23.753,136863,195,122865
23.758,136853,207,122869
23.763,136865,206,122853
23.768,136852,197,122854
23.773,136843,197,122846
23.778,136867,197,122852
23.783,136849,196,122837
23.788,136851,195,122843
23.793,136849,206,122828
23.798,136851,206,122831
23.803,136857,204,122820
23.808,136845,203,122834
23.813,136846,202,122833
23.818,136844,207,122818
23.823,136869,205,122828
23.828,136866,204,122824
23.833,136861,203,122825
23.838,136868,202,122830
23.843,136874,200,122830
23.848,136881,201,122824
23.852,136879,200,122819
23.857,136882,199,122834
23.862,136879,196,122841
23.867,136882,196,122830
23.872,136876,205,122835
23.877,136886,204,122824
23.882,136877,201,122826
23.887,136884,200,122830
23.892,136887,198,122832
23.897,136896,198,122846
23.902,136887,197,122845
23.907,136898,196,122844
23.912,136904,207,122841
23.917,136901,200,122843
23.922,136899,198,122845
23.927,136911,197,122847
23.932,136910,196,122847
23.937,136929,197,122846
23.942,136927,196,122856
23.947,136940,196,122849
23.952,136925,197,122866
23.957,136928,198,122852
23.962,136943,203,122891
23.967,136935,198,122848
23.972,136945,197,122845
23.977,136941,197,122851
23.982,136937,196,122854
23.987,136949,196,122843
23.992,136934,196,122855
23.996,136945,196,122856
24.001,136931,195,122856
24.006,136941,196,122857
24.011,136953,199,122842
24.016,136946,200,122846
24.021,136961,198,122854
24.026,136950,200,122853
24.031,136968,199,122843
24.036,136967,198,122853
24.041,136956,197,122855
24.046,136963,196,122850
24.051,136975,196,122847
24.056,136968,207,122863
24.061,136983,202,122867
24.066,136973,206,122870
24.071,136987,204,122865
24.076,136986,202,122878
24.081,136999,200,122867
24.086,137001,199,122881
24.091,137000,197,122890
24.096,136999,195,122881
24.101,137004,206,122873
24.106,137009,204,122875
24.111,137015,196,122891
24.116,137013,208,122881
24.121,137021,205,122883
24.126,137040,204,122888
24.131,137036,202,122895
24.136,137025,201,122887
24.140,137031,200,122891
24.145,137040,198,122898
24.150,137042,197,122899
24.155,137049,195,122903
24.160,137046,199,122910
24.165,137056,197,122908
24.170,137031,196,122903
24.175,137034,207,122902
24.180,137035,205,122898
24.185,137017,204,122894
24.190,137003,202,122897
24.195,136978,201,122895
24.200,136989,200,122906
24.205,136975,203,122939
24.210,136961,204,122895
24.215,136946,203,122890
24.220,136941,202,122899
24.225,136930,202,122905
24.230,136914,201,122876
24.235,136911,200,122887
24.240,136898,200,122889
24.245,136907,199,122877
24.250,136874,197,122887
24.255,136851,200,122880
24.260,136875,199,122884
24.265,136868,198,122881
24.270,136868,197,122876
24.275,136862,197,122881
24.280,136857,207,122867
24.284,136850,206,122872
24.289,136837,205,122867
24.294,136827,205,122878
24.299,136835,203,122870
24.304,136831,195,122879
24.309,136826,206,122876
24.314,136815,205,122875
24.319,136801,204,122881
24.324,136804,204,122876
24.329,136804,202,122880
24.334,136809,202,122876
24.339,136797,201,122865
24.344,136800,200,122876
24.349,136777,198,122879
24.354,136768,202,122882
24.359,136767,201,122866
24.364,136769,199,122884
24.369,136751,198,122877
24.374,136751,198,122860
24.379,136754,197,122867
24.384,136748,196,122856
24.389,136744,195,122859
24.394,136742,206,122855
24.399,136733,204,122863
24.404,136730,203,122857
24.409,136749,202,122871
24.414,136721,201,122862
24.419,136739,198,122860
24.424,136736,198,122862
24.428,136743,198,122874
24.433,136753,199,122868
24.438,136742,200,122873
24.443,136758,201,122875
24.448,136757,201,122878
24.453,136761,196,122874
24.458,136760,195,122871
24.463,136747,207,122871
24.468,136738,206,122864
24.473,136740,206,122864
24.478,136748,204,122870
24.483,136748,202,122870
24.488,136749,201,122871
24.493,136759,198,122878
24.498,136765,196,122870
24.503,136754,201,122879
24.508,136772,200,122876
24.513,136743,198,122878
24.518,136749,198,122868
24.523,136751,196,122877
24.528,136750,196,122878
24.533,136758,196,122878
24.538,136733,197,122875
24.543,136756,196,122875
24.548,136760,201,122874
24.553,136745,200,122877
24.558,136741,200,122864
24.563,136749,199,122872
24.568,136757,199,122866
24.572,136764,198,122860
24.577,136755,198,122856
24.582,136752,197,122861
24.587,136755,197,122853
24.592,136760,196,122851
24.597,136763,201,122858
24.602,136756,199,122846
24.607,136768,198,122843
24.612,136766,197,122838
24.617,136763,197,122831
24.622,136760,195,122836
24.627,136763,206,122833
24.632,136768,204,122839
24.637,136786,205,122836
24.642,136786,202,122839
24.647,136780,195,122845
24.652,136782,207,122839
24.657,136785,207,122835
24.662,136782,205,122847
24.667,136793,204,122840
24.672,136791,203,122842
24.677,136799,203,122850
24.682,136817,201,122849
24.687,136801,200,122852
24.692,136807,198,122849
24.697,136814,198,122847
24.702,136815,195,122847
24.707,136816,206,122851
24.712,136825,204,122837
24.717,136828,203,122852
24.721,136825,201,122855
24.726,136844,199,122855
24.731,136831,196,122859
24.736,136843,196,122864
24.741,136847,196,122814
24.746,136838,197,122851
24.751,136854,195,122858
24.756,136848,207,122850
24.761,136846,204,122855
24.766,136858,203,122866
24.771,136863,200,122869
24.776,136847,200,122871
24.781,136865,197,122874
24.786,136872,196,122853
24.791,136849,199,122862
24.796,136889,204,122863
24.801,136865,201,122862
24.806,136883,199,122862
24.811,136880,197,122868
24.816,136894,196,122874
24.821,136882,206,122873
24.826,136890,204,122866
24.831,136890,204,122874
24.836,136905,202,122869
24.841,136905,206,122873
24.846,136923,206,122869
24.851,136906,204,122868
24.856,136923,202,122867
24.861,136920,201,122871
24.865,136913,200,122874
24.870,136925,198,122870
24.875,136916,197,122855
24.880,136928,197,122878
24.885,136933,195,122876
24.890,136937,198,122868
24.895,136952,198,122870
24.900,136939,196,122863
24.905,136941,206,122858
24.910,136950,205,122861
24.915,136950,204,122868
24.920,136963,203,122867
24.925,136958,201,123013
24.930,136956,197,122862
24.935,136964,194,122864
24.940,136978,201,122858
24.945,136974,199,122850
24.950,136979,198,122851
24.955,136977,197,122856
24.960,136980,196,122847
24.965,136996,195,122846
24.970,136993,205,122838
24.975,136992,204,122848
24.980,136992,202,122851
24.985,136999,201,122848
24.990,137016,204,122847
24.995,137005,204,122862
25.000,137011,203,122848
25.005,137018,202,122851
25.009,137035,201,122846
25.014,137014,200,122848
25.019,137016,200,122850
25.024,137038,198,122848
25.029,137023,198,122851
25.034,137035,207,122856
25.039,137064,202,122850
25.044,137045,201,122851
25.049,137069,199,122864
25.054,137054,197,122859
25.059,137061,196,122867
25.064,137059,206,122858
25.069,137058,205,122866
25.074,137064,204,122860
25.079,137075,204,122863
25.084,137061,196,122860
25.089,137037,201,122860
25.094,137035,199,122865
25.099,137026,197,122844
25.104,137017,196,122837
25.109,136999,205,122858
25.114,136997,204,122847
25.119,136984,202,122848
25.124,136976,200,122852
25.129,136963,199,122846
25.134,136961,204,122846
25.139,136941,202,122852
25.144,136943,201,122852
25.149,136949,201,122850
25.153,136942,200,122851
25.158,136931,200,122842
25.163,136922,198,122854
25.168,136922,197,122861
25.173,136921,195,122854
25.178,136901,206,122851
25.183,136913,197,122873
25.188,136917,197,122882
25.193,136906,195,122883
25.198,136895,207,122892
25.203,136903,204,122880
25.208,136900,203,122879
25.213,136896,202,122885
25.218,136886,201,122881
25.223,136878,199,122880
25.228,136876,198,122885
25.233,136879,202,122887
25.238,136867,201,122885
25.243,136854,198,122894
25.248,136846,196,122886
25.253,136844,207,122893
25.258,136847,204,122891
25.263,136824,202,122877
25.268,136831,200,122876
25.273,136829,197,122889
25.278,136829,197,122881
25.283,136823,198,122874
25.288,136810,196,122868
25.293,136804,207,122872
25.297,136802,206,122871
25.302,136804,203,122865
25.307,136796,202,122875
25.312,136814,199,122871
25.317,136801,198,122863
25.322,136784,195,122855
25.327,136849,197,122856
25.332,136799,197,122860
25.337,136807,207,122876
25.342,136792,204,122859
25.347,136816,203,122880
25.352,136816,201,122875
25.357,136818,199,122887
25.362,136811,198,122890
25.367,136809,196,122883
25.372,136816,206,122887
25.377,136819,199,122878
25.382,136801,197,122872
25.387,136813,196,122880
25.392,136818,207,122881
25.397,136792,205,122880
25.402,136801,203,122881
25.407,136805,202,122887
25.412,136800,200,122884
25.417,136811,200,122900
25.422,136797,197,122902
25.427,136805,201,122898
25.432,136797,199,122905
25.437,136801,198,122894
25.441,136800,196,122915
25.446,136810,196,122893
25.451,136809,196,122912
25.456,136798,196,122910
25.461,136802,206,122919
25.466,136803,204,122916
25.471,136798,204,122913
25.476,136802,207,122915
25.481,136798,205,122918
25.486,136800,204,122925
25.491,136792,202,122916
25.496,136802,202,122926
25.501,136797,201,122923
25.506,136815,201,122920
25.511,136811,200,122926
25.516,136812,199,122936
25.521,136813,198,122923
25.526,136824,201,122944
25.531,136813,200,122950
25.536,136818,199,122962
25.541,136829,196,122972
25.546,136825,195,122982
25.551,136823,207,122987
25.556,136824,207,122998
25.561,136818,206,123002
25.566,136831,204,123019
25.571,136837,203,123024
25.576,136823,207,123035
25.581,136841,205,123040
25.585,136847,204,123063
25.590,136842,202,123063
25.595,136841,201,123068
25.600,136842,200,123065
25.605,136833,198,123089
25.610,136848,197,123097
25.615,136843,207,123107
25.620,136882,200,123109
25.625,136849,199,123108
25.630,136841,198,123125
25.635,136861,197,123130
25.640,136847,196,123131
25.645,136833,195,123148
25.650,136837,206,123142
25.655,136839,204,123150
25.660,136844,204,123163
25.665,136844,203,123171
25.670,136846,197,123160
25.675,136847,197,123174
25.680,136842,196,123187
25.685,136850,195,123180
25.690,136852,206,123194
25.695,136866,204,123211
25.700,136851,203,123209
25.705,136866,202,123226
25.710,136860,200,123239
25.715,136859,199,123272
25.720,136857,202,123252
25.725,136864,201,123263
25.729,136857,199,123271
25.734,136874,198,123280
25.739,136877,198,123293
25.744,136888,197,123310
25.749,136882,196,123318
25.754,136897,207,123333
25.759,136876,205,123338
25.764,136886,203,123341
25.769,136897,198,123360
25.774,136892,196,123372
25.779,136900,196,123368
25.784,136899,194,123392
25.789,136907,206,123394
25.794,136914,205,123421
25.799,136911,203,123429
25.804,136906,202,123437
25.809,136923,200,123441
25.814,136933,201,123411
25.819,136933,206,123455
25.824,136931,205,123464
25.829,136936,203,123473
25.834,136941,202,123468
25.839,136930,202,123480
25.844,136930,201,123487
25.849,136939,200,123499
25.854,136935,199,123492
25.859,136940,197,123499
25.864,136968,199,123513
25.869,136953,206,123504
25.874,136944,204,123510
25.878,136951,203,123510
25.883,136968,201,123509
25.888,136960,200,123504
25.893,136962,198,123523
25.898,136961,198,123503
25.903,136964,196,123520
25.908,136973,195,123520
25.913,136962,198,123531
25.918,136975,199,123562
25.923,136984,197,123530
25.928,136980,196,123533
25.933,136984,195,123544
25.938,136982,196,123539
25.943,136984,205,123538
25.948,136985,203,123545
25.953,136986,200,123551
25.958,136996,200,123544
25.963,137005,203,123541
25.968,137003,201,123545
25.973,136996,199,123548
25.978,136994,197,123545
25.983,136997,196,123548
25.988,137002,206,123535
25.993,137011,204,123546
25.998,137012,202,123551
26.003,137019,200,123548
26.008,137019,202,123547
26.013,137019,201,123556
26.018,137038,200,123553
26.022,137024,197,123549
26.027,137028,198,123556
26.032,137031,195,123562
26.037,137028,206,123562
26.042,137026,204,123568
26.047,137015,202,123543
26.052,136993,201,123537
26.057,136999,200,123554
26.062,136982,203,123542
26.067,136979,203,123540
26.072,136972,201,123546
26.077,136951,201,123537
26.082,136941,199,123533
26.087,136948,199,123534
26.092,136931,196,123547
26.097,136929,207,123552
26.102,136920,204,123532
26.107,136901,204,123533
26.112,136906,207,123537
26.117,136901,206,123532
26.122,136891,206,123531
26.127,136870,206,123537
26.132,136876,205,123518
26.137,136861,205,123521
26.142,136848,205,123520
26.147,136857,204,123515
26.152,136845,203,123517
26.157,136839,197,123516
26.162,136847,197,123513
26.166,136841,197,123521
26.171,136839,196,123520
26.176,136829,196,123515
26.181,136828,196,123520
26.186,136820,195,123518
26.191,136818,207,123523
26.196,136812,206,123510
26.201,136814,206,123513
26.206,136818,200,123521
26.211,136806,203,123516
26.216,136799,201,123515
26.221,136801,201,123499
26.226,136792,200,123512
26.231,136806,200,123519
26.236,136785,199,123505
26.241,136784,198,123508
26.246,136782,197,123523
26.251,136769,197,123535
26.256,136768,206,123512
26.261,136762,206,123519
26.266,136763,204,123516
26.271,136758,202,123511
26.276,136750,202,123512
26.281,136760,202,123521
26.286,136763,200,123521
26.291,136768,199,123505
26.296,136760,199,123523
26.301,136765,198,123518
26.306,136770,203,123540
26.310,136766,201,123547
26.315,136780,200,123528
26.320,136779,198,123541
26.325,136782,196,123537
26.330,136784,207,123538
26.335,136778,204,123534
26.340,136779,202,123524
26.345,136783,200,123532
26.350,136773,200,123517
26.355,136774,201,123526
26.360,136764,199,123526
26.365,136778,199,123525
26.370,136763,198,123532
26.375,136766,198,123531
26.380,136781,197,123534
26.385,136757,195,123515
26.390,136763,206,123515
26.395,136756,206,123522
26.400,136793,195,123524
26.405,136760,197,123531
26.410,136760,198,123517
26.415,136766,198,123539
26.420,136753,197,123528
26.425,136760,197,123535
26.430,136768,198,123525
26.435,136759,197,123538
26.440,136764,197,123531
26.445,136769,196,123536
26.450,136760,200,123526
26.454,136769,200,123545
26.459,136775,201,123533
26.464,136768,201,123530
26.469,136766,200,123535
26.474,136775,199,123544
26.479,136760,198,123529
26.484,136777,197,123550
26.489,136788,196,123549
26.494,136779,206,123545
26.499,136798,203,123553
26.504,136787,205,123546
26.509,136791,204,123553
26.514,136801,203,123560
26.519,136801,203,123572
26.524,136802,202,123573
26.529,136816,203,123589
26.534,136803,203,123597
26.539,136833,203,123596
26.544,136842,203,123606
26.549,136839,197,123617
26.554,136838,197,123627
26.559,136836,198,123625
26.564,136853,196,123621
26.569,136864,198,123635
26.574,136855,198,123615
26.579,136871,198,123629
26.584,136853,197,123637
26.589,136863,198,123635
26.594,136880,196,123641
26.598,136873,202,123652
26.603,136864,201,123651
26.608,136871,200,123655
26.613,136876,199,123654
26.618,136884,198,123652
26.623,136888,197,123660
26.628,136886,196,123660
26.633,136901,195,123661
26.638,136907,196,123661
26.643,136904,203,123655
26.648,136907,199,123661
26.653,136912,198,123655
26.658,136898,198,123666
26.663,136913,198,123652
26.668,136919,198,123646
26.673,136919,197,123655
26.678,136913,199,123660
26.683,136916,198,123656
26.688,136927,199,123673
26.693,136931,204,123661
26.698,136930,204,123659
26.703,136923,202,123668
26.708,136925,202,123665
26.713,136928,200,123662
26.718,136936,201,123660
26.723,136939,201,123681
26.728,136936,201,123684
26.733,136936,201,123658
26.738,136954,202,123674
26.742,136953,206,123672
26.747,136947,195,123668
26.752,136959,195,123676
26.757,136946,197,123669
26.762,136955,195,123672
26.767,136956,195,123670
26.772,136963,195,123661
26.777,136970,207,123668
26.782,136961,206,123663
26.787,136971,206,123639
26.792,136952,198,123669
26.797,136979,198,123660
26.802,136967,197,123667
26.807,136981,197,123665
26.812,136962,195,123673
26.817,136971,196,123662
26.822,136985,196,123655
26.827,136989,196,123655
26.832,136978,195,123662
26.837,136980,196,123647
26.842,136977,206,123651
26.847,136986,206,123651
26.852,136994,205,123655
26.857,136996,205,123657
26.862,136977,205,123659
26.867,136990,204,123663
26.872,137003,204,123650
26.877,136998,204,123666
26.882,136993,202,123654
26.887,136998,206,123728
26.891,136998,201,123668
26.896,137013,202,123668
26.901,137005,203,123673
26.906,137015,204,123673
26.911,137025,204,123682
26.916,137017,204,123681
26.921,137029,202,123665
26.926,137022,204,123683
26.931,137018,205,123682
26.936,137040,197,123686
26.941,137033,203,123693
26.946,137042,202,123697
26.951,137038,201,123704
26.956,137045,199,123695
26.961,137043,199,123712
26.966,137037,198,123711
26.971,137048,198,123716
26.976,137060,198,123716
26.981,137053,196,123723
26.986,137058,201,123728
26.991,137046,201,123733
26.996,137052,200,123732
27.001,137045,199,123731
27.006,137032,197,123742
27.011,137024,197,123729
27.016,137023,196,123712
27.021,137010,195,123727
27.026,136991,196,123727
27.031,136986,205,123718
27.035,136998,198,123722
27.040,136976,196,123727
27.045,136974,206,123732
27.050,136967,204,123732
27.055,136965,203,123731
27.060,136966,201,123737
27.065,136946,199,123728
27.070,136935,198,123733
27.075,136947,196,123736
27.080,136934,197,123732
27.085,136943,200,123751
27.090,136922,199,123739
27.095,136929,198,123748
27.100,136927,197,123731
27.105,136912,196,123734
27.110,136921,195,123733
27.115,136894,206,123740
27.120,136903,205,123727
27.125,136902,204,123737
27.130,136889,203,123733
27.135,136884,206,123734
27.140,136880,204,123749
27.145,136883,202,123746
27.150,136889,201,123740
27.155,136866,200,123739
27.160,136865,198,123746
27.165,136863,197,123739
27.170,136871,196,123745
27.175,136865,205,123750
27.179,136859,192,123750
27.184,136852,195,123744
27.189,136849,195,123741
27.194,136839,206,123728
27.199,136829,205,123739
27.204,136829,202,123729
27.209,136826,201,123733
27.214,136828,199,123739
27.219,136830,198,123733
27.224,136828,196,123745
27.229,136826,200,123745
27.234,136827,200,123738
27.239,136823,200,123731
27.244,136836,199,123738
27.249,136834,199,123745
27.254,136836,198,123754
27.259,136842,198,123743
27.264,136849,198,123752
27.269,136846,198,123763
27.274,136841,197,123749
27.279,136840,202,123750
27.284,136836,200,123754
27.289,136823,201,123732
27.294,136822,200,123737
27.299,136835,200,123741
27.304,136818,200,123733
27.309,136827,198,123742
27.314,136829,197,123739
27.319,136811,197,123742
27.323,136817,196,123747
27.328,136828,206,123743
27.333,136828,205,123740
27.338,136822,204,123745
27.343,136826,202,123754
27.348,136826,202,123735
27.353,136822,201,123758
27.358,136832,201,123745
27.363,136839,200,123753
27.368,136830,200,123752
27.373,136828,199,123749
27.378,136825,203,123751
27.383,136824,202,123752
27.388,136817,200,123757
27.393,136823,199,123758
27.398,136828,198,123749
27.403,136828,197,123739
27.408,136817,196,123763
27.413,136825,195,123743
27.418,136833,195,123743
27.423,136822,197,123692
27.428,136836,198,123746
27.433,136811,196,123746
27.438,136838,197,123755
27.443,136831,195,123751
27.448,136830,206,123753
27.453,136831,204,123753
27.458,136839,203,123739
27.463,136852,202,123754
27.467,136846,201,123765
27.472,136852,204,123735
27.477,136859,197,123761
27.482,136848,195,123756
27.487,136861,195,123753
27.492,136853,195,123762
27.497,136860,196,123747
27.502,136860,195,123765
27.507,136863,195,123764
27.512,136867,207,123768
27.517,136865,205,123753
27.522,136871,197,123766
27.527,136862,195,123751
27.532,136872,207,123757
27.537,136883,206,123746
27.542,136875,205,123762
27.547,136875,204,123746
27.552,136875,202,123752
27.557,136876,201,123748
27.562,136870,201,123744
27.567,136892,200,123762
27.572,136896,196,123759
27.577,136879,199,123756
27.582,136881,198,123753
27.587,136894,197,123762
27.592,136901,196,123752
27.597,136893,195,123758
27.602,136896,195,123758
27.607,136891,206,123763
27.611,136919,205,123757
27.616,136911,204,123755
27.621,136900,202,123756
27.626,136909,202,123745
27.631,136902,203,123759
27.636,136924,204,123761
27.641,136918,204,123743
27.646,136909,204,123749
27.651,136920,203,123760
27.656,136924,202,123760
27.661,136918,201,123752
27.666,136913,201,123770
27.671,136940,198,123768
27.676,136935,197,123772
27.681,136944,196,123762
27.686,136941,195,123766
27.691,136937,206,123766
27.696,136950,206,123758
27.701,136944,205,123775
27.706,136934,204,123773
27.711,136958,203,123766
27.716,136949,202,123765
27.721,136951,206,123768
27.726,136951,205,123771
27.731,136957,204,123773
27.736,136956,203,123771
27.741,136954,202,123774
27.746,136959,201,123790
27.751,136962,200,123789
27.755,136961,199,123778
27.760,136973,198,123781
27.765,136983,207,123789
27.770,136974,196,123776
27.775,137000,207,123788
27.780,136990,205,123787
27.785,136978,203,123777
27.790,136991,202,123791
27.795,136992,201,123783
27.800,136990,199,123792
27.805,137010,198,123790
27.810,137002,197,123798
27.815,137006,200,123789
27.820,137005,199,123794
27.825,137005,197,123798
27.830,137012,197,123800
27.835,137020,195,123807
27.840,137016,207,123804
27.845,137040,206,123812
27.850,137031,204,123797
27.855,137033,202,123812
27.860,137042,200,123818
27.865,137044,204,123809
27.870,137039,203,123809
27.875,137048,200,123809
27.880,137039,199,123809
27.885,137044,198,123807
27.890,137051,197,123821
27.895,137057,195,123809
27.900,137044,206,123820
27.904,137046,204,123805
27.909,137047,202,123812
27.914,137045,195,123810
27.919,137039,203,123816
27.924,137032,202,123811
27.929,137012,201,123798
27.934,137006,199,123804
27.939,136997,198,123793
27.944,136986,197,123786
27.949,136982,196,123801
27.954,136973,195,123808
27.959,136971,197,123738
27.964,136951,196,123799
27.969,136938,196,123799
27.974,136936,195,123796
27.979,136943,207,123792
27.984,136926,205,123783
27.989,136925,203,123797
27.994,136907,201,123777
27.999,136917,201,123781
28.004,136904,199,123785
28.009,136900,202,123785
28.014,136905,196,123785
28.019,136893,195,123777
28.024,136895,205,123782
28.029,136877,204,123761
28.034,136876,203,123761
28.039,136869,201,123756
28.044,136868,199,123758
28.048,136863,198,123766
28.053,136863,197,123762
28.058,136861,203,123768
28.063,136855,195,123753
28.068,136846,195,123769
28.073,136844,206,123757
28.078,136837,204,123758
28.083,136827,201,123759
28.088,136822,200,123757
28.093,136813,198,123744
28.098,136810,196,123748
28.103,136822,194,123747
28.108,136790,198,123741
28.113,136790,196,123742
28.118,136799,196,123750
28.123,136796,195,123734
28.128,136788,206,123751
28.133,136796,204,123740
28.138,136794,203,123749
28.143,136787,200,123745
28.148,136789,199,123734
28.153,136782,196,123740
28.158,136791,201,123740
28.163,136797,199,123748
28.168,136798,198,123758
28.173,136796,196,123762
28.178,136804,207,123755
28.183,136792,205,123764
28.188,136795,202,123746
28.192,136804,200,123761
28.197,136805,198,123757
28.202,136796,196,123754
28.207,136776,199,123749
28.212,136786,198,123752
28.217,136783,196,123751
28.222,136782,206,123755
28.227,136781,204,123743
28.232,136764,202,123743
28.237,136775,201,123751
28.242,136776,199,123749
28.247,136777,197,123749
28.252,136781,202,123737
28.257,136769,198,123761
28.262,136769,196,123726
28.267,136768,206,123758
28.272,136762,203,123741
28.277,136765,201,123741
28.282,136762,200,123748
28.287,136775,199,123737
28.292,136765,198,123730
28.297,136762,197,123747
28.302,136764,200,123739
28.307,136759,199,123737
28.312,136772,198,123738
28.317,136781,197,123747
28.322,136763,196,123733
28.327,136773,205,123727
28.332,136774,203,123744
28.336,136786,202,123738
28.341,136772,200,123744
28.346,136775,198,123734
28.351,136788,205,123733
28.356,136765,195,123726
28.361,136771,205,123729
28.366,136770,203,123737
28.371,136768,201,123732
28.376,136787,199,123738
28.381,136785,198,123719
28.386,136783,196,123733
28.391,136767,207,123733
28.396,136783,204,123738
28.401,136778,197,123726
28.406,136794,195,123734
28.411,136790,206,123726
28.416,136783,205,123725
28.421,136788,204,123727
28.426,136798,202,123727
28.431,136797,201,123735
28.436,136793,200,123738
28.441,136795,199,123727
28.446,136805,198,123733
28.451,136805,198,123734
28.456,136808,198,123740
28.461,136804,198,123732
28.466,136822,196,123728
28.471,136813,195,123734
28.476,136818,207,123729
28.480,136824,205,123733
28.485,136821,204,123731
28.490,136829,203,123728
28.495,136836,205,123798
28.500,136830,196,123737
28.505,136812,195,123735
28.510,136827,206,123735
28.515,136846,204,123735
28.520,136831,204,123729
28.525,136830,203,123727
28.530,136843,201,123745
28.535,136855,201,123744
28.540,136847,202,123733
28.545,136801,205,123737
28.550,136839,205,123734
28.555,136848,205,123733
28.560,136834,204,123722
28.565,136848,204,123734
28.570,136856,204,123736
28.575,136856,202,123740
28.580,136855,200,123730
28.585,136849,197,123731
28.590,136868,197,123727
28.595,136864,200,123725
28.600,136846,200,123731
28.605,136855,197,123737
28.610,136874,198,123734
28.615,136876,198,123727
28.620,136864,198,123732
28.624,136887,198,123734
28.629,136868,197,123731
28.634,136874,195,123715
28.639,136884,207,123729
28.644,136885,198,123730
28.649,136895,198,123737
28.654,136881,197,123732
28.659,136893,196,123724
28.664,136900,196,123726
28.669,136899,196,123743
28.674,136901,206,123736
28.679,136901,206,123741
28.684,136920,204,123743
28.689,136892,202,123730
28.694,136923,201,123737
28.699,136913,203,123742
28.704,136920,201,123742
28.709,136917,200,123733
28.714,136926,199,123754
28.719,136921,197,123746
28.724,136922,196,123742
28.729,136931,195,123742
28.734,136920,206,123742
28.739,136934,204,123739
28.744,136941,195,123751
28.749,136950,207,123750
28.754,136943,204,123750
28.759,136948,203,123743
28.764,136941,201,123741
28.768,136956,200,123745
28.773,136947,198,123745
28.778,136957,197,123746
28.783,136950,195,123743
28.788,136946,203,123748
28.793,136947,196,123735
28.798,136934,195,123746
28.803,136940,204,123743
28.808,136920,203,123736
28.813,136910,201,123740
28.818,136918,200,123738
28.823,136904,197,123728
28.828,136895,196,123717
28.833,136891,206,123724
28.838,136870,198,123725
28.843,136865,196,123737
28.848,136848,207,123731
28.853,136853,203,123715
28.858,136847,201,123718
28.863,136818,198,123718
28.868,136821,197,123717
28.873,136815,195,123708
28.878,136801,207,123695
28.883,136791,206,123702
28.888,136776,198,123708
28.893,136776,197,123689
28.898,136776,195,123697
28.903,136775,207,123701
28.908,136761,204,123698
28.913,136761,202,123690
28.917,136759,200,123679
28.922,136741,196,123675
28.927,136734,195,123680
28.932,136730,206,123688
28.937,136729,201,123669
28.942,136722,199,123676
28.947,136715,196,123678
28.952,136721,196,123687
28.957,136693,195,123656
28.962,136689,205,123668
28.967,136692,204,123658
28.972,136685,202,123659
28.977,136680,201,123647
28.982,136653,199,123649
28.987,136660,204,123649
28.992,136674,204,123635
28.997,136651,203,123642
29.002,136642,201,123646
29.007,136647,200,123633
29.012,136640,199,123642
29.017,136631,198,123636
29.022,136631,199,123633
29.027,136622,200,123632
29.032,136622,199,123612
29.037,136623,202,123633
29.042,136623,202,123628
29.047,136628,202,123637
29.052,136619,201,123640
29.057,136636,201,123635
29.061,136649,200,123637
29.066,136636,200,123646
29.071,136637,198,123650
29.076,136642,198,123651
29.081,136672,200,123639
29.086,136614,200,123632
29.091,136623,199,123635
29.096,136611,198,123630
29.101,136614,196,123612
29.106,136608,195,123613
29.111,136620,207,123629
29.116,136622,205,123611
29.121,136614,204,123614
29.126,136614,201,123621
29.131,136618,195,123632
29.136,136608,199,123617
