df_hash,22ZHK4.ZXX6DZ
device,HZ2X61
project_hash,29R7
project_name,istanbul_aydin_university
person_hash,29R7.JBFB
person_label,V65
date_time_start,2025-10-31_16-53-13.121000_+03
date_time_start_unix,1761915193.121
date_time_end,2025-10-31_17-01-29.357000_+03
length_difference_noticed,no

time,ppg_med
5.486,394
5.511,452
5.536,546
5.561,596
5.586,576
5.611,556
5.636,610
5.661,708
5.686,746
5.711,685
5.736,620
5.761,654
5.786,746
5.811,751
5.836,621
5.861,482
5.886,475
5.911,543
5.936,493
5.961,261
5.986,17
6.011,-51
6.036,-20
6.061,-143
6.086,-505
6.111,-877
6.136,-1018
6.161,-1024
6.186,-1225
6.211,-1729
6.236,-2239
6.261,-2441
6.286,-2461
6.311,-2720
6.336,-3355
6.361,-3983
6.386,-4207
6.411,-4183
6.436,-4449
6.461,-5172
6.486,-5870
6.511,-6040
6.536,-5880
6.561,-6065
6.586,-6804
6.611,-7492
6.636,-7498
6.661,-7073
6.686,-7060
6.711,-7720
6.736,-8296
6.761,-8005
6.786,-7159
6.811,-6810
6.836,-7288
6.861,-7648
6.886,-6914
6.911,-5477
6.936,-4655
6.961,-4863
6.986,-4924
7.011,-3609
7.036,-1411
7.061,5
7.086,105
7.111,376
7.136,2384
7.161,5509
7.186,7608
7.211,7968
7.236,8511
7.261,11297
7.286,15529
7.311,18355
7.336,18780
7.361,19379
7.386,23016
7.411,28646
7.436,32229
7.461,32218
7.486,32327
7.511,32767
7.536,32767
7.561,32767
7.586,32767
7.611,32767
7.636,32767
7.661,32767
7.686,32767
7.711,32767
7.736,10427
7.761,-32768
7.786,-32768
7.811,-32768
7.836,-32768
7.861,-32768
7.886,-32768
7.911,-32768
7.936,-32768
7.961,-32768
7.986,-32768
8.011,-31848
8.036,-32432
8.061,-30381
8.086,-25060
8.111,-20205
8.136,-18541
8.161,-18464
8.186,-16685
8.211,-12685
8.236,-9041
8.261,-7725
8.286,-7609
8.311,-6277
8.336,-3317
8.361,-653
8.386,210
8.411,119
8.436,937
8.461,3001
8.486,4825
8.511,5228
8.536,4870
8.561,5219
8.586,6548
8.611,7683
8.636,7687
8.661,7083
8.686,7043
8.711,7792
8.736,8397
8.761,8108
8.786,7344
8.811,7044
8.836,7383
8.861,7614
8.886,7140
8.911,6306
8.936,5876
8.961,5996
8.986,6061
9.011,5580
9.036,4814
9.061,4363
9.086,4349
9.111,4297
9.136,3826
9.161,3145
9.186,2727
9.211,2662
9.236,2578
9.261,2179
9.286,1633
9.311,1310
9.336,1275
9.361,1230
9.386,942
9.411,539
9.436,306
9.461,293
9.486,274
9.511,75
9.536,-203
9.561,-346
9.586,-320
9.611,-298
9.636,-412
9.661,-586
9.686,-659
9.711,-606
9.736,-555
9.761,-604
9.786,-695
9.811,-711
9.836,-638
9.861,-573
9.886,-582
9.911,-611
9.936,-568
9.961,-444
9.986,-324
10.011,-272
10.036,-258
10.061,-209
10.086,-107
10.111,-8
10.136,37
10.161,46
10.186,74
10.211,138
10.236,202
10.261,231
10.286,237
10.311,247
10.336,242
10.361,235
10.386,228
10.411,219
10.436,209
10.461,196
10.486,183
10.511,170
10.536,158
10.561,145
10.586,129
10.611,113
10.636,97
10.661,84
10.686,71
10.711,54
10.736,33
10.761,13
10.786,6
10.811,18
10.836,47
10.861,85
10.886,119
10.911,145
10.936,166
10.961,187
10.986,209
11.011,226
11.036,233
11.061,230
11.086,223
11.111,218
11.136,217
11.161,217
11.186,215
11.211,209
11.236,200
11.261,191
11.286,182
11.311,173
11.336,162
11.361,149
11.386,135
11.411,119
11.436,102
11.461,82
11.486,59
11.511,37
11.536,25
11.561,30
11.586,53
11.611,84
11.636,114
11.661,136
11.686,155
11.711,176
11.736,202
11.761,228
11.786,244
11.811,250
11.836,250
11.861,249
11.886,248
11.911,245
11.936,235
11.961,219
11.986,200
12.011,184
12.036,170
12.061,156
12.086,143
12.111,127
12.136,108
12.161,84
12.186,60
12.211,44
12.236,45
12.261,63
12.286,93
12.311,121
12.336,142
12.361,158
12.386,174
12.411,193
12.436,208
12.461,213
12.486,207
12.511,196
12.536,186
12.561,181
12.586,177
12.611,168
12.636,156
12.661,143
12.686,129
12.711,116
12.736,101
12.761,87
12.786,74
12.811,60
12.836,41
12.861,17
12.886,-4
12.911,-11
12.936,0
12.961,29
12.986,64
13.011,97
13.036,126
13.061,153
13.086,183
13.111,214
13.136,243
13.161,264
13.186,277
13.211,281
13.236,277
13.261,269
13.286,260
13.311,256
13.336,257
13.361,259
13.386,256
13.411,246
13.436,233
13.461,222
13.486,216
13.511,212
13.536,208
13.561,201
13.586,192
13.611,181
13.636,169
13.661,154
13.686,139
13.711,123
13.736,107
13.761,89
13.786,71
13.811,55
13.836,42
13.861,30
13.886,15
13.911,-5
13.936,-25
13.961,-31
13.986,-14
14.011,23
14.036,67
14.061,104
14.086,131
14.111,154
14.136,183
14.161,216
14.186,243
14.211,259
14.236,263
14.261,265
14.286,268
14.311,273
14.336,271
14.361,262
14.386,246
14.411,231
14.436,220
14.461,211
14.486,202
14.511,190
14.536,179
14.561,172
14.586,169
14.611,168
14.636,164
14.661,155
14.686,141
14.711,127
14.736,115
14.761,104
14.786,90
14.811,73
14.836,55
14.861,37
14.886,18
14.911,-1
14.936,-20
14.961,-31
14.986,-23
15.011,4
15.036,43
15.061,82
15.086,111
15.111,135
15.136,160
15.161,189
15.186,217
15.211,238
15.236,250
15.261,254
15.286,256
15.311,257
15.336,257
15.361,255
15.386,253
15.411,250
15.436,245
15.461,236
15.486,223
15.511,209
15.536,198
15.561,191
15.586,187
15.611,185
15.636,183
15.661,180
15.686,173
15.711,162
15.736,150
15.761,138
15.786,128
15.811,115
15.836,99
15.861,81
15.886,66
15.911,53
15.936,35
15.961,9
15.986,-20
16.011,-38
16.036,-31
16.061,2
16.086,48
16.111,88
16.136,116
16.161,139
16.186,167
16.211,200
16.236,230
16.261,248
16.286,253
16.311,250
16.336,248
16.361,251
16.386,258
16.411,267
16.436,273
16.461,274
16.486,267
16.511,256
16.536,243
16.561,233
16.586,223
16.611,212
16.636,199
16.661,186
16.686,173
16.711,160
16.736,145
16.761,127
16.786,107
16.811,89
16.836,72
16.861,56
16.886,39
16.911,20
16.936,1
16.961,-19
16.986,-36
17.011,-43
17.036,-32
17.061,-2
17.086,39
17.111,80
17.136,112
17.161,138
17.186,167
17.211,201
17.236,235
17.261,258
17.286,267
17.311,267
17.336,267
17.361,271
17.386,278
17.411,282
17.436,282
17.461,279
17.486,275
17.511,267
17.536,257
17.561,244
17.586,229
17.611,215
17.636,201
17.661,184
17.686,165
17.711,145
17.736,128
17.761,112
17.786,95
17.811,77
17.836,58
17.861,41
17.886,26
17.911,8
17.936,-14
17.961,-41
17.986,-60
18.011,-58
18.036,-31
18.061,14
18.086,63
18.111,103
18.136,132
18.161,161
18.186,194
18.211,230
18.236,258
18.261,270
18.286,269
18.311,264
18.336,265
18.361,269
18.386,273
18.411,273
18.436,270
18.461,266
18.486,258
18.511,246
18.536,228
18.561,211
18.586,199
18.611,192
18.636,183
18.661,167
18.686,144
18.711,120
18.736,101
18.761,88
18.786,74
18.811,59
18.836,44
18.861,32
18.886,20
18.911,0
18.936,-28
18.961,-54
18.986,-60
19.011,-34
19.036,14
19.061,67
19.086,108
19.111,135
19.136,159
19.161,190
19.186,224
19.211,252
19.236,266
19.261,268
19.286,268
19.311,270
19.336,275
19.361,279
19.386,280
19.411,280
19.436,279
19.461,274
19.486,263
19.511,247
19.536,229
19.561,213
19.586,200
19.611,187
19.636,171
19.661,153
19.686,135
19.711,120
19.736,106
19.761,90
19.786,74
19.811,58
19.836,46
19.861,34
19.886,18
19.911,-1
19.936,-19
19.961,-21
19.986,1
20.011,45
20.036,96
20.061,139
20.086,166
20.111,183
20.136,198
20.161,217
20.186,234
20.211,241
20.236,238
20.261,233
20.286,232
20.311,238
20.336,244
20.361,243
20.386,237
20.411,229
20.436,224
20.461,218
20.486,208
20.511,190
20.536,169
20.561,152
20.586,141
20.611,134
20.636,127
20.661,117
20.686,104
20.711,88
20.736,72
20.761,58
20.786,47
20.811,35
20.836,19
20.861,-3
20.886,-25
20.911,-31
20.936,-11
20.961,30
20.986,80
21.011,122
21.036,153
21.061,177
21.086,205
21.111,233
21.136,255
21.161,264
21.186,263
21.211,261
21.236,264
21.261,269
21.286,271
21.311,268
21.336,261
21.361,254
21.386,248
21.411,238
21.436,225
21.461,210
21.486,196
21.511,183
21.536,170
21.561,156
21.586,140
21.611,125
21.636,112
21.661,100
21.686,86
21.711,71
21.736,57
21.761,41
21.786,21
21.811,-2
21.836,-23
21.861,-28
21.886,-7
21.911,34
21.936,82
21.961,121
21.986,149
22.011,171
22.036,196
22.061,223
22.086,245
22.111,256
22.136,257
22.161,256
22.186,257
22.211,256
22.236,250
22.261,239
22.286,230
22.311,225
22.336,222
22.361,214
22.386,199
22.411,184
22.436,174
22.461,167
22.486,157
22.511,141
22.536,122
22.561,105
22.586,94
22.611,85
22.636,73
22.661,58
22.686,42
22.711,27
22.736,8
22.761,-10
22.786,-19
22.811,-5
22.836,35
22.861,91
22.886,144
22.911,180
22.936,200
22.961,214
22.986,229
23.011,243
23.036,251
23.061,251
23.086,246
23.111,243
23.136,246
23.161,254
23.186,264
23.211,271
23.236,271
23.261,265
23.286,255
23.311,246
23.336,237
23.361,223
23.386,200
23.411,173
23.436,148
23.461,131
23.486,119
23.511,103
23.536,80
23.561,53
23.586,32
23.611,18
23.636,4
23.661,-17
23.686,-44
23.711,-60
23.736,-52
23.761,-16
23.786,31
23.811,73
23.836,99
23.861,112
23.886,121
23.911,135
23.936,152
23.961,165
23.986,169
24.011,167
24.036,164
24.061,171
24.086,187
24.111,210
24.136,233
24.161,252
24.186,267
24.211,275
24.236,273
24.261,260
24.286,240
24.311,218
24.336,203
24.361,193
24.386,185
24.411,174
24.436,161
24.461,146
24.486,130
24.511,110
24.536,86
24.561,68
24.586,67
24.611,91
24.636,132
24.661,173
24.686,199
24.711,210
24.736,213
24.761,216
24.786,223
24.811,228
24.836,228
24.861,222
24.886,216
24.911,211
24.936,209
24.961,204
24.986,194
25.011,180
25.036,166
25.061,153
25.086,138
25.111,120
25.136,100
25.161,83
25.186,69
25.211,52
25.236,28
25.261,1
25.286,-15
25.311,-10
25.336,19
25.361,61
25.386,99
25.411,125
25.436,144
25.461,166
25.486,190
25.511,210
25.536,219
25.561,216
25.586,210
25.611,207
25.636,209
25.661,212
25.686,212
25.711,208
25.736,200
25.761,187
25.786,172
25.811,157
25.836,147
25.861,141
25.886,136
25.911,126
25.936,109
25.961,84
25.986,59
26.011,42
26.036,42
26.061,65
26.086,106
26.111,152
26.136,183
26.161,187
26.186,168
26.211,143
26.236,127
26.261,125
26.286,133
26.311,147
26.336,163
26.361,184
26.386,207
26.411,226
26.436,234
26.461,232
26.486,225
26.511,216
26.536,205
26.561,190
26.586,171
26.611,151
26.636,134
26.661,119
26.686,105
26.711,92
26.736,78
26.761,61
26.786,37
26.811,10
26.836,-9
26.861,-6
26.886,26
26.911,78
26.936,127
26.961,160
26.986,180
27.011,199
27.036,226
27.061,255
27.086,272
27.111,273
27.136,265
27.161,258
27.186,257
27.211,259
27.236,259
27.261,256
27.286,252
27.311,246
27.336,235
27.361,219
27.386,202
27.411,186
27.436,173
27.461,160
27.486,145
27.511,129
27.536,114
27.561,99
27.586,82
27.611,65
27.636,50
27.661,37
27.686,21
27.711,-1
27.736,-25
27.761,-35
27.786,-18
27.811,22
27.836,68
27.861,101
27.886,119
27.911,135
27.936,159
27.961,191
27.986,217
28.011,227
28.036,223
28.061,219
28.086,220
28.111,227
28.136,232
28.161,232
28.186,229
28.211,223
28.236,215
28.261,204
28.286,192
28.311,184
28.336,183
28.361,184
28.386,182
28.411,173
28.436,158
28.461,141
28.486,125
28.511,110
28.536,96
28.561,80
28.586,67
28.611,57
28.636,48
28.661,35
28.686,18
28.711,3
28.736,2
28.761,23
28.786,65
28.811,113
28.836,152
28.861,177
28.886,193
28.911,212
28.936,234
28.961,254
28.986,262
29.011,259
29.036,252
29.061,250
29.086,256
29.111,265
29.136,269
29.161,267
29.186,257
29.211,242
29.236,222
29.261,200
29.286,178
29.311,160
29.336,147
29.361,136
29.386,124
29.411,112
29.436,102
29.461,94
29.486,86
29.511,77
29.536,68
29.561,61
29.586,55
29.611,45
29.636,29
29.661,10
29.686,3
29.711,16
29.736,48
29.761,85
29.786,116
29.811,138
29.836,157
29.861,180
29.886,205
29.911,223
29.936,230
29.961,230
29.986,229
30.011,232
30.036,237
30.061,240
30.086,240
30.111,238
30.136,236
30.161,230
30.186,219
30.211,205
30.236,193
30.261,185
30.286,178
30.311,168
30.336,154
30.361,140
30.386,128
30.411,118
30.436,106
30.461,91
30.486,75
30.511,61
30.536,44
30.561,24
30.586,3
30.611,-5
30.636,9
30.661,45
30.686,87
30.711,120
30.736,140
30.761,158
30.786,181
30.811,208
30.836,227
30.861,231
30.886,225
30.911,221
30.936,225
30.961,235
30.986,240
31.011,238
31.036,230
31.061,222
31.086,217
31.111,211
31.136,199
31.161,184
31.186,166
31.211,151
31.236,139
31.261,129
31.286,119
31.311,105
31.336,88
31.361,70
31.386,53
31.411,38
31.436,21
31.461,2
31.486,-14
31.511,-16
31.536,2
31.561,41
31.586,87
31.611,125
31.636,152
31.661,177
31.686,206
31.711,236
31.736,258
31.761,265
31.786,261
31.811,258
31.836,262
31.861,272
31.886,278
31.911,276
31.936,267
31.961,256
31.986,246
32.011,234
32.036,221
32.061,208
32.086,197
32.111,185
32.136,169
32.161,147
32.186,126
32.211,111
32.236,102
32.261,92
32.286,75
32.311,52
32.336,31
32.361,13
32.386,-3
32.411,-23
32.436,-38
32.461,-33
32.486,-3
32.511,44
32.536,92
32.561,126
32.586,149
32.611,174
32.636,205
32.661,234
32.686,251
32.711,253
32.736,249
32.761,250
32.786,255
32.811,259
32.836,256
32.861,249
32.886,242
32.911,237
32.936,231
32.961,219
32.986,201
33.011,182
33.036,167
33.061,156
33.086,146
33.111,134
33.136,118
33.161,98
33.186,78
33.211,61
33.236,47
33.261,33
33.286,13
33.311,-9
33.336,-26
33.361,-24
33.386,1
33.411,43
33.436,87
33.461,123
33.486,151
33.511,176
33.536,202
33.561,228
33.586,248
33.611,259
33.636,263
33.661,261
33.686,256
33.711,251
33.736,248
33.761,249
33.786,248
33.811,242
33.836,228
33.861,212
33.886,197
33.911,184
33.936,171
33.961,156
33.986,140
34.011,126
34.036,113
34.061,97
34.086,78
34.111,57
34.136,38
34.161,21
34.186,3
34.211,-15
34.236,-28
34.261,-21
34.286,10
34.311,57
34.336,103
34.361,136
34.386,159
34.411,182
34.436,212
34.461,242
34.486,261
34.511,265
34.536,262
34.561,262
34.586,265
34.611,268
34.636,265
34.661,256
34.686,247
34.711,240
34.736,233
34.761,221
34.786,204
34.811,188
34.836,174
34.861,160
34.886,145
34.911,127
34.936,110
34.961,95
34.986,80
35.011,64
35.036,48
35.061,35
35.086,23
35.111,5
35.136,-19
35.161,-42
35.186,-46
35.211,-22
35.236,24
35.261,75
35.286,113
35.311,139
35.336,163
35.361,191
35.386,222
35.411,246
35.436,257
35.461,259
35.486,260
35.511,264
35.536,270
35.561,274
35.586,275
35.611,274
35.636,268
35.661,259
35.686,246
35.711,233
35.736,221
35.761,208
35.786,195
35.811,180
35.836,166
35.861,156
35.886,146
35.911,134
35.936,118
35.961,102
35.986,86
36.011,71
36.036,57
36.061,43
36.086,28
36.111,11
36.136,-8
36.161,-31
36.186,-46
36.211,-43
36.236,-15
36.261,29
36.286,76
36.311,112
36.336,139
36.361,164
36.386,195
36.411,227
36.436,251
36.461,259
36.486,256
36.511,254
36.536,259
36.561,268
36.586,273
36.611,270
36.636,261
36.661,252
36.686,245
36.711,240
36.736,232
36.761,219
36.786,204
36.811,190
36.836,178
36.861,166
36.886,153
36.911,137
36.936,120
36.961,105
36.986,90
37.011,75
37.036,62
37.061,48
37.086,32
37.111,12
37.136,-11
37.161,-30
37.186,-34
37.211,-16
37.236,18
37.261,60
37.286,98
37.311,128
37.336,155
37.361,183
37.386,213
37.411,236
37.436,248
37.461,251
37.486,250
37.511,253
37.536,259
37.561,265
37.586,265
37.611,260
37.636,254
37.661,250
37.686,243
37.711,233
37.736,218
37.761,204
37.786,192
37.811,180
37.836,166
37.861,149
37.886,131
37.911,117
37.936,104
37.961,91
37.986,75
38.011,60
38.036,45
38.061,28
38.086,8
38.111,-11
38.136,-21
38.161,-13
38.186,14
38.211,52
38.236,87
38.261,116
38.286,143
38.311,173
38.336,203
38.361,226
38.386,238
38.411,241
38.436,241
38.461,243
38.486,245
38.511,248
38.536,249
38.561,249
38.586,245
38.611,236
38.636,225
38.661,216
38.686,209
38.711,200
38.736,182
38.761,157
38.786,132
38.811,117
38.836,113
38.861,111
38.886,100
38.911,82
38.936,63
38.961,48
38.986,36
39.011,19
39.036,-2
39.061,-18
39.086,-15
39.111,10
39.136,52
39.161,94
39.186,128
39.211,153
39.236,177
39.261,203
39.286,231
39.311,252
39.336,262
39.361,262
39.386,258
39.411,258
39.436,263
39.461,268
39.486,268
39.511,262
39.536,253
39.561,244
39.586,234
39.611,222
39.636,206
39.661,190
39.686,175
39.711,161
39.736,146
39.761,129
39.786,112
39.811,97
39.836,82
39.861,64
39.886,45
39.911,26
39.936,9
39.961,-7
39.986,-27
40.011,-46
40.036,-52
40.061,-34
40.086,7
40.111,60
40.136,106
40.161,137
40.186,162
40.211,188
40.236,219
40.261,246
40.286,259
40.311,260
40.336,257
40.361,258
40.386,264
40.411,268
40.436,266
40.461,257
40.486,247
40.511,239
40.536,232
40.561,227
40.586,220
40.611,214
40.636,207
40.661,197
40.686,182
40.711,164
40.736,148
40.761,134
40.786,119
40.811,102
40.836,82
40.861,63
40.886,48
40.911,35
40.936,16
40.961,-7
40.986,-31
41.011,-40
41.036,-27
41.061,7
41.086,51
41.111,93
41.136,126
41.161,153
41.186,181
41.211,211
41.236,239
41.261,259
41.286,267
41.311,265
41.336,261
41.361,259
41.386,263
41.411,268
41.436,270
41.461,266
41.486,257
41.511,246
41.536,233
41.561,218
41.586,202
41.611,186
41.636,170
41.661,154
41.686,138
41.711,120
41.736,105
41.761,91
41.786,77
41.811,63
41.836,48
41.861,34
41.886,22
41.911,5
41.936,-20
41.961,-48
41.986,-64
42.011,-54
42.036,-16
42.061,35
42.086,83
42.111,116
42.136,142
42.161,170
42.186,205
42.211,238
42.236,259
42.261,265
42.286,265
42.311,267
42.336,273
42.361,279
42.386,282
42.411,280
42.436,275
42.461,270
42.486,263
42.511,254
42.536,242
42.561,228
42.586,213
42.611,198
42.636,185
42.661,173
42.686,163
42.711,151
42.736,136
42.761,116
42.786,95
42.811,76
42.836,62
42.861,51
42.886,43
42.911,33
42.936,17
42.961,-5
42.986,-33
43.011,-55
43.036,-58
43.061,-34
43.086,11
43.111,65
43.136,111
43.161,143
43.186,166
43.211,190
43.236,219
43.261,249
43.286,270
43.311,277
43.336,273
43.361,267
43.386,266
43.411,271
43.436,275
43.461,274
43.486,266
43.511,254
43.536,243
43.561,235
43.586,228
43.611,217
43.636,204
43.661,188
43.686,170
43.711,151
43.736,131
43.761,113
43.786,98
43.811,86
43.836,73
43.861,58
43.886,41
43.911,26
43.936,12
43.961,-1
43.986,-16
44.011,-27
44.036,-22
44.061,4
44.086,48
44.111,94
44.136,132
44.161,159
44.186,181
44.211,204
44.236,225
44.261,239
44.286,244
44.311,245
44.336,245
44.361,247
44.386,249
44.411,249
44.436,249
44.461,247
44.486,243
44.511,233
44.536,218
44.561,203
44.586,190
44.611,179
44.636,167
44.661,153
44.686,138
44.711,125
44.736,114
44.761,102
44.786,89
44.811,73
44.836,55
44.861,35
44.886,16
44.911,5
44.936,14
44.961,44
44.986,87
45.011,126
45.036,153
45.061,170
45.086,186
45.111,206
45.136,225
45.161,234
45.186,234
45.211,229
45.236,227
45.261,228
45.286,227
45.311,221
45.336,213
45.361,204
45.386,197
45.411,186
45.436,172
45.461,156
45.486,140
45.511,125
45.536,110
45.561,94
45.586,77
45.611,61
45.636,44
45.661,29
45.686,21
45.711,30
45.736,58
45.761,97
45.786,135
45.811,160
45.836,175
45.861,188
45.886,204
45.911,219
45.936,226
45.961,222
45.986,213
46.011,205
46.036,201
46.061,197
46.086,191
46.111,183
46.136,175
46.161,167
46.186,154
46.211,134
46.236,110
46.261,89
46.286,74
46.311,62
46.336,45
46.361,24
46.386,8
46.411,9
46.436,33
46.461,72
46.486,114
46.511,148
46.536,176
46.561,203
46.586,231
46.611,255
46.636,270
46.661,271
46.686,264
46.711,256
46.736,253
46.761,252
46.786,250
46.811,242
46.836,231
46.861,218
46.886,207
46.911,195
46.936,180
46.961,162
46.986,142
47.011,122
47.036,102
47.061,82
47.086,63
47.111,46
47.136,30
47.161,11
47.186,-11
47.211,-36
47.236,-49
47.261,-39
47.286,-4
47.311,45
47.336,93
47.361,129
47.386,157
47.411,185
47.436,219
47.461,250
47.486,270
47.511,274
47.536,271
47.561,271
47.586,276
47.611,284
47.636,286
47.661,281
47.686,272
47.711,263
47.736,255
47.761,245
47.786,234
47.811,222
47.836,209
47.861,196
47.886,181
47.911,166
47.936,152
47.961,138
47.986,121
48.011,103
48.036,87
48.061,74
48.086,62
48.111,44
48.136,22
48.161,0
48.186,-16
48.211,-29
48.236,-44
48.261,-65
48.286,-80
48.311,-73
48.336,-35
48.361,23
48.386,79
48.411,120
48.436,145
48.461,171
48.486,205
48.511,242
48.536,271
48.561,283
48.586,284
48.611,284
48.636,288
48.661,294
48.686,299
48.711,300
48.736,297
48.761,289
48.786,279
48.811,266
48.836,251
48.861,237
48.886,222
48.911,207
48.936,191
48.961,175
48.986,160
49.011,147
49.036,132
49.061,116
49.086,100
49.111,84
49.136,66
49.161,46
49.186,26
49.211,7
49.236,-8
49.261,-27
49.286,-49
49.311,-68
49.336,-71
49.361,-47
49.386,0
49.411,55
49.436,101
49.461,132
49.486,158
49.511,187
49.536,220
49.561,248
49.586,265
49.611,270
49.636,271
49.661,272
49.686,274
49.711,274
49.736,273
49.761,273
49.786,274
49.811,272
49.836,262
49.861,247
49.886,230
49.911,218
49.936,209
49.961,200
49.986,186
50.011,169
50.036,152
50.061,136
50.086,121
50.111,106
50.136,91
50.161,74
50.186,57
50.211,40
50.236,24
50.261,7
50.286,-14
50.311,-37
50.336,-54
50.361,-53
50.386,-29
50.411,12
50.436,59
50.461,98
50.486,129
50.511,158
50.536,192
50.561,225
50.586,250
50.611,260
50.636,259
50.661,257
50.686,261
50.711,270
50.736,278
50.761,280
50.786,275
50.811,267
50.836,259
50.861,251
50.886,242
50.911,229
50.936,214
50.961,200
50.986,187
51.011,175
51.036,162
51.061,147
51.086,130
51.111,114
51.136,100
51.161,86
51.186,71
51.211,54
51.236,39
51.261,24
51.286,7
51.311,-13
51.336,-33
51.361,-38
51.386,-18
51.411,24
51.436,76
51.461,119
51.486,146
51.511,164
51.536,183
51.561,207
51.586,228
51.611,240
51.636,243
51.661,241
51.686,243
51.711,249
51.736,254
51.761,255
51.786,250
51.811,242
51.836,232
51.861,222
51.886,213
51.911,201
51.936,187
51.961,170
51.986,153
52.011,141
52.036,131
52.061,120
52.086,103
52.111,84
52.136,66
52.161,53
52.186,39
52.211,20
52.236,-2
52.261,-16
52.286,-5
52.311,30
52.336,77
52.361,117
52.386,144
52.411,165
52.436,189
52.461,216
52.486,237
52.511,246
52.536,246
52.561,244
52.586,246
52.611,251
52.636,253
52.661,250
52.686,244
52.711,238
52.736,230
52.761,220
52.786,206
52.811,189
52.836,173
52.861,159
52.886,144
52.911,128
52.936,111
52.961,95
52.986,80
53.011,66
53.036,51
53.061,31
53.086,7
53.111,-15
53.136,-26
53.161,-14
53.186,20
53.211,68
53.236,113
53.261,146
53.286,169
53.311,190
53.336,212
53.361,231
53.386,241
53.411,239
53.436,234
53.461,233
53.486,238
53.511,242
53.536,240
53.561,232
53.586,222
53.611,211
53.636,199
53.661,184
53.686,166
53.711,148
53.736,132
53.761,117
53.786,101
53.811,83
53.836,68
53.861,53
53.886,35
53.911,10
53.936,-16
53.961,-29
53.986,-17
54.011,22
54.036,73
54.061,118
54.086,151
54.111,176
54.136,203
54.161,234
54.186,260
54.211,273
54.236,273
54.261,269
54.286,269
54.311,274
54.336,278
54.361,278
54.386,273
54.411,265
54.436,254
54.461,240
54.486,222
54.511,205
54.536,191
54.561,177
54.586,160
54.611,139
54.636,120
54.661,105
54.686,92
54.711,76
54.736,53
54.761,29
54.786,9
54.811,-3
54.836,-19
54.861,-44
54.886,-71
54.911,-81
54.936,-62
54.961,-15
54.986,42
55.011,91
55.036,126
55.061,154
55.086,185
55.111,220
55.136,252
55.161,273
55.186,281
55.211,283
55.236,284
55.261,288
55.286,293
55.311,296
55.336,294
55.361,287
55.386,276
55.411,265
55.436,253
55.461,239
55.486,222
55.511,204
55.536,187
55.561,172
55.586,157
55.611,141
55.636,123
55.661,107
55.686,92
55.711,77
55.736,57
55.761,35
55.786,15
55.811,0
55.836,-15
55.861,-36
55.886,-62
55.911,-80
55.936,-72
55.961,-34
55.986,21
56.011,75
56.036,115
56.061,144
56.086,174
56.111,211
56.136,248
56.161,275
56.186,286
56.211,286
56.236,282
56.261,283
56.286,288
56.311,292
56.336,292
56.361,286
56.386,278
56.411,268
56.436,259
56.461,247
56.486,230
56.511,211
56.536,193
56.561,179
56.586,166
56.611,150
56.636,131
56.661,111
56.686,95
56.711,81
56.736,65
56.761,46
56.786,27
56.811,13
56.836,3
56.861,-14
56.886,-46
56.911,-82
56.936,-100
56.961,-83
56.986,-32
57.011,31
57.036,84
57.061,121
57.086,150
57.111,183
57.136,221
57.161,254
57.186,274
57.211,281
57.236,281
57.261,282
57.286,284
57.311,286
57.336,286
57.361,284
57.386,280
57.411,275
57.436,267
57.461,257
57.486,242
57.511,225
57.536,207
57.561,191
57.586,179
57.611,166
57.636,152
57.661,134
57.686,117
57.711,103
57.736,90
57.761,74
57.786,54
57.811,33
57.836,18
57.861,5
57.886,-11
57.911,-33
57.936,-48
57.961,-41
57.986,-5
58.011,47
58.036,98
58.061,134
58.086,156
58.111,179
58.136,208
58.161,236
58.186,253
58.211,256
58.236,253
58.261,253
58.286,259
58.311,266
58.336,268
58.361,264
58.386,257
58.411,248
58.436,238
58.461,226
58.486,213
58.511,200
58.536,187
58.561,173
58.586,157
58.611,141
58.636,127
58.661,114
58.686,100
58.711,84
58.736,66
58.761,51
58.786,38
58.811,22
58.836,0
58.861,-25
58.886,-38
58.911,-26
58.936,13
58.961,66
58.986,114
59.011,146
59.036,165
59.061,184
59.086,207
59.111,230
59.136,244
59.161,245
59.186,239
59.211,238
59.236,244
59.261,254
59.286,258
59.311,253
59.336,243
59.361,233
59.386,223
59.411,213
59.436,200
59.461,185
59.486,170
59.511,156
59.536,144
59.561,131
59.586,119
59.611,107
59.636,92
59.661,77
59.686,61
59.711,46
59.736,30
59.761,11
59.786,-12
59.811,-33
59.836,-36
59.861,-12
59.886,34
59.911,87
59.936,130
59.961,157
59.986,178
60.011,203
60.036,231
60.061,254
60.086,265
60.111,266
60.136,263
60.161,264
60.186,269
60.211,271
60.236,269
60.261,262
60.286,256
60.311,252
60.336,245
60.361,232
60.386,215
60.411,197
60.436,183
60.461,171
60.486,159
60.511,142
60.536,123
60.561,105
60.586,91
60.611,79
60.636,66
60.661,49
60.686,31
60.711,14
60.736,-2
60.761,-22
60.786,-44
60.811,-63
60.836,-65
60.861,-40
60.886,5
60.911,59
60.936,104
60.961,137
60.986,163
61.011,191
61.036,223
61.061,251
61.086,268
61.111,274
61.136,274
61.161,277
61.186,283
61.211,289
61.236,291
61.261,287
61.286,281
61.311,275
61.336,269
61.361,260
61.386,249
61.411,235
61.436,220
61.461,205
61.486,191
61.511,177
61.536,163
61.561,149
61.586,133
61.611,116
61.636,97
61.661,77
61.686,57
61.711,40
61.736,24
61.761,8
61.786,-10
61.811,-34
61.836,-59
61.861,-76
61.886,-73
61.911,-46
61.936,0
61.961,52
61.986,97
62.011,133
62.036,163
62.061,195
62.086,226
62.111,252
62.136,266
62.161,269
62.186,269
62.211,272
62.236,278
62.261,284
62.286,288
62.311,287
62.336,283
62.361,276
62.386,265
62.411,250
62.436,233
62.461,217
62.486,204
62.511,194
62.536,183
62.561,168
62.586,149
62.611,130
62.636,115
62.661,103
62.686,90
62.711,72
62.736,51
62.761,30
62.786,13
62.811,-5
62.836,-27
62.861,-51
62.886,-66
62.911,-57
62.936,-21
62.961,32
62.986,84
63.011,123
63.036,150
63.061,175
63.086,205
63.111,234
63.136,254
63.161,258
63.186,254
63.211,253
63.236,259
63.261,269
63.286,275
63.311,273
63.336,267
63.361,259
63.386,250
63.411,236
63.436,218
63.461,200
63.486,186
63.511,175
63.536,162
63.561,145
63.586,126
63.611,110
63.636,97
63.661,83
63.686,65
63.711,45
63.736,27
63.761,10
63.786,-8
63.811,-31
63.836,-49
63.861,-47
63.886,-15
63.911,36
63.936,91
63.961,132
63.986,162
64.011,189
64.036,222
64.061,255
64.086,277
64.111,283
64.136,279
64.161,278
64.186,284
64.211,293
64.236,297
64.261,293
64.286,284
64.311,274
64.336,264
64.361,250
64.386,230
64.411,208
64.436,187
64.461,169
64.486,154
64.511,139
64.536,123
64.561,105
64.586,87
64.611,69
64.636,51
64.661,31
64.686,12
64.711,-6
64.736,-27
64.761,-50
64.786,-68
64.811,-73
64.836,-53
64.861,-11
64.886,42
64.911,93
64.936,132
64.961,163
64.986,194
65.011,225
65.036,251
65.061,265
65.086,268
65.111,267
65.136,269
65.161,274
65.186,277
65.211,275
65.236,268
65.261,262
65.286,257
65.311,249
65.336,235
65.361,217
65.386,202
65.411,189
65.436,177
65.461,160
65.486,140
65.511,121
65.536,107
65.561,95
65.586,80
65.611,59
65.636,36
65.661,18
65.686,1
65.711,-19
65.736,-46
65.761,-69
65.786,-72
65.811,-44
65.836,8
65.861,68
65.886,115
65.911,148
65.936,175
65.961,204
65.986,236
66.011,262
66.036,275
66.061,276
66.086,274
66.111,276
66.136,281
66.161,285
66.186,286
66.211,283
66.236,277
66.261,271
66.286,261
66.311,250
66.336,235
66.361,220
66.386,204
66.411,189
66.436,177
66.461,168
66.486,157
66.511,144
66.536,125
66.561,104
66.586,84
66.611,66
66.636,49
66.661,32
66.686,15
66.711,-2
66.736,-22
66.761,-45
66.786,-68
66.811,-79
66.836,-65
66.861,-25
66.886,31
66.911,86
66.936,127
66.961,157
66.986,184
67.011,213
67.036,240
67.061,259
67.086,266
67.111,267
67.136,270
67.161,276
67.186,282
67.211,283
67.236,279
67.261,274
67.286,269
67.311,264
67.336,255
67.361,242
67.386,228
67.411,213
67.436,200
67.461,185
67.486,169
67.511,151
67.536,132
67.561,115
67.586,100
67.611,87
67.636,74
67.661,58
67.686,41
67.711,25
67.736,8
67.761,-8
67.786,-29
67.811,-48
67.836,-54
67.861,-36
67.886,4
67.911,57
67.936,104
67.961,138
67.986,162
68.011,187
68.036,215
68.061,243
68.086,262
68.111,267
68.136,264
68.161,261
68.186,263
68.211,268
68.236,274
68.261,275
68.286,272
68.311,264
68.336,255
68.361,244
68.386,232
68.411,219
68.436,204
68.461,187
68.486,170
68.511,153
68.536,140
68.561,128
68.586,117
68.611,104
68.636,87
68.661,69
68.686,52
68.711,41
68.736,31
68.761,18
68.786,-1
68.811,-26
68.836,-43
68.861,-37
68.886,-5
68.911,44
68.936,95
68.961,135
68.986,162
69.011,185
69.036,208
69.061,229
69.086,242
69.111,244
69.136,241
69.161,240
69.186,244
69.211,252
69.236,256
69.261,256
69.286,253
69.311,247
69.336,240
69.361,229
69.386,215
69.411,198
69.436,181
69.461,164
69.486,150
69.511,138
69.536,127
69.561,113
69.586,95
69.611,75
69.636,58
69.661,45
69.686,32
69.711,15
69.736,-6
69.761,-24
69.786,-23
69.811,0
69.836,45
69.861,94
69.886,138
69.911,170
69.936,193
69.961,211
69.986,226
70.011,236
70.036,243
70.061,249
70.086,254
70.111,258
70.136,261
70.161,259
70.186,253
70.211,245
70.236,236
70.261,226
70.286,217
70.311,207
70.336,195
70.361,179
70.386,163
70.411,147
70.436,132
70.461,116
70.486,98
70.511,79
70.536,61
70.561,47
70.586,34
70.611,15
70.636,-9
70.661,-32
70.686,-40
70.711,-23
70.736,17
70.761,68
70.786,115
70.811,151
70.836,179
70.861,205
70.886,230
70.911,248
70.936,256
70.961,256
70.986,257
71.011,261
71.036,267
71.061,270
71.086,267
71.111,261
71.136,254
71.161,247
71.186,236
71.211,220
71.236,201
71.261,182
71.286,164
71.311,146
71.336,128
71.361,110
71.386,94
71.411,78
71.436,60
71.461,41
71.486,21
71.511,2
71.536,-18
71.561,-42
71.586,-63
71.611,-66
71.636,-41
71.661,9
71.686,69
71.711,118
71.736,152
71.761,178
71.786,209
71.811,243
71.836,270
71.861,282
71.886,280
71.911,274
71.936,275
71.961,282
71.986,289
72.011,290
72.036,285
72.061,279
72.086,270
72.111,258
72.136,242
72.161,225
72.186,209
72.211,194
72.236,177
72.261,157
72.286,138
72.311,121
72.336,107
72.361,93
72.386,73
72.411,49
72.436,25
72.461,5
72.486,-13
72.511,-33
72.536,-58
72.561,-80
72.586,-85
72.611,-64
72.636,-17
72.661,40
72.686,94
72.711,136
72.736,170
72.761,202
72.786,235
72.811,264
72.836,282
72.861,286
72.886,283
72.911,280
72.936,281
72.961,285
72.986,289
73.011,289
73.036,284
73.061,276
73.086,264
73.111,250
73.136,234
73.161,217
73.186,199
73.211,181
73.236,164
73.261,148
73.286,131
73.311,113
73.336,95
73.361,77
73.386,60
73.411,43
73.436,27
73.461,9
73.486,-10
73.511,-34
73.536,-60
73.561,-81
73.586,-83
73.611,-58
73.636,-9
73.661,51
73.686,105
73.711,145
73.736,175
73.761,205
73.786,239
73.811,269
73.836,286
73.861,286
73.886,279
73.911,275
73.936,280
73.961,287
73.986,290
74.011,286
74.036,277
74.061,268
74.086,259
74.111,247
74.136,230
74.161,210
74.186,192
74.211,177
74.236,163
74.261,147
74.286,128
74.311,108
74.336,90
74.361,74
74.386,58
74.411,41
74.436,25
74.461,9
74.486,-9
74.511,-33
74.536,-57
74.561,-67
74.586,-51
74.611,-6
74.636,53
74.661,109
74.686,149
74.711,176
74.736,201
74.761,230
74.786,258
74.811,272
74.836,271
74.861,263
74.886,258
74.911,262
74.936,268
74.961,270
74.986,266
75.011,258
75.036,250
75.061,241
75.086,228
75.111,213
75.136,196
75.161,181
75.186,166
75.211,151
75.236,133
75.261,116
75.286,101
75.311,85
75.336,69
75.361,52
75.386,38
75.411,23
75.436,4
75.461,-20
75.486,-42
75.511,-48
75.536,-24
75.561,23
75.586,79
75.611,126
75.636,159
75.661,185
75.686,210
75.711,234
75.736,251
75.761,256
75.786,254
75.811,251
75.836,253
75.861,257
75.886,259
75.911,257
75.936,250
75.961,240
75.986,229
76.011,217
76.036,204
76.061,190
76.086,174
76.111,158
76.136,143
76.161,129
76.186,115
76.211,100
76.236,83
76.261,66
76.286,51
76.311,35
76.336,15
76.361,-7
76.386,-25
76.411,-23
76.436,7
76.461,58
76.486,112
76.511,154
76.536,181
76.561,200
76.586,219
76.611,235
76.636,244
76.661,244
76.686,239
76.711,235
76.736,236
76.761,239
76.786,240
76.811,236
76.836,229
76.861,219
76.886,209
76.911,199
76.936,186
76.961,172
76.986,155
77.011,138
77.036,121
77.061,105
77.086,87
77.111,71
77.136,56
77.161,43
77.186,27
77.211,5
77.236,-20
77.261,-38
77.286,-34
77.311,0
77.336,53
77.361,108
77.386,149
77.411,175
77.436,195
77.461,219
77.486,245
77.511,264
77.536,268
77.561,262
77.586,257
77.611,258
77.636,264
77.661,268
77.686,265
77.711,258
77.736,248
77.761,237
77.786,222
77.811,205
77.836,189
77.861,176
77.886,165
77.911,153
77.936,136
77.961,117
77.986,101
78.011,88
78.036,73
78.061,56
78.086,37
78.111,19
78.136,3
78.161,-15
78.186,-38
78.211,-58
78.236,-60
78.261,-34
78.286,15
78.311,72
78.336,119
78.361,154
78.386,182
78.411,211
78.436,242
78.461,268
78.486,282
78.511,285
78.536,281
78.561,278
78.586,279
78.611,284
78.636,286
78.661,282
78.686,270
78.711,255
78.736,242
78.761,234
78.786,227
78.811,215
78.836,197
78.861,178
78.886,163
78.911,151
78.936,139
78.961,120
78.986,97
79.011,78
79.036,63
79.061,51
79.086,36
79.111,17
79.136,0
79.161,-18
79.186,-38
79.211,-59
79.236,-72
79.261,-63
79.286,-26
79.311,30
79.336,87
79.361,129
79.386,160
79.411,188
79.436,220
79.461,250
79.486,271
79.511,277
79.536,274
79.561,271
79.586,273
79.611,277
79.636,282
79.661,284
79.686,281
79.711,275
79.736,265
79.761,251
79.786,237
79.811,222
79.836,206
79.861,190
79.886,174
79.911,161
79.936,150
79.961,139
79.986,123
80.011,100
80.036,75
80.061,52
80.086,35
80.111,23
80.136,9
80.161,-10
80.186,-37
80.211,-63
80.236,-75
80.261,-60
80.286,-20
80.311,35
80.336,91
80.361,136
80.386,169
80.411,195
80.436,222
80.461,248
80.486,269
80.511,280
80.536,281
80.561,276
80.586,274
80.611,276
80.636,279
80.661,280
80.686,275
80.711,266
80.736,256
80.761,244
80.786,231
80.811,214
80.836,195
80.861,177
80.886,163
80.911,151
80.936,137
80.961,120
80.986,101
81.011,82
81.036,65
81.061,50
81.086,35
81.111,19
81.136,0
81.161,-22
81.186,-47
81.211,-62
81.236,-54
81.261,-18
81.286,36
81.311,92
81.336,133
81.361,160
81.386,183
81.411,212
81.436,241
81.461,262
81.486,266
81.511,259
81.536,254
81.561,258
81.586,268
81.611,275
81.636,273
81.661,263
81.686,251
81.711,241
81.736,231
81.761,217
81.786,199
81.811,179
81.836,161
81.861,147
81.886,134
81.911,118
81.936,99
81.961,79
81.986,64
82.011,49
82.036,29
82.061,0
82.086,-33
82.111,-52
82.136,-39
82.161,4
82.186,63
82.211,117
82.236,153
82.261,176
82.286,197
82.311,222
82.336,245
82.361,256
82.386,252
82.411,242
82.436,235
82.461,236
82.486,242
82.511,244
82.536,241
82.561,233
82.586,225
82.611,215
82.636,199
82.661,179
82.686,156
82.711,136
82.736,119
82.761,100
82.786,80
82.811,60
82.836,43
82.861,27
82.886,10
82.911,-9
82.936,-22
82.961,-14
82.986,20
83.011,72
83.036,123
83.061,160
83.086,185
83.111,207
83.136,231
83.161,249
83.186,256
83.211,250
83.236,241
83.261,236
83.286,237
83.311,236
83.336,232
83.361,223
83.386,214
83.411,204
83.436,191
83.461,174
83.486,154
83.511,136
83.536,118
83.561,101
83.586,82
83.611,65
83.636,48
83.661,28
83.686,2
83.711,-20
83.736,-26
83.761,-3
83.786,43
83.811,98
83.836,141
83.861,171
83.886,195
83.911,221
83.936,248
83.961,265
83.986,267
84.011,258
84.036,250
84.061,248
84.086,250
84.111,250
84.136,244
84.161,233
84.186,221
84.211,210
84.236,198
84.261,184
84.286,167
84.311,147
84.336,128
84.361,110
84.386,92
84.411,74
84.436,55
84.461,36
84.486,18
84.511,0
84.536,-23
84.561,-46
84.586,-59
84.611,-50
84.636,-13
84.661,43
84.686,100
84.711,142
84.736,169
84.761,192
84.786,220
84.811,251
84.836,276
84.861,287
84.886,287
84.911,284
84.936,283
84.961,284
84.986,284
85.011,280
85.036,275
85.061,268
85.086,258
85.111,246
85.136,231
85.161,215
85.186,201
85.211,188
85.236,176
85.261,161
85.286,143
85.311,124
85.336,105
85.361,89
85.386,78
85.411,65
85.436,48
85.461,29
85.486,13
85.511,2
85.536,-8
85.561,-27
85.586,-56
85.611,-78
85.636,-75
85.661,-36
85.686,26
85.711,88
85.736,131
85.761,157
85.786,180
85.811,209
85.836,241
85.861,265
85.886,274
85.911,273
85.936,271
85.961,274
85.986,281
86.011,285
86.036,284
86.061,279
86.086,274
86.111,267
86.136,256
86.161,240
86.186,220
86.211,202
86.236,187
86.261,173
86.286,159
86.311,142
86.336,125
86.361,110
86.386,97
86.411,82
86.436,63
86.461,45
86.486,30
86.511,18
86.536,3
86.561,-20
86.586,-47
86.611,-62
86.636,-48
86.661,-5
86.686,52
86.711,104
86.736,140
86.761,164
86.786,188
86.811,218
86.836,249
86.861,271
86.886,279
86.911,279
86.936,278
86.961,281
86.986,284
87.011,283
87.036,275
87.061,262
87.086,248
87.111,233
87.136,215
87.161,193
87.186,172
87.211,156
87.236,147
87.261,139
87.286,128
87.311,112
87.336,95
87.361,80
87.386,70
87.411,60
87.436,48
87.461,34
87.486,16
87.511,-5
87.536,-31
87.561,-55
87.586,-62
87.611,-42
87.636,5
87.661,65
87.686,118
87.711,155
87.736,182
87.761,209
87.786,241
87.811,270
87.836,285
87.861,285
87.886,278
87.911,276
87.936,283
87.961,291
87.986,294
88.011,288
88.036,278
88.061,269
88.086,263
88.111,254
88.136,239
88.161,217
88.186,194
88.211,174
88.236,159
88.261,145
88.286,131
88.311,115
88.336,99
88.361,84
88.386,70
88.411,57
88.436,43
88.461,29
88.486,11
88.511,-11
88.536,-34
88.561,-51
88.586,-50
88.611,-26
88.636,16
88.661,63
88.686,102
88.711,131
88.736,155
88.761,181
88.786,207
88.811,227
88.836,235
88.861,236
88.886,239
88.911,248
88.936,260
88.961,270
88.986,273
89.011,268
89.036,259
89.061,248
89.086,237
89.111,226
89.136,214
89.161,199
89.186,178
89.211,157
89.236,138
89.261,125
89.286,116
89.311,105
89.336,91
89.361,75
89.386,60
89.411,42
89.436,19
89.461,-2
89.486,-10
89.511,7
89.536,51
89.561,106
89.586,152
89.611,179
89.636,195
89.661,207
89.686,218
89.711,220
89.736,211
89.761,197
89.786,190
89.811,197
89.836,213
89.861,228
89.886,236
89.911,235
89.936,232
89.961,225
89.986,214
90.011,196
90.036,174
90.061,153
90.086,136
90.111,119
90.136,100
90.161,79
90.186,59
90.211,42
90.236,26
90.261,6
90.286,-14
90.311,-25
90.336,-14
90.361,24
90.386,79
90.411,131
90.436,168
90.461,190
90.486,209
90.511,228
90.536,244
90.561,250
90.586,245
90.611,236
90.636,229
90.661,228
90.686,231
90.711,232
90.736,229
90.761,221
90.786,207
90.811,190
90.836,172
90.861,153
90.886,136
90.911,118
90.936,99
90.961,80
90.986,60
91.011,37
91.036,12
91.061,-12
91.086,-22
91.111,-8
91.136,31
91.161,81
91.186,126
91.211,158
91.236,183
91.261,208
91.286,236
91.311,258
91.336,266
91.361,261
91.386,253
91.411,250
91.436,252
91.461,254
91.486,251
91.511,243
91.536,232
91.561,220
91.586,208
91.611,195
91.636,180
91.661,162
91.686,142
91.711,122
91.736,104
91.761,88
91.786,71
91.811,52
91.836,33
91.861,16
91.886,1
91.911,-19
91.936,-44
91.961,-64
91.986,-60
92.011,-22
92.036,38
92.061,100
92.086,144
92.111,171
92.136,196
92.161,227
92.186,261
92.211,283
92.236,288
92.261,284
92.286,281
92.311,284
92.336,286
92.361,283
92.386,277
92.411,272
92.436,267
92.461,259
92.486,241
92.511,219
92.536,203
92.561,196
92.586,193
92.611,184
92.636,167
92.661,148
92.686,130
92.711,112
92.736,87
92.761,53
92.786,17
92.811,-11
92.836,-32
92.861,-53
92.886,-81
92.911,-109
92.936,-121
92.961,-104
92.986,-57
93.011,1
93.036,56
93.061,102
93.086,143
93.111,187
93.136,232
93.161,270
93.186,294
93.211,302
93.236,301
93.261,299
93.286,301
93.311,305
93.336,305
93.361,299
93.386,288
93.411,276
93.436,264
93.461,251
93.486,236
93.511,219
93.536,203
93.561,188
93.586,173
93.611,154
93.636,133
93.661,114
93.686,98
93.711,83
93.736,64
93.761,43
93.786,24
93.811,12
93.836,0
93.861,-19
93.886,-46
93.911,-65
93.936,-56
93.961,-13
93.986,48
94.011,104
94.036,141
94.061,163
94.086,185
94.111,216
94.136,247
94.161,265
94.186,268
94.211,261
94.236,257
94.261,260
94.286,265
94.311,266
94.336,261
94.361,252
94.386,242
94.411,232
94.436,222
94.461,210
94.486,197
94.511,182
94.536,167
94.561,154
94.586,142
94.611,131
94.636,118
94.661,101
94.686,82
94.711,66
94.736,55
94.761,48
94.786,38
94.811,20
94.836,-7
94.861,-33
94.886,-43
94.911,-24
94.936,18
94.961,71
94.986,117
95.011,147
95.036,169
95.061,192
95.086,219
95.111,243
95.136,254
95.161,251
95.186,246
95.211,249
95.236,259
95.261,266
95.286,265
95.311,257
95.336,248
95.361,241
95.386,233
95.411,219
95.436,200
95.461,182
95.486,170
95.511,161
95.536,151
95.561,135
95.586,118
95.611,103
95.636,91
95.661,79
95.686,65
95.711,50
95.736,34
95.761,15
95.786,-7
95.811,-30
95.836,-38
95.861,-21
95.886,18
95.911,69
95.936,112
95.961,143
95.986,167
96.011,192
96.036,220
96.061,243
96.086,256
96.111,258
96.136,255
96.161,252
96.186,253
96.211,255
96.236,256
96.261,254
96.286,250
96.311,243
96.336,233
96.361,220
96.386,205
96.411,190
96.436,173
96.461,157
96.486,141
96.511,127
96.536,113
96.561,98
96.586,82
96.611,70
96.636,60
96.661,47
96.686,27
96.711,2
96.736,-11
96.761,-1
96.786,36
96.811,86
96.836,131
96.861,160
96.886,180
96.911,199
96.936,219
96.961,233
96.986,235
97.011,227
97.036,219
97.061,218
97.086,223
97.111,226
97.136,225
97.161,220
97.186,214
97.211,205
97.236,192
97.261,175
97.286,156
97.311,138
97.336,121
97.361,106
97.386,91
97.411,74
97.436,54
97.461,29
97.486,8
97.511,0
97.536,18
97.561,58
97.586,107
97.611,147
97.636,172
97.661,188
97.686,205
97.711,224
97.736,236
97.761,236
97.786,227
97.811,217
97.836,214
97.861,214
97.886,211
97.911,202
97.936,189
97.961,178
97.986,168
98.011,154
98.036,133
98.061,109
98.086,89
98.111,72
98.136,55
98.161,31
98.186,7
98.211,-4
98.236,8
98.261,44
98.286,90
98.311,130
98.336,158
98.361,179
98.386,199
98.411,220
98.436,235
98.461,239
98.486,233
98.511,223
98.536,216
98.561,215
98.586,214
98.611,208
98.636,195
98.661,180
98.686,165
98.711,149
98.736,131
98.761,110
98.786,88
98.811,70
98.836,53
98.861,32
98.886,4
98.911,-21
98.936,-29
98.961,-8
98.986,39
99.011,96
99.036,143
99.061,174
99.086,198
99.111,225
99.136,258
99.161,286
99.186,297
99.211,293
99.236,283
99.261,278
99.286,281
99.311,284
99.336,282
99.361,273
99.386,262
99.411,250
99.436,238
99.461,226
99.486,212
99.511,198
99.536,183
99.561,167
99.586,152
99.611,137
99.636,123
99.661,109
99.686,92
99.711,75
99.736,58
99.761,42
99.786,27
99.811,11
99.836,-3
99.861,-17
99.886,-31
99.911,-49
99.936,-71
99.961,-89
99.986,-86
100.011,-54
100.036,2
100.061,64
100.086,116
100.111,151
100.136,179
100.161,211
100.186,245
100.211,274
100.236,289
100.261,291
100.286,287
100.311,285
100.336,288
100.361,291
100.386,291
100.411,289
100.436,284
100.461,276
100.486,266
100.511,252
100.536,237
100.561,221
100.586,206
100.611,192
100.636,178
100.661,167
100.686,155
100.711,143
100.736,129
100.761,114
100.786,98
100.811,83
100.836,69
100.861,56
100.886,43
100.911,29
100.936,10
100.961,-12
100.986,-36
101.011,-49
101.036,-40
101.061,-8
101.086,38
101.111,85
101.136,120
101.161,146
101.186,170
101.211,196
101.236,223
101.261,243
101.286,252
101.311,252
101.336,249
101.361,250
101.386,255
101.411,261
101.436,262
101.461,257
101.486,248
101.511,236
101.536,223
101.561,209
101.586,195
101.611,183
101.636,172
101.661,161
101.686,150
101.711,138
101.736,127
101.761,117
101.786,107
101.811,97
101.836,85
101.861,74
101.886,63
101.911,49
101.936,30
101.961,10
101.986,0
102.011,8
102.036,38
102.061,77
102.086,111
102.111,135
102.136,154
102.161,174
102.186,197
102.211,214
102.236,220
102.261,216
102.286,212
102.311,214
102.336,223
102.361,230
102.386,231
102.411,226
102.436,219
102.461,213
102.486,208
102.511,201
102.536,190
102.561,175
102.586,160
102.611,146
102.636,135
102.661,124
102.686,111
102.711,96
102.736,81
102.761,69
102.786,57
102.811,42
102.836,23
102.861,9
102.886,12
102.911,37
102.936,76
102.961,114
102.986,144
103.011,165
103.036,186
103.061,208
103.086,227
103.111,238
103.136,239
103.161,237
103.186,238
103.211,241
103.236,245
103.261,245
103.286,242
103.311,237
103.336,229
103.361,217
103.386,203
103.411,190
103.436,180
103.461,170
103.486,156
103.511,137
103.536,119
103.561,105
103.586,94
103.611,81
103.636,65
103.661,48
103.686,35
103.711,25
103.736,11
103.761,-10
103.786,-31
103.811,-37
103.836,-16
103.861,27
103.886,79
103.911,120
103.936,148
103.961,170
103.986,195
104.011,225
104.036,252
104.061,265
104.086,266
104.111,262
104.136,261
104.161,266
104.186,273
104.211,276
104.236,274
104.261,270
104.286,264
104.311,257
104.336,246
104.361,231
104.386,215
104.411,199
104.436,186
104.461,173
104.486,160
104.511,145
104.536,129
104.561,115
104.586,102
104.611,88
104.636,70
104.661,48
104.686,27
104.711,9
104.736,-5
104.761,-22
104.786,-46
104.811,-67
104.836,-74
104.861,-54
104.886,-10
104.911,42
104.936,87
104.961,121
104.986,151
105.011,183
105.036,218
105.061,248
105.086,265
105.111,270
105.136,272
105.161,275
105.186,281
105.211,287
105.236,290
105.261,290
105.286,288
105.311,283
105.336,274
105.361,262
105.386,249
105.411,235
105.436,220
105.461,206
105.486,192
105.511,179
105.536,163
105.561,145
105.586,126
105.611,108
105.636,94
105.661,79
105.686,60
105.711,38
105.736,19
105.761,6
105.786,-6
105.811,-27
105.836,-55
105.861,-78
105.886,-76
105.911,-44
105.936,10
105.961,64
105.986,106
106.011,137
106.036,167
106.061,201
106.086,235
106.111,257
106.136,263
106.161,262
106.186,262
106.211,268
106.236,276
106.261,280
106.286,279
106.311,275
106.336,271
106.361,268
106.386,260
106.411,247
106.436,232
106.461,219
106.486,208
106.511,197
106.536,180
106.561,160
106.586,141
106.611,127
106.636,112
106.661,94
106.686,70
106.711,47
106.736,31
106.761,19
106.786,3
106.811,-18
106.836,-37
106.861,-34
106.886,-2
106.911,48
106.936,100
106.961,138
106.986,162
107.011,183
107.036,206
107.061,227
107.086,239
107.111,240
107.136,236
107.161,235
107.186,238
107.211,243
107.236,244
107.261,241
107.286,235
107.311,228
107.336,219
107.361,207
107.386,192
107.411,175
107.436,157
107.461,141
107.486,127
107.511,112
107.536,96
107.561,78
107.586,59
107.611,42
107.636,22
107.661,-1
107.686,-27
107.711,-43
107.736,-36
107.761,0
107.786,53
107.811,107
107.836,146
107.861,171
107.886,190
107.911,213
107.936,235
107.961,249
107.986,251
108.011,247
108.036,243
108.061,243
108.086,245
108.111,243
108.136,239
108.161,231
108.186,222
108.211,209
108.236,192
108.261,174
108.286,158
108.311,147
108.336,135
108.361,118
108.386,97
108.411,77
108.436,61
108.461,47
108.486,27
108.511,-1
108.536,-28
108.561,-36
108.586,-13
108.611,37
108.636,94
108.661,139
108.686,167
108.711,189
108.736,214
108.761,244
108.786,268
108.811,277
108.836,274
108.861,268
108.886,270
108.911,277
108.936,282
108.961,279
108.986,269
109.011,258
109.036,246
109.061,233
109.086,217
109.111,200
109.136,183
109.161,165
109.186,148
109.211,129
109.236,110
109.261,94
109.286,77
109.311,57
109.336,34
109.361,13
109.386,0
109.411,-11
109.436,-27
109.461,-50
109.486,-73
109.511,-78
109.536,-53
109.561,0
109.586,61
109.611,112
109.636,147
109.661,173
109.686,201
109.711,233
109.736,261
109.761,276
109.786,279
109.811,278
109.836,280
109.861,285
109.886,290
109.911,290
109.936,284
109.961,275
109.986,267
110.011,257
110.036,245
110.061,228
110.086,209
110.111,191
110.136,174
110.161,158
110.186,142
110.211,127
110.236,113
110.261,99
110.286,83
110.311,65
110.336,46
110.361,29
110.386,13
110.411,-7
110.436,-32
110.461,-57
110.486,-66
110.511,-47
110.536,-1
110.561,58
110.586,112
110.611,149
110.636,172
110.661,190
110.686,212
110.711,234
110.736,248
110.761,251
110.786,247
110.811,244
110.836,248
110.861,256
110.886,260
110.911,257
110.936,248
110.961,237
110.986,226
111.011,215
111.036,200
111.061,183
111.086,167
111.111,154
111.136,145
111.161,136
111.186,124
111.211,109
111.236,96
111.261,85
111.286,75
111.311,59
111.336,35
111.361,9
111.386,-2
111.411,9
111.436,46
111.461,94
111.486,137
111.511,166
111.536,183
111.561,196
111.586,208
111.611,217
111.636,218
111.661,212
111.686,205
111.711,203
111.736,206
111.761,210
111.786,210
111.811,205
111.836,198
111.861,191
111.886,184
111.911,176
111.936,164
111.961,149
111.986,133
112.011,116
112.036,102
112.061,91
112.086,83
112.111,71
112.136,50
112.161,24
112.186,5
112.211,8
112.236,38
112.261,85
112.286,131
112.311,164
112.336,184
112.361,200
112.386,218
112.411,234
112.436,241
112.461,238
112.486,230
112.511,225
112.536,226
112.561,230
112.586,231
112.611,226
112.636,218
112.661,208
112.686,197
112.711,184
112.736,166
112.761,144
112.786,121
112.811,98
112.836,77
112.861,59
112.886,40
112.911,20
112.936,1
112.961,-7
112.986,2
113.011,33
113.036,74
113.061,112
113.086,140
113.111,163
113.136,188
113.161,214
113.186,236
113.211,244
113.236,239
113.261,228
113.286,220
113.311,219
113.336,223
113.361,226
113.386,225
113.411,220
113.436,213
113.461,204
113.486,193
113.511,179
113.536,162
113.561,143
113.586,124
113.611,109
113.636,99
113.661,88
113.686,75
113.711,60
113.736,48
113.761,38
113.786,24
113.811,1
113.836,-25
113.861,-38
113.886,-21
113.911,25
113.936,83
113.961,129
113.986,157
114.011,177
114.036,205
114.061,241
114.086,274
114.111,290
114.136,288
114.161,279
114.186,274
114.211,276
114.236,281
114.261,283
114.286,279
114.311,268
114.336,253
114.361,239
114.386,226
114.411,216
114.436,206
114.461,192
114.486,175
114.511,158
114.536,143
114.561,130
114.586,114
114.611,95
114.636,75
114.661,57
114.686,42
114.711,27
114.736,13
114.761,0
114.786,-14
114.811,-35
114.836,-61
114.861,-80
114.886,-75
114.911,-37
114.936,23
114.961,85
114.986,131
115.011,159
115.036,183
115.061,213
115.086,245
115.111,268
115.136,277
115.161,278
115.186,281
115.211,288
115.236,293
115.261,292
115.286,285
115.311,278
115.336,274
115.361,270
115.386,261
115.411,247
115.436,229
115.461,214
115.486,202
115.511,192
115.536,179
115.561,163
115.586,144
115.611,125
115.636,108
115.661,92
115.686,77
115.711,61
115.736,45
115.761,30
115.786,12
115.811,-10
115.836,-36
115.861,-55
115.886,-52
115.911,-21
115.936,30
115.961,84
115.986,126
116.011,154
116.036,176
116.061,198
116.086,220
116.111,235
116.136,238
116.161,235
116.186,233
116.211,235
116.236,240
116.261,245
116.286,247
116.311,245
116.336,238
116.361,230
116.386,220
116.411,210
116.436,199
116.461,183
116.486,162
116.511,140
116.536,123
116.561,112
116.586,101
116.611,87
116.636,67
116.661,47
116.686,28
116.711,9
116.736,-9
116.761,-22
116.786,-16
116.811,14
116.836,62
116.861,111
116.886,148
116.911,172
116.936,193
116.961,216
116.986,237
117.011,249
117.036,249
117.061,241
117.086,236
117.111,236
117.136,241
117.161,245
117.186,245
117.211,240
117.236,231
117.261,220
117.286,206
117.311,190
117.336,174
117.361,158
117.386,143
117.411,126
117.436,107
117.461,89
117.486,74
117.511,64
117.536,55
117.561,41
117.586,18
117.611,-3
117.636,-6
117.661,20
117.686,74
117.711,134
117.736,182
117.761,212
117.786,233
117.811,256
117.836,283
117.861,306
117.886,316
117.911,313
117.936,299
117.961,275
117.986,242
118.011,203
118.036,166
118.061,139
118.086,125
118.111,118
118.136,113
118.161,104
118.186,91
118.211,76
118.236,59
118.261,44
118.286,33
118.311,26
118.336,21
118.361,15
118.386,8
118.411,5
118.436,8
118.461,12
118.486,7
118.511,-3
118.536,-9
118.561,7
118.586,51
118.611,107
118.636,154
118.661,183
118.686,203
118.711,228
118.736,263
118.761,297
118.786,316
118.811,316
118.836,306
118.861,301
118.886,305
118.911,314
118.936,319
118.961,316
118.986,307
119.011,295
119.036,279
119.061,260
119.086,238
119.111,216
119.136,197
119.161,179
119.186,161
119.211,142
119.236,124
119.261,108
119.286,91
119.311,72
119.336,51
119.361,34
119.386,19
119.411,2
119.436,-19
119.461,-40
119.486,-46
119.511,-23
119.536,23
119.561,79
119.586,125
119.611,156
119.636,178
119.661,199
119.686,218
119.711,228
119.736,226
119.761,220
119.786,219
119.811,224
119.836,227
119.861,221
119.886,209
119.911,199
119.936,197
119.961,198
119.986,192
120.011,175
120.036,154
120.061,139
120.086,130
120.111,121
120.136,105
120.161,84
120.186,63
120.211,46
120.236,30
120.261,11
120.286,-6
120.311,-11
120.336,7
120.361,48
120.386,98
120.411,141
120.436,171
120.461,191
120.486,208
120.511,225
120.536,238
120.561,245
120.586,244
120.611,238
120.636,233
120.661,230
120.686,230
120.711,229
120.736,225
120.761,216
120.786,201
120.811,184
120.836,166
120.861,149
120.886,130
120.911,112
120.936,93
120.961,75
120.986,56
121.011,32
121.036,5
121.061,-14
121.086,-15
121.111,10
121.136,55
121.161,107
121.186,150
121.211,180
121.236,203
121.261,224
121.286,244
121.311,257
121.336,260
121.361,254
121.386,246
121.411,242
121.436,243
121.461,244
121.486,241
121.511,232
121.536,219
121.561,204
121.586,189
121.611,172
121.636,154
121.661,135
121.686,117
121.711,100
121.736,85
121.761,69
121.786,54
121.811,39
121.836,22
121.861,0
121.886,-28
121.911,-53
121.936,-58
121.961,-35
121.986,11
122.011,67
122.036,116
122.061,152
122.086,182
122.111,214
122.136,249
122.161,276
122.186,288
122.211,287
122.236,280
122.261,278
122.286,282
122.311,289
122.336,292
122.361,289
122.386,279
122.411,267
122.436,254
122.461,241
122.486,228
122.511,213
122.536,196
122.561,178
122.586,163
122.611,149
122.636,133
122.661,114
122.686,94
122.711,76
122.736,59
122.761,43
122.786,25
122.811,7
122.836,-6
122.861,-19
122.886,-36
122.911,-60
122.936,-85
122.961,-92
122.986,-68
123.011,-15
123.036,47
123.061,101
123.086,139
123.111,170
123.136,205
123.161,243
123.186,273
123.211,290
123.236,293
123.261,291
123.286,291
123.311,293
123.336,295
123.361,295
123.386,292
123.411,288
123.436,278
123.461,263
123.486,246
123.511,230
123.536,217
123.561,205
123.586,192
123.611,177
123.636,160
123.661,142
123.686,124
123.711,106
123.736,88
123.761,71
123.786,53
123.811,35
123.836,19
123.861,5
123.886,-6
123.911,-23
123.936,-46
123.961,-69
123.986,-76
124.011,-55
124.036,-5
124.061,56
124.086,110
124.111,148
124.136,176
124.161,204
124.186,236
124.211,264
124.236,278
124.261,279
124.286,274
124.311,273
124.336,278
124.361,283
124.386,282
124.411,275
124.436,265
124.461,259
124.486,254
124.511,246
124.536,231
124.561,211
124.586,191
124.611,176
124.636,163
124.661,150
124.686,133
124.711,115
124.736,100
124.761,86
124.786,71
124.811,55
124.836,38
124.861,21
124.886,5
124.911,-15
124.936,-40
124.961,-60
124.986,-59
125.011,-29
125.036,24
125.061,82
125.086,128
125.111,159
125.136,184
125.161,213
125.186,243
125.211,266
125.236,272
125.261,266
125.286,257
125.311,256
125.336,262
125.361,268
125.386,268
125.411,263
125.436,256
125.461,250
125.486,241
125.511,229
125.536,214
125.561,197
125.586,181
125.611,165
125.636,150
125.661,134
125.686,120
125.711,104
125.736,87
125.761,69
125.786,51
125.811,35
125.836,18
125.861,-3
125.886,-27
125.911,-44
125.936,-38
125.961,-5
125.986,47
126.011,103
126.036,148
126.061,180
126.086,206
126.111,229
126.136,247
126.161,255
126.186,253
126.211,245
126.236,239
126.261,239
126.286,243
126.311,245
126.336,243
126.361,236
126.386,228
126.411,216
126.436,202
126.461,186
126.486,170
126.511,156
126.536,141
126.561,124
126.586,104
126.611,85
126.636,71
126.661,61
126.686,48
126.711,26
126.736,-1
126.761,-20
126.786,-12
126.811,23
126.836,75
126.861,123
126.886,156
126.911,178
126.936,198
126.961,220
126.986,237
127.011,243
127.036,237
127.061,229
127.086,225
127.111,227
127.136,230
127.161,227
127.186,217
127.211,205
127.236,191
127.261,177
127.286,161
127.311,143
127.336,121
127.361,99
127.386,79
127.411,62
127.436,47
127.461,26
127.486,0
127.511,-20
127.536,-20
127.561,10
127.586,65
127.611,121
127.636,162
127.661,186
127.686,205
127.711,227
127.736,249
127.761,259
127.786,255
127.811,242
127.836,232
127.861,228
127.886,228
127.911,225
127.936,216
127.961,206
127.986,195
128.011,183
128.036,165
128.061,143
128.086,119
128.111,96
128.136,78
128.161,62
128.186,45
128.211,22
128.236,-5
128.261,-28
128.286,-30
128.311,-1
128.336,53
128.361,112
128.386,156
128.411,183
128.436,205
128.461,231
128.486,260
128.511,280
128.536,282
128.561,272
128.586,262
128.611,262
128.636,266
128.661,267
128.686,262
128.711,252
128.736,240
128.761,226
128.786,209
128.811,189
128.836,169
128.861,151
128.886,135
128.911,119
128.936,100
128.961,79
128.986,56
129.011,36
129.036,19
129.061,7
129.086,-5
129.111,-27
129.136,-57
129.161,-82
129.186,-82
129.211,-46
129.236,14
129.261,77
129.286,123
129.311,153
129.336,180
129.361,215
129.386,251
129.411,277
129.436,285
129.461,284
129.486,282
129.511,286
129.536,291
129.561,291
129.586,286
129.611,278
129.636,271
129.661,263
129.686,251
129.711,237
129.736,220
129.761,203
129.786,185
129.811,169
129.836,157
129.861,148
129.886,137
129.911,121
129.936,100
129.961,79
129.986,64
130.011,53
130.036,41
130.061,26
130.086,9
130.111,-10
130.136,-32
130.161,-57
130.186,-76
130.211,-73
130.236,-40
130.261,14
130.286,73
130.311,118
130.336,149
130.361,176
130.386,209
130.411,242
130.436,265
130.461,272
130.486,269
130.511,267
130.536,273
130.561,280
130.586,282
130.611,276
130.636,268
130.661,259
130.686,250
130.711,241
130.736,231
130.761,221
130.786,211
130.811,201
130.836,188
130.861,173
130.886,159
130.911,146
130.936,133
130.961,117
130.986,99
131.011,82
131.036,67
131.061,54
131.086,41
131.111,29
131.136,18
131.161,4
131.186,-13
131.211,-33
131.236,-45
131.261,-37
131.286,-3
131.311,46
131.336,95
131.361,133
131.386,159
131.411,183
131.436,212
131.461,241
131.486,263
131.511,271
131.536,269
131.561,265
131.586,265
131.611,269
131.636,272
131.661,270
131.686,262
131.711,251
131.736,241
131.761,233
131.786,225
131.811,215
131.836,202
131.861,188
131.886,175
131.911,163
131.936,150
131.961,133
131.986,117
132.011,102
132.036,90
132.061,80
132.086,67
132.111,53
132.136,39
132.161,24
132.186,7
132.211,-12
132.236,-26
132.261,-23
132.286,5
132.311,52
132.336,99
132.361,135
132.386,157
132.411,175
132.436,196
132.461,218
132.486,233
132.511,236
132.536,234
132.561,232
132.586,235
132.611,239
132.636,239
132.661,237
132.686,232
132.711,227
132.736,221
132.761,214
132.786,206
132.811,198
132.836,187
132.861,174
132.886,158
132.911,143
132.936,130
132.961,117
132.986,102
133.011,85
133.036,71
133.061,58
133.086,42
133.111,20
133.136,-3
133.161,-16
133.186,-3
133.211,33
133.236,81
133.261,122
133.286,152
133.311,174
133.336,196
133.361,217
133.386,231
133.411,235
133.436,233
133.461,231
133.486,234
133.511,242
133.536,248
133.561,248
133.586,242
133.611,233
133.636,221
133.661,209
133.686,196
133.711,179
133.736,161
133.761,145
133.786,132
133.811,121
133.836,109
133.861,93
133.886,75
133.911,57
133.936,38
133.961,16
133.986,-8
134.011,-26
134.036,-23
134.061,8
134.086,58
134.111,107
134.136,141
134.161,162
134.186,182
134.211,207
134.236,233
134.261,249
134.286,249
134.311,241
134.336,236
134.361,240
134.386,249
134.411,255
134.436,253
134.461,243
134.486,231
134.511,218
134.536,207
134.561,195
134.586,179
134.611,160
134.636,141
134.661,124
134.686,109
134.711,94
134.736,78
134.761,60
134.786,43
134.811,24
134.836,1
134.861,-23
134.886,-38
134.911,-29
134.936,9
134.961,65
134.986,118
135.011,155
135.036,178
135.061,200
135.086,226
135.111,249
135.136,261
135.161,259
135.186,254
135.211,252
135.236,256
135.261,262
135.286,264
135.311,263
135.336,258
135.361,248
135.386,232
135.411,211
135.436,191
135.461,174
135.486,160
135.511,143
135.536,123
135.561,102
135.586,82
135.611,62
135.636,41
135.661,21
135.686,3
135.711,-15
135.736,-37
135.761,-61
135.786,-74
135.811,-60
135.836,-13
135.861,50
135.886,108
135.911,148
135.936,172
135.961,197
135.986,229
136.011,261
136.036,281
136.061,285
136.086,282
136.111,281
136.136,286
136.161,292
136.186,291
136.211,285
136.236,276
136.261,266
136.286,255
136.311,239
136.336,220
136.361,200
136.386,183
136.411,166
136.436,150
136.461,132
136.486,115
136.511,97
136.536,77
136.561,56
136.586,35
136.611,18
136.636,5
136.661,-12
136.686,-38
136.711,-69
136.736,-87
136.761,-77
136.786,-33
136.811,31
136.836,95
136.861,142
136.886,174
136.911,199
136.936,226
136.961,256
136.986,280
137.011,291
137.036,290
137.061,285
137.086,283
137.111,286
137.136,289
137.161,286
137.186,276
137.211,263
137.236,253
137.261,244
137.286,234
137.311,218
137.336,200
137.361,183
137.386,169
137.411,154
137.436,134
137.461,112
137.486,92
137.511,78
137.536,65
137.561,49
137.586,28
137.611,7
137.636,-9
137.661,-25
137.686,-48
137.711,-75
137.736,-92
137.761,-80
137.786,-34
137.811,30
137.836,92
137.861,135
137.886,163
137.911,190
137.936,223
137.961,257
137.986,280
138.011,288
138.036,286
138.061,281
138.086,280
138.111,282
138.136,285
138.161,285
138.186,283
138.211,277
138.236,266
138.261,251
138.286,234
138.311,216
138.336,200
138.361,184
138.386,168
138.411,150
138.436,132
138.461,114
138.486,96
138.511,77
138.536,56
138.561,36
138.586,19
138.611,6
138.636,-7
138.661,-29
138.686,-57
138.711,-79
138.736,-76
138.761,-41
138.786,16
138.811,77
138.836,124
138.861,157
138.886,187
138.911,219
138.936,250
138.961,270
138.986,274
139.011,271
139.036,270
139.061,274
139.086,279
139.111,278
139.136,272
139.161,266
139.186,262
139.211,258
139.236,250
139.261,235
139.286,218
139.311,202
139.336,188
139.361,172
139.386,154
139.411,136
139.436,122
139.461,109
139.486,95
139.511,76
139.536,56
139.561,40
139.586,28
139.611,13
139.636,-8
139.661,-35
139.686,-50
139.711,-39
139.736,2
139.761,58
139.786,109
139.811,145
139.836,170
139.861,194
139.886,220
139.911,241
139.936,251
139.961,248
139.986,243
140.011,242
140.036,245
140.061,249
140.086,247
140.111,242
140.136,237
140.161,232
140.186,225
140.211,215
140.236,202
140.261,188
140.286,173
140.311,156
140.336,137
140.361,117
140.386,99
140.411,84
140.436,72
140.461,61
140.486,50
140.511,36
140.536,15
140.561,-8
140.586,-23
140.611,-15
140.636,21
140.661,76
140.686,128
140.711,165
140.736,188
140.761,206
140.786,225
140.811,241
140.836,245
140.861,240
140.886,233
140.911,233
140.936,238
140.961,240
140.986,235
141.011,227
141.036,220
141.061,215
141.086,204
141.111,186
141.136,165
141.161,148
141.186,136
141.211,124
141.236,106
141.261,87
141.286,71
141.311,60
141.336,45
141.361,22
141.386,1
141.411,-2
141.436,22
141.461,66
141.486,113
141.511,148
141.536,171
141.561,190
141.586,208
141.611,222
141.636,227
141.661,224
141.686,217
141.711,213
141.736,213
141.761,214
141.786,213
141.811,209
141.836,201
141.861,188
141.886,173
141.911,155
141.936,138
141.961,121
141.986,104
142.011,88
142.036,73
142.061,56
142.086,36
142.111,16
142.136,8
142.161,20
142.186,55
142.211,102
142.236,144
142.261,174
142.286,195
142.311,214
142.336,232
142.361,244
142.386,243
142.411,235
142.436,228
142.461,228
142.486,231
142.511,228
142.536,218
142.561,204
142.586,194
142.611,187
142.636,179
142.661,163
142.686,142
142.711,121
142.736,101
142.761,85
142.786,68
142.811,50
142.836,28
142.861,4
142.886,-18
142.911,-33
142.936,-28
142.961,1
142.986,50
143.011,102
143.036,144
143.061,177
143.086,205
143.111,234
143.136,262
143.161,281
143.186,288
143.211,287
143.236,286
143.261,286
143.286,285
143.311,280
143.336,271
143.361,262
143.386,253
143.411,242
143.436,227
143.461,210
143.486,192
143.511,175
143.536,158
143.561,140
143.586,121
143.611,104
143.636,88
143.661,68
143.686,45
143.711,20
143.736,1
143.761,-12
143.786,-28
143.811,-53
143.836,-84
143.861,-102
143.886,-88
143.911,-39
143.936,28
143.961,89
143.986,133
144.011,162
144.036,193
144.061,230
144.086,268
144.111,294
144.136,302
144.161,297
144.186,289
144.211,287
144.236,290
144.261,292
144.286,287
144.311,277
144.336,265
144.361,255
144.386,245
144.411,234
144.436,218
144.461,198
144.486,179
144.511,164
144.536,150
144.561,136
144.586,119
144.611,100
144.636,80
144.661,60
144.686,40
144.711,21
144.736,5
144.761,-11
144.786,-32
144.811,-58
144.836,-81
144.861,-85
144.886,-58
144.911,-3
144.936,62
144.961,118
144.986,155
145.011,182
145.036,210
145.061,242
145.086,269
145.111,283
145.136,283
145.161,277
145.186,275
145.211,278
145.236,280
145.261,278
145.286,273
145.311,268
145.336,262
145.361,253
145.386,237
145.411,216
145.436,196
145.461,182
145.486,170
145.511,158
145.536,140
145.561,120
145.586,101
145.611,85
145.636,70
145.661,56
145.686,41
145.711,27
145.736,11
145.761,-11
145.786,-38
145.811,-58
145.836,-54
145.861,-19
145.886,37
145.911,95
145.936,137
145.961,163
145.986,187
146.011,217
146.036,249
146.061,269
146.086,274
146.111,269
146.136,266
146.161,269
146.186,273
146.211,272
146.236,264
146.261,254
146.286,245
146.311,237
146.336,227
146.361,212
146.386,197
146.411,182
146.436,167
146.461,150
146.486,133
146.511,118
146.536,105
146.561,89
146.586,71
146.611,51
146.636,35
146.661,23
146.686,10
146.711,-6
146.736,-21
146.761,-23
146.786,-1
146.811,40
146.836,89
146.861,133
146.886,165
146.911,191
146.936,213
146.961,230
146.986,238
147.011,236
147.036,231
147.061,229
147.086,232
147.111,239
147.136,242
147.161,238
147.186,229
147.211,220
147.236,212
147.261,204
147.286,192
147.311,176
147.336,159
147.361,144
147.386,128
147.411,111
147.436,91
147.461,74
147.486,61
147.511,51
147.536,37
147.561,16
147.586,-4
147.611,-7
147.636,15
147.661,62
147.686,114
147.711,154
147.736,178
147.761,194
147.786,212
147.811,229
147.836,239
147.861,239
147.886,233
147.911,228
147.936,228
147.961,229
147.986,228
148.011,223
148.036,216
148.061,208
148.086,196
148.111,181
148.136,164
148.161,145
148.186,127
148.211,109
148.236,93
148.261,80
148.286,67
148.311,50
148.336,27
148.361,7
148.386,4
148.411,29
148.436,73
148.461,119
148.486,154
148.511,177
148.536,195
148.561,215
148.586,233
148.611,240
148.636,234
148.661,222
148.686,214
148.711,213
148.736,215
148.761,214
148.786,207
148.811,196
148.836,184
148.861,172
148.886,158
148.911,140
148.936,120
148.961,99
148.986,80
149.011,64
149.036,48
149.061,27
149.086,3
149.111,-16
149.136,-18
149.161,6
149.186,54
149.211,106
149.236,147
149.261,175
149.286,197
149.311,220
149.336,243
149.361,258
149.386,258
149.411,249
149.436,241
149.461,242
149.486,248
149.511,250
149.536,243
149.561,230
149.586,216
149.611,203
149.636,189
149.661,171
149.686,151
149.711,131
149.736,114
149.761,98
149.786,82
149.811,66
149.836,52
149.861,36
149.886,15
149.911,-8
149.936,-26
149.961,-26
149.986,0
150.011,46
150.036,98
150.061,140
150.086,169
150.111,191
150.136,215
150.161,240
150.186,260
150.211,269
150.236,267
150.261,262
150.286,260
150.311,264
150.336,267
150.361,266
150.386,258
150.411,248
150.436,239
150.461,230
150.486,217
150.511,199
150.536,179
150.561,161
150.586,147
150.611,135
150.636,121
150.661,104
150.686,86
150.711,68
150.736,51
150.761,33
150.786,17
150.811,3
150.836,-10
150.861,-27
150.886,-46
150.911,-58
150.936,-49
150.961,-13
150.986,40
151.011,94
151.036,134
151.061,161
151.086,185
151.111,215
151.136,245
151.161,266
151.186,272
151.211,268
151.236,265
151.261,268
151.286,275
151.311,279
151.336,276
151.361,268
151.386,259
151.411,251
151.436,244
151.461,234
151.486,221
151.511,205
151.536,188
151.561,170
151.586,155
151.611,141
151.636,128
151.661,116
151.686,103
151.711,88
151.736,71
151.761,52
151.786,35
151.811,22
151.836,12
151.861,-2
151.886,-24
151.911,-46
151.936,-55
151.961,-38
151.986,3
152.011,57
152.036,105
152.061,139
152.086,164
152.111,190
152.136,221
152.161,251
152.186,270
152.211,274
152.236,268
152.261,262
152.286,261
152.311,264
152.336,267
152.361,267
152.386,262
152.411,254
152.436,244
152.461,233
152.486,220
152.511,205
152.536,191
152.561,177
152.586,163
152.611,147
152.636,132
152.661,119
152.686,106
152.711,93
152.736,77
152.761,59
152.786,43
152.811,29
152.836,15
152.861,-4
152.886,-28
152.911,-44
152.936,-37
152.961,-2
152.986,50
153.011,102
153.036,140
153.061,165
153.086,187
153.111,211
153.136,235
153.161,252
153.186,258
153.211,256
153.236,253
153.261,254
153.286,258
153.311,260
153.336,258
153.361,252
153.386,244
153.411,235
153.436,224
153.461,212
153.486,196
153.511,178
153.536,161
153.561,145
153.586,133
153.611,120
153.636,106
153.661,89
153.686,71
153.711,56
153.736,42
153.761,27
153.786,8
153.811,-14
153.836,-30
153.861,-31
153.886,-9
153.911,31
153.936,80
153.961,125
153.986,160
154.011,186
154.036,209
154.061,231
154.086,249
154.111,257
154.136,256
154.161,250
154.186,246
154.211,246
154.236,249
154.261,251
154.286,249
154.311,244
154.336,238
154.361,229
154.386,216
154.411,201
154.436,186
154.461,171
154.486,157
154.511,142
154.536,125
154.561,106
154.586,88
154.611,72
154.636,58
154.661,47
154.686,36
154.711,20
154.736,-1
154.761,-20
154.786,-25
154.811,-2
154.836,45
154.861,103
154.886,152
154.911,181
154.936,198
154.961,215
154.986,234
155.011,248
155.036,251
155.061,242
155.086,233
155.111,232
155.136,238
155.161,243
155.186,241
155.211,233
155.236,225
155.261,219
155.286,211
155.311,197
155.336,179
155.361,161
155.386,146
155.411,131
155.436,112
155.461,91
155.486,73
155.511,60
155.536,49
155.561,31
155.586,7
155.611,-12
155.636,-13
155.661,11
155.686,55
155.711,105
155.736,147
155.761,178
155.786,199
155.811,214
155.836,223
155.861,226
155.886,225
155.911,222
155.936,220
155.961,220
155.986,220
156.011,217
156.036,210
156.061,199
156.086,187
156.111,174
156.136,160
156.161,145
156.186,127
156.211,108
156.236,90
156.261,73
156.286,53
156.311,29
156.336,8
156.361,1
156.386,19
156.411,57
156.436,104
156.461,145
156.486,174
156.511,196
156.536,216
156.561,234
156.586,244
156.611,241
156.636,230
156.661,218
156.686,213
156.711,213
156.736,213
156.761,207
156.786,196
156.811,182
156.836,167
156.861,152
156.886,135
156.911,115
156.936,96
156.961,80
156.986,66
157.011,48
157.036,23
157.061,-2
157.086,-14
157.111,1
157.136,45
157.161,99
157.186,145
157.211,177
157.236,200
157.261,224
157.286,250
157.311,268
157.336,273
157.361,267
157.386,259
157.411,257
157.436,259
157.461,259
157.486,254
157.511,246
157.536,237
157.561,226
157.586,211
157.611,194
157.636,177
157.661,164
157.686,150
157.711,132
157.736,112
157.761,93
157.786,79
157.811,65
157.836,47
157.861,28
157.886,11
157.911,-1
157.936,-17
157.961,-43
157.986,-71
158.011,-83
158.036,-61
158.061,-8
158.086,56
158.111,109
158.136,143
158.161,167
158.186,195
158.211,228
158.236,255
158.261,271
158.286,275
158.311,275
158.336,278
158.361,283
158.386,285
158.411,284
158.436,279
158.461,274
158.486,269
158.511,263
158.536,254
158.561,241
158.586,223
158.611,202
158.636,185
158.661,174
158.686,166
158.711,156
158.736,139
158.761,118
158.786,98
158.811,83
158.836,69
158.861,52
158.886,34
158.911,19
158.936,10
158.961,-1
158.986,-23
159.011,-51
159.036,-66
159.061,-49
159.086,-2
159.111,55
159.136,102
159.161,132
159.186,156
159.211,185
159.236,220
159.261,249
159.286,263
159.311,265
159.336,263
159.361,265
159.386,268
159.411,267
159.436,262
159.461,258
159.486,256
159.511,252
159.536,242
159.561,227
159.586,211
159.611,198
159.636,187
159.661,175
159.686,160
159.711,142
159.736,125
159.761,110
159.786,96
159.811,82
159.836,68
159.861,53
159.886,38
159.911,23
159.936,5
159.961,-15
159.986,-33
160.011,-40
160.036,-28
160.061,4
160.086,51
160.111,98
160.136,137
160.161,167
160.186,194
160.211,222
160.236,249
160.261,268
160.286,273
160.311,269
160.336,263
160.361,261
160.386,262
160.411,263
160.436,262
160.461,257
160.486,248
160.511,235
160.536,220
160.561,205
160.586,191
160.611,176
160.636,161
160.661,147
160.686,136
160.711,126
160.736,113
160.761,94
160.786,73
160.811,57
160.836,46
160.861,34
160.886,15
160.911,-7
160.936,-19
160.961,-4
160.986,35
161.011,82
161.036,117
161.061,137
161.086,151
161.111,172
161.136,200
161.161,223
161.186,233
161.211,231
161.236,225
161.261,224
161.286,227
161.311,230
161.336,231
161.361,229
161.386,225
161.411,218
161.436,209
161.461,199
161.486,188
161.511,176
161.536,163
161.561,150
161.586,138
161.611,127
161.636,116
161.661,103
161.686,88
161.711,75
161.736,64
161.761,50
161.786,31
161.811,12
161.836,5
161.861,20
161.886,55
161.911,96
161.936,130
161.961,154
161.986,172
162.011,190
162.036,209
162.061,223
162.086,228
162.111,226
162.136,221
162.161,220
162.186,222
162.211,226
162.236,226
162.261,222
162.286,214
162.311,205
162.336,198
162.361,192
162.386,183
162.411,169
162.436,152
162.461,134
162.486,120
162.511,108
162.536,97
162.561,85
162.586,72
162.611,56
162.636,38
162.661,20
162.686,14
162.711,29
162.736,65
162.761,109
162.786,146
162.811,169
162.836,182
162.861,196
162.886,214
162.911,227
162.936,229
162.961,223
162.986,216
163.011,216
163.036,220
163.061,220
163.086,213
163.111,202
163.136,190
163.161,180
163.186,170
163.211,160
163.236,149
163.261,137
163.286,122
163.311,105
163.336,87
163.361,69
163.386,51
163.411,31
163.436,12
163.461,5
163.486,20
163.511,57
163.536,104
163.561,143
163.586,167
163.611,183
163.636,200
163.661,219
163.686,234
163.711,237
163.736,229
163.761,220
163.786,216
163.811,218
163.836,218
163.861,213
163.886,202
163.911,188
163.936,175
163.961,161
163.986,145
164.011,127
164.036,107
164.061,88
164.086,73
164.111,59
164.136,42
164.161,22
164.186,3
164.211,-1
164.236,14
164.261,51
164.286,97
164.311,138
164.336,169
164.361,193
164.386,217
164.411,242
164.436,262
164.461,269
164.486,265
164.511,254
164.536,245
164.561,242
164.586,244
164.611,245
164.636,243
164.661,234
164.686,219
164.711,202
164.736,184
164.761,167
164.786,151
164.811,136
164.836,121
164.861,107
164.886,90
164.911,72
164.936,54
164.961,35
164.986,16
165.011,-4
165.036,-27
165.061,-46
165.086,-47
165.111,-22
165.136,26
165.161,83
165.186,130
165.211,159
165.236,181
165.261,205
165.286,236
165.311,263
165.336,275
165.361,272
165.386,264
165.411,262
165.436,267
165.461,273
165.486,271
165.511,262
165.536,251
165.561,243
165.586,235
165.611,223
165.636,205
165.661,186
165.686,170
165.711,157
165.736,144
165.761,128
165.786,111
165.811,93
165.836,77
165.861,60
165.886,42
165.911,27
165.936,14
165.961,0
165.986,-24
166.011,-53
166.036,-76
166.061,-74
166.086,-40
166.111,16
166.136,75
166.161,120
166.186,151
166.211,178
166.236,207
166.261,239
166.286,264
166.311,278
166.336,280
166.361,278
166.386,279
166.411,283
166.436,287
166.461,286
166.486,280
166.511,271
166.536,260
166.561,247
166.586,233
166.611,219
166.636,205
166.661,190
166.686,174
166.711,157
166.736,139
166.761,123
166.786,109
166.811,94
166.836,77
166.861,57
166.886,40
166.911,27
166.936,13
166.961,-6
166.986,-31
167.011,-46
167.036,-36
167.061,1
167.086,54
167.111,103
167.136,137
167.161,159
167.186,179
167.211,202
167.236,224
167.261,236
167.286,238
167.311,235
167.336,234
167.361,239
167.386,245
167.411,248
167.436,245
167.461,235
167.486,222
167.511,210
167.536,201
167.561,192
167.586,179
167.611,163
167.636,145
167.661,131
167.686,122
167.711,113
167.736,100
167.761,84
167.786,70
167.811,60
167.836,47
167.861,27
167.886,8
167.911,6
167.936,33
167.961,81
167.986,129
168.011,159
168.036,174
168.061,188
168.086,210
168.111,233
168.136,245
168.161,239
168.186,225
168.211,218
168.236,221
168.261,228
168.286,227
168.311,217
168.336,202
168.361,191
168.386,183
168.411,173
168.436,159
168.461,139
168.486,118
168.511,99
168.536,86
168.561,76
168.586,62
168.611,43
168.636,19
168.661,5
168.686,11
168.711,40
168.736,83
168.761,124
168.786,155
168.811,178
168.836,198
168.861,218
168.886,231
168.911,233
168.936,227
168.961,220
168.986,216
169.011,216
169.036,215
169.061,210
169.086,202
169.111,192
169.136,180
169.161,166
169.186,150
169.211,133
169.236,116
169.261,99
169.286,83
169.311,68
169.336,51
169.361,30
169.386,7
169.411,-7
169.436,-3
169.461,27
169.486,75
169.511,124
169.536,162
169.561,185
169.586,203
169.611,222
169.636,241
169.661,254
169.686,256
169.711,250
169.736,243
169.761,241
169.786,243
169.811,248
169.836,250
169.861,246
169.886,235
169.911,219
169.936,203
169.961,187
169.986,172
170.011,156
170.036,139
170.061,122
170.086,106
170.111,91
170.136,75
170.161,58
170.186,42
170.211,28
170.236,14
170.261,-3
170.286,-23
170.311,-31
170.336,-14
170.361,28
170.386,83
170.411,130
170.436,158
170.461,176
170.486,197
170.511,223
170.536,247
170.561,257
170.586,253
170.611,245
170.636,244
170.661,251
170.686,257
170.711,254
170.736,245
170.761,236
170.786,231
170.811,227
170.836,219
170.861,205
170.886,188
170.911,172
170.936,157
170.961,141
170.986,124
171.011,108
171.036,93
171.061,78
171.086,62
171.111,46
171.136,31
171.161,16
171.186,-1
171.211,-23
171.236,-43
171.261,-45
171.286,-21
171.311,24
171.336,79
171.361,125
171.386,156
171.411,179
171.436,203
171.461,229
171.486,252
171.511,265
171.536,267
171.561,264
171.586,264
171.611,267
171.636,272
171.661,273
171.686,268
171.711,258
171.736,246
171.761,234
171.786,223
171.811,210
171.836,197
171.861,182
171.886,167
171.911,150
171.936,134
171.961,119
171.986,107
172.011,95
172.036,81
172.061,66
172.086,51
172.111,39
172.136,27
172.161,10
172.186,-14
172.211,-40
172.236,-52
172.261,-36
172.286,5
172.311,59
172.336,106
172.361,139
172.386,163
172.411,188
172.436,218
172.461,246
172.486,264
172.511,267
172.536,262
172.561,258
172.586,260
172.611,265
172.636,268
172.661,263
172.686,254
172.711,243
172.736,234
172.761,226
172.786,216
172.811,204
172.836,190
172.861,174
172.886,157
172.911,139
172.936,122
172.961,106
172.986,91
173.011,75
173.036,56
173.061,38
173.086,21
173.111,6
173.136,-9
173.161,-28
173.186,-43
173.211,-41
173.236,-14
173.261,34
173.286,88
173.311,133
173.336,164
173.361,190
173.386,216
173.411,242
173.436,258
173.461,263
173.486,260
173.511,259
173.536,262
173.561,265
173.586,263
173.611,256
173.636,248
173.661,243
173.686,242
173.711,239
173.736,232
173.761,217
173.786,196
173.811,174
173.836,153
173.861,137
173.886,124
173.911,110
173.936,93
173.961,75
173.986,59
174.011,44
174.036,26
174.061,3
174.086,-16
174.111,-21
174.136,0
174.161,43
174.186,91
174.211,130
174.236,157
174.261,179
174.286,202
174.311,221
174.336,230
174.361,226
174.386,220
174.411,219
174.436,224
174.461,228
174.486,226
174.511,219
174.536,213
174.561,209
174.586,204
174.611,193
174.636,177
174.661,159
174.686,142
174.711,125
174.736,106
174.761,88
174.786,71
174.811,54
174.836,35
174.861,12
174.886,-6
174.911,-6
174.936,18
174.961,64
174.986,113
175.011,150
175.036,172
175.061,188
175.086,208
175.111,229
175.136,244
175.161,244
175.186,233
175.211,222
175.236,218
175.261,222
175.286,223
175.311,217
175.336,203
175.361,187
175.386,174
175.411,165
175.436,153
175.461,137
175.486,116
175.511,96
175.536,79
175.561,62
175.586,41
175.611,18
175.636,5
175.661,13
175.686,46
175.711,92
175.736,135
175.761,165
175.786,184
175.811,203
175.836,224
175.861,241
175.886,244
175.911,235
175.936,222
175.961,216
175.986,217
176.011,218
176.036,214
176.061,201
176.086,186
176.111,172
176.136,160
176.161,147
176.186,132
176.211,114
176.236,97
176.261,82
176.286,69
176.311,58
176.336,45
176.361,26
176.386,2
176.411,-15
176.436,-15
176.461,12
176.486,61
176.511,114
176.536,157
176.561,185
176.586,207
176.611,229
176.636,250
176.661,265
176.686,270
176.711,268
176.736,267
176.761,268
176.786,268
176.811,265
176.836,258
176.861,249
176.886,240
176.911,230
176.936,217
176.961,201
176.986,185
177.011,170
177.036,155
177.061,140
177.086,125
177.111,113
177.136,101
177.161,86
177.186,67
177.211,47
177.236,30
177.261,16
177.286,1
177.311,-20
177.336,-44
177.361,-55
177.386,-40
177.411,0
177.436,55
177.461,105
177.486,140
177.511,166
177.536,192
177.561,221
177.586,246
177.611,259
177.636,258
177.661,254
177.686,254
177.711,261
177.736,266
177.761,264
177.786,256
177.811,248
177.836,243
177.861,237
177.886,226
177.911,209
177.936,192
177.961,179
177.986,169
178.011,157
178.036,139
178.061,118
178.086,101
178.111,87
178.136,73
178.161,56
178.186,39
178.211,25
178.236,13
178.261,-4
178.286,-28
178.311,-48
178.336,-47
178.361,-14
178.386,41
178.411,100
178.436,141
178.461,166
178.486,185
178.511,211
178.536,241
178.561,265
178.586,273
178.611,268
178.636,260
178.661,258
178.686,261
178.711,264
178.736,264
178.761,259
178.786,252
178.811,240
178.836,226
178.861,209
178.886,193
178.911,178
178.936,163
178.961,148
178.986,131
179.011,116
179.036,102
179.061,87
179.086,69
179.111,52
179.136,38
179.161,25
179.186,10
179.211,-6
179.236,-17
179.261,-8
179.286,26
179.311,77
179.336,126
179.361,160
179.386,178
179.411,191
179.436,207
179.461,225
179.486,236
179.511,236
179.536,231
179.561,227
179.586,228
179.611,231
179.636,234
179.661,233
179.686,230
179.711,223
179.736,211
179.761,194
179.786,174
179.811,157
179.836,142
179.861,127
179.886,113
179.911,100
179.936,88
179.961,73
179.986,52
180.011,26
180.036,5
180.061,4
180.086,28
180.111,69
180.136,112
180.161,147
180.186,172
180.211,192
180.236,209
180.261,222
180.286,227
180.311,226
180.336,221
180.361,217
180.386,214
180.411,210
180.436,203
180.461,194
180.486,182
180.511,169
180.536,153
180.561,136
180.586,116
180.611,96
180.636,79
180.661,66
180.686,51
180.711,31
180.736,9
180.761,-6
180.786,-3
180.811,24
180.836,69
180.861,115
180.886,149
180.911,172
180.936,193
180.961,217
180.986,239
181.011,247
181.036,241
181.061,228
181.086,219
181.111,218
181.136,221
181.161,219
181.186,211
181.211,202
181.236,194
181.261,185
181.286,170
181.311,150
181.336,129
181.361,114
181.386,104
181.411,91
181.436,72
181.461,51
181.486,43
181.511,59
181.536,98
181.561,147
181.586,189
181.611,217
181.636,234
181.661,247
181.686,262
181.711,272
181.736,270
181.761,257
181.786,238
181.811,222
181.836,212
181.861,206
181.886,197
181.911,183
181.936,167
181.961,149
181.986,132
182.011,116
182.036,102
182.061,88
182.086,73
182.111,55
182.136,36
182.161,19
182.186,7
182.211,-3
182.236,-19
182.261,-41
182.286,-57
182.311,-52
182.336,-17
182.361,37
182.386,92
182.411,135
182.436,163
182.461,186
182.486,211
182.511,235
182.536,254
182.561,265
182.586,270
182.611,270
182.636,267
182.661,262
182.686,259
182.711,260
182.736,263
182.761,263
182.786,254
182.811,240
182.836,227
182.861,220
182.886,217
182.911,210
182.936,196
182.961,179
182.986,165
183.011,152
183.036,140
183.061,125
183.086,109
183.111,94
183.136,80
183.161,63
183.186,44
183.211,26
183.236,11
183.261,-3
183.286,-24
183.311,-48
183.336,-63
183.361,-52
183.386,-12
183.411,45
183.436,100
183.461,138
183.486,162
183.511,184
183.536,210
183.561,235
183.586,249
183.611,251
183.636,245
183.661,243
183.686,247
183.711,255
183.736,260
183.761,260
183.786,257
183.811,254
183.836,250
183.861,243
183.886,232
183.911,218
183.936,204
183.961,191
183.986,177
184.011,162
184.036,145
184.061,129
184.086,115
184.111,103
184.136,91
184.161,80
184.186,72
184.211,66
184.236,57
184.261,39
184.286,14
184.311,-6
184.336,-5
184.361,21
184.386,68
184.411,115
184.436,150
184.461,171
184.486,186
184.511,202
184.536,218
184.561,229
184.586,233
184.611,232
184.636,228
184.661,226
184.686,226
184.711,226
184.736,225
184.761,221
184.786,216
184.811,210
184.836,205
184.861,199
184.886,189
184.911,173
184.936,153
184.961,133
184.986,117
185.011,104
185.036,91
185.061,76
185.086,62
185.111,46
185.136,29
185.161,8
185.186,-7
185.211,-7
185.236,17
185.261,61
185.286,109
185.311,145
185.336,168
185.361,186
185.386,206
185.411,228
185.436,242
185.461,242
185.486,234
185.511,226
185.536,225
185.561,225
185.586,221
185.611,210
185.636,196
185.661,184
185.686,175
185.711,165
185.736,152
185.761,136
185.786,119
185.811,103
185.836,89
185.861,75
185.886,56
185.911,34
185.936,16
185.961,11
185.986,27
186.011,64
186.036,110
186.061,149
186.086,178
186.111,198
186.136,217
186.161,236
186.186,250
186.211,253
186.236,245
186.261,237
186.286,234
186.311,237
186.336,238
186.361,231
186.386,218
186.411,202
186.436,188
186.461,174
186.486,156
186.511,133
186.536,109
186.561,89
186.586,74
186.611,60
186.636,45
186.661,25
186.686,1
186.711,-22
186.736,-40
186.761,-41
186.786,-18
186.811,26
186.836,80
186.861,128
186.886,161
186.911,185
186.936,209
186.961,237
186.986,262
187.011,274
187.036,272
187.061,262
187.086,256
187.111,257
187.136,260
187.161,259
187.186,253
187.211,246
187.236,241
187.261,233
187.286,222
187.311,207
187.336,192
187.361,179
187.386,165
187.411,150
187.436,134
187.461,119
187.486,106
187.511,92
187.536,74
187.561,55
187.586,36
187.611,18
187.636,-2
187.661,-27
187.686,-49
187.711,-50
187.736,-21
187.761,32
187.786,93
187.811,143
187.836,178
187.861,203
187.886,227
187.911,252
187.936,273
187.961,287
187.986,295
188.011,300
188.036,303
188.061,303
188.086,299
188.111,292
188.136,283
188.161,273
188.186,259
188.211,241
188.236,219
188.261,195
188.286,169
188.311,141
188.336,114
188.361,92
188.386,76
188.411,61
188.436,43
188.461,23
188.486,3
188.511,-13
188.536,-28
188.561,-47
188.586,-70
188.611,-86
188.636,-79
188.661,-44
188.686,7
188.711,58
188.736,92
188.761,113
188.786,129
188.811,150
188.836,173
188.861,187
188.886,189
188.911,185
188.936,186
188.961,195
188.986,207
189.011,216
189.036,219
189.061,218
189.086,216
189.111,211
189.136,204
189.161,195
189.186,191
189.211,190
189.236,189
189.261,181
189.286,164
189.311,147
189.336,132
189.361,117
189.386,99
189.411,77
189.436,65
189.461,77
189.486,116
189.511,171
189.536,224
189.561,263
189.586,291
189.611,314
189.636,334
189.661,344
189.686,339
189.711,326
189.736,312
189.761,303
189.786,293
189.811,273
189.836,238
189.861,195
189.886,159
189.911,137
189.936,125
189.961,113
189.986,92
190.011,63
190.036,36
190.061,14
190.086,-2
190.111,-18
190.136,-31
190.161,-33
190.186,-14
190.211,22
190.236,66
190.261,101
190.286,119
190.311,125
190.336,130
190.361,139
190.386,153
190.411,163
190.436,165
190.461,158
190.486,149
190.511,145
190.536,148
190.561,157
190.586,169
190.611,177
190.636,177
190.661,166
190.686,146
190.711,121
190.736,100
190.761,86
190.786,74
190.811,58
190.836,37
190.861,22
190.886,29
190.911,66
190.936,121
190.961,172
190.986,203
191.011,216
191.036,224
191.061,241
191.086,262
191.111,274
191.136,269
191.161,252
191.186,236
191.211,228
191.236,224
191.261,217
191.286,204
191.311,188
191.336,176
191.361,168
191.386,160
191.411,151
191.436,140
191.461,132
191.486,127
191.511,121
191.536,110
191.561,92
191.586,70
191.611,49
191.636,30
191.661,13
191.686,-5
191.711,-23
191.736,-30
191.761,-15
191.786,23
191.811,71
191.836,111
191.861,135
191.886,153
191.911,179
191.936,215
191.961,247
191.986,261
192.011,256
192.036,248
192.061,251
192.086,270
192.111,289
192.136,296
192.161,289
192.186,276
192.211,266
192.236,263
192.261,260
192.286,252
192.311,235
192.336,208
192.361,178
192.386,153
192.411,139
192.436,135
192.461,135
192.486,129
192.511,119
192.536,111
192.561,106
192.586,99
192.611,83
192.636,62
192.661,53
192.686,68
192.711,104
192.736,142
192.761,167
192.786,181
192.811,195
192.836,218
192.861,238
192.886,240
192.911,216
192.936,177
192.961,138
192.986,109
193.011,87
193.036,67
193.061,52
193.086,45
193.111,42
193.136,38
193.161,29
193.186,23
193.211,25
193.236,35
193.261,44
193.286,45
193.311,37
193.336,30
193.361,26
193.386,19
193.411,1
193.436,-19
193.461,-24
193.486,2
193.511,60
193.536,130
193.561,188
193.586,229
193.611,260
193.636,290
193.661,323
193.686,353
193.711,375
193.736,391
193.761,405
193.786,413
193.811,411
193.836,398
193.861,378
193.886,356
193.911,330
193.936,297
193.961,254
193.986,207
194.011,166
194.036,134
194.061,107
194.086,79
194.111,55
194.136,39
194.161,25
194.186,2
194.211,-36
194.236,-80
194.261,-101
194.286,-78
194.311,-21
194.336,43
194.361,92
194.386,124
194.411,150
194.436,180
194.461,206
194.486,220
194.511,224
194.536,230
194.561,246
194.586,263
194.611,269
194.636,264
194.661,257
194.686,254
194.711,243
194.736,202
194.761,129
194.786,50
194.811,0
194.836,-7
194.861,9
194.886,26
194.911,31
194.936,33
194.961,40
194.986,46
195.011,42
195.036,28
195.061,26
195.086,53
195.111,105
195.136,159
195.161,193
195.186,205
195.211,214
195.236,232
195.261,257
195.286,273
195.311,274
195.336,264
195.361,253
195.386,245
195.411,239
195.436,232
195.461,224
195.486,216
195.511,207
195.536,193
195.561,175
195.586,155
195.611,139
195.636,125
195.661,112
195.686,98
195.711,85
195.736,73
195.761,59
195.786,38
195.811,15
195.836,3
195.861,13
195.886,48
195.911,95
195.936,139
195.961,169
195.986,190
196.011,205
196.036,219
196.061,227
196.086,229
196.111,227
196.136,222
196.161,219
196.186,216
196.211,213
196.236,209
196.261,204
196.286,198
196.311,188
196.336,176
196.361,163
196.386,150
196.411,136
196.436,119
196.461,101
196.486,82
196.511,63
196.536,44
196.561,28
196.586,26
196.611,46
196.636,86
196.661,134
196.686,175
196.711,201
196.736,216
196.761,229
196.786,241
196.811,246
196.836,238
196.861,222
196.886,208
196.911,203
196.936,204
196.961,202
196.986,190
197.011,170
197.036,150
197.061,132
197.086,114
197.111,95
197.136,75
197.161,59
197.186,46
197.211,30
197.236,8
197.261,-10
197.286,-11
197.311,14
197.336,63
197.361,115
197.386,155
197.411,181
197.436,204
197.461,231
197.486,258
197.511,272
197.536,266
197.561,248
197.586,230
197.611,221
197.636,218
197.661,211
197.686,198
197.711,180
197.736,162
197.761,145
197.786,124
197.811,103
197.836,86
197.861,75
197.886,63
197.911,42
197.936,12
197.961,-8
197.986,-3
198.011,32
198.036,84
198.061,130
198.086,158
198.111,173
198.136,187
198.161,205
198.186,224
198.211,233
198.236,230
198.261,219
198.286,209
198.311,208
198.336,214
198.361,219
198.386,218
198.411,208
198.436,193
198.461,177
198.486,160
198.511,140
198.536,115
198.561,88
198.586,61
198.611,33
198.636,4
198.661,-22
198.686,-33
198.711,-12
198.736,40
198.761,107
198.786,162
198.811,190
198.836,200
198.861,210
198.886,233
198.911,260
198.936,274
198.961,271
198.986,259
199.011,251
199.036,250
199.061,249
199.086,244
199.111,236
199.136,230
199.161,223
199.186,208
199.211,182
199.236,149
199.261,118
199.286,94
199.311,76
199.336,60
199.361,43
199.386,23
199.411,-1
199.436,-26
199.461,-42
199.486,-32
199.511,10
199.536,75
199.561,138
199.586,180
199.611,202
199.636,218
199.661,237
199.686,257
199.711,266
199.736,260
199.761,245
199.786,234
199.811,230
199.836,229
199.861,224
199.886,214
199.911,200
199.936,185
199.961,174
199.986,163
200.011,150
200.036,131
200.061,107
200.086,82
200.111,64
200.136,52
200.161,40
200.186,18
200.211,-7
200.236,-21
200.261,-6
200.286,38
200.311,94
200.336,139
200.361,167
200.386,186
200.411,208
200.436,231
200.461,243
200.486,237
200.511,222
200.536,212
200.561,213
200.586,219
200.611,221
200.636,215
200.661,205
200.686,198
200.711,191
200.736,180
200.761,161
200.786,135
200.811,110
200.836,93
200.861,83
200.886,74
200.911,57
200.936,31
200.961,5
200.986,-3
201.011,14
201.036,58
201.061,111
201.086,152
201.111,175
201.136,190
201.161,206
201.186,228
201.211,245
201.236,250
201.261,243
201.286,232
201.311,226
201.336,226
201.361,226
201.386,219
201.411,206
201.436,187
201.461,165
201.486,142
201.511,121
201.536,104
201.561,89
201.586,75
201.611,60
201.636,47
201.661,38
201.686,31
201.711,21
201.736,3
201.761,-14
201.786,-17
201.811,6
201.836,55
201.861,111
201.886,158
201.911,189
201.936,211
201.961,234
201.986,257
202.011,274
202.036,280
202.061,275
202.086,269
202.111,268
202.136,271
202.161,276
202.186,276
202.211,272
202.236,263
202.261,251
202.286,235
202.311,215
202.336,194
202.361,173
202.386,153
202.411,134
202.436,116
202.461,97
202.486,77
202.511,58
202.536,43
202.561,33
202.586,25
202.611,9
202.636,-16
202.661,-45
202.686,-59
202.711,-44
202.736,0
202.761,55
202.786,101
202.811,132
202.836,157
202.861,188
202.886,223
202.911,252
202.936,264
202.961,264
202.986,261
203.011,262
203.036,265
203.061,264
203.086,260
203.111,255
203.136,251
203.161,242
203.186,228
203.211,211
203.236,197
203.261,185
203.286,171
203.311,153
203.336,135
203.361,122
203.386,114
203.411,100
203.436,80
203.461,62
203.486,52
203.511,46
203.536,30
203.561,-1
203.586,-29
203.611,-22
203.636,28
203.661,98
203.686,150
203.711,171
203.736,180
203.761,205
203.786,251
203.811,292
203.836,306
203.861,297
203.886,289
203.911,296
203.936,306
203.961,294
203.986,252
204.011,197
204.036,155
204.061,135
204.086,124
204.111,105
204.136,77
204.161,49
204.186,28
204.211,16
204.236,7
204.261,0
204.286,-6
204.311,-15
204.336,-26
204.361,-33
204.386,-24
204.411,6
204.436,59
204.461,121
204.486,177
204.511,221
204.536,256
204.561,286
204.586,309
204.611,321
204.636,319
204.661,305
204.686,287
204.711,267
204.736,251
204.761,238
204.786,229
204.811,219
204.836,204
204.861,182
204.886,153
204.911,126
204.936,106
204.961,92
204.986,78
205.011,56
205.036,27
205.061,2
205.086,-3
205.111,18
205.136,62
205.161,109
205.186,145
205.211,165
205.236,177
205.261,191
205.286,205
205.311,214
205.336,212
205.361,202
205.386,191
205.411,185
205.436,183
205.461,178
205.486,166
205.511,151
205.536,135
205.561,118
205.586,98
205.611,77
205.636,59
205.661,46
205.686,35
205.711,23
205.736,12
205.761,13
205.786,36
205.811,83
205.836,139
205.861,190
205.886,225
205.911,248
205.936,265
205.961,282
205.986,294
206.011,299
206.036,295
206.061,286
206.086,276
206.111,264
206.136,251
206.161,234
206.186,211
206.211,184
206.236,157
206.261,133
206.286,109
206.311,85
206.336,58
206.361,34
206.386,16
206.411,2
206.436,-12
206.461,-34
206.486,-55
206.511,-60
206.536,-33
206.561,23
206.586,90
206.611,143
206.636,174
206.661,192
206.686,211
206.711,236
206.736,257
206.761,266
206.786,261
206.811,253
206.836,253
206.861,260
206.886,266
206.911,265
206.936,255
206.961,243
206.986,234
207.011,225
207.036,208
207.061,183
207.086,153
207.111,127
207.136,111
207.161,102
207.186,94
207.211,84
207.236,70
207.261,51
207.286,25
207.311,-5
207.336,-35
207.361,-45
207.386,-22
207.411,31
207.436,95
207.461,139
207.486,151
207.511,139
207.536,125
207.561,124
207.586,135
207.611,147
207.636,153
207.661,157
207.686,169
207.711,193
207.736,225
207.761,256
207.786,282
207.811,299
207.836,307
207.861,302
207.886,284
207.911,260
207.936,234
207.961,211
207.986,188
208.011,162
208.036,132
208.061,105
208.086,88
208.111,78
208.136,66
208.161,44
208.186,17
208.211,0
208.236,10
208.261,51
208.286,109
208.311,162
208.336,199
208.361,220
208.386,237
208.411,257
208.436,277
208.461,288
208.486,284
208.511,269
208.536,253
208.561,242
208.586,233
208.611,220
208.636,202
208.661,181
208.686,163
208.711,149
208.736,133
208.761,111
208.786,85
208.811,61
208.836,45
208.861,32
208.886,18
208.911,3
208.936,-5
208.961,-6
208.986,-4
209.011,-12
209.036,-34
209.061,-54
209.086,-48
209.111,-7
209.136,52
209.161,104
209.186,131
209.211,144
209.236,161
209.261,194
209.286,231
209.311,257
209.336,263
209.361,257
209.386,253
209.411,252
209.436,250
209.461,244
209.486,237
209.511,233
209.536,233
209.561,231
209.586,224
209.611,210
209.636,196
209.661,182
209.686,169
209.711,152
209.736,131
209.761,106
209.786,84
209.811,69
209.836,60
209.861,52
209.886,35
209.911,7
209.936,-23
209.961,-37
209.986,-21
210.011,22
210.036,75
210.061,117
210.086,141
210.111,157
210.136,178
210.161,205
210.186,228
210.211,236
210.236,228
210.261,216
210.286,212
210.311,220
210.336,231
210.361,231
210.386,211
210.411,176
210.436,145
210.461,134
210.486,143
210.511,153
210.536,143
210.561,114
210.586,93
210.611,110
210.636,168
210.661,228
210.686,243
210.711,200
210.736,129
210.761,76
210.786,65
210.811,79
210.836,87
210.861,77
210.886,66
210.911,80
210.936,124
210.961,180
210.986,224
211.011,247
211.036,257
211.061,266
211.086,281
211.111,297
211.136,306
211.161,308
211.186,303
211.211,295
211.236,288
211.261,285
211.286,287
211.311,290
211.336,287
211.361,272
211.386,243
211.411,209
211.436,177
211.461,152
211.486,132
211.511,114
211.536,96
211.561,79
211.586,64
211.611,49
211.636,32
211.661,13
211.686,-9
211.711,-40
211.736,-83
211.761,-130
211.786,-162
211.811,-161
211.836,-127
211.861,-76
211.886,-28
211.911,12
211.936,60
211.961,123
211.986,188
212.011,221
212.036,205
212.061,161
212.086,132
212.111,151
212.136,211
212.161,272
212.186,308
212.211,316
212.236,318
212.261,326
212.286,331
212.311,321
212.336,293
212.361,261
212.386,234
212.411,214
212.436,191
212.461,165
212.486,138
212.511,110
212.536,73
212.561,22
212.586,-31
212.611,-68
212.636,-73
212.661,-50
212.686,-14
212.711,20
212.736,52
212.761,86
212.786,123
212.811,158
212.836,189
212.861,219
212.886,250
212.911,282
212.936,307
212.961,324
212.986,332
213.011,335
213.036,333
213.061,324
213.086,308
213.111,292
213.136,277
213.161,264
213.186,248
213.211,230
213.236,213
213.261,196
213.286,170
213.311,134
213.336,103
213.361,101
213.386,139
213.411,198
213.436,246
213.461,268
213.486,272
213.511,278
213.536,289
213.561,292
213.586,277
213.611,248
213.636,218
213.661,192
213.686,165
213.711,133
213.736,97
213.761,58
213.786,11
213.811,-47
213.836,-114
213.861,-178
213.886,-240
213.911,-314
213.936,-406
213.961,-500
213.986,-573
214.011,-617
214.036,-658
214.061,-722
214.086,-805
214.111,-876
214.136,-912
214.161,-919
214.186,-918
214.211,-917
214.236,-907
214.261,-892
214.286,-889
214.311,-906
214.336,-923
214.361,-913
214.386,-881
214.411,-860
214.436,-863
214.461,-860
214.486,-810
214.511,-720
214.536,-638
214.561,-591
214.586,-535
214.611,-415
214.636,-239
214.661,-67
214.686,71
214.711,234
214.736,488
214.761,815
214.786,1114
214.811,1338
214.836,1558
214.861,1877
214.886,2281
214.911,2653
214.936,2932
214.961,3218
214.986,3654
215.011,4224
215.036,4751
215.061,5107
215.086,5390
215.111,5794
215.136,6344
215.161,6837
215.186,7060
215.211,7009
215.236,6800
215.261,6430
215.286,5771
215.311,4857
215.336,4032
215.361,3641
215.386,3558
215.411,3201
215.436,2174
215.461,811
215.486,-92
215.511,-134
215.536,284
215.561,533
215.586,597
215.611,987
215.636,1612
215.661,976
215.686,-3015
215.711,-11076
215.736,-21336
215.761,-30256
215.786,-32768
215.811,-32768
215.836,-30493
215.861,-24000
215.886,-16178
215.911,-7907
215.936,-483
215.961,4696
215.986,7098
216.011,7504
216.036,7317
216.061,7417
216.086,7727
216.111,7782
216.136,7465
216.161,7093
216.186,6936
216.211,6888
216.236,6674
216.261,6248
216.286,5825
216.311,5576
216.336,5408
216.361,5117
216.386,4665
216.411,4217
216.436,3908
216.461,3683
216.486,3406
216.511,3050
216.536,2726
216.561,2509
216.586,2334
216.611,2089
216.636,1771
216.661,1483
216.686,1291
216.711,1138
216.736,927
216.761,653
216.786,410
216.811,264
216.836,173
216.861,52
216.886,-114
216.911,-265
216.936,-352
216.961,-403
216.986,-477
217.011,-583
217.036,-669
217.061,-700
217.086,-707
217.111,-748
217.136,-832
217.161,-912
217.186,-942
217.211,-921
217.236,-883
217.261,-842
217.286,-785
217.311,-706
217.336,-621
217.361,-554
217.386,-503
217.411,-450
217.436,-389
217.461,-336
217.486,-306
217.511,-290
217.536,-264
217.561,-220
217.586,-174
217.611,-144
217.636,-122
217.661,-87
217.686,-33
217.711,20
217.736,51
217.761,62
217.786,71
217.811,91
217.836,107
217.861,100
217.886,67
217.911,33
217.936,25
217.961,55
217.986,108
218.011,166
218.036,214
218.061,250
218.086,276
218.111,294
218.136,306
218.161,309
218.186,305
218.211,296
218.236,286
218.261,279
218.286,272
218.311,256
218.336,227
218.361,195
218.386,171
218.411,163
218.436,160
218.461,151
218.486,134
218.511,115
218.536,99
218.561,80
218.586,44
218.611,-4
218.636,-42
218.661,-41
218.686,3
218.711,67
218.736,114
218.761,136
218.786,148
218.811,172
218.836,208
218.861,231
218.886,223
218.911,195
218.936,177
218.961,187
218.986,217
219.011,241
219.036,245
219.061,240
219.086,241
219.111,252
219.136,257
219.161,241
219.186,205
219.211,166
219.236,137
219.261,120
219.286,106
219.311,92
219.336,83
219.361,80
219.386,75
219.411,57
219.436,27
219.461,11
219.486,32
219.511,95
219.536,174
219.561,237
219.586,269
219.611,285
219.636,303
219.661,332
219.686,357
219.711,365
219.736,360
219.761,353
219.786,355
219.811,361
219.836,361
219.861,354
219.886,348
219.911,342
219.936,324
219.961,277
219.986,200
220.011,113
220.036,40
220.061,-11
220.086,-50
220.111,-87
220.136,-117
220.161,-133
220.186,-132
220.211,-127
220.236,-126
220.261,-126
220.286,-119
220.311,-107
220.336,-94
220.361,-80
220.386,-46
220.411,26
220.436,133
220.461,238
220.486,301
220.511,318
220.536,313
220.561,318
220.586,337
220.611,348
220.636,338
220.661,316
220.686,304
220.711,305
220.736,300
220.761,269
220.786,214
220.811,161
220.836,133
220.861,132
220.886,140
220.911,141
220.936,132
220.961,117
220.986,101
221.011,88
221.036,79
221.061,79
221.086,87
221.111,91
221.136,73
221.161,29
221.186,-22
221.211,-56
221.236,-49
221.261,0
221.286,66
221.311,124
221.336,160
221.361,176
221.386,185
221.411,195
221.436,201
221.461,190
221.486,165
221.511,142
221.536,142
221.561,169
221.586,208
221.611,238
221.636,255
221.661,270
221.686,298
221.711,336
221.736,365
221.761,371
221.786,354
221.811,329
221.836,308
221.861,295
221.886,285
221.911,271
221.936,245
221.961,203
221.986,145
222.011,85
222.036,45
222.061,42
222.086,69
222.111,104
222.136,126
222.161,133
222.186,140
222.211,155
222.236,172
222.261,176
222.286,162
222.311,142
222.336,132
222.361,133
222.386,134
222.411,123
222.436,101
222.461,80
222.486,70
222.511,66
222.536,59
222.561,44
222.586,27
222.611,19
222.636,25
222.661,37
222.686,38
222.711,21
222.736,-8
222.761,-30
222.786,-26
222.811,9
222.836,66
222.861,125
222.886,171
222.911,200
222.936,214
222.961,220
222.986,217
223.011,206
223.036,190
223.061,176
223.086,172
223.111,179
223.136,192
223.161,201
223.186,199
223.211,185
223.236,164
223.261,144
223.286,129
223.311,119
223.336,113
223.361,106
223.386,92
223.411,70
223.436,41
223.461,18
223.486,14
223.511,41
223.536,96
223.561,164
223.586,226
223.611,270
223.636,297
223.661,318
223.686,340
223.711,357
223.736,363
223.761,353
223.786,334
223.811,316
223.836,303
223.861,293
223.886,282
223.911,269
223.936,256
223.961,239
223.986,216
224.011,183
224.036,145
224.061,113
224.086,89
224.111,68
224.136,42
224.161,12
224.186,-7
224.211,-2
224.236,29
224.261,73
224.286,113
224.311,140
224.336,163
224.361,187
224.386,209
224.411,219
224.436,213
224.461,196
224.486,179
224.511,169
224.536,163
224.561,163
224.586,176
224.611,205
224.636,239
224.661,256
224.686,238
224.711,192
224.736,141
224.761,102
224.786,77
224.811,47
224.836,5
224.861,-37
224.886,-61
224.911,-51
224.936,-12
224.961,39
224.986,89
225.011,132
225.036,166
225.061,192
225.086,211
225.111,224
225.136,231
225.161,230
225.186,218
225.211,195
225.236,170
225.261,153
225.286,148
225.311,151
225.336,150
225.361,141
225.386,128
225.411,116
225.436,109
225.461,101
225.486,88
225.511,67
225.536,43
225.561,26
225.586,25
225.611,43
225.636,77
225.661,115
225.686,148
225.711,175
225.736,196
225.761,216
225.786,235
225.811,249
225.836,254
225.861,248
225.886,237
225.911,227
225.936,222
225.961,221
225.986,220
226.011,214
226.036,202
226.061,183
226.086,160
226.111,133
226.136,106
226.161,79
226.186,52
226.211,27
226.236,9
226.261,3
226.286,18
226.311,52
226.336,95
226.361,135
226.386,162
226.411,180
226.436,201
226.461,229
226.486,259
226.511,277
226.536,278
226.561,271
226.586,269
226.611,275
226.636,283
226.661,283
226.686,273
226.711,258
226.736,244
226.761,231
226.786,212
226.811,188
226.836,167
226.861,153
226.886,145
226.911,133
226.936,114
226.961,92
226.986,74
227.011,56
227.036,32
227.061,-2
227.086,-33
227.111,-39
227.136,-7
227.161,52
227.186,111
227.211,147
227.236,162
227.261,172
227.286,189
227.311,206
227.336,207
227.361,190
227.386,167
227.411,152
227.436,147
227.461,141
227.486,126
227.511,108
227.536,96
227.561,91
227.586,83
227.611,64
227.636,40
227.661,22
227.686,10
227.711,-3
227.736,-25
227.761,-49
227.786,-63
227.811,-68
227.836,-79
227.861,-101
227.886,-125
227.911,-140
227.936,-143
227.961,-146
227.986,-145
228.011,-122
228.036,-66
228.061,4
228.086,56
228.111,77
228.136,93
228.161,137
228.186,205
228.211,260
228.236,282
228.261,291
228.286,326
228.311,391
228.336,452
228.361,479
228.386,487
228.411,514
228.436,572
228.461,636
228.486,682
228.511,717
228.536,758
228.561,801
228.586,827
228.611,842
228.636,884
228.661,960
228.686,1000
228.711,902
228.736,635
228.761,276
228.786,-55
228.811,-280
228.836,-333
228.861,-99
228.886,519
228.911,1404
228.936,2110
228.961,2095
228.986,1172
229.011,-242
229.036,-1405
229.061,-1807
229.086,-1516
229.111,-951
229.136,-404
229.161,174
229.186,944
229.211,1827
229.236,2489
229.261,2635
229.286,2250
229.311,1510
229.336,551
229.361,-580
229.386,-1746
229.411,-2617
229.436,-2876
229.461,-2546
229.486,-2021
229.511,-1742
229.536,-1839
229.561,-2134
229.586,-2430
229.611,-2708
229.636,-2988
229.661,-3088
229.686,-2679
229.711,-1626
229.736,-249
229.761,866
229.786,1341
229.811,1291
229.836,1132
229.861,1160
229.886,1340
229.911,1478
229.936,1516
229.961,1580
229.986,1783
230.011,2045
230.036,2150
230.061,1974
230.086,1602
230.111,1239
230.136,1017
230.161,916
230.186,841
230.211,737
230.236,622
230.261,532
230.286,474
230.311,426
230.336,372
230.361,317
230.386,273
230.411,243
230.436,222
230.461,207
230.486,198
230.511,191
230.536,182
230.561,169
230.586,153
230.611,138
230.636,121
230.661,97
230.686,68
230.711,41
230.736,25
230.761,17
230.786,8
230.811,-11
230.836,-38
230.861,-64
230.886,-80
230.911,-88
230.936,-94
230.961,-104
230.986,-118
231.011,-133
231.036,-146
231.061,-159
231.086,-172
231.111,-182
231.136,-178
231.161,-153
231.186,-109
231.211,-59
231.236,-14
231.261,23
231.286,62
231.311,106
231.336,150
231.361,184
231.386,203
231.411,211
231.436,219
231.461,229
231.486,239
231.511,244
231.536,244
231.561,246
231.586,250
231.611,253
231.636,251
231.661,246
231.686,239
231.711,233
231.736,222
231.761,202
231.786,175
231.811,150
231.836,138
231.861,143
231.886,157
231.911,172
231.936,185
231.961,197
231.986,212
232.011,226
232.036,233
232.061,229
232.086,216
232.111,201
232.136,190
232.161,182
232.186,175
232.211,167
232.236,160
232.261,156
232.286,152
232.311,145
232.336,130
232.361,110
232.386,89
232.411,67
232.436,40
232.461,7
232.486,-22
232.511,-36
232.536,-25
232.561,6
232.586,44
232.611,77
232.636,103
232.661,124
232.686,141
232.711,153
232.736,157
232.761,154
232.786,144
232.811,129
232.836,109
232.861,90
232.886,80
232.911,80
232.936,79
232.961,68
232.986,50
233.011,49
233.036,93
233.061,180
233.086,278
233.111,340
233.136,338
233.161,282
233.186,203
233.211,136
233.236,93
233.261,78
233.286,87
233.311,116
233.336,159
233.361,203
233.386,241
233.411,271
233.436,295
233.461,313
233.486,318
233.511,306
233.536,281
233.561,252
233.586,229
233.611,212
233.636,194
233.661,174
233.686,154
233.711,140
233.736,136
233.761,138
233.786,137
233.811,130
233.836,120
233.861,110
233.886,104
233.911,99
233.936,93
233.961,87
233.986,84
234.011,86
234.036,88
234.061,84
234.086,70
234.111,55
234.136,52
234.161,69
234.186,101
234.211,134
234.236,158
234.261,173
234.286,186
234.311,202
234.336,219
234.361,230
234.386,233
234.411,229
234.436,225
234.461,223
234.486,220
234.511,216
234.536,208
234.561,200
234.586,191
234.611,182
234.636,171
234.661,157
234.686,137
234.711,113
234.736,91
234.761,71
234.786,54
234.811,35
234.836,15
234.861,1
234.886,4
234.911,28
234.936,64
234.961,99
234.986,124
235.011,142
235.036,156
235.061,169
235.086,175
235.111,174
235.136,168
235.161,165
235.186,169
235.211,177
235.236,184
235.261,187
235.286,186
235.311,183
235.336,176
235.361,163
235.386,149
235.411,135
235.436,123
235.461,109
235.486,93
235.511,77
235.536,61
235.561,48
235.586,36
235.611,30
235.636,38
235.661,66
235.686,107
235.711,149
235.736,179
235.761,199
235.786,216
235.811,235
235.836,253
235.861,262
235.886,260
235.911,255
235.936,254
235.961,258
235.986,262
236.011,259
236.036,249
236.061,236
236.086,221
236.111,204
236.136,185
236.161,168
236.186,156
236.211,147
236.236,134
236.261,119
236.286,104
236.311,94
236.336,88
236.361,76
236.386,56
236.411,36
236.436,30
236.461,48
236.486,87
236.511,131
236.536,166
236.561,189
236.586,205
236.611,223
236.636,241
236.661,254
236.686,258
236.711,254
236.736,248
236.761,243
236.786,238
236.811,231
236.836,219
236.861,204
236.886,189
236.911,175
236.936,162
236.961,146
236.986,128
237.011,107
237.036,88
237.061,72
237.086,59
237.111,49
237.136,43
237.161,40
237.186,38
237.211,31
237.236,17
237.261,1
237.286,-2
237.311,15
237.336,54
237.361,97
237.386,132
237.411,152
237.436,167
237.461,186
237.486,210
237.511,229
237.536,234
237.561,225
237.586,214
237.611,212
237.636,219
237.661,226
237.686,222
237.711,210
237.736,196
237.761,186
237.786,180
237.811,170
237.836,153
237.861,134
237.886,120
237.911,112
237.936,104
237.961,91
237.986,73
238.011,57
238.036,46
238.061,37
238.086,24
238.111,4
238.136,-8
238.161,1
238.186,42
238.211,103
238.236,164
238.261,208
238.286,234
238.311,254
238.336,278
238.361,307
238.386,329
238.411,337
238.436,332
238.461,322
238.486,316
238.511,313
238.536,308
238.561,296
238.586,279
238.611,263
238.636,252
238.661,245
238.686,233
238.711,213
238.736,187
238.761,160
238.786,137
238.811,114
238.836,88
238.861,59
238.886,31
238.911,7
238.936,-18
238.961,-57
238.986,-108
239.011,-157
239.036,-176
239.061,-150
239.086,-84
239.111,-5
239.136,62
239.161,116
239.186,163
239.211,214
239.236,264
239.261,303
239.286,325
239.311,339
239.336,355
239.361,371
239.386,376
239.411,357
239.436,314
239.461,261
239.486,210
239.511,167
239.536,134
239.561,111
239.586,103
239.611,104
239.636,106
239.661,100
239.686,88
239.711,77
239.736,71
239.761,59
239.786,33
239.811,-4
239.836,-31
239.861,-23
239.886,21
239.911,82
239.936,130
239.961,157
239.986,173
240.011,195
240.036,224
240.061,251
240.086,263
240.111,261
240.136,254
240.161,252
240.186,255
240.211,257
240.236,255
240.261,248
240.286,239
240.311,227
240.336,210
240.361,189
240.386,171
240.411,157
240.436,145
240.461,129
240.486,106
240.511,84
240.536,70
240.561,64
240.586,56
240.611,38
240.636,14
240.661,4
240.686,27
240.711,80
240.736,144
240.761,192
240.786,214
240.811,218
240.836,219
240.861,220
240.886,218
240.911,207
240.936,194
240.961,188
240.986,196
241.011,210
241.036,218
241.061,217
241.086,211
241.111,208
241.136,207
241.161,203
241.186,188
241.211,167
241.236,143
241.261,122
241.286,105
241.311,89
241.336,76
241.361,63
241.386,48
241.411,28
241.436,9
241.461,3
241.486,24
241.511,70
241.536,127
241.561,175
241.586,205
241.611,224
241.636,242
241.661,259
241.686,267
241.711,257
241.736,234
241.761,210
241.786,196
241.811,193
241.836,190
241.861,180
241.886,161
241.911,140
241.936,124
241.961,114
241.986,107
242.011,99
242.036,87
242.061,69
242.086,47
242.111,25
242.136,7
242.161,-5
242.186,-15
242.211,-28
242.236,-42
242.261,-43
242.286,-20
242.311,27
242.336,86
242.361,135
242.386,164
242.411,180
242.436,196
242.461,217
242.486,240
242.511,255
242.536,260
242.561,261
242.586,266
242.611,271
242.636,271
242.661,261
242.686,245
242.711,232
242.736,225
242.761,220
242.786,211
242.811,193
242.836,172
242.861,154
242.886,142
242.911,129
242.936,109
242.961,86
242.986,77
243.011,96
243.036,143
243.061,201
243.086,245
243.111,263
243.136,263
243.161,264
243.186,273
243.211,283
243.236,282
243.261,266
243.286,243
243.311,225
243.336,217
243.361,211
243.386,199
243.411,182
243.436,166
243.461,158
243.486,154
243.511,145
243.536,128
243.561,105
243.586,84
243.611,62
243.636,36
243.661,3
243.686,-27
243.711,-38
243.736,-19
243.761,23
243.786,72
243.811,110
243.836,133
243.861,150
243.886,169
243.911,189
243.936,203
243.961,204
243.986,198
244.011,194
244.036,198
244.061,204
244.086,204
244.111,194
244.136,181
244.161,170
244.186,161
244.211,148
244.236,126
244.261,99
244.286,73
244.311,53
244.336,34
244.361,10
244.386,-12
244.411,-21
244.436,-5
244.461,36
244.486,87
244.511,133
244.536,164
244.561,185
244.586,204
244.611,222
244.636,234
244.661,234
244.686,225
244.711,218
244.736,220
244.761,227
244.786,230
244.811,223
244.836,207
244.861,192
244.886,181
244.911,170
244.936,154
244.961,133
244.986,115
245.011,101
245.036,85
245.061,63
245.086,38
245.111,28
245.136,45
245.161,88
245.186,136
245.211,170
245.236,187
245.261,196
245.286,211
245.311,229
245.336,242
245.361,241
245.386,230
245.411,220
245.436,216
245.461,216
245.486,217
245.511,215
245.536,211
245.561,207
245.586,200
245.611,189
245.636,173
245.661,152
245.686,132
245.711,115
245.736,104
245.761,96
245.786,85
245.811,67
245.836,43
245.861,24
245.886,23
245.911,47
245.936,87
245.961,126
245.986,154
246.011,170
246.036,185
246.061,204
246.086,224
246.111,235
246.136,233
246.161,223
246.186,217
246.211,219
246.236,222
246.261,220
246.286,207
246.311,191
246.336,178
246.361,169
246.386,161
246.411,150
246.436,136
246.461,124
246.486,117
246.511,110
246.536,98
246.561,83
246.586,70
246.611,63
246.636,56
246.661,40
246.686,14
246.711,-6
246.736,-1
246.761,34
246.786,88
246.811,136
246.836,162
246.861,172
246.886,180
246.911,195
246.936,211
246.961,218
246.986,212
247.011,200
247.036,194
247.061,200
247.086,215
247.111,229
247.136,232
247.161,225
247.186,213
247.211,200
247.236,189
247.261,178
247.286,165
247.311,152
247.336,143
247.361,136
247.386,124
247.411,106
247.436,86
247.461,76
247.486,84
247.511,109
247.536,138
247.561,160
247.586,174
247.611,184
247.636,194
247.661,205
247.686,211
247.711,210
247.736,201
247.761,189
247.786,178
247.811,172
247.836,170
247.861,167
247.886,155
247.911,134
247.936,111
247.961,97
247.986,92
248.011,87
248.036,71
248.061,46
248.086,25
248.111,18
248.136,23
248.161,30
248.186,33
248.211,43
248.236,76
248.261,129
248.286,183
248.311,218
248.336,230
248.361,236
248.386,251
248.411,276
248.436,298
248.461,304
248.486,296
248.511,284
248.536,275
248.561,268
248.586,258
248.611,244
248.636,229
248.661,216
248.686,204
248.711,190
248.736,172
248.761,153
248.786,137
248.811,125
248.836,115
248.861,99
248.886,77
248.911,54
248.936,34
248.961,21
248.986,9
249.011,-8
249.036,-29
249.061,-40
249.086,-27
249.111,11
249.136,60
249.161,103
249.186,132
249.211,154
249.236,183
249.261,216
249.286,245
249.311,258
249.336,257
249.361,250
249.386,248
249.411,249
249.436,250
249.461,246
249.486,238
249.511,228
249.536,217
249.561,204
249.586,193
249.611,184
249.636,176
249.661,165
249.686,150
249.711,136
249.736,127
249.761,120
249.786,110
249.811,94
249.836,77
249.861,63
249.886,53
249.911,38
249.936,16
249.961,-6
249.986,-14
250.011,2
250.036,40
250.061,85
250.086,124
250.111,157
250.136,185
250.161,212
250.186,234
250.211,249
250.236,256
250.261,257
250.286,256
250.311,252
250.336,249
250.361,247
250.386,247
250.411,246
250.436,241
250.461,230
250.486,216
250.511,200
250.536,184
250.561,166
250.586,148
250.611,129
250.636,109
250.661,88
250.686,68
250.711,55
250.736,47
250.761,39
250.786,26
250.811,9
250.836,3
250.861,22
250.886,63
250.911,110
250.936,146
250.961,165
250.986,181
251.011,202
251.036,227
251.061,242
251.086,242
251.111,232
251.136,224
251.161,225
251.186,228
251.211,227
251.236,220
251.261,210
251.286,201
251.311,192
251.336,180
251.361,165
251.386,149
251.411,133
251.436,116
251.461,97
251.486,78
251.511,63
251.536,49
251.561,34
251.586,23
251.611,22
251.636,42
251.661,77
251.686,117
251.711,148
251.736,169
251.761,187
251.786,207
251.811,222
251.836,226
251.861,216
251.886,201
251.911,193
251.936,194
251.961,198
251.986,196
252.011,187
252.036,177
252.061,171
252.086,167
252.111,159
252.136,146
252.161,131
252.186,120
252.211,112
252.236,102
252.261,86
252.286,65
252.311,54
252.336,63
252.361,92
252.386,129
252.411,158
252.436,176
252.461,188
252.486,203
252.511,222
252.536,238
252.561,244
252.586,240
252.611,232
252.636,226
252.661,222
252.686,218
252.711,210
252.736,201
252.761,192
252.786,183
252.811,173
252.836,160
252.861,148
252.886,136
252.911,124
252.936,110
252.961,96
252.986,84
253.011,75
253.036,66
253.061,55
253.086,44
253.111,42
253.136,57
253.161,85
253.186,115
253.211,140
253.236,159
253.261,176
253.286,196
253.311,212
253.336,219
253.361,214
253.386,206
253.411,201
253.436,201
253.461,201
253.486,196
253.511,186
253.536,176
253.561,164
253.586,148
253.611,127
253.636,107
253.661,94
253.686,91
253.711,89
253.736,78
253.761,58
253.786,41
253.811,45
253.836,72
253.861,113
253.886,149
253.911,170
253.936,182
253.961,194
253.986,210
254.011,225
254.036,229
254.061,224
254.086,217
254.111,216
254.136,220
254.161,221
254.186,213
254.211,197
254.236,183
254.261,176
254.286,174
254.311,167
254.336,151
254.361,130
254.386,112
254.411,100
254.436,88
254.461,68
254.486,39
254.511,12
254.536,4
254.561,23
254.586,60
254.611,100
254.636,131
254.661,154
254.686,177
254.711,204
254.736,230
254.761,246
254.786,249
254.811,242
254.836,234
254.861,227
254.886,221
254.911,212
254.936,202
254.961,191
254.986,178
255.011,162
255.036,143
255.061,127
255.086,116
255.111,109
255.136,102
255.161,93
255.186,88
255.211,88
255.236,89
255.261,78
255.286,53
255.311,26
255.336,21
255.361,49
255.386,100
255.411,149
255.436,183
255.461,204
255.486,225
255.511,251
255.536,272
255.561,278
255.586,269
255.611,261
255.636,264
255.661,276
255.686,286
255.711,281
255.736,262
255.761,236
255.786,211
255.811,190
255.836,173
255.861,157
255.886,141
255.911,123
255.936,104
255.961,87
255.986,74
256.011,64
256.036,54
256.061,46
256.086,41
256.111,39
256.136,32
256.161,13
256.186,-14
256.211,-35
256.236,-31
256.261,4
256.286,59
256.311,111
256.336,149
256.361,177
256.386,204
256.411,233
256.436,255
256.461,264
256.486,261
256.511,255
256.536,254
256.561,256
256.586,256
256.611,252
256.636,242
256.661,229
256.686,215
256.711,202
256.736,189
256.761,177
256.786,165
256.811,148
256.836,127
256.861,104
256.886,84
256.911,68
256.936,49
256.961,25
256.986,-1
257.011,-19
257.036,-17
257.061,8
257.086,51
257.111,96
257.136,131
257.161,154
257.186,173
257.211,194
257.236,217
257.261,233
257.286,238
257.311,234
257.336,232
257.361,238
257.386,245
257.411,245
257.436,237
257.461,228
257.486,227
257.511,232
257.536,238
257.561,240
257.586,241
257.611,238
257.636,224
257.661,185
257.686,125
257.711,65
257.736,27
257.761,17
257.786,23
257.811,30
257.836,35
257.861,49
257.886,75
257.911,100
257.936,110
257.961,108
257.986,107
258.011,117
258.036,129
258.061,124
258.086,99
258.111,76
258.136,76
258.161,104
258.186,140
258.211,166
258.236,182
258.261,203
258.286,235
258.311,268
258.336,286
258.361,280
258.386,258
258.411,230
258.436,198
258.461,159
258.486,120
258.511,92
258.536,87
258.561,101
258.586,123
258.611,139
258.636,150
258.661,163
258.686,182
258.711,202
258.736,215
258.761,216
258.786,210
258.811,203
258.836,197
258.861,192
258.886,184
258.911,175
258.936,165
258.961,158
258.986,150
259.011,140
259.036,126
259.061,111
259.086,99
259.111,90
259.136,77
259.161,53
259.186,20
259.211,-11
259.236,-24
259.261,-11
259.286,20
259.311,59
259.336,96
259.361,131
259.386,167
259.411,201
259.436,226
259.461,237
259.486,241
259.511,247
259.536,258
259.561,269
259.586,271
259.611,262
259.636,250
259.661,241
259.686,235
259.711,228
259.736,217
259.761,203
259.786,188
259.811,173
259.836,159
259.861,146
259.886,136
259.911,128
259.936,119
259.961,109
259.986,98
260.011,87
260.036,74
260.061,53
260.086,25
260.111,3
260.136,4
260.161,36
260.186,85
260.211,130
260.236,159
260.261,175
260.286,191
260.311,214
260.336,236
260.361,247
260.386,245
260.411,237
260.436,231
260.461,227
260.486,223
260.511,218
260.536,213
260.561,209
260.586,206
260.611,198
260.636,185
260.661,172
260.686,160
260.711,149
260.736,135
260.761,118
260.786,103
260.811,88
260.836,71
260.861,47
260.886,22
260.911,10
260.936,22
260.961,56
260.986,97
261.011,129
261.036,148
261.061,161
261.086,173
261.111,187
261.136,195
261.161,192
261.186,181
261.211,170
261.236,164
261.261,166
261.286,171
261.311,174
261.336,170
261.361,161
261.386,149
261.411,139
261.436,131
261.461,123
261.486,114
261.511,106
261.536,99
261.561,92
261.586,80
261.611,59
261.636,38
261.661,31
261.686,47
261.711,83
261.736,124
261.761,155
261.786,174
261.811,187
261.836,203
261.861,223
261.886,239
261.911,244
261.936,238
261.961,228
261.986,224
262.011,227
262.036,234
262.061,236
262.086,227
262.111,209
262.136,190
262.161,179
262.186,178
262.211,183
262.236,186
262.261,182
262.286,167
262.311,140
262.336,104
262.361,73
262.386,65
262.411,89
262.436,137
262.461,184
262.486,210
262.511,216
262.536,218
262.561,230
262.586,248
262.611,257
262.636,245
262.661,218
262.686,192
262.711,176
262.736,166
262.761,155
262.786,143
262.811,131
262.836,123
262.861,114
262.886,100
262.911,82
262.936,66
262.961,51
262.986,31
263.011,6
263.036,-13
263.061,-13
263.086,13
263.111,58
263.136,103
263.161,138
263.186,164
263.211,187
263.236,209
263.261,224
263.286,225
263.311,214
263.336,200
263.361,187
263.386,178
263.411,172
263.436,168
263.461,163
263.486,153
263.511,137
263.536,119
263.561,104
263.586,94
263.611,84
263.636,65
263.661,37
263.686,12
263.711,6
263.736,29
263.761,74
263.786,125
263.811,167
263.836,196
263.861,220
263.886,244
263.911,271
263.936,292
263.961,300
263.986,296
264.011,288
264.036,285
264.061,288
264.086,291
264.111,286
264.136,275
264.161,262
264.186,247
264.211,231
264.236,211
264.261,193
264.286,181
264.311,169
264.336,147
264.361,110
264.386,74
264.411,59
264.436,70
264.461,84
264.486,69
264.511,14
264.536,-53
264.561,-95
264.586,-91
264.611,-57
264.636,-20
264.661,8
264.686,37
264.711,76
264.736,116
264.761,141
264.786,143
264.811,135
264.836,139
264.861,162
264.886,197
264.911,233
264.936,263
264.961,292
264.986,318
265.011,336
265.036,341
265.061,326
265.086,288
265.111,223
265.136,136
265.161,47
265.186,-13
265.211,-27
265.236,0
265.261,44
265.286,79
265.311,104
265.336,132
265.361,170
265.386,208
265.411,225
265.436,216
265.461,192
265.486,176
265.511,177
265.536,190
265.561,200
265.586,196
265.611,177
265.636,148
265.661,116
265.686,89
265.711,79
265.736,88
265.761,110
265.786,132
265.811,145
265.836,148
265.861,150
265.886,151
265.911,148
265.936,137
265.961,127
265.986,134
266.011,170
266.036,227
266.061,285
266.086,325
266.111,344
266.136,355
266.161,365
266.186,373
266.211,369
266.236,349
266.261,318
266.286,288
266.311,262
266.336,235
266.361,201
266.386,159
266.411,116
266.436,77
266.461,42
266.486,10
266.511,-22
266.536,-48
266.561,-64
266.586,-67
266.611,-64
266.636,-64
266.661,-70
266.686,-76
266.711,-75
266.736,-65
266.761,-52
266.786,-43
266.811,-38
266.836,-28
266.861,-3
266.886,37
266.911,86
266.936,132
266.961,169
266.986,204
267.011,240
267.036,273
267.061,296
267.086,305
267.111,307
267.136,313
267.161,326
267.186,340
267.211,347
267.236,345
267.261,338
267.286,326
267.311,307
267.336,277
267.361,238
267.386,194
267.411,151
267.436,115
267.461,89
267.486,80
267.511,88
267.536,102
267.561,108
267.586,97
