df_hash,22ZHK4.A7NV4E
device,HZ2X61
project_hash,29R7
project_name,istanbul_aydin_university
person_hash,29R7.T6MJ
person_label,V11
date_time_start,2025-05-22_10-27-42.020000_+03
date_time_start_unix,1747898862.02
date_time_end,2025-05-22_10-35-22.993000_+03
length_difference_noticed,no

time,ppg_ir,ppg_ambient,ppg_red
5.843,133163,267,149673
5.848,133170,383,149707
5.853,133175,271,149711
5.858,133185,381,149722
5.863,133185,271,149745
5.867,133214,378,149734
5.872,133209,275,149788
5.877,133215,376,149792
5.882,133227,275,149811
5.887,133234,372,149820
5.892,133230,280,149844
5.897,133262,369,149853
5.902,133258,285,149886
5.907,133257,366,149892
5.912,133284,281,149920
5.917,133288,363,149931
5.922,133299,288,149973
5.927,133312,358,149991
5.932,133334,290,150014
5.937,133333,357,150054
5.942,133351,295,150068
5.947,133355,353,150072
5.952,133375,297,150076
5.957,133385,350,150094
5.962,133372,300,150103
5.967,133388,345,150121
5.972,133400,302,150145
5.977,133404,342,150150
5.981,133411,308,150153
5.986,133426,337,150179
5.991,133428,314,150186
5.996,133441,334,150197
6.001,133431,316,150200
6.006,133437,330,150221
6.011,133450,316,150227
6.016,133451,326,150227
6.021,133464,324,150255
6.026,133457,321,150282
6.031,133481,327,150306
6.036,133497,318,150307
6.041,133505,332,150328
6.046,133509,312,150339
6.051,133507,338,150349
6.056,133523,309,150379
6.061,133528,339,150402
6.066,133546,306,150399
6.071,133548,342,150411
6.076,133546,302,150435
6.081,133562,347,150444
6.086,133578,296,150454
6.091,133571,351,150463
6.096,133587,293,150474
6.100,133597,352,150485
6.105,133590,289,150499
6.110,133580,354,150511
6.115,133585,286,150524
6.120,133599,359,150518
6.125,133590,282,150535
6.130,133594,361,150556
6.135,133585,279,150545
6.140,133597,365,150541
6.145,133574,276,150564
6.150,133569,368,150556
6.155,133568,274,150565
6.160,133573,369,150581
6.165,133570,271,150577
6.170,133572,373,150581
6.175,133558,269,150587
6.180,133554,375,150607
6.185,133563,266,150606
6.190,133560,376,150608
6.195,133565,266,150629
6.200,133550,380,150640
6.205,133565,263,150649
6.210,133566,380,150651
6.214,133545,260,150657
6.219,133558,384,150660
6.224,133561,260,150660
6.229,133554,384,150658
6.234,133546,257,150655
6.239,133552,388,150647
6.244,133554,258,150672
6.249,133548,390,150669
6.254,133566,256,150685
6.259,133562,389,150696
6.264,133572,256,150716
6.269,133580,392,150722
6.274,133579,254,150739
6.279,133579,392,150743
6.284,133581,254,150743
6.289,133560,394,150758
6.294,133557,251,150762
6.299,133576,395,150750
6.304,133579,247,150760
6.309,133569,396,150752
6.314,133566,249,150774
6.319,133571,398,150769
6.324,133572,250,150782
6.328,133559,399,150758
6.333,133562,249,150760
6.338,133560,400,150767
6.343,133579,250,150773
6.348,133571,400,150761
6.353,133587,250,150781
6.358,133570,400,150783
6.363,133570,250,150779
6.368,133582,400,150775
6.373,133581,249,150787
6.378,133583,400,150776
6.383,133573,251,150782
6.388,133568,399,150769
6.393,133578,250,150780
6.398,133566,399,150769
6.403,133577,250,150783
6.408,133578,398,150797
6.413,133567,253,150783
6.418,133573,399,150795
6.423,133580,252,150813
6.428,133554,397,150814
6.433,133555,252,150820
6.438,133554,396,150802
6.443,133556,254,150794
6.447,133560,395,150799
6.452,133544,254,150794
6.457,133556,394,150791
6.462,133550,258,150782
6.467,133550,392,150770
6.472,133543,258,150781
6.477,133549,390,150775
6.482,133564,261,150771
6.487,133551,387,150781
6.492,133551,262,150765
6.497,133549,385,150785
6.502,133557,260,150776
6.507,133536,384,150773
6.512,133545,267,150795
6.517,133555,380,150784
6.522,133545,268,150802
6.527,133550,378,150802
6.532,133552,273,150807
6.537,133562,374,150804
6.542,133550,273,150797
6.547,133560,372,150773
6.552,133547,277,150796
6.557,133546,370,150796
6.561,133548,277,150785
6.566,133551,366,150789
6.571,133552,284,150795
6.576,133545,364,150763
6.581,133539,283,150782
6.586,133527,360,150771
6.591,133534,289,150749
6.596,133524,357,150751
6.601,133517,287,150748
6.606,133519,356,150729
6.611,133520,293,150717
6.616,133513,353,150712
6.621,133514,293,150724
6.626,133501,348,150697
6.631,133510,298,150698
6.636,133506,344,150698
6.641,133505,301,150674
6.646,133506,341,150670
6.651,133488,306,150645
6.656,133501,338,150633
6.661,133471,308,150617
6.666,133461,335,150601
6.671,133445,311,150574
6.675,133447,332,150545
6.680,133422,315,150528
6.685,133416,327,150501
6.690,133408,322,150469
6.695,133389,314,150439
6.700,133367,322,150383
6.705,133344,319,150340
6.710,133327,328,150285
6.715,133285,316,150236
6.720,133266,330,150186
6.725,133256,311,150130
6.730,133215,335,150087
6.735,133202,307,150009
6.740,133175,338,149961
6.745,133155,303,149894
6.750,133142,340,149840
6.755,133099,301,149793
6.760,133086,345,149714
6.765,133053,295,149649
6.770,133038,347,149585
6.775,133004,293,149514
6.780,132989,352,149432
6.785,132947,288,149359
6.790,132923,358,149268
6.794,132889,286,149207
6.799,132881,357,149141
6.804,132840,284,149054
6.809,132813,362,148975
6.814,132789,281,148905
6.819,132765,366,148831
6.824,132759,277,148768
6.829,132731,367,148716
6.834,132726,274,148673
6.839,132704,369,148604
6.844,132722,272,148566
6.849,132665,371,148517
6.854,132658,273,148471
6.859,132648,375,148424
6.864,132638,269,148387
6.869,132630,377,148353
6.874,132625,266,148319
6.879,132623,380,148294
6.884,132607,265,148281
6.889,132625,382,148234
6.894,132599,264,148211
6.899,132591,384,148194
6.904,132593,261,148183
6.908,132585,387,148161
6.913,132602,260,148158
6.918,132571,388,148136
6.923,132562,257,148112
6.928,132556,390,148093
6.933,132547,259,148086
6.938,132531,393,148056
6.943,132523,256,148040
6.948,132499,394,148020
6.953,132473,254,147988
6.958,132474,395,147954
6.963,132457,255,147924
6.968,132435,398,147898
6.973,132425,253,147895
6.978,132417,397,147858
6.983,132391,252,147860
6.988,132382,398,147846
6.993,132367,253,147831
6.998,132364,400,147825
7.003,132360,252,147817
7.008,132346,400,147803
7.013,132325,251,147795
7.018,132336,401,147796
7.022,132325,250,147794
7.027,132313,402,147799
7.032,132304,248,147805
7.037,132297,402,147783
7.042,132285,251,147763
7.047,132278,403,147759
7.052,132269,251,147746
7.057,132256,402,147732
7.062,132242,250,147734
7.067,132245,403,147730
7.072,132220,251,147709
7.077,132212,403,147705
7.082,132203,249,147705
7.087,132196,404,147684
7.092,132194,252,147702
7.097,132175,402,147683
7.102,132165,253,147691
7.107,132145,402,147675
7.112,132139,252,147665
7.117,132123,402,147651
7.122,132115,254,147646
7.127,132086,402,147616
7.132,132092,270,147616
7.137,132081,401,147582
7.141,132052,255,147579
7.146,132065,401,147550
7.151,132042,257,147536
7.156,132035,400,147515
7.161,132020,258,147508
7.166,132011,398,147490
7.171,132001,259,147470
7.176,131989,397,147468
7.181,131979,261,147467
7.186,131948,396,147440
7.191,131941,263,147426
7.196,131940,394,147433
7.201,131943,265,147419
7.206,131918,392,147389
7.211,131922,267,147379
7.216,131916,391,147378
7.221,131895,270,147366
7.226,131892,388,147353
7.231,131877,272,147348
7.236,131863,386,147314
7.241,131844,274,147298
7.246,131844,383,147273
7.251,131817,277,147262
7.255,131814,381,147258
7.260,131803,279,147249
7.265,131795,378,147248
7.270,131789,281,147247
7.275,131769,377,147229
7.280,131756,285,147230
7.285,131753,375,147228
7.290,131728,288,147214
7.295,131723,372,147214
7.300,131707,291,147206
7.305,131702,370,147195
7.310,131684,294,147193
7.315,131666,369,147174
7.320,131663,297,147163
7.325,131654,367,147156
7.330,131641,303,147165
7.335,131627,367,147169
7.340,131621,304,147152
7.345,131611,365,147159
7.350,131588,309,147166
7.355,131596,364,147147
7.360,131572,312,147154
7.365,131555,361,147155
7.369,131564,319,147142
7.374,131547,362,147109
7.379,131550,325,147135
7.384,131526,360,147115
7.389,131525,331,147115
7.394,131513,359,147107
7.399,131505,332,147106
7.404,131507,357,147095
7.409,131487,339,147095
7.414,131486,357,147082
7.419,131476,344,147080
7.424,131496,356,147068
7.429,131470,348,147068
7.434,131461,355,147077
7.439,131467,353,147063
7.444,131455,353,147072
7.449,131449,359,147063
7.454,131453,351,147079
7.459,131455,363,147096
7.464,131448,348,147112
7.469,131468,368,147115
7.474,131465,346,147120
7.479,131462,374,147135
7.484,131473,343,147147
7.488,131456,379,147143
7.493,131475,341,147153
7.498,131462,383,147166
7.503,131465,338,147165
7.508,131464,389,147175
7.513,131473,335,147165
7.518,131470,393,147184
7.523,131462,334,147180
7.528,131460,398,147192
7.533,131480,330,147186
7.538,131483,401,147177
7.543,131479,327,147214
7.548,131492,403,147199
7.553,131495,325,147207
7.558,131511,408,147220
7.563,131493,320,147228
7.568,131494,411,147233
7.573,131497,318,147246
7.578,131500,415,147258
7.583,131506,315,147262
7.588,131512,420,147267
7.593,131516,313,147279
7.598,131509,423,147284
7.602,131516,310,147289
7.607,131525,427,147294
7.612,131535,308,147299
7.617,131536,431,147327
7.622,131546,305,147303
7.627,131547,433,147307
7.632,131554,304,147322
7.637,131574,436,147314
7.642,131573,301,147324
7.647,131570,439,147338
7.652,131587,299,147358
7.657,131609,443,147368
7.662,131608,296,147369
7.667,131608,443,147402
7.672,131648,295,147436
7.677,131656,447,147476
7.682,131677,294,147494
7.687,131699,448,147543
7.692,131727,292,147588
7.697,131753,451,147601
7.702,131759,289,147670
7.707,131778,452,147710
7.712,131808,289,147742
7.716,131833,455,147811
7.721,131848,288,147834
7.726,131878,458,147878
7.731,131882,287,147917
7.736,131893,457,147906
7.741,131912,284,147945
7.746,131918,459,147983
7.751,131943,284,148034
7.756,131960,461,148077
7.761,131959,282,148118
7.766,131990,461,148159
7.771,131997,281,148211
7.776,132027,461,148236
7.781,132024,281,148288
7.786,132052,462,148313
7.791,132071,282,148397
7.796,132098,463,148456
7.801,132124,279,148527
7.806,132148,463,148596
7.811,132177,280,148665
7.816,132201,462,148745
7.821,132248,276,148837
7.826,132305,463,148919
7.831,132338,277,149011
7.835,132387,461,149122
7.840,132425,276,149227
7.845,132491,461,149321
7.850,132550,276,149423
7.855,132578,460,149508
7.860,132620,275,149591
7.865,132665,459,149663
7.870,132697,274,149742
7.875,132725,459,149801
7.880,132765,273,149854
7.885,132798,458,149913
7.890,132816,277,149961
7.895,132840,457,150029
7.900,132888,276,150102
7.905,132923,455,150181
7.910,132961,285,150266
7.915,133010,454,150331
7.920,133048,275,150427
7.925,133098,453,150516
7.930,133136,277,150597
7.935,133191,450,150693
7.940,133248,277,150790
7.945,133298,447,150897
7.949,133354,282,150994
7.954,133394,445,151109
7.959,133473,280,151216
7.964,133520,443,151309
7.969,133573,282,151423
7.974,133614,440,151502
7.979,133657,285,151607
7.984,133726,437,151682
7.989,133759,283,151763
7.994,133776,436,151799
7.999,133820,284,151848
8.004,133824,431,151900
8.009,133846,288,151948
8.014,133865,430,151993
8.019,133918,290,152050
8.024,133941,425,152096
8.029,133959,291,152134
8.034,133986,424,152181
8.039,133992,294,152226
8.044,134017,419,152269
8.049,134035,296,152299
8.054,134057,416,152342
8.059,134073,298,152382
8.063,134094,412,152418
8.068,134116,300,152456
8.073,134140,408,152520
8.078,134153,302,152535
8.083,134174,402,152587
8.088,134183,304,152622
8.093,134213,398,152640
8.098,134212,307,152675
8.103,134246,393,152720
8.108,134253,309,152755
8.113,134267,389,152798
8.118,134290,310,152841
8.123,134298,383,152889
8.128,134317,313,152940
8.133,134340,378,152988
8.138,134356,314,153055
8.143,134378,372,153106
8.148,134405,316,153175
8.153,134423,374,153260
8.158,134446,319,153281
8.163,134467,363,153323
8.168,134481,320,153390
8.173,134509,358,153446
8.178,134542,322,153514
8.182,134553,353,153566
8.187,134583,325,153632
8.192,134611,349,153687
8.197,134651,327,153752
8.202,134640,345,153826
8.207,134700,331,153892
8.212,134724,341,153967
8.217,134760,333,154005
8.222,134789,335,154074
8.227,134830,334,154155
8.232,134863,332,154234
8.237,134903,340,154311
8.242,134937,328,154394
8.247,134967,343,154459
8.252,135012,319,154587
8.257,135059,343,154633
8.262,135106,320,154734
8.267,135154,346,154816
8.272,135209,316,154898
8.277,135246,348,155011
8.282,135296,311,155121
8.287,135360,351,155232
8.292,135410,309,155315
8.296,135462,356,155395
8.301,135502,306,155490
8.306,135545,358,155595
8.311,135597,302,155688
8.316,135647,361,155790
8.321,135698,298,155882
8.326,135742,365,155967
8.331,135799,297,156072
8.336,135862,369,156167
8.341,135920,293,156289
8.346,135967,371,156406
8.351,136036,291,156527
8.356,136092,372,156620
8.361,136167,287,156769
8.366,136234,374,156902
8.371,136313,286,157045
8.376,136403,379,157238
8.381,136486,282,157411
8.386,136591,381,157618
8.391,136697,280,157800
8.396,136784,382,157967
8.401,136864,278,158124
8.406,136946,385,158244
8.410,137030,276,158389
8.415,137085,387,158505
8.420,137108,273,158608
8.425,137168,391,158676
8.430,137199,272,158770
8.435,137225,393,158816
8.440,137276,270,158924
8.445,137318,388,159003
8.450,137354,269,159095
8.455,137391,396,159186
8.460,137420,267,159254
8.465,137440,398,159294
8.470,137489,266,159369
8.475,137507,398,159457
8.480,137526,265,159500
8.485,137558,401,159543
8.490,137583,264,159586
8.495,137614,401,159636
8.500,137640,261,159679
8.505,137658,403,159734
8.510,137688,259,159777
8.515,137707,403,159823
8.520,137707,261,159847
8.525,137735,407,159883
8.529,137754,261,159902
8.534,137766,406,159952
8.539,137773,259,159981
8.544,137809,407,159989
8.549,137807,259,160008
8.554,137811,409,160020
8.559,137823,257,160043
8.564,137832,409,160042
8.569,137849,256,160085
8.574,137875,410,160111
8.579,137877,256,160128
8.584,137894,409,160136
8.589,137884,254,160153
8.594,137889,411,160174
8.599,137904,255,160178
8.604,137913,410,160196
8.609,137907,256,160208
8.614,137928,409,160215
8.619,137930,254,160231
8.624,137942,409,160246
8.629,137961,254,160256
8.634,137987,408,160282
8.639,137988,254,160287
8.643,137996,410,160302
8.648,138003,257,160308
8.653,138009,408,160294
8.658,138008,257,160302
8.663,138006,407,160303
8.668,138006,257,160296
8.673,138008,406,160290
8.678,138016,256,160315
8.683,138018,406,160305
8.688,138021,259,160308
8.693,138028,405,160324
8.698,138044,259,160323
8.703,138045,403,160343
8.708,138057,264,160345
8.713,138065,402,160360
8.718,138063,266,160362
8.723,138080,401,160371
8.728,138074,266,160383
8.733,138087,400,160381
8.738,138085,266,160397
8.743,138081,397,160391
8.748,138095,272,160404
8.753,138102,395,160417
8.757,138113,272,160425
8.762,138111,393,160409
8.767,138111,274,160439
8.772,138116,391,160427
8.777,138126,276,160443
8.782,138122,388,160446
8.787,138151,275,160451
8.792,138136,386,160459
8.797,138144,279,160471
8.802,138156,385,160508
8.807,138169,281,160504
8.812,138169,382,160516
8.817,138173,283,160522
8.822,138184,378,160545
8.827,138209,286,160552
8.832,138195,375,160570
8.837,138215,287,160578
8.842,138222,374,160582
8.847,138229,290,160623
8.852,138247,371,160627
8.857,138258,293,160624
8.862,138263,368,160633
8.867,138263,296,160637
8.872,138267,366,160643
8.876,138272,299,160651
8.881,138280,361,160661
8.886,138300,304,160664
8.891,138310,359,160683
8.896,138323,307,160701
8.901,138312,356,160704
8.906,138323,309,160709
8.911,138331,354,160723
8.916,138328,313,160718
8.921,138352,350,160730
8.926,138357,317,160737
8.931,138368,347,160747
8.936,138354,321,160758
8.941,138385,343,160763
8.946,138387,323,160781
8.951,138398,342,160789
8.956,138389,327,160813
8.961,138436,337,160826
8.966,138438,331,160853
8.971,138444,334,160886
8.976,138471,333,160887
8.981,138510,321,160917
8.986,138513,339,160960
8.990,138529,327,160972
8.995,138544,341,161001
9.000,138550,324,161035
9.005,138561,344,161033
9.010,138571,320,161052
9.015,138581,347,161060
9.020,138578,315,161075
9.025,138587,350,161098
9.030,138596,312,161117
9.035,138592,353,161119
9.040,138605,309,161133
9.045,138607,356,161123
9.050,138599,303,161127
9.055,138604,361,161131
9.060,138594,301,161141
9.065,138606,364,161170
9.070,138596,299,161158
9.075,138619,366,161174
9.080,138628,295,161181
9.085,138616,367,161181
9.090,138609,292,161195
9.095,138608,370,161205
9.100,138612,289,161207
9.104,138612,373,161210
9.109,138610,288,161220
9.114,138606,376,161222
9.119,138614,286,161217
9.124,138619,380,161235
9.129,138625,282,161233
9.134,138628,380,161239
9.139,138621,279,161237
9.144,138615,386,161250
9.149,138618,278,161271
9.154,138628,387,161283
9.159,138649,276,161310
9.164,138647,389,161314
9.169,138669,274,161328
9.174,138675,390,161347
9.179,138665,272,161359
9.184,138670,392,161371
9.189,138683,269,161382
9.194,138678,394,161380
9.199,138693,270,161421
9.204,138705,398,161437
9.209,138702,268,161454
9.214,138719,399,161469
9.219,138715,267,161480
9.223,138721,402,161426
9.228,138731,264,161486
9.233,138734,400,161481
9.238,138723,261,161489
9.243,138737,405,161489
9.248,138735,264,161492
9.253,138757,405,161506
9.258,138754,261,161518
9.263,138752,408,161524
9.268,138768,260,161548
9.273,138796,408,161572
9.278,138795,259,161611
9.283,138811,409,161627
9.288,138826,258,161664
9.293,138841,410,161676
9.298,138851,260,161715
9.303,138866,411,161749
9.308,138872,258,161797
9.313,138890,412,161793
9.318,138897,257,161827
9.323,138921,413,161837
9.328,138931,257,161859
9.333,138939,414,161867
9.337,138949,257,161858
9.342,138957,414,161839
9.347,138959,257,161888
9.352,138976,414,161884
9.357,138982,257,161897
9.362,139000,416,161916
9.367,139005,256,161938
9.372,139026,416,161941
9.377,139043,258,161968
9.382,139050,416,161969
9.387,139052,258,162021
9.392,139077,416,162026
9.397,139072,258,162044
9.402,139086,415,162061
9.407,139099,258,162097
9.412,139107,414,162111
9.417,139117,262,162124
9.422,139149,413,162156
9.427,139146,263,162159
9.432,139160,413,162185
9.437,139150,264,162202
9.442,139171,412,162200
9.447,139175,266,162230
9.451,139180,410,162236
9.456,139191,266,162259
9.461,139202,408,162268
9.466,139219,267,162289
9.471,139209,406,162289
9.476,139205,271,162297
9.481,139213,404,162308
9.486,139221,271,162313
9.491,139216,403,162315
9.496,139225,273,162327
9.501,139232,399,162345
9.506,139247,275,162384
9.511,139237,397,162380
9.516,139264,270,162401
9.521,139134,395,162417
9.526,139140,276,162424
9.531,139145,392,162438
9.536,139161,279,162444
9.541,139174,389,162460
9.546,139181,281,162487
9.551,139186,388,162481
9.556,139184,284,162519
9.561,139206,384,162527
9.566,139202,287,162528
9.570,139216,382,162555
9.575,139227,289,162572
9.580,139235,379,162579
9.585,139250,291,162607
9.590,139230,375,162615
9.595,139224,293,162628
9.600,139228,372,162639
9.605,139246,299,162658
9.610,139242,368,162668
9.615,139256,297,162703
9.620,139254,366,162712
9.625,139252,303,162719
9.630,139259,363,162729
9.635,139251,304,162758
9.640,139261,359,162748
9.645,139262,308,162772
9.650,139258,355,162770
9.655,139259,312,162782
9.660,139261,352,162798
9.665,139254,312,162828
9.670,139259,351,162836
9.675,139265,315,162843
9.680,139275,347,162859
9.684,139283,319,162886
9.689,139281,343,162887
9.694,139284,325,162913
9.699,139292,340,162933
9.704,139295,329,162947
9.709,139303,338,162954
9.714,139304,329,162969
9.719,139311,335,162980
9.724,139323,333,162980
9.729,139313,330,163004
9.734,139321,336,163011
9.739,139326,326,163023
9.744,139336,337,163039
9.749,139336,322,163036
9.754,139353,342,163040
9.759,139355,321,163079
9.764,139363,346,163075
9.769,139367,317,163089
9.774,139378,348,163079
9.779,139383,312,163112
9.784,139382,351,163146
9.789,139408,309,163155
9.794,139394,354,163172
9.798,139409,305,163200
9.803,139438,356,163221
9.808,139451,304,163241
9.813,139466,358,163271
9.818,139465,300,163308
9.823,139481,362,163330
9.828,139505,297,163372
9.833,139514,363,163379
9.838,139524,293,163403
9.843,139540,366,163437
9.848,139556,291,163474
9.853,139562,369,163469
9.858,139593,289,163516
9.863,139592,372,163549
9.868,139618,287,163581
9.873,139618,374,163610
9.878,139627,283,163622
9.883,139639,375,163652
9.888,139651,283,163676
9.893,139674,379,163713
9.898,139693,279,163746
9.903,139711,382,163791
9.908,139713,276,163804
9.913,139731,381,163847
9.917,139753,274,163879
9.922,139773,384,163920
9.927,139792,272,163944
9.932,139808,385,163989
9.937,139814,269,164017
9.942,139831,388,164067
9.947,139858,268,164100
9.952,139884,388,164154
9.957,139902,267,164180
9.962,139925,390,164238
9.967,139946,265,164271
9.972,139968,392,164309
9.977,139980,263,164335
9.982,140013,393,164378
9.987,140017,262,164416
9.992,140049,395,164446
9.997,140062,259,164482
10.002,140085,396,164516
10.007,140096,260,164559
10.012,140122,397,164587
10.017,140147,259,164633
10.022,140165,396,164690
10.027,140187,257,164731
10.031,140200,400,164776
10.036,140239,256,164810
10.041,140250,401,164840
10.046,140263,255,164871
10.051,140298,402,164924
10.056,140307,254,164950
10.061,140332,402,165004
10.066,140352,257,165033
10.071,140367,404,165063
10.076,140397,255,165126
10.081,140415,405,165159
10.086,140444,255,165209
10.091,140473,404,165263
10.096,140492,253,165305
10.101,140518,405,165348
10.106,140540,252,165400
10.111,140578,405,165450
10.116,140608,254,165508
10.121,140618,405,165562
10.126,140659,254,165595
10.131,140684,405,165645
10.136,140708,253,165708
10.141,140735,405,165753
10.145,140772,252,165804
10.150,140792,404,165850
10.155,140827,254,165913
10.160,140846,403,165964
10.165,140875,255,166015
10.170,140907,404,166046
10.175,140941,255,166111
10.180,140960,403,166146
10.185,140985,255,166211
10.190,141024,402,166272
10.195,141041,261,166336
10.200,141068,401,166418
10.205,141106,256,166636
10.210,141125,400,166706
10.215,141133,257,166754
10.220,141152,398,166810
10.225,141165,258,166838
10.230,141182,397,166877
10.235,141195,258,166913
10.240,141205,395,166930
10.245,141206,264,166963
10.250,141217,394,166999
10.255,141231,262,167014
10.260,141243,392,167026
10.264,141246,263,167059
10.269,141247,390,167094
10.274,141247,268,167102
10.279,141269,388,167114
10.284,141257,270,167138
10.289,141280,385,167171
10.294,141273,268,167186
10.299,141296,382,167224
10.304,141299,274,167238
10.309,141312,381,167257
10.314,141342,276,167302
10.319,141338,377,167298
10.324,141342,278,167342
10.329,141352,376,167368
10.334,141356,280,167390
10.339,141354,372,167403
10.344,141365,284,167452
10.349,141385,370,167477
10.354,141405,286,167480
10.359,141406,367,167508
10.364,141421,288,167528
10.369,141417,365,167528
10.374,141425,290,167573
10.378,141431,361,167565
10.383,141432,291,167595
10.388,141450,357,167606
10.393,141453,295,167628
10.398,141453,355,167635
10.403,141460,298,167645
10.408,141464,353,167648
10.413,141477,301,167679
10.418,141504,349,167693
10.423,141484,304,167717
10.428,141495,346,167729
10.433,141502,307,167751
10.438,141516,340,167756
10.443,141521,311,167772
10.448,141528,340,167782
10.453,141531,313,167789
10.458,141540,336,167815
10.463,141546,317,167837
10.468,141551,333,167833
10.473,141555,319,167845
10.478,141536,329,167835
10.483,141543,324,167828
10.488,141543,325,167829
10.492,141531,326,167830
10.497,141535,322,167833
10.502,141526,331,167842
10.507,141537,320,167836
10.512,141534,335,167812
10.517,141531,316,167802
10.522,141535,338,167822
10.527,141535,314,167813
10.532,141522,341,167819
10.537,141514,310,167802
10.542,141533,344,167802
10.547,141526,308,167820
10.552,141510,347,167798
10.557,141527,304,167830
10.562,141528,350,167827
10.567,141529,301,167833
10.572,141533,353,167827
10.577,141524,296,167819
10.582,141515,356,167813
10.587,141515,294,167818
10.592,141519,355,167819
10.597,141522,291,167803
10.602,141528,358,167797
10.607,141527,288,167794
10.611,141516,360,167782
10.616,141514,285,167771
10.621,141520,363,167775
10.626,141507,283,167768
10.631,141522,366,167775
10.636,141523,282,167749
10.641,141526,369,167771
10.646,141515,280,167782
10.651,141523,371,167779
10.656,141519,276,167782
10.661,141538,374,167792
10.666,141533,274,167779
10.671,141540,375,167776
10.676,141536,272,167791
10.681,141527,377,167805
10.686,141559,264,167808
10.691,141542,379,167812
10.696,141549,270,167818
10.701,141550,381,167822
10.706,141573,268,167799
10.711,141556,383,167813
10.716,141562,265,167828
10.721,141551,385,167800
10.725,141558,265,167827
10.730,141546,385,167822
10.735,141564,262,167814
10.740,141567,388,167829
10.745,141577,264,167841
10.750,141560,391,167827
10.755,141579,262,167835
10.760,141587,392,167841
10.765,141589,261,167858
10.770,141586,394,167840
10.775,141596,260,167837
10.780,141583,396,167841
10.785,141597,257,167851
10.790,141580,396,167857
10.795,141593,255,167851
10.800,141582,397,167854
10.805,141599,255,167867
10.810,141597,398,167864
10.815,141613,255,167880
10.820,141612,400,167872
10.825,141600,254,167887
10.830,141622,382,167885
10.835,141612,255,167883
10.839,141621,402,167886
10.844,141612,254,167878
10.849,141631,402,167875
10.854,141623,254,167882
10.859,141631,404,167889
10.864,141631,253,167897
10.869,141632,403,167893
10.874,141637,252,167899
10.879,141643,387,167898
10.884,141643,254,167912
10.889,141645,405,167927
10.894,141645,254,167935
10.899,141651,406,167910
10.904,141664,253,167923
10.909,141660,406,167914
10.914,141647,253,167917
10.919,141657,406,167922
10.924,141678,254,167931
10.929,141657,405,167943
10.934,141659,252,167932
10.939,141665,403,167930
10.944,141662,253,167960
10.949,141682,404,167972
10.954,141686,253,167975
10.958,141692,403,167972
10.963,141683,257,167988
10.968,141694,403,167988
10.973,141714,258,167999
10.978,141705,402,168011
10.983,141716,256,168022
10.988,141743,401,168037
10.993,141731,255,168044
10.998,141737,398,168045
11.003,141761,258,168075
11.008,141765,397,168098
11.013,141762,260,168101
11.018,141780,396,168117
11.023,141799,261,168147
11.028,141795,395,168161
11.033,141808,264,168170
11.038,141829,392,168212
11.043,141831,266,168242
11.048,141846,390,168252
11.053,141868,264,168296
11.058,141881,388,168316
11.063,141877,266,168350
11.068,141896,386,168381
11.072,141920,274,168393
11.077,141938,383,168442
11.082,141933,272,168492
11.087,141947,381,168513
11.092,141946,274,168537
11.097,141947,379,168558
11.102,141958,276,168558
11.107,141952,377,168590
11.112,141962,278,168602
11.117,141957,374,168602
11.122,141934,278,168631
11.127,141949,372,168645
11.132,141965,279,168663
11.137,141966,369,168668
11.142,141954,283,168677
11.147,141980,367,168701
11.152,141963,285,168717
11.157,141968,363,168719
11.162,141965,288,168744
11.167,141976,361,168746
11.172,141992,288,168758
11.177,141980,359,168769
11.182,141981,292,168778
11.186,141981,356,168780
11.191,141991,295,168804
11.196,141992,352,168796
11.201,142004,298,168795
11.206,142005,351,168824
11.211,141997,300,168811
11.216,141994,347,168810
11.221,141995,305,168804
11.226,141997,345,168811
11.231,141990,307,168801
11.236,141995,341,168815
11.241,142002,309,168830
11.246,142009,338,168829
11.251,142005,313,168837
11.256,142001,335,168817
11.261,142007,316,168842
11.266,142016,332,168850
11.271,141995,315,168852
11.276,142017,329,168839
11.281,142009,321,168862
11.286,142020,326,168868
11.291,142030,323,168863
11.296,142042,323,168879
11.301,142042,331,168885
11.305,142046,320,168895
11.310,142049,332,168905
11.315,142068,315,168909
11.320,142071,334,168917
11.325,142083,312,168918
11.330,142086,337,168931
11.335,142099,309,168935
11.340,142101,340,168951
11.345,142111,306,168949
11.350,142109,342,168958
11.355,142125,302,168973
11.360,142132,348,168998
11.365,142126,297,168995
11.370,142156,348,169019
11.375,142161,297,169038
11.380,142173,353,169045
11.385,142179,292,169055
11.390,142193,355,169060
11.395,142195,288,169066
11.400,142213,360,169061
11.405,142210,287,169066
11.410,142213,361,169081
11.415,142225,285,169080
11.419,142219,367,169074
11.424,142235,282,169072
11.429,142243,368,169063
11.434,142248,279,169057
11.439,142267,370,169078
11.444,142254,276,169072
11.449,142261,375,169064
11.454,142268,274,169064
11.459,142261,377,169068
11.464,142298,263,169075
11.469,142283,378,169084
11.474,142300,269,169074
11.479,142310,382,169095
11.484,142300,269,169090
11.489,142320,383,169109
11.494,142321,265,169105
11.499,142335,387,169099
11.504,142331,265,169102
11.509,142329,389,169111
11.514,142341,264,169117
11.519,142337,391,169131
11.524,142342,263,169159
11.529,142370,393,169163
11.533,142388,259,169192
11.538,142380,396,169195
11.543,142386,261,169206
11.548,142401,396,169221
11.553,142430,258,169217
11.558,142406,401,169229
11.563,142418,259,169233
11.568,142453,400,169238
11.573,142437,256,169250
11.578,142450,401,169250
11.583,142452,255,169258
11.588,142465,403,169271
11.593,142459,255,169289
11.598,142485,404,169295
11.603,142491,255,169289
11.608,142474,410,169272
11.613,142488,255,169292
11.618,142484,405,169302
11.623,142491,253,169330
11.628,142499,405,169318
11.633,142503,251,169330
11.638,142512,407,169333
11.643,142515,254,169346
11.648,142527,407,169339
11.652,142517,253,169364
11.657,142547,408,169374
11.662,142535,255,169387
11.667,142544,409,169398
11.672,142554,254,169410
11.677,142562,407,169404
11.682,142568,253,169417
11.687,142569,405,169435
11.692,142569,253,169423
11.697,142565,406,169441
11.702,142600,257,169450
11.707,142595,406,169445
11.712,142590,257,169476
11.717,142627,406,169467
11.722,142622,257,169476
11.727,142628,405,169495
11.732,142648,258,169511
11.737,142640,404,169517
11.742,142652,258,169536
11.747,142655,403,169540
11.752,142670,262,169561
11.757,142662,402,169568
11.762,142675,262,169563
11.766,142685,400,169601
11.771,142709,262,169591
11.776,142702,398,169614
11.781,142694,264,169624
11.786,142701,395,169631
11.791,142701,267,169642
11.796,142732,393,169644
11.801,142716,268,169665
11.806,142733,391,169663
11.811,142729,270,169690
11.816,142768,389,169698
11.821,142755,272,169692
11.826,142759,385,169708
11.831,142764,274,169711
11.836,142769,382,169718
11.841,142772,279,169738
11.846,142775,382,169736
11.851,142791,279,169755
11.856,142785,378,169753
11.861,142794,281,169763
11.866,142789,375,169775
11.871,142801,283,169784
11.876,142808,372,169774
11.880,142818,285,169781
11.885,142813,369,169798
11.890,142814,291,169802
11.895,142823,365,169807
11.900,142834,280,169815
11.905,142834,363,169834
11.910,142836,295,169847
11.915,142849,360,169854
11.920,142845,297,169857
11.925,142863,356,169878
11.930,142879,302,169873
11.935,142861,352,169895
11.940,142867,305,169898
11.945,142860,349,169910
11.950,142851,308,169901
11.955,142868,345,169912
11.960,142868,311,169927
11.965,142857,341,169924
11.970,142853,317,169928
11.975,142848,338,169928
11.980,142844,319,169931
11.985,142833,333,169933
11.990,142823,321,169944
11.995,142836,330,169933
11.999,142821,325,169939
12.004,142818,328,169931
12.009,142816,327,169925
12.014,142803,323,169918
12.019,142787,333,169920
12.024,142797,319,169914
12.029,142778,335,169909
12.034,142789,316,169892
12.039,142773,341,169901
12.044,142758,312,169867
12.049,142760,342,169891
12.054,142753,309,169899
12.059,142762,347,169885
12.064,142750,305,169903
12.069,142740,349,169885
12.074,142739,301,169896
12.079,142743,353,169896
12.084,142737,298,169888
12.089,142741,355,169904
12.094,142728,293,169921
12.099,142734,359,169910
12.104,142733,290,169931
12.109,142726,360,169923
12.113,142731,287,169941
12.118,142727,363,169943
12.123,142728,284,169955
12.128,142728,367,169960
12.133,142712,282,169976
12.138,142717,368,169987
12.143,142732,279,169980
12.148,142711,371,170000
12.153,142717,277,170010
12.158,142706,373,169997
12.163,142712,274,170010
12.168,142722,377,169994
12.173,142700,272,169997
12.178,142699,379,169988
12.183,142712,269,169981
12.188,142696,380,169972
12.193,142704,267,169994
12.198,142681,382,169973
12.203,142689,266,169973
12.208,142680,384,169968
12.213,142672,265,169959
12.218,142672,386,169941
12.223,142665,262,169941
12.227,142653,389,169937
12.232,142653,262,169938
12.237,142644,390,169945
12.242,142644,262,169922
12.247,142634,392,169923
12.252,142631,259,169918
12.257,142634,394,169917
12.262,142627,257,169923
12.267,142611,396,169916
12.272,142609,258,169899
12.277,142610,398,169900
12.282,142606,255,169899
12.287,142601,400,169894
12.292,142599,255,169895
12.297,142592,401,169905
12.302,142597,255,169907
12.307,142597,401,169893
12.312,142594,252,169922
12.317,142593,403,169901
12.322,142583,253,169899
12.327,142584,403,169890
12.332,142580,250,169900
12.337,142587,404,169897
12.342,142602,250,169902
12.346,142581,405,169907
12.351,142576,252,169901
12.356,142576,405,169905
12.361,142581,252,169911
12.366,142581,405,169902
12.371,142580,254,169910
12.376,142573,405,169914
12.381,142582,251,169926
12.386,142588,405,169938
12.391,142573,254,169929
12.396,142592,405,169942
12.401,142581,254,169937
12.406,142575,405,169960
12.411,142583,253,169957
12.416,142588,403,169959
12.421,142581,256,169960
12.426,142583,403,169964
12.431,142586,256,169979
12.436,142582,409,169965
12.441,142604,257,169975
12.446,142601,400,169992
12.451,142597,260,169993
12.456,142594,398,169986
12.460,142599,260,169995
12.465,142604,396,170002
12.470,142610,261,170015
12.475,142613,394,170020
12.480,142615,265,170026
12.485,142628,393,170034
12.490,142615,267,170030
12.495,142619,389,170026
12.500,142608,268,170056
12.505,142614,388,170058
12.510,142615,273,170039
12.515,142607,384,170062
12.520,142627,274,170055
12.525,142607,381,170074
12.530,142624,278,170051
12.535,142630,377,170078
12.540,142624,279,170081
12.545,142632,377,170068
12.550,142624,279,170069
12.555,142622,375,170071
12.560,142639,285,170103
12.565,142628,370,170102
12.570,142634,285,170108
12.574,142642,366,170100
12.579,142624,291,170090
12.584,142637,364,170093
12.589,142641,290,170104
12.594,142648,361,170107
12.599,142644,295,170106
12.604,142647,357,170104
12.609,142640,296,170119
12.614,142653,354,170103
12.619,142641,302,170110
12.624,142657,351,170123
12.629,142656,300,170135
12.634,142661,347,170138
12.639,142663,308,170130
12.644,142665,344,170149
12.649,142663,311,170145
12.654,142671,339,170146
12.659,142658,315,170169
12.664,142685,337,170147
12.669,142680,319,170164
12.674,142670,332,170154
12.679,142677,324,170170
12.684,142678,329,170175
12.689,142684,327,170175
12.693,142690,324,170194
12.698,142688,333,170190
12.703,142695,321,170190
12.708,142697,336,170194
12.713,142691,317,170182
12.718,142697,338,170193
12.723,142701,314,170182
12.728,142711,337,170200
12.733,142706,310,170218
12.738,142708,347,170213
12.743,142721,306,170217
12.748,142724,349,170225
12.753,142707,301,170230
12.758,142709,354,170238
12.763,142716,299,170238
12.768,142704,355,170224
12.773,142705,293,170242
12.778,142710,353,170244
12.783,142693,293,170242
12.788,142686,361,170241
12.793,142685,288,170236
12.798,142685,361,170225
12.803,142662,285,170219
12.807,142663,367,170223
12.812,142661,282,170233
12.817,142647,369,170211
12.822,142655,279,170198
12.827,142630,371,170199
12.832,142623,277,170193
12.837,142610,373,170186
12.842,142624,276,170178
12.847,142616,376,170181
12.852,142606,273,170163
12.857,142594,379,170153
12.862,142595,271,170164
12.867,142588,381,170138
12.872,142583,270,170121
12.877,142572,383,170134
12.882,142579,266,170138
12.887,142574,387,170135
12.892,142562,265,170128
12.897,142570,388,170121
12.902,142556,263,170124
12.907,142552,391,170128
12.912,142542,263,170120
12.917,142554,391,170120
12.921,142547,261,170126
12.926,142525,393,170125
12.931,142525,258,170126
12.936,142531,393,170119
12.941,142512,260,170102
12.946,142511,397,170122
12.951,142518,256,170107
12.956,142517,399,170107
12.961,142502,257,170103
12.966,142498,400,170090
12.971,142494,253,170087
12.976,142484,401,170087
12.981,142483,255,170084
12.986,142492,402,170063
12.991,142490,253,170088
12.996,142474,403,170063
13.001,142479,254,170056
13.006,142479,404,170053
13.011,142466,252,170062
13.016,142460,405,170058
13.021,142469,254,170060
13.026,142463,404,170054
13.031,142470,251,170049
13.036,142462,407,170045
13.040,142450,254,170049
13.045,142458,406,170045
13.050,142444,252,170032
13.055,142438,406,170039
13.060,142435,255,170048
13.065,142427,405,170029
13.070,142430,255,170016
13.075,142428,405,170008
13.080,142426,254,170008
13.085,142409,405,170002
13.090,142401,256,170015
13.095,142400,403,169987
13.100,142395,255,169992
13.105,142380,403,169973
13.110,142385,259,169982
13.115,142384,401,169956
13.120,142373,259,169955
13.125,142392,400,169963
13.130,142369,259,169948
13.135,142364,398,169948
13.140,142369,263,169934
13.145,142382,397,169936
13.150,142380,263,169935
13.154,142376,394,169945
13.159,142374,267,169951
13.164,142362,392,169912
13.169,142371,269,169930
13.174,142369,390,169946
13.179,142352,270,169927
13.184,142351,387,169923
13.189,142351,271,169937
13.194,142359,385,169927
13.199,142354,276,169921
13.204,142365,381,169937
13.209,142363,277,169935
13.214,142366,378,169940
13.219,142369,279,169949
13.224,142371,376,169967
13.229,142370,283,169963
13.234,142376,373,169969
13.239,142398,285,169966
13.244,142383,369,169968
13.249,142376,290,169957
13.254,142380,365,169953
13.259,142378,291,169966
13.264,142381,362,169939
13.268,142373,295,169952
13.273,142379,360,169965
13.278,142367,297,169948
13.283,142375,357,169960
13.288,142371,303,169950
13.293,142370,352,169944
13.298,142375,305,169943
13.303,142369,349,169929
13.308,142370,310,169949
13.313,142379,343,169956
13.318,142375,309,169942
13.323,142368,342,169934
13.328,142356,315,169938
13.333,142370,338,169940
13.338,142365,319,169936
13.343,142371,335,169940
13.348,142362,324,169938
13.353,142376,329,169928
13.358,142367,326,169920
13.363,142384,328,169922
13.368,142372,329,169921
13.373,142379,323,169928
13.378,142372,336,169929
13.383,142370,319,169901
13.387,142372,337,169906
13.392,142380,316,169893
13.397,142380,341,169902
13.402,142377,311,169898
13.407,142368,345,169917
13.412,142359,308,169905
13.417,142381,349,169903
13.422,142374,305,169917
13.427,142373,350,169916
13.432,142373,300,169913
13.437,142372,356,169914
13.442,142376,297,169929
13.447,142381,357,169924
13.452,142385,293,169916
13.457,142383,362,169921
13.462,142396,290,169918
13.467,142391,364,169926
13.472,142392,288,169935
13.477,142391,367,169929
13.482,142394,284,169934
13.487,142392,371,169937
13.492,142390,281,169944
13.497,142399,373,169919
13.501,142394,278,169920
13.506,142397,376,169930
13.511,142399,277,169922
13.516,142397,377,169926
13.521,142404,274,169931
13.526,142407,381,169933
13.531,142407,273,169931
13.536,142421,382,169941
13.541,142418,270,169952
13.546,142410,384,169930
13.551,142429,269,169939
13.556,142438,393,169974
13.561,142431,267,169939
13.566,142442,388,169943
13.571,142433,265,169956
13.576,142431,391,169954
13.581,142428,263,169959
13.586,142439,395,169955
13.591,142438,262,169974
13.596,142437,395,169967
13.601,142434,260,169978
13.606,142396,398,169987
13.611,142440,258,169998
13.615,142430,398,169987
13.620,142436,260,169991
13.625,142434,399,169995
13.630,142411,255,169965
13.635,142413,400,169983
13.640,142410,258,170000
13.645,142397,403,169980
13.650,142393,255,169968
13.655,142399,404,169970
13.660,142378,254,169959
13.665,142383,404,169968
13.670,142374,254,169951
13.675,142367,404,169969
13.680,142353,251,169936
13.685,142361,406,169929
13.690,142343,254,169924
13.695,142356,407,169936
13.700,142332,254,169925
13.705,142343,406,169918
13.710,142320,251,169911
13.715,142326,406,169916
13.720,142325,255,169920
13.725,142320,408,169919
13.730,142290,254,169916
13.734,142313,407,169921
13.739,142316,255,169929
13.744,142294,407,169932
13.749,142299,250,169897
13.754,142283,405,169915
13.759,142312,254,169919
13.764,142288,406,169911
13.769,142291,256,169906
13.774,142282,404,169924
13.779,142289,258,169914
13.784,142288,404,169915
13.789,142290,258,169899
13.794,142286,403,169906
13.799,142270,259,169892
13.804,142270,402,169883
13.809,142255,258,169891
13.814,142268,400,169886
13.819,142258,260,169882
13.824,142257,399,169882
13.829,142264,264,169879
13.834,142262,398,169861
13.839,142254,265,169868
13.844,142250,396,169882
13.848,142250,275,169883
13.853,142254,395,169883
13.858,142244,267,169881
13.863,142257,392,169912
13.868,142266,268,169887
13.873,142262,390,169889
13.878,142257,270,169907
13.883,142251,388,169896
13.888,142265,272,169906
13.893,142255,385,169907
13.898,142248,274,169895
13.903,142259,383,169900
13.908,142269,275,169909
13.913,142260,380,169907
13.918,142252,279,169915
13.923,142264,378,169912
13.928,142261,281,169908
13.933,142262,375,169919
13.938,142268,283,169919
13.943,142247,373,169929
13.948,142252,286,169921
13.953,142267,370,169930
13.958,142263,288,169932
13.962,142268,367,169930
13.967,142262,290,169929
13.972,142268,364,169943
13.977,142257,297,169948
13.982,142266,363,169959
13.987,142267,299,169951
13.992,142271,359,169942
13.997,142270,299,169963
14.002,142275,356,169959
14.007,142276,305,169970
14.012,142279,352,169961
14.017,142278,309,169982
14.022,142280,350,169981
14.027,142288,311,169974
14.032,142275,346,169992
14.037,142284,314,170001
14.042,142292,344,169994
14.047,142293,316,170011
14.052,142299,340,170027
14.057,142290,318,170028
14.062,142301,337,170026
14.067,142308,324,170021
14.072,142311,335,170061
14.077,142315,328,170058
14.081,142319,331,170063
14.086,142320,330,170068
14.091,142324,330,170094
14.096,142331,333,170075
14.101,142337,326,170088
14.106,142340,335,170110
14.111,142349,322,170114
14.116,142348,338,170110
14.121,142348,318,170115
14.126,142353,341,170135
14.131,142371,315,170131
14.136,142381,346,170133
14.141,142335,312,170146
14.146,142374,347,170146
14.151,142375,308,170155
14.156,142370,352,170155
14.161,142370,306,170155
14.166,142389,354,170152
14.171,142371,301,170150
14.176,142391,357,170152
14.181,142386,299,170160
14.186,142373,361,170161
14.191,142360,294,170155
14.195,142404,362,170181
14.200,142396,293,170176
14.205,142386,363,170173
14.210,142393,291,170186
14.215,142385,368,170174
14.220,142400,288,170189
14.225,142405,371,170188
14.230,142413,285,170199
14.235,142397,373,170194
14.240,142422,283,170198
14.245,142419,373,170202
14.250,142418,280,170205
14.255,142420,377,170192
14.260,142420,278,170208
14.265,142420,379,170198
14.270,142425,275,170218
14.275,142430,381,170217
14.280,142442,274,170212
14.285,142437,383,170237
14.290,142438,272,170237
14.295,142451,386,170237
14.300,142451,271,170247
14.305,142445,387,170241
14.309,142470,268,170272
14.314,142466,392,170260
14.319,142475,269,170266
14.324,142493,392,170269
14.329,142480,267,170295
14.334,142504,396,170307
14.339,142495,265,170309
14.344,142498,396,170310
14.349,142516,264,170313
14.354,142534,399,170339
14.359,142530,265,170350
14.364,142554,401,170347
14.369,142544,263,170361
14.374,142557,403,170366
14.379,142563,262,170367
14.384,142563,417,170368
14.389,142552,261,170385
14.394,142578,406,170384
14.399,142578,259,170405
14.404,142574,407,170393
14.409,142579,258,170402
14.414,142592,408,170395
14.419,142598,256,170411
14.424,142600,407,170422
14.428,142595,255,170430
14.433,142588,409,170421
14.438,142596,256,170430
14.443,142592,410,170442
14.448,142603,255,170437
14.453,142598,410,170450
14.458,142582,257,170444
14.463,142569,409,170444
14.468,142582,255,170444
14.473,142582,411,170447
14.478,142568,255,170439
14.483,142553,412,170437
14.488,142552,256,170424
14.493,142561,412,170428
14.498,142550,255,170421
14.503,142544,411,170418
14.508,142542,256,170405
14.513,142537,412,170421
14.518,142523,255,170406
14.523,142528,411,170406
14.528,142523,255,170417
14.533,142517,410,170407
14.538,142524,258,170419
14.542,142521,411,170421
14.547,142524,258,170425
14.552,142519,410,170422
14.557,142505,259,170408
14.562,142509,408,170404
14.567,142514,259,170414
14.572,142504,407,170423
14.577,142511,261,170407
14.582,142497,406,170421
14.587,142490,262,170417
14.592,142488,404,170414
14.597,142498,264,170409
14.602,142480,401,170417
14.607,142479,265,170412
14.612,142478,400,170409
14.617,142487,266,170420
14.622,142492,397,170426
14.627,142488,272,170435
14.632,142481,397,170403
14.637,142483,272,170398
14.642,142479,394,170420
14.647,142489,273,170405
14.652,142488,390,170420
14.656,142493,275,170426
14.661,142486,388,170408
14.666,142483,276,170428
14.671,142465,386,170441
14.676,142459,280,170432
14.681,142481,384,170431
14.686,142483,281,170445
14.691,142489,381,170465
14.696,142476,284,170453
14.701,142486,378,170463
14.706,142486,286,170465
14.711,142482,375,170463
14.716,142476,289,170456
14.721,142475,373,170462
14.726,142476,292,170449
14.731,142474,371,170457
14.736,142479,295,170441
14.741,142482,367,170438
14.746,142472,298,170426
14.751,142477,365,170426
14.756,142464,301,170426
14.761,142451,362,170412
14.766,142453,303,170417
14.771,142453,359,170397
14.775,142431,303,170407
14.780,142455,357,170389
14.785,142432,306,170385
14.790,142440,354,170380
14.795,142432,310,170372
14.800,142428,352,170373
14.805,142436,315,170363
14.810,142440,347,170376
14.815,142436,319,170393
14.820,142435,344,170373
14.825,142432,322,170360
14.830,142421,341,170365
14.835,142433,326,170378
14.840,142423,339,170371
14.845,142434,328,170359
14.850,142426,334,170369
14.855,142426,331,170359
14.860,142417,330,170362
14.865,142421,334,170368
14.870,142431,327,170351
14.875,142425,339,170353
14.880,142428,324,170360
14.885,142427,342,170361
14.889,142425,322,170344
14.894,142423,344,170349
14.899,142421,317,170334
14.904,142416,346,170340
14.909,142419,314,170341
14.914,142426,349,170326
14.919,142429,307,170336
14.924,142411,351,170329
14.929,142428,307,170334
14.934,142431,357,170333
14.939,142430,306,170334
14.944,142442,358,170326
14.949,142435,301,170343
14.954,142435,361,170348
14.959,142432,298,170358
14.964,142433,364,170339
14.969,142428,295,170347
14.974,142427,366,170343
14.979,142437,292,170344
14.984,142431,369,170337
14.989,142441,289,170337
14.994,142432,371,170337
14.999,142436,287,170349
15.003,142454,375,170351
15.008,142440,283,170335
15.013,142441,377,170346
15.018,142445,282,170344
15.023,142433,380,170336
15.028,142454,280,170338
15.033,142437,381,170332
15.038,142432,277,170325
15.043,142441,385,170334
15.048,142447,274,170316
15.053,142433,386,170317
15.058,142437,274,170321
15.063,142439,390,170301
15.068,142432,271,170319
15.073,142446,389,170311
15.078,142445,270,170317
15.083,142433,394,170306
15.088,142446,269,170317
15.093,142427,397,170305
15.098,142453,267,170313
15.103,142452,398,170320
15.108,142447,265,170333
15.113,142451,399,170313
15.118,142449,266,170335
15.122,142448,401,170327
15.127,142456,263,170317
15.132,142458,403,170334
15.137,142444,262,170327
15.142,142460,403,170323
15.147,142450,260,170337
15.152,142446,404,170324
15.157,142467,257,170336
15.162,142468,410,170352
15.167,142469,259,170337
15.172,142466,407,170361
15.177,142477,257,170334
15.182,142473,407,170346
15.187,142480,257,170343
15.192,142488,410,170357
15.197,142481,256,170351
15.202,142479,409,170353
15.207,142485,255,170355
15.212,142478,411,170351
15.217,142486,254,170346
15.222,142488,412,170337
15.227,142481,257,170353
15.232,142497,412,170360
15.236,142496,256,170358
15.241,142512,413,170353
15.246,142519,256,170382
15.251,142513,413,170381
15.256,142513,256,170371
15.261,142507,412,170392
15.266,142508,254,170393
15.271,142519,412,170402
15.276,142504,257,170385
15.281,142502,412,170384
15.286,142496,258,170402
15.291,142509,412,170400
15.296,142492,257,170408
15.301,142491,412,170387
15.306,142489,257,170399
15.311,142470,411,170383
15.316,142468,257,170402
15.321,142472,410,170387
15.326,142458,257,170379
15.331,142449,409,170379
15.336,142442,261,170365
15.341,142429,408,170369
15.346,142433,262,170363
15.350,142420,407,170358
15.355,142435,263,170371
15.360,142411,406,170351
15.365,142411,265,170343
15.370,142410,403,170336
15.375,142406,266,170333
15.380,142390,403,170336
15.385,142391,267,170321
15.390,142374,400,170304
15.395,142392,270,170324
15.400,142381,399,170328
15.405,142382,271,170329
15.410,142368,396,170317
15.415,142374,271,170316
15.420,142369,395,170308
15.425,142360,272,170305
15.430,142353,391,170311
15.435,142345,277,170297
15.440,142343,389,170310
15.445,142364,280,170302
15.450,142348,387,170297
15.455,142339,281,170303
15.460,142338,385,170283
15.465,142344,279,170300
15.469,142324,383,170301
15.474,142321,286,170289
15.479,142326,380,170283
15.484,142325,288,170282
15.489,142329,377,170286
15.494,142303,290,170290
15.499,142324,374,170269
15.504,142316,289,170280
15.509,142326,372,170274
15.514,142321,293,170287
15.519,142323,370,170281
15.524,142311,295,170291
15.529,142314,367,170289
15.534,142308,299,170290
15.539,142314,364,170278
15.544,142319,300,170261
15.549,142306,361,170286
15.554,142316,305,170289
15.559,142297,358,170277
15.564,142313,308,170297
15.569,142305,355,170279
15.574,142305,309,170304
15.579,142307,353,170274
15.583,142291,313,170286
15.588,142303,348,170294
15.593,142288,317,170288
15.598,142291,345,170281
15.603,142288,320,170282
15.608,142293,341,170278
15.613,142268,323,170264
15.618,142281,339,170277
15.623,142269,325,170274
15.628,142283,335,170265
15.633,142276,329,170287
15.638,142289,332,170281
15.643,142282,335,170289
15.648,142285,327,170272
15.653,142281,336,170295
15.658,142286,325,170288
15.663,142290,341,170289
15.668,142296,322,170298
15.673,142298,344,170310
15.678,142290,319,170306
15.683,142296,347,170316
15.688,142307,314,170327
15.693,142297,348,170315
15.697,142297,318,170312
15.702,142302,353,170318
15.707,142295,308,170328
15.712,142309,355,170318
15.717,142291,305,170332
15.722,142301,358,170337
15.727,142301,300,170327
15.732,142301,361,170325
15.737,142307,298,170338
15.742,142307,363,170321
15.747,142315,295,170331
15.752,142314,367,170330
15.757,142302,294,170337
15.762,142322,370,170330
15.767,142310,291,170335
15.772,142309,373,170331
15.777,142322,288,170343
15.782,142324,374,170329
15.787,142327,284,170341
15.792,142327,377,170344
15.797,142344,284,170350
15.802,142327,378,170336
15.807,142343,282,170355
15.812,142339,382,170364
15.816,142330,279,170359
15.821,142338,384,170361
15.826,142327,277,170357
15.831,142346,387,170361
15.836,142327,274,170367
15.841,142350,387,170370
15.846,142345,273,170382
15.851,142352,390,170385
15.856,142347,272,170391
15.861,142347,392,170395
15.866,142367,269,170389
15.871,142361,394,170398
15.876,142381,267,170413
15.881,142366,396,170416
15.886,142377,265,170413
15.891,142385,397,170417
15.896,142391,256,170427
15.901,142383,397,170415
15.906,142381,262,170419
15.911,142374,401,170423
15.916,142377,264,170424
15.921,142388,402,170427
15.926,142386,262,170406
15.930,142394,404,170412
15.935,142382,262,170419
15.940,142388,405,170443
15.945,142398,259,170421
15.950,142405,406,170433
15.955,142390,258,170435
15.960,142407,407,170436
15.965,142415,260,170437
15.970,142418,409,170454
15.975,142414,259,170462
15.980,142427,409,170463
15.985,142425,258,170459
15.990,142417,409,170466
15.995,142433,256,170492
16.000,142437,411,170490
16.005,142442,255,170495
16.010,142457,411,170514
16.015,142457,255,170511
16.020,142466,412,170513
16.025,142462,255,170506
16.030,142468,412,170522
16.035,142463,254,170515
16.040,142473,413,170524
16.044,142477,254,170533
16.049,142484,412,170540
16.054,142489,254,170528
16.059,142487,413,170526
16.064,142492,258,170533
16.069,142491,413,170522
16.074,142500,258,170532
16.079,142501,412,170533
16.084,142518,257,170566
16.089,142520,411,170552
16.094,142518,260,170561
16.099,142513,412,170563
16.104,142531,260,170581
16.109,142538,411,170589
16.114,142517,260,170585
16.119,142536,409,170592
16.124,142527,261,170614
16.129,142517,406,170604
16.134,142515,262,170606
16.139,142525,406,170598
16.144,142507,261,170592
16.149,142502,406,170590
16.154,142491,263,170585
16.159,142485,403,170581
16.163,142475,263,170579
16.168,142465,403,170571
16.173,142480,265,170571
16.178,142451,400,170554
16.183,142453,271,170562
16.188,142443,398,170530
16.193,142433,269,170538
16.198,142441,397,170545
16.203,142418,273,170542
16.208,142424,393,170508
16.213,142418,274,170527
16.218,142407,392,170514
16.223,142404,276,170505
16.228,142396,388,170505
16.233,142392,276,170493
16.238,142376,386,170493
16.243,142380,280,170490
16.248,142398,383,170497
16.253,142390,282,170488
16.258,142375,381,170482
16.263,142386,284,170488
16.268,142369,376,170482
16.273,142374,287,170493
16.277,142377,375,170465
16.282,142387,289,170481
16.287,142357,373,170484
16.292,142365,293,170479
16.297,142374,369,170481
16.302,142379,295,170488
16.307,142371,367,170502
16.312,142365,299,170503
16.317,142369,364,170481
16.322,142363,301,170484
16.327,142349,362,170478
16.332,142373,302,170472
16.337,142347,360,170479
16.342,142349,306,170496
16.347,142365,356,170474
16.352,142354,308,170494
16.357,142359,354,170468
16.362,142363,310,170490
16.367,142352,350,170490
16.372,142361,313,170499
16.377,142356,347,170504
16.382,142362,317,170498
16.387,142357,344,170508
16.391,142357,320,170486
16.396,142343,341,170495
16.401,142367,324,170500
16.406,142359,336,170504
16.411,142359,327,170498
16.416,142353,334,170497
16.421,142352,333,170495
16.426,142348,331,170504
16.431,142364,334,170502
16.436,142355,328,170500
16.441,142342,336,170508
16.446,142351,324,170512
16.451,142348,342,170504
16.456,142342,321,170514
16.461,142350,344,170515
16.466,142355,316,170514
16.471,142338,347,170520
16.476,142348,313,170500
16.481,142341,350,170523
16.486,142345,310,170521
16.491,142338,353,170510
16.496,142327,307,170501
16.501,142341,357,170521
16.506,142349,302,170516
16.510,142344,360,170522
16.515,142346,300,170531
16.520,142348,362,170516
16.525,142384,298,170501
16.530,142341,364,170512
16.535,142345,295,170517
16.540,142349,367,170518
16.545,142342,291,170530
16.550,142343,369,170512
16.555,142344,290,170507
16.560,142342,372,170506
16.565,142342,287,170506
16.570,142338,375,170489
16.575,142342,284,170501
16.580,142347,375,170506
16.585,142346,283,170485
16.590,142342,380,170491
16.595,142338,281,170487
16.600,142340,382,170484
16.605,142338,279,170486
16.610,142332,383,170488
16.615,142341,277,170481
16.620,142355,386,170500
16.624,142347,275,170505
16.629,142355,387,170494
16.634,142339,274,170505
16.639,142354,388,170511
16.644,142358,271,170513
16.649,142354,390,170504
16.654,142372,270,170524
16.659,142358,393,170512
16.664,142376,268,170528
16.669,142379,387,170515
16.674,142385,268,170522
16.679,142377,396,170521
16.684,142381,266,170534
16.689,142390,398,170538
16.694,142382,264,170530
16.699,142388,400,170538
16.704,142393,263,170556
16.709,142395,401,170544
16.714,142402,263,170567
16.719,142404,404,170556
16.724,142390,263,170549
16.729,142405,404,170554
16.734,142391,261,170549
16.738,142414,405,170578
16.743,142415,260,170567
16.748,142412,407,170574
16.753,142420,259,170561
16.758,142422,407,170566
16.763,142424,258,170565
16.768,142423,429,170573
16.773,142411,258,170563
16.778,142436,408,170585
16.783,142431,256,170586
16.788,142440,410,170586
16.793,142448,256,170595
16.798,142432,410,170591
16.803,142437,254,170609
16.808,142440,410,170598
16.813,142436,258,170607
16.818,142446,411,170601
16.823,142460,254,170610
16.828,142465,411,170622
16.833,142474,254,170608
16.838,142475,412,170631
16.843,142466,253,170633
16.848,142480,412,170621
16.853,142470,257,170645
16.857,142479,412,170625
16.862,142479,257,170625
16.867,142500,412,170637
16.872,142484,255,170650
16.877,142484,411,170655
16.882,142488,258,170634
16.887,142479,410,170652
16.892,142488,259,170644
16.897,142500,410,170665
16.902,142510,258,170668
16.907,142503,409,170667
16.912,142520,260,170660
16.917,142513,408,170673
16.922,142520,261,170672
16.927,142521,407,170679
16.932,142527,263,170669
16.937,142530,405,170662
16.942,142523,263,170678
16.947,142535,404,170676
16.952,142555,265,170678
16.957,142534,402,170674
16.962,142549,265,170676
16.967,142542,400,170695
16.971,142541,268,170708
16.976,142542,398,170707
16.981,142565,269,170722
16.986,142557,395,170714
16.991,142548,271,170722
16.996,142548,394,170721
17.001,142545,272,170718
17.006,142556,391,170713
17.011,142539,278,170738
17.016,142548,390,170737
17.021,142528,279,170723
17.026,142522,387,170716
17.031,142515,281,170713
17.036,142510,386,170706
17.041,142520,282,170696
17.046,142512,382,170701
17.051,142498,285,170713
17.056,142496,380,170695
17.061,142465,288,170698
17.066,142495,377,170686
17.071,142484,290,170672
17.076,142475,375,170693
17.081,142478,291,170665
17.085,142465,371,170655
17.090,142473,294,170669
17.095,142467,369,170661
17.100,142457,296,170672
17.105,142464,366,170661
17.110,142451,300,170659
17.115,142448,363,170668
17.120,142461,302,170664
17.125,142452,359,170670
17.130,142445,305,170660
17.135,142435,356,170665
17.140,142438,308,170672
17.145,142441,353,170652
17.150,142439,311,170667
17.155,142423,350,170659
17.160,142437,314,170656
17.165,142428,347,170668
17.170,142428,318,170657
17.175,142441,345,170660
17.180,142436,320,170655
17.185,142434,342,170655
17.190,142432,323,170638
17.195,142428,338,170636
17.200,142433,326,170646
17.204,142430,334,170647
17.209,142428,331,170642
17.214,142438,332,170641
17.219,142426,333,170645
17.224,142432,329,170651
17.229,142440,338,170650
17.234,142443,324,170652
17.239,142437,338,170673
17.244,142448,322,170670
17.249,142441,342,170658
17.254,142455,317,170665
17.259,142441,343,170662
17.264,142452,317,170654
17.269,142450,350,170669
17.274,142446,313,170649
17.279,142448,351,170659
17.284,142437,309,170664
17.289,142446,355,170644
17.294,142434,306,170659
17.299,142430,356,170650
17.304,142436,285,170639
17.309,142433,359,170649
17.314,142428,300,170639
17.318,142424,362,170633
17.323,142427,296,170630
17.328,142413,365,170634
17.333,142422,293,170629
17.338,142436,366,170612
17.343,142416,290,170639
17.348,142428,369,170626
17.353,142426,289,170644
17.358,142425,373,170631
17.363,142414,285,170637
17.368,142420,376,170632
17.373,142424,284,170629
17.378,142425,375,170634
17.383,142433,281,170629
17.388,142429,380,170641
17.393,142419,279,170631
17.398,142431,382,170630
17.403,142412,278,170628
17.408,142422,385,170647
17.413,142416,278,170637
17.418,142439,387,170634
17.423,142444,274,170641
17.428,142434,389,170634
17.432,142436,272,170650
17.437,142443,390,170640
17.442,142441,270,170638
17.447,142445,393,170655
17.452,142456,269,170640
17.457,142446,395,170653
17.462,142454,267,170643
17.467,142451,397,170657
17.472,142463,265,170649
17.477,142447,397,170669
17.482,142474,263,170664
17.487,142465,399,170664
17.492,142472,266,170678
17.497,142475,403,170666
17.502,142484,261,170674
17.507,142490,403,170675
17.512,142480,262,170694
17.517,142503,406,170685
17.522,142477,260,170693
17.527,142491,406,170691
17.532,142485,258,170695
17.537,142502,407,170701
17.542,142494,256,170696
17.547,142506,408,170718
17.551,142496,258,170694
17.556,142510,409,170706
17.561,142527,257,170733
17.566,142513,409,170723
17.571,142513,256,170724
17.576,142517,411,170725
17.581,142529,255,170724
17.586,142537,410,170726
17.591,142548,257,170733
17.596,142539,412,170730
17.601,142542,255,170736
17.606,142549,411,170742
17.611,142546,255,170742
17.616,142558,411,170749
17.621,142563,254,170752
17.626,142546,412,170758
17.631,142561,257,170760
17.636,142564,413,170769
17.641,142574,258,170769
17.646,142591,412,170776
17.651,142585,257,170787
17.656,142584,410,170785
17.661,142602,256,170773
17.665,142606,412,170785
17.670,142595,258,170802
17.675,142601,410,170796
17.680,142605,257,170783
17.685,142605,411,170807
17.690,142598,258,170808
17.695,142646,403,170817
17.700,142608,258,170827
17.705,142623,409,170818
17.710,142637,260,170822
17.715,142631,408,170829
17.720,142644,261,170827
17.725,142650,407,170851
17.730,142640,262,170859
17.735,142651,406,170855
17.740,142643,266,170849
17.745,142664,404,170860
17.750,142653,265,170868
17.755,142659,403,170857
17.760,142661,266,170877
17.765,142686,400,170858
17.770,142672,268,170878
17.775,142693,398,170871
17.779,142688,273,170880
17.784,142684,396,170874
17.789,142685,275,170887
17.794,142693,395,170879
17.799,142700,273,170891
17.804,142707,391,170895
17.809,142704,279,170906
17.814,142706,389,170914
17.819,142730,280,170911
17.824,142726,386,170920
17.829,142722,283,170915
17.834,142733,383,170917
17.839,142730,285,170891
17.844,142707,380,170927
17.849,142712,285,170923
17.854,142703,378,170912
17.859,142704,286,170921
17.864,142693,375,170912
17.869,142693,293,170913
17.874,142687,373,170922
17.879,142680,294,170916
17.884,142663,368,170908
17.889,142677,294,170917
17.894,142665,368,170911
17.898,142657,298,170892
17.903,142647,365,170891
17.908,142644,302,170900
17.913,142642,362,170884
17.918,142642,303,170877
17.923,142631,359,170890
17.928,142630,306,170879
17.933,142624,355,170892
17.938,142618,308,170869
17.943,142612,352,170862
17.948,142614,313,170877
17.953,142618,349,170860
17.958,142599,314,170860
17.963,142620,345,170873
17.968,142611,322,170856
17.973,142612,343,170867
17.978,142622,323,170876
17.983,142622,338,170871
17.988,142611,324,170877
17.993,142606,336,170865
17.998,142605,328,170860
18.003,142604,333,170868
18.008,142607,330,170875
18.012,142600,329,170882
18.017,142599,336,170872
18.022,142599,326,170876
18.027,142613,341,170870
18.032,142601,322,170871
18.037,142598,340,170866
18.042,142593,319,170887
18.047,142610,343,170885
18.052,142615,316,170878
18.057,142603,346,170858
18.062,142592,312,170862
18.067,142601,350,170858
18.072,142603,310,170868
18.077,142603,355,170858
18.082,142581,309,170855
18.087,142608,357,170859
18.092,142600,305,170833
18.097,142608,359,170834
18.102,142585,300,170835
18.107,142599,361,170837
18.112,142588,298,170827
18.117,142579,364,170828
18.122,142585,294,170817
18.126,142579,367,170828
18.131,142590,294,170822
18.136,142588,367,170816
18.141,142580,289,170822
18.146,142564,370,170817
18.151,142567,288,170811
18.156,142572,373,170814
18.161,142572,285,170795
18.166,142559,376,170798
18.171,142566,283,170797
18.176,142575,377,170798
18.181,142565,282,170809
18.186,142575,379,170804
18.191,142565,281,170805
18.196,142568,382,170811
18.201,142571,278,170808
18.206,142572,385,170827
18.211,142581,275,170801
18.216,142568,386,170782
18.221,142563,274,170801
18.226,142566,388,170803
18.231,142570,271,170808
18.236,142578,390,170812
18.241,142580,271,170801
18.245,142567,393,170805
18.250,142583,270,170808
18.255,142574,394,170814
18.260,142573,267,170805
18.265,142581,395,170809
18.270,142578,266,170793
18.275,142574,397,170802
18.280,142575,265,170799
18.285,142582,399,170804
18.290,142583,264,170804
18.295,142581,401,170810
18.300,142574,262,170810
18.305,142579,402,170789
18.310,142576,260,170792
18.315,142564,404,170793
18.320,142576,259,170803
18.325,142582,404,170800
18.330,142577,259,170800
18.335,142574,406,170786
18.340,142578,257,170807
18.345,142584,406,170797
18.350,142573,257,170782
18.355,142574,407,170778
18.359,142583,256,170792
18.364,142574,408,170791
18.369,142564,258,170787
18.374,142576,390,170781
18.379,142590,256,170796
18.384,142582,410,170782
18.389,142589,255,170807
18.394,142597,410,170800
18.399,142596,253,170800
18.404,142594,411,170821
18.409,142605,257,170822
18.414,142604,411,170822
18.419,142609,256,170814
18.424,142609,410,170825
18.429,142607,254,170832
18.434,142627,412,170833
18.439,142622,256,170851
18.444,142621,412,170848
18.449,142644,257,170844
18.454,142628,411,170850
18.459,142631,256,170862
18.464,142645,411,170861
18.469,142642,257,170867
18.473,142649,411,170869
18.478,142660,259,170872
18.483,142663,410,170872
18.488,142668,259,170875
18.493,142664,410,170886
18.498,142666,261,170871
18.503,142671,409,170890
18.508,142676,263,170879
18.513,142681,407,170891
18.518,142671,266,170875
18.523,142695,407,170891
18.528,142681,263,170901
18.533,142699,406,170900
18.538,142696,263,170915
18.543,142691,404,170906
18.548,142700,265,170928
18.553,142706,401,170920
18.558,142723,265,170937
18.563,142721,399,170948
18.568,142715,271,170931
18.573,142716,398,170921
18.578,142730,270,170938
18.583,142724,396,170944
18.588,142732,272,170929
18.592,142735,393,170957
18.597,142752,273,170961
18.602,142748,391,170953
18.607,142744,275,170968
18.612,142729,389,170971
18.617,142752,275,170958
18.622,142757,386,170958
18.627,142750,279,170973
18.632,142759,383,170977
18.637,142736,281,170969
18.642,142732,380,170975
18.647,142724,287,170959
18.652,142724,378,170962
18.657,142721,288,170980
18.662,142708,374,170941
18.667,142720,289,170966
18.672,142710,373,170957
18.677,142695,292,170942
18.682,142694,369,170946
18.687,142688,294,170941
18.692,142678,366,170940
18.697,142681,296,170920
18.702,142661,364,170927
18.706,142651,299,170910
18.711,142659,361,170924
18.716,142662,303,170919
18.721,142645,358,170926
18.726,142645,306,170923
18.731,142646,355,170898
18.736,142645,308,170907
18.741,142639,351,170915
18.746,142639,310,170916
18.751,142648,348,170907
18.756,142633,316,170895
18.761,142624,344,170914
18.766,142633,320,170904
18.771,142633,342,170916
18.776,142623,320,170902
18.781,142626,338,170918
18.786,142634,328,170907
18.791,142624,336,170912
18.796,142630,331,170903
18.801,142633,332,170912
18.806,142624,333,170911
18.811,142616,329,170922
18.816,142621,333,170902
18.820,142632,326,170917
18.825,142627,337,170900
18.830,142627,324,170894
18.835,142620,340,170904
18.840,142622,320,170899
18.845,142633,343,170899
18.850,142613,316,170899
18.855,142620,349,170900
18.860,142625,313,170881
18.865,142634,349,170909
18.870,142632,310,170899
18.875,142645,351,170899
18.880,142632,306,170918
18.885,142633,354,170905
18.890,142629,303,170898
18.895,142632,356,170905
18.900,142628,300,170902
18.905,142633,361,170908
18.910,142672,296,170910
18.915,142625,362,170911
18.920,142630,293,170903
18.925,142630,367,170892
18.930,142619,293,170897
18.935,142621,370,170900
18.939,142620,287,170899
18.944,142624,372,170896
18.949,142625,285,170891
18.954,142615,374,170899
18.959,142621,283,170913
18.964,142612,377,170887
18.969,142613,281,170891
18.974,142614,378,170890
18.979,142608,278,170895
18.984,142618,381,170886
18.989,142604,276,170883
18.994,142608,383,170897
18.999,142602,273,170889
19.004,142603,387,170876
19.009,142605,272,170864
19.014,142615,387,170889
19.019,142601,272,170891
19.024,142612,391,170876
19.029,142612,270,170882
19.034,142600,392,170881
19.039,142607,268,170876
19.044,142600,394,170882
19.049,142617,266,170894
19.053,142611,395,170869
19.058,142615,264,170884
19.063,142607,398,170873
19.068,142616,264,170876
19.073,142607,399,170881
19.078,142609,261,170879
19.083,142614,400,170872
19.088,142614,261,170888
19.093,142618,401,170885
19.098,142633,259,170888
19.103,142614,404,170889
19.108,142645,258,170874
19.113,142616,404,170890
19.118,142624,260,170882
19.123,142636,407,170895
19.128,142637,258,170886
19.133,142633,407,170904
19.138,142648,256,170888
19.143,142648,408,170900
19.148,142637,256,170904
19.153,142650,402,170892
19.158,142640,255,170895
19.163,142656,409,170890
19.167,142648,254,170892
19.172,142655,410,170894
19.177,142654,255,170900
19.182,142657,412,170890
19.187,142659,256,170887
19.192,142638,411,170893
19.197,142651,255,170902
19.202,142676,399,170889
19.207,142666,256,170914
19.212,142662,411,170912
19.217,142665,255,170908
19.222,142681,411,170907
19.227,142679,255,170913
19.232,142679,410,170907
19.237,142664,254,170903
19.242,142678,409,170903
19.247,142673,258,170903
19.252,142695,409,170923
19.257,142679,255,170912
19.262,142678,408,170898
19.267,142680,260,170907
19.272,142677,408,170912
19.277,142690,260,170912
19.282,142693,406,170905
19.286,142700,262,170911
19.291,142694,404,170911
19.296,142688,262,170926
19.301,142695,404,170920
19.306,142686,262,170921
19.311,142696,403,170915
19.316,142696,263,170910
19.321,142692,403,170901
19.326,142701,264,170920
19.331,142703,400,170911
19.336,142700,266,170913
19.341,142701,397,170901
19.346,142698,272,170920
19.351,142713,394,170909
19.356,142721,271,170912
19.361,142727,393,170913
19.366,142727,274,170925
19.371,142733,391,170944
19.376,142732,274,170913
19.381,142733,387,170933
19.386,142736,276,170925
19.391,142743,385,170923
19.396,142725,282,170900
19.400,142736,383,170942
19.405,142729,282,170925
19.410,142733,380,170930
19.415,142732,283,170930
19.420,142729,377,170915
19.425,142712,286,170910
19.430,142703,375,170912
19.435,142694,287,170905
19.440,142686,371,170900
19.445,142737,292,170886
19.450,142683,369,170885
19.455,142656,293,170899
19.460,142658,367,170876
19.465,142655,299,170868
19.470,142647,363,170867
19.475,142632,301,170862
19.480,142631,359,170855
19.485,142621,305,170844
19.490,142610,357,170842
19.495,142612,304,170834
19.500,142598,353,170827
19.505,142593,310,170820
19.510,142581,351,170817
19.514,142572,312,170809
19.519,142575,347,170809
19.524,142579,315,170804
19.529,142576,344,170791
19.534,142565,318,170810
19.539,142561,341,170798
19.544,142561,321,170796
19.549,142563,337,170780
19.554,142554,324,170786
19.559,142555,333,170791
19.564,142548,331,170790
19.569,142561,330,170786
19.574,142549,334,170778
19.579,142560,327,170777
19.584,142557,337,170783
19.589,142540,328,170774
19.594,142534,338,170778
19.599,142539,320,170787
19.604,142531,341,170775
19.609,142535,317,170794
19.614,142529,344,170773
19.619,142531,313,170778
19.624,142528,348,170766
19.629,142526,310,170762
19.633,142515,353,170755
19.638,142519,307,170760
19.643,142519,354,170754
19.648,142503,305,170752
19.653,142520,356,170753
19.658,142507,300,170751
19.663,142512,359,170757
19.668,142512,298,170757
19.673,142508,361,170739
19.678,142504,294,170748
19.683,142515,363,170733
19.688,142519,301,170753
19.693,142510,366,170749
19.698,142498,288,170743
19.703,142491,372,170745
19.708,142493,287,170723
19.713,142495,374,170731
19.718,142493,275,170736
19.723,142490,376,170717
19.728,142483,281,170732
19.733,142481,377,170731
19.738,142471,279,170709
19.743,142482,380,170719
19.747,142482,277,170713
19.752,142471,382,170717
19.757,142474,274,170718
19.762,142462,383,170710
19.767,142464,272,170710
19.772,142459,386,170710
19.777,142464,269,170698
19.782,142473,390,170709
19.787,142462,269,170714
19.792,142475,390,170718
19.797,142466,266,170710
19.802,142461,394,170716
19.807,142455,267,170708
19.812,142461,395,170700
19.817,142464,264,170703
19.822,142460,396,170715
19.827,142458,263,170712
19.832,142461,397,170725
19.837,142476,262,170711
19.842,142482,399,170717
19.847,142463,261,170733
19.852,142477,401,170706
19.857,142464,259,170727
19.861,142473,402,170713
19.866,142473,258,170718
19.871,142474,406,170713
19.876,142471,258,170725
19.881,142462,405,170724
19.886,142461,258,170723
19.891,142461,405,170724
19.896,142473,255,170737
19.901,142479,408,170720
19.906,142478,256,170732
19.911,142478,407,170709
19.916,142489,257,170715
19.921,142485,409,170708
19.926,142489,255,170729
19.931,142492,409,170688
19.936,142482,253,170728
19.941,142484,410,170733
19.946,142481,255,170730
19.951,142484,411,170729
19.956,142491,253,170731
19.961,142494,410,170742
19.966,142492,255,170737
19.971,142500,410,170739
19.976,142497,257,170750
19.980,142474,404,170741
19.985,142511,258,170758
19.990,142515,409,170743
19.995,142511,256,170763
20.000,142509,409,170755
20.005,142524,259,170763
20.010,142531,407,170756
20.015,142528,256,170777
20.020,142535,406,170775
20.025,142524,261,170772
20.030,142535,404,170784
20.035,142527,262,170780
20.040,142542,403,170794
20.045,142546,261,170787
20.050,142549,401,170787
20.055,142535,266,170797
20.060,142548,399,170786
20.065,142549,270,170785
20.070,142547,396,170784
20.075,142563,269,170798
20.080,142554,394,170801
20.085,142554,271,170797
20.090,142560,391,170811
20.094,142565,275,170825
20.099,142572,388,170808
20.104,142560,280,170822
20.109,142581,385,170805
20.114,142576,280,170816
20.119,142581,381,170822
20.124,142570,282,170826
20.129,142591,379,170810
20.134,142581,287,170817
20.139,142574,376,170833
20.144,142586,288,170824
20.149,142595,371,170820
20.154,142585,292,170820
20.159,142603,369,170841
20.164,142591,295,170829
20.169,142589,365,170830
20.174,142604,301,170833
20.179,142609,362,170831
20.184,142606,301,170818
20.189,142616,359,170836
20.194,142589,305,170826
20.199,142619,356,170831
20.204,142602,308,170844
20.208,142618,353,170848
20.213,142615,313,170850
20.218,142628,347,170856
20.223,142626,317,170893
20.228,142628,345,170874
20.233,142620,319,170882
20.238,142619,340,170874
20.243,142608,325,170865
20.248,142612,337,170863
20.253,142605,327,170868
20.258,142586,332,170867
20.263,142597,331,170847
20.268,142580,327,170850
20.273,142620,336,170856
20.278,142559,324,170848
20.283,142545,337,170847
20.288,142554,321,170835
20.293,142538,343,170845
20.298,142525,316,170811
20.303,142536,345,170831
20.308,142519,312,170803
20.313,142507,349,170815
20.318,142496,307,170797
20.323,142491,353,170804
20.327,142490,304,170803
20.332,142489,358,170797
20.337,142489,300,170800
20.342,142482,359,170794
20.347,142494,298,170790
20.352,142481,364,170788
20.357,142477,292,170783
20.362,142478,368,170776
20.367,142469,289,170801
20.372,142464,370,170790
20.377,142466,286,170784
20.382,142472,374,170799
20.387,142464,283,170792
20.392,142470,377,170785
20.397,142457,278,170800
20.402,142456,380,170786
20.407,142451,277,170813
20.412,142456,384,170786
20.417,142462,275,170799
20.422,142447,386,170801
20.427,142440,273,170792
20.432,142451,386,170788
20.437,142439,271,170797
20.441,142452,390,170792
20.446,142446,268,170787
20.451,142436,393,170794
20.456,142440,266,170800
20.461,142435,394,170805
20.466,142454,265,170792
20.471,142461,396,170796
20.476,142441,262,170801
20.481,142446,398,170810
20.486,142451,263,170801
20.491,142441,401,170807
20.496,142446,259,170815
20.501,142447,403,170796
20.506,142441,260,170805
20.511,142440,403,170791
20.516,142429,259,170807
20.521,142431,405,170815
20.526,142435,257,170804
20.531,142426,406,170807
20.536,142425,256,170803
20.541,142439,406,170798
20.546,142417,256,170796
20.551,142413,407,170795
20.555,142430,254,170806
20.560,142420,410,170806
20.565,142420,257,170795
20.570,142408,408,170809
20.575,142415,255,170800
20.580,142414,409,170792
20.585,142423,256,170791
20.590,142403,409,170792
20.595,142415,254,170795
20.600,142420,410,170789
20.605,142405,256,170789
20.610,142405,410,170794
20.615,142409,256,170793
20.620,142408,410,170789
20.625,142409,258,170791
20.630,142422,410,170786
20.635,142414,255,170790
20.640,142407,408,170798
20.645,142424,259,170785
20.650,142419,406,170794
20.655,142416,260,170793
20.660,142419,405,170784
20.665,142408,262,170815
20.670,142411,404,170807
20.674,142415,260,170812
20.679,142413,403,170828
20.684,142433,265,170822
20.689,142422,400,170822
20.694,142448,268,170841
20.699,142450,397,170831
20.704,142432,267,170834
20.709,142445,393,170843
20.714,142446,268,170855
20.719,142441,392,170860
20.724,142457,273,170860
20.729,142460,390,170885
20.734,142459,273,170874
20.739,142465,386,170878
20.744,142471,278,170886
20.749,142463,383,170880
20.754,142477,279,170898
20.759,142483,380,170893
20.764,142487,284,170906
20.769,142497,379,170920
20.774,142497,284,170903
20.779,142496,375,170913
20.784,142501,288,170928
20.788,142505,372,170933
20.793,142516,289,170937
20.798,142498,368,170937
20.803,142507,295,170955
20.808,142520,373,170954
20.813,142517,296,170951
20.818,142512,360,170960
20.823,142529,302,170974
20.828,142521,358,170977
20.833,142532,304,170985
20.838,142540,354,170982
20.843,142546,308,170990
20.848,142557,351,170980
20.853,142535,313,170996
20.858,142566,347,170996
20.863,142555,318,171015
20.868,142555,344,171007
20.873,142568,320,171008
20.878,142568,341,171010
20.883,142559,323,171026
20.888,142574,337,171009
20.893,142567,325,171023
20.898,142581,333,171032
20.902,142572,329,171032
20.907,142588,332,171022
20.912,142580,332,171041
20.917,142592,327,171049
20.922,142595,334,171052
20.927,142600,324,171051
20.932,142602,341,171050
20.937,142598,320,171064
20.942,142600,344,171058
20.947,142606,318,171059
20.952,142615,346,171067
20.957,142617,314,171079
20.962,142621,350,171072
20.967,142627,311,171079
20.972,142626,352,171074
20.977,142636,306,171088
20.982,142640,355,171083
20.987,142638,302,171094
20.992,142641,358,171110
20.997,142650,299,171090
21.002,142644,361,171081
21.007,142654,297,171096
21.012,142657,365,171098
21.017,142662,295,171113
21.021,142663,367,171116
21.026,142678,292,171111
21.031,142670,369,171115
21.036,142677,289,171131
21.041,142663,371,171133
21.046,142662,285,171132
21.051,142672,372,171140
21.056,142662,283,171133
21.061,142677,376,171137
21.066,142682,281,171137
21.071,142666,377,171136
21.076,142643,277,171129
21.081,142644,379,171128
21.086,142636,278,171136
21.091,142620,384,171130
21.096,142621,275,171119
21.101,142617,385,171115
21.106,142606,274,171132
21.111,142597,387,171122
21.116,142604,270,171108
21.121,142596,389,171101
21.126,142584,269,171105
21.131,142586,393,171089
21.135,142582,266,171096
21.140,142574,394,171100
21.145,142564,266,171097
21.150,142587,411,171101
21.155,142559,264,171089
21.160,142562,397,171074
21.165,142557,264,171078
21.170,142542,399,171069
21.175,142552,260,171079
21.180,142541,401,171079
21.185,142540,260,171064
21.190,142537,404,171068
21.195,142534,260,171056
21.200,142540,405,171060
21.205,142537,259,171063
21.210,142525,405,171068
21.215,142528,256,171081
21.220,142522,409,171069
21.225,142528,256,171065
21.230,142528,409,171071
21.235,142519,257,171078
21.240,142529,409,171070
21.245,142527,254,171080
21.249,142523,410,171075
21.254,142513,254,171070
21.259,142524,410,171060
21.264,142512,256,171067
21.269,142527,411,171069
21.274,142527,254,171071
21.279,142521,411,171066
21.284,142521,254,171071
21.289,142529,411,171082
21.294,142513,255,171074
21.299,142528,411,171078
21.304,142521,254,171087
21.309,142522,411,171074
21.314,142531,256,171078
21.319,142519,409,171076
21.324,142524,259,171081
21.329,142527,409,171094
21.334,142526,257,171096
21.339,142516,408,171088
21.344,142520,261,171086
21.349,142517,406,171075
21.354,142520,260,171095
21.359,142515,404,171088
21.364,142519,264,171103
21.368,142501,404,171100
21.373,142522,263,171102
21.378,142514,401,171087
21.383,142520,268,171088
21.388,142518,398,171095
21.393,142491,264,171126
21.398,142513,397,171093
21.403,142520,269,171112
21.408,142512,394,171078
21.413,142511,275,171095
21.418,142507,390,171092
21.423,142504,275,171074
21.428,142516,388,171075
21.433,142509,279,171076
21.438,142516,383,171083
21.443,142501,281,171083
21.448,142496,382,171090
21.453,142508,285,171078
21.458,142504,378,171071
21.463,142497,287,171067
21.468,142509,375,171060
21.473,142509,289,171075
21.478,142501,372,171063
21.482,142501,293,171076
21.487,142514,368,171066
21.492,142506,296,171072
21.497,142519,366,171070
21.502,142512,298,171063
21.507,142522,363,171061
21.512,142539,303,171080
21.517,142525,358,171068
21.522,142522,309,171087
21.527,142522,354,171087
21.532,142522,309,171079
21.537,142516,350,171086
21.542,142531,319,171089
21.547,142537,347,171085
21.552,142544,318,171075
21.557,142537,342,171082
21.562,142545,325,171099
21.567,142537,338,171094
21.572,142544,328,171100
21.577,142537,334,171111
21.582,142543,333,171092
21.587,142546,330,171105
21.592,142546,334,171120
21.596,142568,326,171129
21.601,142565,340,171110
21.606,142555,323,171112
21.611,142559,342,171101
21.616,142572,318,171130
21.621,142565,347,171129
21.626,142568,314,171121
21.631,142574,352,171127
21.636,142573,310,171124
21.641,142578,353,171107
21.646,142580,307,171128
21.651,142574,358,171137
21.656,142586,303,171133
21.661,142588,359,171138
21.666,142585,299,171150
21.671,142585,364,171148
21.676,142594,295,171161
21.681,142617,366,171170
21.686,142645,293,171168
21.691,142598,370,171141
21.696,142601,288,171158
21.701,142614,374,171145
21.706,142614,286,171167
21.711,142615,375,171164
21.715,142632,284,171166
21.720,142619,379,171157
21.725,142622,280,171157
21.730,142621,381,171170
21.735,142641,277,171158
21.740,142628,384,171163
21.745,142624,275,171160
21.750,142627,387,171160
21.755,142626,274,171173
21.760,142632,389,171165
21.765,142638,270,171173
21.770,142636,392,171166
21.775,142642,268,171176
21.780,142651,395,171174
21.785,142668,262,171167
21.790,142662,396,171183
21.795,142659,264,171177
21.800,142668,399,171195
21.805,142682,265,171190
21.810,142674,401,171201
21.815,142671,262,171180
21.820,142672,403,171192
21.825,142672,262,171184
21.829,142685,405,171195
21.834,142673,261,171173
21.839,142683,405,171207
21.844,142690,261,171197
21.849,142695,407,171197
21.854,142698,258,171192
21.859,142699,408,171212
21.864,142705,259,171216
21.869,142705,410,171215
21.874,142711,256,171222
21.879,142711,412,171229
21.884,142706,256,171222
21.889,142710,412,171225
21.894,142700,256,171233
21.899,142701,412,171215
21.904,142684,255,171223
21.909,142688,414,171210
21.914,142688,254,171207
21.919,142676,412,171216
21.924,142664,256,171215
21.929,142661,412,171197
21.934,142658,256,171209
21.939,142666,411,171203
21.943,142658,255,171206
21.948,142645,412,171198
21.953,142627,256,171187
21.958,142653,409,171191
21.963,142617,260,171190
21.968,142627,411,171164
21.973,142621,258,171172
21.978,142621,410,171176
21.983,142605,262,171176
21.988,142608,409,171160
21.993,142606,260,171170
21.998,142596,407,171164
22.003,142612,265,171149
22.008,142598,405,171159
22.013,142602,264,171139
22.018,142581,403,171146
22.023,142598,267,171164
22.028,142589,402,171140
22.033,142603,267,171143
22.038,142604,399,171140
22.043,142595,270,171151
22.048,142584,396,171139
22.053,142590,274,171153
22.057,142575,393,171133
22.062,142588,275,171164
22.067,142592,390,171135
22.072,142585,279,171145
22.077,142591,388,171146
22.082,142580,281,171140
22.087,142595,384,171142
22.092,142589,286,171139
22.097,142588,380,171156
22.102,142591,286,171144
22.107,142599,377,171140
22.112,142586,291,171143
22.117,142596,373,171147
22.122,142597,298,171136
22.127,142588,371,171141
22.132,142592,296,171146
22.137,142601,368,171158
22.142,142606,298,171142
22.147,142600,365,171145
22.152,142592,303,171147
22.157,142594,360,171156
22.162,142609,306,171159
22.167,142609,358,171165
22.172,142595,311,171167
22.176,142593,354,171137
22.181,142588,314,171160
22.186,142598,350,171148
22.191,142595,316,171153
22.196,142591,346,171150
22.201,142588,322,171169
22.206,142593,343,171143
22.211,142597,324,171144
22.216,142587,339,171139
22.221,142580,331,171151
22.226,142591,336,171139
22.231,142583,334,171135
22.236,142572,330,171132
22.241,142587,337,171124
22.246,142594,326,171128
22.251,142574,342,171136
22.256,142576,323,171139
22.261,142574,345,171117
22.266,142591,319,171123
22.271,142572,369,171128
22.276,142572,316,171130
22.281,142562,351,171129
22.286,142589,311,171110
22.290,142591,355,171131
22.295,142589,308,171121
22.300,142567,358,171122
22.305,142582,304,171123
22.310,142584,362,171130
22.315,142578,300,171118
22.320,142582,366,171109
22.325,142583,298,171105
22.330,142578,367,171111
22.335,142583,293,171112
22.340,142573,370,171112
22.345,142579,291,171098
22.350,142587,374,171102
22.355,142596,287,171109
22.360,142600,376,171096
22.365,142599,283,171104
22.370,142598,378,171099
22.375,142596,279,171105
22.380,142591,380,171099
22.385,142592,281,171102
22.390,142603,385,171096
22.395,142589,278,171104
22.400,142591,387,171105
22.404,142598,274,171091
22.409,142593,388,171095
22.414,142605,273,171100
22.419,142601,392,171098
22.424,142603,273,171085
22.429,142593,394,171090
22.434,142597,268,171090
22.439,142601,397,171084
22.444,142618,269,171073
22.449,142606,399,171090
22.454,142595,265,171101
22.459,142597,400,171097
22.464,142607,265,171104
22.469,142611,403,171085
22.474,142617,264,171091
22.479,142619,404,171098
22.484,142611,261,171095
22.489,142612,405,171079
22.494,142609,262,171096
22.499,142632,408,171093
22.504,142618,260,171100
22.509,142630,409,171092
22.514,142636,273,171097
22.519,142629,409,171094
22.523,142626,260,171085
22.528,142621,411,171087
22.533,142631,256,171072
22.538,142635,413,171094
22.543,142637,258,171094
22.548,142643,414,171098
22.553,142648,256,171104
22.558,142629,413,171093
22.563,142657,257,171095
22.568,142661,410,171105
22.573,142640,256,171102
22.578,142645,414,171096
22.583,142642,255,171108
22.588,142651,414,171095
22.593,142659,255,171089
22.598,142651,415,171082
22.603,142651,257,171098
22.608,142662,414,171095
22.613,142666,257,171083
22.618,142659,414,171092
22.623,142668,256,171106
22.628,142658,414,171079
22.633,142675,259,171085
22.637,142673,412,171118
22.642,142676,258,171103
22.647,142679,412,171101
22.652,142677,260,171091
22.657,142678,411,171090
22.662,142679,264,171093
22.667,142694,410,171105
22.672,142690,263,171100
22.677,142699,407,171099
22.682,142701,266,171121
22.687,142716,406,171101
22.692,142719,265,171118
22.697,142717,403,171117
22.702,142719,270,171110
22.707,142722,400,171127
22.712,142716,272,171133
22.717,142710,398,171136
22.722,142708,274,171134
22.727,142716,394,171135
22.732,142721,278,171127
22.737,142696,391,171110
22.742,142691,278,171119
22.747,142688,388,171118
22.752,142685,282,171108
22.756,142668,385,171104
22.761,142665,283,171098
22.766,142670,383,171089
22.771,142654,287,171101
22.776,142647,379,171092
22.781,142643,292,171076
22.786,142645,376,171062
22.791,142636,292,171081
22.796,142621,373,171066
22.801,142626,299,171069
22.806,142589,366,171085
22.811,142608,298,171032
22.816,142616,366,171040
22.821,142596,304,171034
22.826,142610,362,171046
22.831,142600,305,171027
22.836,142605,359,171035
22.841,142597,309,171037
22.846,142594,356,171029
22.851,142600,315,171022
22.856,142583,352,171018
22.861,142598,316,171015
22.866,142578,350,171013
22.870,142582,319,171012
22.875,142599,345,171006
22.880,142572,325,171025
22.885,142583,342,171011
22.890,142586,328,171004
22.895,142583,338,171019
22.900,142568,331,170986
22.905,142577,335,170979
22.910,142568,335,171004
22.915,142586,330,170988
22.920,142567,341,170997
22.925,142582,327,170972
22.930,142583,342,170986
22.935,142574,323,170991
22.940,142572,346,170982
22.945,142567,320,170981
22.950,142578,349,170981
22.955,142568,315,170977
22.960,142571,352,170957
22.965,142563,312,170976
22.970,142569,354,170957
22.975,142560,308,170965
22.980,142576,360,170949
22.984,142572,304,170963
22.989,142570,362,170946
22.994,142567,301,170946
22.999,142557,367,170951
23.004,142548,297,170934
23.009,142549,369,170946
23.014,142537,294,170925
23.019,142547,372,170915
23.024,142547,291,170926
23.029,142547,377,170905
23.034,142517,286,170906
23.039,142520,378,170905
23.044,142530,285,170893
23.049,142518,385,170929
23.054,142522,283,170888
23.059,142524,384,170892
23.064,142527,279,170885
23.069,142504,385,170877
23.074,142509,277,170881
23.079,142508,390,170867
23.084,142509,274,170860
23.089,142505,392,170868
23.094,142505,273,170855
23.099,142501,396,170867
23.103,142510,270,170844
23.108,142499,396,170842
23.113,142510,269,170851
23.118,142497,399,170844
23.123,142497,267,170844
23.128,142500,401,170845
23.133,142498,266,170837
23.138,142495,403,170828
23.143,142491,263,170833
23.148,142505,405,170833
23.153,142502,262,170815
23.158,142510,408,170824
23.163,142508,262,170827
23.168,142500,409,170820
23.173,142507,259,170819
23.178,142501,410,170812
23.183,142498,259,170794
23.188,142494,411,170814
23.193,142513,259,170809
23.198,142509,411,170793
23.203,142496,257,170802
23.208,142512,413,170804
23.213,142481,258,170801
23.217,142502,414,170786
23.222,142499,256,170769
23.227,142495,415,170772
23.232,142500,257,170775
23.237,142511,416,170776
23.242,142501,260,170767
23.247,142497,416,170776
23.252,142507,257,170763
23.257,142500,415,170760
23.262,142494,255,170768
23.267,142495,416,170767
23.272,142510,256,170779
23.277,142512,414,170778
23.282,142509,259,170766
23.287,142503,415,170748
23.292,142496,256,170758
23.297,142548,412,170757
23.302,142499,258,170754
23.307,142500,414,170747
23.312,142504,259,170753
23.317,142503,412,170763
23.322,142506,264,170762
23.327,142511,410,170754
23.331,142506,262,170757
23.336,142515,409,170748
23.341,142508,267,170753
23.346,142502,407,170745
23.351,142519,268,170742
23.356,142509,405,170735
23.361,142509,268,170750
23.366,142522,402,170735
23.371,142512,271,170725
23.376,142520,400,170726
23.381,142513,272,170744
23.386,142514,397,170726
23.391,142508,297,170751
23.396,142515,395,170733
23.401,142514,279,170725
23.406,142520,393,170715
23.411,142516,279,170729
23.416,142530,389,170727
23.421,142514,284,170725
23.426,142526,386,170720
23.431,142523,284,170729
23.436,142532,383,170715
23.441,142535,288,170721
23.446,142529,380,170695
23.450,142528,289,170717
23.455,142535,379,170690
23.460,142525,295,170709
23.465,142523,375,170694
23.470,142533,297,170716
23.475,142546,370,170696
23.480,142544,302,170697
23.485,142545,370,170702
23.490,142531,305,170697
23.495,142552,363,170696
23.500,142543,311,170701
23.505,142545,359,170700
23.510,142552,313,170707
23.515,142548,355,170715
23.520,142546,318,170699
23.525,142554,351,170711
23.530,142564,323,170690
23.535,142542,347,170701
23.540,142569,325,170702
23.545,142552,346,170716
23.550,142544,327,170705
23.555,142535,341,170688
23.560,142526,330,170684
23.564,142514,338,170672
23.569,142522,337,170665
23.574,142496,333,170652
23.579,142497,339,170650
23.584,142486,328,170642
23.589,142465,343,170631
23.594,142457,325,170622
23.599,142459,348,170611
23.604,142465,321,170615
23.609,142444,350,170602
23.614,142432,317,170606
23.619,142426,355,170593
23.624,142418,312,170589
23.629,142415,358,170555
23.634,142425,326,170561
23.639,142413,359,170554
23.644,142407,306,170531
23.649,142414,364,170551
23.654,142398,301,170543
23.659,142383,369,170540
23.664,142380,299,170532
23.669,142383,370,170526
23.674,142388,294,170512
23.678,142382,375,170520
23.683,142376,292,170510
23.688,142381,378,170528
23.693,142367,288,170511
23.698,142363,380,170503
23.703,142361,285,170500
23.708,142356,384,170506
23.713,142365,281,170502
23.718,142354,386,170482
23.723,142354,281,170489
23.728,142357,389,170496
23.733,142365,278,170478
23.738,142346,392,170499
23.743,142357,275,170481
23.748,142346,393,170482
23.753,142349,273,170484
23.758,142353,398,170469
23.763,142357,270,170486
23.768,142358,399,170473
23.773,142355,270,170485
23.778,142352,403,170479
23.783,142355,269,170466
23.788,142351,404,170454
23.793,142356,265,170470
23.797,142346,407,170461
23.802,142360,264,170454
23.807,142348,407,170440
23.812,142343,264,170443
23.817,142345,410,170456
23.822,142324,261,170456
23.827,142334,412,170442
23.832,142334,260,170455
23.837,142338,414,170446
23.842,142339,260,170437
23.847,142323,414,170433
23.852,142322,257,170422
23.857,142325,414,170428
23.862,142315,258,170440
23.867,142315,416,170425
23.872,142306,259,170419
23.877,142299,417,170423
23.882,142313,260,170408
23.887,142307,417,170403
23.892,142295,257,170405
23.897,142301,418,170411
23.902,142305,255,170415
23.907,142298,418,170414
23.911,142319,257,170410
23.916,142303,417,170405
23.921,142296,257,170402
23.926,142303,420,170397
23.931,142297,258,170388
23.936,142300,417,170391
23.941,142296,257,170387
23.946,142304,417,170397
23.951,142303,260,170398
23.956,142306,414,170404
23.961,142306,260,170408
23.966,142296,414,170394
23.971,142298,263,170407
23.976,142315,413,170402
23.981,142313,263,170396
23.986,142320,412,170405
23.991,142309,267,170401
23.996,142313,410,170400
24.001,142317,266,170396
24.006,142316,408,170401
24.011,142321,267,170419
24.016,142316,406,170410
24.021,142332,268,170407
24.025,142335,404,170410
24.030,142328,271,170416
24.035,142326,402,170427
24.040,142334,272,170418
24.045,142341,400,170418
24.050,142338,275,170449
24.055,142344,397,170420
24.060,142359,281,170434
24.065,142352,394,170444
24.070,142350,283,170430
24.075,142364,388,170437
24.080,142354,283,170443
24.085,142364,390,170433
24.090,142356,285,170441
24.095,142353,387,170433
24.100,142359,287,170444
24.105,142373,384,170459
24.110,142365,288,170443
24.115,142369,381,170458
24.120,142367,292,170454
24.125,142369,379,170452
24.130,142377,292,170455
24.135,142370,377,170459
24.140,142370,295,170458
24.144,142391,373,170463
24.149,142378,301,170463
24.154,142382,370,170455
24.159,142377,305,170465
24.164,142381,367,170456
24.169,142389,307,170413
24.174,142398,364,170464
24.179,142395,311,170472
24.184,142395,361,170465
24.189,142394,314,170476
24.194,142395,357,170465
24.199,142393,316,170474
24.204,142405,355,170470
24.209,142409,319,170467
24.214,142421,350,170481
24.219,142433,321,170489
24.224,142413,349,170491
24.229,142412,324,170475
24.234,142428,345,170476
24.239,142427,327,170478
24.244,142414,342,170488
24.249,142419,332,170477
24.254,142419,339,170496
24.258,142433,336,170503
24.263,142426,334,170489
24.268,142442,337,170495
24.273,142426,332,170479
24.278,142442,344,170485
24.283,142436,329,170490
24.288,142438,347,170492
24.293,142455,325,170492
24.298,142451,349,170500
24.303,142438,321,170495
24.308,142454,351,170496
24.313,142456,317,170502
24.318,142461,355,170505
24.323,142447,314,170511
24.328,142462,358,170515
24.333,142474,309,170498
24.338,142479,364,170521
24.343,142478,307,170507
24.348,142470,366,170501
24.353,142479,302,170513
24.358,142504,368,170508
24.363,142483,300,170529
24.368,142489,371,170527
24.372,142487,296,170519
24.377,142483,373,170534
24.382,142491,294,170537
24.387,142479,376,170538
24.392,142474,290,170539
24.397,142471,378,170511
24.402,142465,289,170525
24.407,142456,383,170536
24.412,142449,286,170507
24.417,142438,383,170509
24.422,142429,283,170496
24.427,142419,388,170502
24.432,142426,281,170488
24.437,142416,390,170483
24.442,142416,279,170480
24.447,142396,392,170464
24.452,142393,276,170462
24.457,142385,393,170456
24.462,142386,261,170447
24.467,142380,396,170436
24.472,142364,273,170443
24.477,142360,398,170435
24.482,142361,271,170421
24.487,142353,400,170426
24.491,142349,268,170410
24.496,142347,402,170414
24.501,142354,268,170396
24.506,142347,405,170413
24.511,142351,268,170401
24.516,142337,404,170389
24.521,142319,265,170380
24.526,142315,406,170403
24.531,142319,264,170399
24.536,142316,408,170392
24.541,142304,263,170383
24.546,142309,409,170377
24.551,142300,261,170387
24.556,142304,411,170375
24.561,142313,263,170375
24.566,142306,411,170397
24.571,142284,260,170372
24.576,142287,414,170363
24.581,142300,259,170376
24.586,142282,414,170354
24.591,142286,261,170354
24.596,142290,415,170368
24.601,142289,261,170356
24.605,142282,417,170347
24.610,142276,257,170351
24.615,142285,417,170343
24.620,142291,259,170354
24.625,142282,417,170343
24.630,142280,259,170336
24.635,142282,418,170342
24.640,142269,258,170350
24.645,142278,418,170340
24.650,142253,258,170326
24.655,142262,419,170339
24.660,142273,257,170340
24.665,142275,418,170334
24.670,142269,256,170339
24.675,142262,418,170333
24.680,142261,260,170337
24.685,142258,419,170328
24.690,142263,260,170338
24.695,142249,418,170325
24.700,142248,260,170333
24.705,142243,426,170330
24.710,142243,261,170327
24.715,142238,417,170307
24.719,142233,261,170314
24.724,142231,415,170311
24.729,142236,261,170296
24.734,142236,412,170312
24.739,142228,262,170302
24.744,142236,413,170307
24.749,142225,262,170305
24.754,142235,412,170310
24.759,142228,267,170305
24.764,142227,411,170303
24.769,142222,267,170294
24.774,142213,409,170299
24.779,142217,269,170293
24.784,142215,407,170290
24.789,142219,270,170298
24.794,142221,404,170314
24.799,142223,272,170298
24.804,142243,403,170313
24.809,142223,275,170302
24.814,142221,400,170314
24.819,142233,278,170307
24.824,142230,399,170305
24.829,142224,278,170300
24.834,142222,395,170301
24.838,142228,281,170316
24.843,142238,393,170297
24.848,142239,283,170316
24.853,142231,391,170308
24.858,142240,286,170307
24.863,142232,388,170309
24.868,142246,288,170324
24.873,142241,384,170321
24.878,142236,291,170310
24.883,142243,383,170303
24.888,142240,292,170326
24.893,142255,379,170308
24.898,142251,295,170317
24.903,142253,377,170322
24.908,142255,299,170308
24.913,142249,374,170311
24.918,142252,302,170333
24.923,142245,372,170315
24.928,142241,304,170314
24.933,142247,368,170316
24.938,142252,308,170314
24.943,142255,365,170316
24.948,142261,308,170332
24.952,142262,361,170329
24.957,142275,311,170338
24.962,142277,360,170328
24.967,142260,314,170339
24.972,142270,356,170338
24.977,142281,318,170327
24.982,142266,353,170330
24.987,142275,320,170343
24.992,142276,349,170330
24.997,142256,320,170342
25.002,142289,347,170351
25.007,142276,328,170339
25.012,142288,342,170350
25.017,142282,331,170371
25.022,142294,341,170367
25.027,142290,334,170361
25.032,142298,337,170360
25.037,142294,339,170366
25.042,142305,333,170372
25.047,142311,341,170357
25.052,142308,331,170361
25.057,142316,345,170364
25.062,142310,327,170371
25.066,142313,347,170384
25.071,142320,323,170372
25.076,142322,350,170372
25.081,142332,319,170374
25.086,142316,354,170372
25.091,142326,315,170377
25.096,142341,351,170390
25.101,142331,315,170375
25.106,142333,361,170381
25.111,142330,310,170392
25.116,142334,364,170390
25.121,142331,307,170381
25.126,142346,366,170388
25.131,142351,303,170397
25.136,142360,369,170381
25.141,142346,303,170393
25.146,142363,370,170398
25.151,142365,298,170398
25.156,142367,375,170412
25.161,142363,295,170436
25.166,142382,377,170415
25.171,142388,292,170435
25.176,142386,380,170426
25.181,142380,289,170436
25.185,142384,383,170428
25.190,142399,287,170443
25.195,142397,385,170449
25.200,142397,285,170453
25.205,142388,387,170439
25.210,142402,282,170447
25.215,142410,390,170453
25.220,142409,280,170474
25.225,142396,391,170457
25.230,142408,277,170460
25.235,142402,393,170465
25.240,142390,273,170475
25.245,142406,396,170487
25.250,142393,275,170473
25.255,142375,397,170475
25.260,142373,272,170456
25.265,142375,399,170468
25.270,142359,270,170461
25.275,142357,402,170459
25.280,142355,269,170454
25.285,142346,403,170447
25.290,142340,267,170436
25.295,142342,404,170450
25.299,142314,267,170436
25.304,142314,406,170427
25.309,142310,265,170418
25.314,142313,408,170416
25.319,142300,264,170407
25.324,142287,409,170418
25.329,142294,263,170404
25.334,142261,411,170405
25.339,142269,263,170396
25.344,142270,413,170399
25.349,142265,261,170388
25.354,142261,414,170395
25.359,142265,259,170402
25.364,142251,414,170392
25.369,142252,258,170386
25.374,142262,416,170391
25.379,142251,262,170398
25.384,142257,416,170395
25.389,142247,257,170399
25.394,142253,416,170397
25.399,142236,256,170399
25.404,142241,417,170406
25.409,142232,259,170399
25.413,142229,418,170406
25.418,142235,258,170415
25.423,142243,417,170390
25.428,142237,256,170419
25.433,142230,418,170405
25.438,142242,258,170404
25.443,142233,418,170398
25.448,142237,257,170404
25.453,142232,418,170403
25.458,142241,257,170407
25.463,142247,418,170405
25.468,142226,256,170403
25.473,142229,417,170402
25.478,142245,261,170404
25.483,142231,416,170416
25.488,142233,260,170409
25.493,142232,416,170404
25.498,142231,260,170434
25.503,142218,416,170418
25.508,142233,261,170436
25.513,142239,413,170447
25.518,142247,262,170456
25.523,142228,412,170457
25.528,142241,266,170457
25.532,142218,412,170467
25.537,142229,264,170458
25.542,142229,409,170461
25.547,142224,266,170456
25.552,142229,407,170441
25.557,142226,271,170452
25.562,142224,405,170460
25.567,142209,270,170452
25.572,142222,403,170459
25.577,142225,274,170459
25.582,142233,393,170449
25.587,142214,273,170446
25.592,142216,399,170452
25.597,142219,276,170460
25.602,142218,396,170451
25.607,142220,276,170462
25.612,142227,394,170454
25.617,142215,279,170463
25.622,142215,391,170454
25.627,142221,281,170447
25.632,142213,389,170442
25.637,142215,285,170456
25.642,142202,386,170460
25.646,142213,287,170463
25.651,142216,384,170455
25.656,142220,289,170468
25.661,142222,380,170481
25.666,142223,291,170464
25.671,142231,378,170460
25.676,142223,300,170470
25.681,142250,378,170487
25.686,142227,293,170473
25.691,142244,374,170474
25.696,142249,299,170501
25.701,142239,372,170489
25.706,142248,299,170505
25.711,142248,368,170505
25.716,142244,305,170512
25.721,142246,365,170517
25.726,142250,307,170513
25.731,142259,362,170507
25.736,142267,308,170525
25.741,142259,360,170513
25.746,142271,310,170536
25.751,142274,356,170535
25.756,142262,314,170529
25.760,142285,355,170549
25.765,142285,317,170532
25.770,142280,350,170540
25.775,142281,333,170560
25.780,142302,348,170560
25.785,142291,323,170597
25.790,142293,343,170570
25.795,142302,327,170571
25.800,142314,340,170569
25.805,142303,329,170565
25.810,142296,337,170579
25.815,142309,336,170590
25.820,142307,334,170592
25.825,142319,336,170590
25.830,142316,330,170593
25.835,142326,339,170602
25.840,142314,327,170612
25.845,142328,343,170613
25.850,142320,324,170636
25.855,142327,347,170628
25.860,142348,320,170623
25.865,142344,350,170632
25.870,142361,315,170652
25.875,142360,352,170650
25.879,142345,314,170656
25.884,142370,354,170666
25.889,142362,310,170660
25.894,142379,357,170678
25.899,142387,307,170683
25.904,142369,359,170690
25.909,142381,304,170678
25.914,142379,364,170684
25.919,142377,301,170680
25.924,142395,366,170703
25.929,142392,299,170723
25.934,142414,370,170733
25.939,142409,297,170729
25.944,142419,371,170726
25.949,142413,292,170724
25.954,142419,374,170750
25.959,142432,291,170755
25.964,142434,376,170750
25.969,142445,288,170766
25.974,142454,376,170768
25.979,142452,287,170776
25.984,142456,382,170786
25.989,142458,284,170776
25.993,142460,382,170794
25.998,142461,282,170781
26.003,142468,386,170791
26.008,142464,280,170797
26.013,142473,388,170815
26.018,142469,282,170855
26.023,142482,389,170812
26.028,142478,275,170808
26.033,142488,391,170832
26.038,142497,275,170837
26.043,142496,393,170834
26.048,142505,272,170848
26.053,142507,394,170843
26.058,142498,271,170851
26.063,142516,397,170869
26.068,142502,268,170861
26.073,142508,397,170893
26.078,142519,270,170907
26.083,142520,401,170914
26.088,142520,266,170914
26.093,142511,402,170910
26.098,142516,267,170919
26.103,142513,403,170924
26.107,142511,264,170915
26.112,142489,405,170916
26.117,142487,264,170908
26.122,142479,405,170905
26.127,142483,263,170909
26.132,142467,408,170904
26.137,142462,262,170899
26.142,142464,407,170899
26.147,142446,259,170885
26.152,142456,409,170885
26.157,142438,260,170898
26.162,142430,410,170873
26.167,142418,258,170869
26.172,142423,411,170861
26.177,142410,257,170855
26.182,142407,412,170846
26.187,142402,255,170840
26.192,142414,412,170842
26.197,142395,255,170843
26.202,142398,412,170848
26.207,142389,258,170829
26.212,142389,414,170826
26.217,142390,255,170828
26.222,142377,413,170844
26.226,142372,256,170823
26.231,142384,414,170841
26.236,142380,255,170818
26.241,142367,414,170833
26.246,142373,254,170837
26.251,142363,414,170832
26.256,142358,258,170825
26.261,142361,413,170834
26.266,142367,255,170821
26.271,142369,414,170829
26.276,142364,255,170823
26.281,142370,413,170823
26.286,142350,259,170826
26.291,142369,413,170832
26.296,142366,261,170828
26.301,142366,412,170832
26.306,142361,261,170832
26.311,142377,410,170847
26.316,142371,261,170849
26.321,142380,409,170854
26.326,142368,261,170852
26.331,142388,409,170854
26.336,142384,261,170840
26.340,142381,408,170863
26.345,142371,266,170866
26.350,142375,405,170860
26.355,142378,266,170880
26.360,142374,404,170874
26.365,142386,269,170860
26.370,142373,402,170865
26.375,142372,270,170876
26.380,142377,400,170897
26.385,142378,271,170884
26.390,142397,397,170889
26.395,142362,273,170889
26.400,142389,393,170895
26.405,142378,274,170895
26.410,142390,394,170902
26.415,142374,275,170891
26.420,142385,392,170893
26.425,142370,280,170906
26.430,142374,388,170894
26.435,142366,282,170909
26.440,142384,386,170905
26.445,142381,284,170921
26.450,142377,383,170916
26.454,142392,287,170919
26.459,142398,382,170915
26.464,142388,285,170930
26.469,142393,379,170931
26.474,142401,292,170939
26.479,142406,375,170946
26.484,142403,294,170952
26.489,142402,371,170963
26.494,142401,296,170964
26.499,142421,369,170963
26.504,142421,298,170966
26.509,142423,367,170977
26.514,142418,299,170980
26.519,142415,365,170978
26.524,142428,305,170987
26.529,142439,361,170994
26.534,142436,308,171008
26.539,142452,356,171007
26.544,142442,310,171017
26.549,142444,355,171011
26.554,142462,313,170989
26.559,142459,352,171029
26.564,142460,316,171017
26.568,142467,348,171025
26.573,142451,319,171043
26.578,142464,346,171034
26.583,142469,321,171051
26.588,142481,341,171054
26.593,142474,328,171056
26.598,142488,338,171074
26.603,142512,328,171059
26.608,142487,335,171083
26.613,142512,336,171083
26.618,142505,332,171090
26.623,142516,338,171090
26.628,142504,327,171091
26.633,142508,341,171100
26.638,142526,325,171099
26.643,142532,343,171108
26.648,142537,321,171107
26.653,142538,348,171111
26.658,142526,318,171121
26.663,142530,350,171125
26.668,142543,314,171133
26.673,142544,353,171136
26.678,142553,309,171147
26.683,142564,355,171144
26.687,142558,308,171151
26.692,142575,360,171147
26.697,142554,305,171158
26.702,142572,360,171162
26.707,142570,301,171163
26.712,142579,366,171167
26.717,142592,299,171178
26.722,142567,367,171187
26.727,142596,294,171187
26.732,142583,371,171171
26.737,142591,292,171201
26.742,142584,372,171189
26.747,142599,288,171192
26.752,142597,375,171182
26.757,142614,286,171196
26.762,142604,377,171199
26.767,142617,282,171207
26.772,142619,382,171225
26.777,142605,282,171221
26.782,142639,383,171222
26.787,142613,278,171235
26.792,142646,385,171246
26.797,142631,277,171248
26.801,142641,387,171235
26.806,142647,274,171245
26.811,142656,389,171263
26.816,142653,273,171265
26.821,142660,396,171263
26.826,142663,271,171277
26.831,142670,395,171286
26.836,142673,270,171282
26.841,142676,396,171286
26.846,142692,271,171314
26.851,142695,397,171301
26.856,142693,269,171315
26.861,142698,399,171316
26.866,142714,267,171326
26.871,142701,402,171320
26.876,142692,265,171328
26.881,142716,403,171328
26.886,142718,264,171338
26.891,142724,405,171343
26.896,142722,264,171343
26.901,142711,406,171337
26.906,142705,260,171357
26.911,142715,407,171342
26.915,142710,261,171359
26.920,142696,409,171346
26.925,142703,258,171333
26.930,142688,410,171336
26.935,142685,258,171326
26.940,142676,411,171324
26.945,142668,258,171323
26.950,142676,412,171318
26.955,142657,255,171323
26.960,142653,413,171307
26.965,142650,256,171307
26.970,142639,412,171313
26.975,142625,254,171314
26.980,142641,413,171314
26.985,142614,255,171290
26.990,142630,413,171299
26.995,142622,255,171310
27.000,142616,415,171313
27.005,142617,257,171303
27.010,142611,414,171302
27.015,142628,257,171310
27.020,142614,413,171292
27.025,142602,258,171282
27.030,142622,413,171285
27.034,142612,258,171303
27.039,142609,412,171302
27.044,142605,260,171293
27.049,142597,412,171297
27.054,142594,260,171282
27.059,142604,411,171287
27.064,142602,263,171285
27.069,142596,410,171296
27.074,142605,261,171310
27.079,142589,408,171302
27.084,142595,264,171295
27.089,142593,405,171282
27.094,142595,266,171306
27.099,142615,404,171288
27.104,142604,269,171304
27.109,142614,401,171307
27.114,142601,269,171291
27.119,142604,399,171297
27.124,142593,274,171306
27.129,142616,397,171302
27.134,142620,274,171308
27.139,142566,394,171311
27.144,142604,277,171318
27.148,142611,391,171306
27.153,142605,278,171313
27.158,142607,389,171312
27.163,142589,283,171311
27.168,142604,386,171316
27.173,142597,284,171313
27.178,142594,382,171308
27.183,142606,285,171301
27.188,142585,380,171295
27.193,142602,288,171309
27.198,142610,376,171296
27.203,142589,293,171291
27.208,142595,373,171292
27.213,142588,294,171295
27.218,142591,371,171292
27.223,142575,299,171281
27.228,142585,366,171262
27.233,142570,301,171273
27.238,142581,364,171269
27.243,142569,303,171279
27.248,142567,359,171279
27.253,142567,310,171263
27.258,142564,356,171260
27.262,142552,310,171254
27.267,142552,353,171249
27.272,142552,317,171256
27.277,142538,349,171240
27.282,142544,319,171249
27.287,142552,345,171253
27.292,142538,323,171244
27.297,142553,343,171261
27.302,142558,325,171252
27.307,142540,338,171234
27.312,142546,331,171233
27.317,142540,335,171238
27.322,142540,333,171220
27.327,142539,330,171214
27.332,142537,340,171219
27.337,142546,328,171228
27.342,142551,340,171221
27.347,142547,324,171242
27.352,142547,344,171242
27.357,142550,320,171234
27.362,142547,347,171221
27.367,142543,316,171227
27.372,142553,351,171231
27.377,142555,313,171229
27.381,142551,360,171238
27.386,142540,309,171222
27.391,142552,356,171212
27.396,142556,307,171214
27.401,142567,361,171226
27.406,142556,302,171242
27.411,142562,363,171235
27.416,142565,299,171229
27.421,142583,367,171229
27.426,142580,296,171236
27.431,142548,370,171225
27.436,142583,293,171238
27.441,142585,372,171227
27.446,142571,289,171245
27.451,142580,374,171253
27.456,142586,288,171241
27.461,142597,378,171244
27.466,142594,284,171256
27.471,142582,380,171250
27.476,142595,282,171257
27.481,142603,383,171252
27.486,142597,278,171250
27.491,142607,386,171258
27.495,142595,277,171250
27.500,142596,388,171246
27.505,142598,274,171260
27.510,142607,389,171267
27.515,142618,274,171292
27.520,142609,393,171260
27.525,142612,270,171270
27.530,142626,395,171279
27.535,142615,271,171271
27.540,142622,397,171269
27.545,142618,267,171286
27.550,142631,398,171281
27.555,142628,267,171269
27.560,142636,401,171281
27.565,142630,264,171284
27.570,142631,402,171279
27.575,142649,268,171277
27.580,142661,404,171287
27.585,142641,261,171287
27.590,142652,408,171300
27.595,142663,263,171295
27.600,142654,407,171293
27.605,142662,260,171298
27.609,142668,409,171289
27.614,142665,261,171300
27.619,142661,411,171294
27.624,142664,258,171313
27.629,142681,410,171303
27.634,142677,258,171327
27.639,142682,413,171319
27.644,142673,258,171328
27.649,142675,412,171317
27.654,142671,255,171322
27.659,142666,414,171318
27.664,142677,257,171340
27.669,142671,415,171306
27.674,142649,254,171301
27.679,142654,415,171319
27.684,142641,255,171301
27.689,142628,414,171276
27.694,142624,258,171288
27.699,142605,415,171272
27.704,142609,256,171277
27.709,142599,415,171259
27.714,142598,256,171245
27.719,142584,415,171252
27.724,142590,256,171242
27.728,142571,414,171242
27.733,142565,260,171225
27.738,142558,414,171222
27.743,142550,259,171214
27.748,142544,413,171221
27.753,142531,259,171212
27.758,142545,414,171205
27.763,142534,263,171206
27.768,142537,411,171186
27.773,142524,261,171204
27.778,142525,410,171189
27.783,142528,264,171205
27.788,142515,406,171195
27.793,142514,264,171180
27.798,142511,407,171192
27.803,142510,268,171180
27.808,142501,405,171162
27.813,142501,276,171174
27.818,142512,403,171184
27.823,142515,271,171176
27.828,142504,401,171169
27.833,142493,271,171168
27.838,142499,399,171174
27.842,142502,275,171183
27.847,142485,395,171171
27.852,142487,276,171163
27.857,142495,394,171177
27.862,142490,277,171171
27.867,142483,390,171168
27.872,142476,280,171165
27.877,142490,388,171159
27.882,142493,284,171158
27.887,142494,385,171159
27.892,142488,286,171158
27.897,142483,382,171159
27.902,142482,288,171154
27.907,142498,380,171151
27.912,142485,294,171149
27.917,142492,375,171161
27.922,142488,295,171147
27.927,142477,370,171152
27.932,142486,297,171149
27.937,142479,369,171143
27.942,142475,302,171152
27.947,142481,366,171160
27.952,142459,304,171143
27.957,142472,363,171159
27.961,142465,306,171144
27.966,142481,347,171119
27.971,142460,308,171141
27.976,142476,358,171145
27.981,142463,313,171133
27.986,142464,354,171125
27.991,142461,316,171122
27.996,142452,351,171125
28.001,142458,321,171114
28.006,142439,347,171106
28.011,142450,324,171099
28.016,142442,344,171114
28.021,142447,328,171108
28.026,142440,340,171103
28.031,142449,331,171108
28.036,142440,337,171103
28.041,142448,333,171099
28.046,142443,334,171105
28.051,142438,339,171111
28.056,142450,329,171109
28.061,142443,341,171114
28.066,142441,325,171114
28.071,142448,345,171109
28.075,142446,323,171123
28.080,142442,347,171111
28.085,142429,318,171124
28.090,142457,350,171103
28.095,142451,316,171109
28.100,142452,355,171111
28.105,142461,312,171106
28.110,142455,358,171107
28.115,142449,309,171114
28.120,142450,361,171103
28.125,142454,305,171107
28.130,142455,364,171107
28.135,142446,303,171106
28.140,142451,365,171097
28.145,142458,298,171094
28.150,142458,368,171109
28.155,142465,296,171103
28.160,142462,373,171111
28.165,142464,292,171111
28.170,142480,373,171101
28.175,142461,291,171119
28.180,142465,377,171110
28.185,142471,287,171108
28.189,142482,378,171128
28.194,142453,284,171119
28.199,142465,383,171123
28.204,142487,282,171132
28.209,142491,387,171149
28.214,142473,280,171120
28.219,142471,387,171121
28.224,142483,276,171112
28.229,142481,389,171116
28.234,142485,276,171125
28.239,142496,391,171118
28.244,142487,273,171121
28.249,142487,394,171113
28.254,142494,271,171121
28.259,142495,396,171142
28.264,142504,269,171120
28.269,142506,398,171140
28.274,142501,270,171119
28.279,142497,400,171133
28.284,142502,266,171139
28.289,142501,402,171131
28.294,142521,267,171119
28.299,142508,404,171124
28.304,142511,263,171134
28.308,142514,406,171129
28.313,142509,263,171124
28.318,142524,405,171127
28.323,142527,263,171127
28.328,142526,409,171122
28.333,142511,261,171123
28.338,142530,410,171133
28.343,142546,261,171135
28.348,142538,413,171146
28.353,142540,259,171141
28.358,142544,413,171152
28.363,142557,258,171140
28.368,142560,414,171152
28.373,142548,260,171141
28.378,142550,414,171134
28.383,142552,257,171145
28.388,142562,416,171149
28.393,142559,258,171156
28.398,142565,416,171163
28.403,142558,262,171165
28.408,142560,417,171180
28.413,142558,256,171176
28.418,142566,416,171176
28.422,142556,257,171166
28.427,142554,416,171157
28.432,142537,259,171154
28.437,142534,416,171155
28.442,142539,256,171158
28.447,142529,415,171140
28.452,142516,259,171139
28.457,142502,414,171141
28.462,142503,258,171147
28.467,142502,413,171136
28.472,142485,261,171126
28.477,142492,413,171121
28.482,142475,259,171121
28.487,142465,412,171097
28.492,142458,264,171088
28.497,142458,410,171092
28.502,142448,269,171076
28.507,142450,409,171079
28.512,142439,265,171069
28.517,142428,407,171057
28.522,142418,270,171059
28.527,142419,404,171058
28.532,142411,269,171058
28.536,142423,402,171050
28.541,142406,274,171043
28.546,142411,399,171051
28.551,142422,259,171044
28.556,142409,397,171033
28.561,142399,275,171036
28.566,142411,394,171029
28.571,142401,282,171035
28.576,142387,392,171027
28.581,142391,281,171028
28.586,142392,387,171030
28.591,142387,286,171024
28.596,142390,384,171029
28.601,142381,288,171009
28.606,142379,383,171029
28.611,142368,290,171028
28.616,142372,379,171024
28.621,142384,290,171021
28.626,142368,376,170996
28.631,142372,296,170994
28.636,142369,372,170996
28.641,142372,298,170998
28.646,142388,370,171001
28.651,142375,301,170995
28.655,142362,367,170996
28.660,142359,306,171004
28.665,142372,362,170982
28.670,142360,309,170991
28.675,142370,359,170992
28.680,142357,313,170981
28.685,142364,355,171002
28.690,142371,318,170979
28.695,142356,344,170985
28.700,142349,321,170988
28.705,142363,348,171000
28.710,142354,327,170975
28.715,142339,343,170981
28.720,142369,328,170974
28.725,142365,338,170979
28.730,142340,335,170968
28.735,142355,335,170972
28.740,142351,338,170981
28.745,142341,331,170965
28.750,142338,340,170969
28.755,142335,328,170976
28.760,142343,343,170977
28.765,142332,323,170960
28.769,142340,350,170972
28.774,142338,318,170949
28.779,142342,352,170967
28.784,142343,314,170954
28.789,142326,357,170971
28.794,142328,307,170966
28.799,142343,358,170949
28.804,142325,308,170961
28.809,142331,362,170952
28.814,142338,304,170953
28.819,142339,366,170953
28.824,142339,300,170972
28.829,142336,368,170962
28.834,142329,296,170955
28.839,142339,374,170960
28.844,142304,295,170967
28.849,142346,376,170962
28.854,142336,290,170981
28.859,142358,379,170973
28.864,142353,287,170962
28.869,142340,381,170979
28.874,142355,285,170960
28.879,142349,385,170989
28.883,142355,280,170983
28.888,142361,388,170979
28.893,142360,280,170963
28.898,142356,389,170974
28.903,142361,276,170975
28.908,142362,394,170976
28.913,142364,274,170990
28.918,142377,396,170986
28.923,142365,272,170971
28.928,142365,398,170989
28.933,142373,268,170981
28.938,142364,402,170978
28.943,142375,268,170986
28.948,142369,403,170982
28.953,142373,266,170981
28.958,142380,406,170987
28.963,142391,265,170990
28.968,142383,407,170988
28.973,142399,265,170982
28.978,142385,409,170992
28.983,142392,261,170999
28.988,142386,406,171001
28.993,142392,261,171000
28.998,142405,412,171008
29.002,142400,260,171009
29.007,142410,413,171008
29.012,142403,260,171002
29.017,142405,415,171004
29.022,142406,259,171011
29.027,142410,416,171021
29.032,142409,258,171020
29.037,142418,417,171015
29.042,142420,256,171024
29.047,142412,417,171019
29.052,142424,259,171016
29.057,142421,418,171031
29.062,142421,256,171035
29.067,142433,417,171019
29.072,142430,257,171030
29.077,142432,416,171041
29.082,142439,259,171035
29.087,142433,412,171030
29.092,142437,258,171037
29.097,142449,417,171044
29.102,142446,259,171036
29.107,142450,417,171042
29.112,142452,259,171040
29.116,142444,415,171049
29.121,142463,261,171046
29.126,142459,415,171040
29.131,142464,262,171049
29.136,142488,415,171047
29.141,142466,264,171054
29.146,142473,413,171063
29.151,142481,263,171075
29.156,142486,411,171061
29.161,142472,266,171055
29.166,142489,410,171050
29.171,142482,270,171063
29.176,142502,407,171071
29.181,142497,269,171068
29.186,142505,406,171060
29.191,142515,273,171071
29.196,142505,404,171079
29.201,142510,272,171075
29.206,142525,401,171070
29.211,142522,277,171097
29.216,142525,398,171083
29.221,142526,277,171085
29.226,142538,394,171092
29.230,142542,282,171108
29.235,142538,392,171100
29.240,142535,284,171103
29.245,142552,389,171102
29.250,142542,289,171109
29.255,142546,386,171114
29.260,142537,288,171111
29.265,142539,382,171110
29.270,142529,293,171120
29.275,142528,378,171109
29.280,142502,298,171109
29.285,142512,374,171102
29.290,142490,301,171112
29.295,142491,371,171124
29.300,142500,306,171125
29.305,142495,366,171104
29.310,142478,307,171113
29.315,142481,362,171094
29.320,142483,312,171101
29.325,142463,358,171096
29.330,142467,314,171082
29.335,142447,356,171076
29.340,142461,318,171075
29.345,142450,353,171062
29.349,142452,323,171070
29.354,142443,349,171054
29.359,142446,325,171054
29.364,142422,344,171051
29.369,142427,332,171046
29.374,142443,340,171050
29.379,142427,351,171048
29.384,142427,336,171051
29.389,142424,340,171051
29.394,142410,332,171038
29.399,142423,345,171029
29.404,142425,327,171024
29.409,142405,347,171030
29.414,142408,323,171029
29.419,142407,352,171023
29.424,142413,318,171035
29.429,142423,355,171016
29.434,142403,316,171027
29.439,142402,360,171019
29.444,142396,310,171030
29.449,142399,361,171011
29.454,142401,306,171006
29.459,142393,366,170994
29.463,142400,302,171001
29.468,142397,368,171018
29.473,142390,299,171008
29.478,142392,370,170996
29.483,142385,297,170999
29.488,142403,375,170995
29.493,142388,292,171003
29.498,142410,380,170998
29.503,142397,288,170989
29.508,142397,381,170988
29.513,142386,287,170995
29.518,142388,386,170989
29.523,142383,282,170998
29.528,142394,389,170992
29.533,142384,279,170998
29.538,142379,392,171003
29.543,142384,277,170994
29.548,142385,394,171007
29.553,142379,276,170999
29.558,142379,396,171000
29.563,142383,272,170993
29.568,142379,399,170992
29.573,142372,271,170999
29.577,142368,401,170980
29.582,142368,268,170994
29.587,142380,402,170999
29.592,142386,268,171006
29.597,142356,406,170993
29.602,142376,265,170992
29.607,142354,408,170981
29.612,142369,264,170991
29.617,142368,408,170979
29.622,142367,264,170992
29.627,142360,409,170988
29.632,142353,262,170980
29.637,142373,411,170990
29.642,142375,259,170992
29.647,142361,413,170985
29.652,142368,260,170993
29.657,142373,414,170990
29.662,142378,260,170996
29.667,142381,416,170997
29.672,142370,276,170994
29.677,142383,417,170994
29.682,142368,257,171008
29.687,142382,417,171016
29.692,142388,257,171001
29.696,142374,418,170994
29.701,142379,258,171016
29.706,142387,408,171017
29.711,142390,259,171005
29.716,142387,417,171013
29.721,142393,258,171021
29.726,142407,417,171015
29.731,142392,259,171028
