df_hash,22ZHK4.U116G3
device,HZ2X61
project_hash,29R7
project_name,istanbul_aydin_university
person_hash,29R7.0HMD
person_label,V22-2
date_time_start,2025-05-27_09-51-37.125000_+03
date_time_start_unix,1748328697.125
date_time_end,2025-05-27_09-59-17.135000_+03
length_difference_noticed,no

time,ppg_ir,ppg_ambient,ppg_red
6.231,243175,174,265410
6.236,243073,182,265323
6.241,243025,178,265235
6.246,242997,178,265222
6.251,243001,176,265189
6.256,242998,175,265190
6.261,243004,180,265172
6.266,242979,179,265150
6.271,242955,181,265128
6.276,242927,180,265094
6.281,242935,176,265081
6.286,242903,176,265050
6.291,242873,173,264992
6.296,242847,182,264926
6.301,242828,178,264904
6.306,242815,178,264882
6.311,242811,174,264838
6.316,242785,175,264833
6.321,242773,174,264801
6.326,242803,174,264799
6.331,242791,178,264753
6.336,242790,178,264743
6.341,242783,173,264734
6.346,242795,182,264748
6.351,242792,177,264718
6.356,242794,177,264708
6.361,242803,172,264679
6.365,242774,190,264661
6.370,242780,176,264635
6.375,242780,176,264642
6.380,242804,179,264624
6.385,242775,179,264634
6.390,242782,175,264612
6.395,242827,184,264619
6.400,242828,178,264635
6.405,242863,178,264630
6.410,242873,173,264651
6.415,242874,177,264647
6.420,242889,180,264629
6.425,242923,180,264648
6.430,242917,174,264612
6.435,242925,183,264648
6.440,242945,177,264649
6.445,242963,177,264634
6.450,242973,179,264647
6.455,243014,179,264660
6.460,243017,173,264679
6.465,243013,177,264660
6.470,243057,181,264681
6.475,243078,180,264674
6.480,243120,174,264676
6.485,243129,182,264702
6.490,243154,177,264707
6.495,243200,177,264732
6.499,243203,179,264752
6.504,243244,179,264753
6.509,243267,174,264758
6.514,243302,178,264793
6.519,243297,174,264780
6.524,243338,183,264785
6.529,243321,178,264808
6.534,243343,177,264791
6.539,243365,172,264797
6.544,243389,180,264808
6.549,243391,175,264831
6.554,243436,175,264800
6.559,243417,178,264808
6.564,243443,178,264812
6.569,243474,174,264824
6.574,243475,183,264830
6.579,243507,177,264843
6.584,243505,177,264833
6.589,243548,172,264866
6.594,243582,180,264875
6.599,243620,175,264902
6.604,243626,174,264897
6.609,243668,178,264921
6.614,243678,177,264931
6.619,243703,182,264960
6.624,243749,179,264971
6.628,243774,175,264990
6.633,243799,183,264976
6.638,243820,178,265015
6.643,243864,177,265009
6.648,243890,173,265042
6.653,243907,179,265048
6.658,243942,185,265066
6.663,243949,175,265051
6.668,243948,180,265044
6.673,243972,178,265044
6.678,243970,175,265024
6.683,243961,174,265038
6.688,243938,180,265009
6.693,243912,178,265000
6.698,243857,175,264935
6.703,243802,182,264901
6.708,243745,174,264881
6.713,243657,180,264856
6.718,243600,177,264762
6.723,243502,175,264755
6.728,243434,182,264708
6.733,243336,179,264643
6.738,243292,176,264636
6.743,243213,174,264616
6.748,243173,180,264601
6.753,243114,177,264573
6.758,243060,179,264575
6.762,242999,176,264555
6.767,242967,174,264549
6.772,242942,179,264565
6.777,242935,176,264572
6.782,242943,175,264593
6.787,242925,174,264611
6.792,242911,181,264608
6.797,242924,179,264615
6.802,242926,178,264652
6.807,242938,180,264689
6.812,242935,178,264668
6.817,242883,176,264666
6.822,242873,173,264658
6.827,242891,181,264675
6.832,242855,178,264676
6.837,242875,175,264680
6.842,242881,173,264693
6.847,242863,180,264709
6.852,242832,176,264677
6.857,242833,179,264683
6.862,242798,176,264679
6.867,242763,175,264688
6.872,242768,172,264681
6.877,242744,180,264635
6.882,242690,177,264633
6.887,242663,176,264593
6.892,242619,172,264563
6.896,242569,179,264519
6.901,242549,175,264510
6.906,242514,178,264475
6.911,242487,175,264457
6.916,242464,174,264415
6.921,242462,179,264449
6.926,242450,177,264434
6.931,242422,174,264407
6.936,242414,181,264396
6.941,242417,177,264389
6.946,242430,177,264388
6.951,242443,172,264393
6.956,242430,176,264370
6.961,242443,179,264393
6.966,242468,179,264429
6.971,242500,174,264440
6.976,242505,182,264466
6.981,242535,177,264487
6.986,242522,177,264505
6.991,242519,173,264500
6.996,242531,181,264503
7.001,242518,172,264497
7.006,242512,180,264502
7.011,242530,176,264530
7.016,242518,175,264539
7.021,242524,179,264537
7.026,242524,180,264563
7.030,242534,175,264564
7.035,242572,175,264579
7.040,242561,179,264596
7.045,242582,179,264615
7.050,242590,173,264645
7.055,242594,175,264647
7.060,242593,179,264648
7.065,242585,178,264640
7.070,242581,173,264644
7.075,242542,182,264609
7.080,242524,176,264585
7.085,242501,177,264524
7.090,242444,180,264466
7.095,242409,179,264429
7.100,242378,178,264370
7.105,242353,177,264345
7.110,242333,173,264329
7.115,242359,182,264329
7.120,242375,176,264353
7.125,242370,176,264335
7.130,242404,179,264349
7.135,242425,179,264390
7.140,242451,174,264408
7.145,242494,182,264434
7.150,242507,173,264466
7.155,242524,180,264457
7.159,242530,175,264470
7.164,242519,176,264454
7.169,242537,180,264450
7.174,242512,179,264467
7.179,242520,175,264457
7.184,242558,175,264484
7.189,242551,179,264503
7.194,242565,180,264545
7.199,242584,175,264564
7.204,242614,182,264586
7.209,242609,178,264600
7.214,242624,177,264643
7.219,242659,173,264664
7.224,242678,181,264686
7.229,242721,177,264735
7.234,242759,177,264731
7.239,242763,181,264784
7.244,242775,180,264799
7.249,242821,180,264846
7.254,242826,179,264850
7.259,242843,175,264869
7.264,242841,175,264894
7.269,242888,180,264877
7.274,242893,178,264926
7.279,242877,174,264917
7.284,242863,174,264920
7.289,242891,180,264904
7.293,242922,174,264924
7.298,242918,180,264944
7.303,242955,178,264942
7.308,242909,180,264945
7.313,242959,183,264947
7.318,242974,179,264912
7.323,242977,177,264920
7.328,242983,174,264927
7.333,242995,182,264922
7.338,243026,178,264943
7.343,243033,181,264988
7.348,243060,178,264992
7.353,243109,176,264970
7.358,243120,173,265023
7.363,243166,179,265043
7.368,243214,177,265064
7.373,243227,175,265101
7.378,243270,181,265100
7.383,243323,178,265142
7.388,243353,176,265179
7.393,243396,178,265224
7.398,243434,176,265250
7.403,243477,174,265295
7.408,243533,182,265311
7.413,243581,180,265331
7.418,243612,178,265357
7.423,243634,175,265368
7.427,243682,173,265386
7.432,243703,178,265351
7.437,243701,176,265357
7.442,243659,178,265320
7.447,243623,177,265267
7.452,243559,174,265208
7.457,243497,182,265118
7.462,243392,178,265045
7.467,243312,177,264963
7.472,243220,174,264917
7.477,243127,181,264830
7.482,243033,177,264782
7.487,242945,177,264701
7.492,242851,174,264673
7.497,242768,181,264604
7.502,242663,177,264545
7.507,242604,176,264502
7.512,242516,173,264435
7.517,242444,180,264416
7.522,242379,178,264349
7.527,242321,177,264328
7.532,242267,174,264296
7.537,242235,176,264229
7.542,242150,174,264197
7.547,242101,182,264169
7.552,242045,178,264111
7.557,241980,177,264061
7.561,241956,174,264014
7.566,241915,174,263997
7.571,241856,179,263928
7.576,241811,179,263883
7.581,241778,176,263839
7.586,241732,179,263817
7.591,241711,176,263777
7.596,241676,176,263759
7.601,241649,173,263753
7.606,241637,181,263735
7.611,241614,177,263702
7.616,241595,176,263734
7.621,241611,173,263717
7.626,241585,182,263727
7.631,241579,178,263681
7.636,241573,182,263691
7.641,241573,178,263693
7.646,241563,178,263702
7.651,241537,174,263699
7.656,241534,174,263677
7.661,241546,178,263718
7.666,241542,178,263687
7.671,241559,175,263700
7.676,241550,174,263692
7.681,241570,178,263684
7.686,241570,174,263697
7.690,241599,178,263711
7.695,241625,177,263758
7.700,241661,173,263812
7.705,241681,174,263839
7.710,241742,179,263874
7.715,241788,180,263911
7.720,241836,176,263969
7.725,241876,178,264019
7.730,241918,174,264067
7.735,241985,179,264134
7.740,242017,176,264172
7.745,242053,177,264209
7.750,242101,173,264250
7.755,242129,182,264299
7.760,242161,177,264324
7.765,242172,177,264361
7.770,242185,173,264363
7.775,242191,182,264368
7.780,242216,180,264393
7.785,242240,177,264422
7.790,242259,174,264442
7.795,242285,182,264465
7.800,242322,177,264496
7.805,242323,176,264536
7.810,242367,172,264543
7.815,242408,180,264588
7.820,242428,176,264609
7.824,242465,176,264639
7.829,242488,176,264691
7.834,242531,176,264718
7.839,242593,172,264758
7.844,242604,180,264782
7.849,242642,176,264829
7.854,242680,176,264851
7.859,242705,179,264874
7.864,242748,179,264910
7.869,242766,175,264966
7.874,242807,175,264957
7.879,242849,174,264984
7.884,242857,175,265000
7.889,242901,180,265027
7.894,242937,180,265039
7.899,242960,175,265069
7.904,242984,175,265109
7.909,243023,172,265119
7.914,243050,180,265129
7.919,243070,176,265153
7.924,243104,176,265166
7.929,243116,177,265187
7.934,243160,177,265203
7.939,243174,174,265241
7.944,243212,182,265234
7.949,243255,178,265288
7.954,243282,177,265306
7.958,243312,173,265335
7.963,243340,181,265346
7.968,243373,177,265362
7.973,243387,176,265381
7.978,243399,177,265387
7.983,243423,176,265410
7.988,243465,181,265414
7.993,243487,179,265404
7.998,243504,175,265421
8.003,243525,182,265405
8.008,243528,178,265420
8.013,243545,176,265410
8.018,243566,181,265429
8.023,243586,179,265453
8.028,243609,181,265452
8.033,243619,179,265463
8.038,243630,176,265476
8.043,243666,175,265497
8.048,243688,182,265516
8.053,243742,179,265539
8.058,243755,177,265561
8.063,243781,176,265563
8.068,243818,174,265616
8.073,243852,174,265633
8.078,243894,178,265645
8.083,243913,176,265670
8.088,243968,174,265692
8.092,244006,181,265733
8.097,244033,178,265719
8.102,244060,175,265764
8.107,244089,181,265770
8.112,244116,178,265801
8.117,244164,176,265810
8.122,244194,176,265838
8.127,244225,175,265862
8.132,244272,173,265883
8.137,244307,179,265924
8.142,244340,176,265953
8.147,244404,175,265977
8.152,244431,181,265994
8.157,244465,180,266023
8.162,244523,176,266054
8.167,244539,176,266068
8.172,244584,173,266098
8.177,244634,181,266141
8.182,244654,177,266161
8.187,244698,177,266184
8.192,244727,173,266230
8.197,244775,181,266222
8.202,244799,176,266266
8.207,244857,176,266274
8.212,244878,173,266297
8.217,244891,181,266320
8.221,244910,173,266325
8.226,244930,181,266322
8.231,244903,176,266304
8.236,244860,176,266274
8.241,244810,180,266225
8.246,244760,180,266184
8.251,244692,175,266132
8.256,244598,175,266103
8.261,244513,179,266028
8.266,244443,177,265967
8.271,244356,178,265930
8.276,244216,177,265864
8.281,244171,173,265804
8.286,244106,180,265767
8.291,244010,176,265719
8.296,243961,176,265649
8.301,243904,172,265627
8.306,243841,181,265597
8.311,243817,176,265581
8.316,243775,176,265573
8.321,243721,175,265560
8.326,243694,175,265521
8.331,243702,179,265534
8.336,243667,179,265519
8.341,243662,174,265546
8.346,243673,175,265538
8.351,243644,177,265533
8.355,243663,177,265540
8.360,243663,172,265551
8.365,243652,182,265558
8.370,243661,179,265563
8.375,243668,179,265577
8.380,243677,174,265601
8.385,243691,182,265619
8.390,243686,177,265635
8.395,243697,176,265621
8.400,243711,172,265649
8.405,243720,180,265656
8.410,243722,175,265669
8.415,243722,178,265643
8.420,243695,174,265672
8.425,243701,174,265657
8.430,243706,177,265662
8.435,243726,176,265692
8.440,243724,180,265681
8.445,243724,179,265674
8.450,243762,174,265685
8.455,243769,182,265692
8.460,243790,177,265700
8.465,243808,174,265721
8.470,243820,172,265754
8.475,243839,181,265748
8.480,243837,175,265757
8.485,243864,175,265786
8.489,243880,179,265789
8.494,243874,179,265784
8.499,243893,174,265799
8.504,243884,182,265806
8.509,243911,177,265815
8.514,243895,182,265824
8.519,243911,177,265853
8.524,243942,177,265835
8.529,243932,173,265842
8.534,243941,181,265847
8.539,243939,176,265871
8.544,243917,175,265881
8.549,243943,179,265893
8.554,243951,178,265949
8.559,243961,174,265972
8.564,243978,177,265989
8.569,243997,173,266016
8.574,244013,182,266044
8.579,244033,177,266075
8.584,244054,176,266095
8.589,244053,173,266096
8.594,244067,181,266127
8.599,244105,177,266158
8.604,244106,175,266173
8.609,244117,180,266189
8.614,244156,175,266200
8.618,244166,180,266220
8.623,244159,178,266233
8.628,244208,175,266246
8.633,244230,174,266239
8.638,244220,178,266276
8.643,244245,176,266264
8.648,244237,173,266281
8.653,244273,179,266267
8.658,244283,184,266295
8.663,244277,175,266289
8.668,244322,181,266292
8.673,244343,178,266323
8.678,244351,176,266333
8.683,244380,173,266306
8.688,244406,178,266352
8.693,244427,176,266358
8.698,244432,174,266375
8.703,244477,179,266401
8.708,244506,181,266440
8.713,244541,178,266431
8.718,244554,175,266429
8.723,244578,180,266468
8.728,244605,177,266494
8.733,244637,174,266498
8.738,244680,180,266520
8.743,244708,176,266531
8.748,244730,174,266550
8.752,244750,179,266564
8.757,244774,182,266585
8.762,244802,177,266602
8.767,244833,176,266626
8.772,244883,174,266626
8.777,244889,181,266644
8.782,244945,177,266674
8.787,244950,176,266684
8.792,244990,174,266708
8.797,245003,182,266723
8.802,245055,180,266738
8.807,245095,175,266772
8.812,245154,173,266812
8.817,245195,181,266835
8.822,245247,176,266882
8.827,245275,176,266896
8.832,245333,173,266974
8.837,245379,181,266973
8.842,245414,177,267033
8.847,245478,177,267051
8.852,245535,173,267126
8.857,245561,181,267159
8.862,245629,176,267208
8.867,245654,176,267242
8.872,245709,181,267263
8.877,245752,179,267295
8.882,245815,175,267352
8.886,245893,174,267390
8.891,245940,178,267461
8.896,246005,177,267511
8.901,246064,173,267585
8.906,246137,174,267640
8.911,246175,178,267673
8.916,246278,176,267737
8.921,246334,173,267789
8.926,246411,180,267854
8.931,246452,175,267920
8.936,246480,175,267956
8.941,246512,179,267991
8.946,246501,179,267981
8.951,246483,172,267974
8.956,246447,179,267988
8.961,246425,174,268004
8.966,246377,176,268026
8.971,246344,172,268012
8.976,246283,180,267999
8.981,246251,175,267993
8.986,246205,176,267989
8.991,246182,173,267979
8.996,246105,183,267965
9.001,246077,174,267989
9.006,246028,175,267975
9.011,246022,179,268008
9.016,246023,180,268026
9.020,246007,176,268051
9.025,246015,177,268084
9.030,246044,173,268118
9.035,246019,174,268144
9.040,246026,178,268161
9.045,246044,178,268184
9.050,246034,178,268252
9.055,246081,177,268245
9.060,246095,173,268271
9.065,246090,174,268302
9.070,246111,179,268332
9.075,246126,179,268349
9.080,246168,174,268396
9.085,246187,174,268404
9.090,246209,178,268446
9.095,246242,178,268473
9.100,246277,178,268526
9.105,246304,178,268526
9.110,246317,174,268596
9.115,246356,174,268603
9.120,246378,177,268618
9.125,246413,178,268650
9.130,246413,174,268659
9.135,246453,174,268684
9.140,246467,178,268714
9.145,246487,178,268726
9.149,246563,178,268791
9.154,246567,178,268801
9.159,246632,173,268851
9.164,246692,182,268897
9.169,246737,177,268930
9.174,246786,177,268973
9.179,246829,173,268993
9.184,246887,181,269029
9.189,246926,176,269076
9.194,246979,177,269081
9.199,247000,175,269138
9.204,246994,171,269139
9.209,247099,179,269184
9.214,247135,179,269219
9.219,247166,175,269241
9.224,247205,175,269269
9.229,247233,180,269298
9.234,247279,180,269332
9.239,247286,176,269341
9.244,247283,175,269339
9.249,247329,174,269364
9.254,247356,182,269396
9.259,247385,177,269382
9.264,247407,176,269407
9.269,247413,173,269439
9.274,247437,180,269449
9.279,247461,176,269465
9.283,247505,174,269483
9.288,247532,179,269510
9.293,247563,175,269531
9.298,247587,175,269548
9.303,247596,173,269565
9.308,247643,179,269586
9.313,247652,177,269590
9.318,247701,174,269609
9.323,247733,181,269633
9.328,247751,178,269646
9.333,247800,176,269665
9.338,247817,173,269689
9.343,247873,175,269705
9.348,247894,173,269748
9.353,247925,180,269787
9.358,247955,177,269780
9.363,248005,174,269793
9.368,248024,180,269853
9.373,248070,177,269856
9.378,248095,175,269892
9.383,248143,173,269899
9.388,248177,179,269920
9.393,248239,173,269973
9.398,248259,179,269994
9.403,248282,176,270001
9.408,248329,174,270015
9.413,248348,180,270026
9.417,248378,178,270042
9.422,248431,175,270080
9.427,248436,173,270098
9.432,248503,178,270124
9.437,248507,175,270149
9.442,248565,175,270178
9.447,248600,181,270198
9.452,248616,177,270220
9.457,248669,175,270223
9.462,248694,179,270258
9.467,248754,177,270286
9.472,248774,174,270284
9.477,248804,181,270325
9.482,248851,177,270354
9.487,248873,177,270359
9.492,248915,176,270404
9.497,248946,176,270440
9.502,248993,179,270454
9.507,249012,177,270458
9.512,249058,174,270515
9.517,249123,181,270542
9.522,249173,177,270585
9.527,249204,176,270621
9.532,249230,172,270649
9.537,249281,175,270678
9.542,249312,175,270703
9.547,249341,174,270728
9.551,249356,177,270693
9.556,249374,177,270729
9.561,249394,172,270707
9.566,249413,181,270736
9.571,249449,175,270731
9.576,249464,175,270746
9.581,249492,179,270759
9.586,249551,176,270817
9.591,249530,175,270797
9.596,249536,176,270801
9.601,249545,180,270796
9.606,249557,179,270801
9.611,249508,174,270789
9.616,249457,182,270766
9.621,249390,177,270717
9.626,249334,177,270688
9.631,249247,172,270629
9.636,249175,176,270590
9.641,249079,179,270544
9.646,248993,178,270501
9.651,248902,174,270440
9.656,248846,182,270429
9.661,248783,176,270372
9.666,248697,175,270367
9.671,248637,179,270325
9.676,248583,179,270288
9.680,248551,174,270273
9.685,248491,180,270235
9.690,248461,174,270226
9.695,248455,183,270233
9.700,248407,177,270204
9.705,248394,177,270209
9.710,248365,173,270188
9.715,248378,181,270213
9.720,248368,176,270205
9.725,248399,176,270191
9.730,248384,180,270207
9.735,248403,175,270244
9.740,248399,179,270281
9.745,248438,179,270304
9.750,248456,174,270322
9.755,248484,175,270368
9.760,248496,179,270356
9.765,248496,178,270368
9.770,248512,174,270400
9.775,248544,174,270416
9.780,248550,181,270480
9.785,248573,182,270454
9.790,248568,178,270467
9.795,248581,179,270508
9.800,248611,174,270518
9.805,248616,183,270559
9.810,248673,177,270570
9.814,248683,176,270601
9.819,248674,173,270613
9.824,248700,180,270623
9.829,248752,180,270616
9.834,248741,180,270647
9.839,248760,176,270639
9.844,248772,175,270645
9.849,248790,172,270664
9.854,248810,181,270629
9.859,248810,177,270624
9.864,248841,177,270636
9.869,248858,174,270602
9.874,248860,174,270634
9.879,248891,174,270633
9.884,248866,174,270603
9.889,248859,178,270584
9.894,248861,176,270587
9.899,248857,172,270529
9.904,248832,179,270501
9.909,248818,176,270463
9.914,248820,174,270464
9.919,248816,179,270432
9.924,248806,177,270369
9.929,248769,178,270318
9.934,248763,176,270291
9.939,248742,173,270250
9.944,248751,179,270227
9.948,248752,177,270218
9.953,248755,175,270193
9.958,248770,180,270164
9.963,248756,177,270153
9.968,248770,175,270097
9.973,248757,181,270057
9.978,248746,178,270007
9.983,248747,176,269947
9.988,248703,173,269897
9.993,248701,180,269847
9.998,248694,177,269804
10.003,248706,174,269739
10.008,248690,180,269680
10.013,248682,177,269661
10.018,248692,175,269600
10.023,248686,179,269560
10.028,248658,181,269534
10.033,248658,177,269454
10.038,248653,175,269410
10.043,248625,180,269350
10.048,248630,177,269309
10.053,248618,174,269284
10.058,248608,180,269248
10.063,248591,177,269217
10.068,248601,175,269199
10.073,248619,174,269130
10.078,248626,174,269171
10.082,248640,179,269152
10.087,248650,177,269180
10.092,248675,174,269160
10.097,248682,181,269173
10.102,248726,177,269237
10.107,248771,177,269262
10.112,248814,173,269314
10.117,248873,182,269377
10.122,248877,173,269446
10.127,248995,181,269509
10.132,249022,176,269538
10.137,249097,176,269596
10.142,249149,180,269650
10.147,249169,179,269682
10.152,249187,175,269725
10.157,249252,174,269726
10.162,249276,178,269778
10.167,249310,177,269776
10.172,249345,179,269804
10.177,249387,182,269842
10.182,249394,176,269852
10.187,249433,176,269876
10.192,249440,180,269888
10.197,249464,179,269882
10.202,249469,174,269896
10.207,249499,182,269879
10.211,249532,177,269893
10.216,249513,176,269896
10.221,249528,175,269854
10.226,249536,175,269839
10.231,249545,179,269825
10.236,249513,178,269781
10.241,249481,173,269759
10.246,249418,174,269635
10.251,249360,178,269568
10.256,249299,177,269512
10.261,249238,172,269503
10.266,249177,183,269447
10.271,249115,172,269413
10.276,249026,180,269353
10.281,248905,175,269232
10.286,248795,175,269183
10.291,248696,178,269114
10.296,248582,178,269064
10.301,248538,174,269014
10.306,248459,181,268991
10.311,248397,177,268959
10.316,248327,176,268910
10.321,248228,175,268858
10.326,248145,174,268774
10.331,248059,178,268686
10.336,247968,177,268603
10.341,247878,172,268561
10.345,247832,181,268483
10.350,247783,175,268439
10.355,247744,175,268427
10.360,247718,179,268411
10.365,247712,183,268388
10.370,247729,178,268413
10.375,247708,178,268424
10.380,247676,173,268401
10.385,247673,181,268399
10.390,247649,176,268400
10.395,247664,176,268389
10.400,247642,180,268413
10.405,247665,179,268405
10.410,247635,174,268414
10.415,247672,178,268425
10.420,247662,180,268441
10.425,247635,179,268428
10.430,247642,174,268430
10.435,247618,175,268426
10.440,247618,178,268396
10.445,247600,178,268407
10.450,247605,174,268374
10.455,247582,174,268363
10.460,247587,178,268348
10.465,247586,174,268362
10.470,247600,179,268365
10.475,247610,179,268361
10.479,247632,175,268365
10.484,247631,175,268333
10.489,247654,181,268368
10.494,247679,179,268355
10.499,247700,176,268388
10.504,247715,175,268380
10.509,247755,180,268411
10.514,247790,175,268426
10.519,247792,179,268464
10.524,247824,178,268460
10.529,247852,175,268482
10.534,247866,174,268502
10.539,247877,178,268540
10.544,247919,177,268556
10.549,247951,175,268625
10.554,248026,174,268640
10.559,248016,177,268673
10.564,248028,180,268686
10.569,248104,177,268744
10.574,248095,176,268765
10.579,248112,173,268784
10.584,248129,179,268813
10.589,248172,177,268846
10.594,248219,176,268864
10.599,248224,174,268880
10.604,248215,181,268877
10.609,248238,179,268890
10.613,248290,182,268917
10.618,248323,179,268984
10.623,248390,177,269073
10.628,248462,175,269212
10.633,248563,174,269307
10.638,248658,180,269375
10.643,248707,178,269461
10.648,248734,176,269523
10.653,248773,174,269559
10.658,248774,173,269554
10.663,248802,175,269562
10.668,248791,174,269592
10.673,248786,179,269594
10.678,248799,176,269601
10.683,248767,174,269571
10.688,248779,181,269562
10.693,248764,178,269556
10.698,248756,177,269535
10.703,248766,174,269527
10.708,248745,180,269531
10.713,248761,180,269514
10.718,248786,179,269514
10.723,248791,176,269535
10.728,248798,176,269549
10.733,248803,173,269542
10.738,248820,180,269568
10.742,248846,176,269600
10.747,248860,175,269633
10.752,248871,181,269633
10.757,248908,175,269660
10.762,248940,179,269635
10.767,248936,179,269666
10.772,248926,176,269660
10.777,248929,175,269643
10.782,248958,181,269645
10.787,248974,180,269674
10.792,248971,177,269657
10.797,249006,176,269683
10.802,249024,173,269687
10.807,249064,176,269715
10.812,249088,173,269727
10.817,249111,180,269751
10.822,249131,176,269765
10.827,249150,176,269789
10.832,249179,172,269812
10.837,249205,181,269832
10.842,249243,176,269842
10.847,249275,176,269879
10.852,249287,172,269913
10.857,249347,176,269950
10.862,249376,173,270009
10.867,249439,182,270061
10.872,249473,177,270122
10.876,249547,178,270187
10.881,249551,173,270246
10.886,249635,182,270286
10.891,249626,176,270336
10.896,249644,176,270357
10.901,249648,179,270394
10.906,249636,175,270429
10.911,249624,179,270455
10.916,249571,180,270452
10.921,249533,174,270455
10.926,249475,174,270443
10.931,249422,178,270437
10.936,249338,178,270444
10.941,249257,173,270378
10.946,249187,183,270333
10.951,249103,188,270291
10.956,249016,182,270241
10.961,248924,176,270166
10.966,248835,176,270112
10.971,248751,179,270036
10.976,248667,179,269944
10.981,248597,174,269895
10.986,248537,175,269859
10.991,248493,178,269828
10.996,248467,178,269811
11.001,248422,177,269806
11.006,248431,177,269778
11.010,248427,174,269775
11.015,248415,182,269755
11.020,248377,177,269750
11.025,248343,177,269741
11.030,248301,173,269690
11.035,248278,182,269626
11.040,248244,176,269590
11.045,248193,178,269586
11.050,248179,172,269573
11.055,248126,175,269514
11.060,248123,178,269486
11.065,248066,178,269467
11.070,248077,174,269438
11.075,248005,174,269426
11.080,247997,178,269413
11.085,247996,178,269363
11.090,247957,173,269323
11.095,247915,174,269313
11.100,247931,173,269267
11.105,247903,179,269259
11.110,247884,174,269249
11.115,247872,174,269211
11.120,247893,178,269200
11.125,247896,178,269203
11.130,247912,174,269199
11.135,247914,182,269215
11.139,247918,177,269176
11.144,247939,177,269178
11.149,247928,177,269183
11.154,247944,176,269160
11.159,247953,173,269170
11.164,247965,180,269166
11.169,247978,176,269184
11.174,248006,175,269183
11.179,247983,180,269176
11.184,248021,178,269190
11.189,248031,175,269199
11.194,248054,176,269198
11.199,248052,175,269184
11.204,248054,175,269189
11.209,248084,179,269198
11.214,248087,178,269213
11.219,248122,176,269200
11.224,248140,176,269224
11.229,248152,173,269255
11.234,248145,180,269251
11.239,248196,177,269259
11.244,248206,174,269231
11.249,248216,177,269274
11.254,248220,177,269280
11.259,248249,174,269265
11.264,248256,173,269303
11.269,248283,178,269333
11.273,248321,177,269357
11.278,248330,175,269363
11.283,248349,174,269377
11.288,248358,180,269362
11.293,248355,174,269340
11.298,248355,181,269348
11.303,248348,179,269341
11.308,248333,177,269329
11.313,248337,176,269331
11.318,248345,175,269310
11.323,248339,174,269312
11.328,248336,180,269278
11.333,248331,177,269264
11.338,248337,176,269256
11.343,248330,178,269253
11.348,248319,177,269244
11.353,248357,175,269272
11.358,248365,174,269259
11.363,248361,180,269244
11.368,248363,179,269231
11.373,248393,177,269217
11.378,248390,176,269249
11.383,248393,174,269233
11.388,248393,181,269231
11.393,248407,174,269268
11.398,248428,182,269266
11.403,248442,179,269281
11.407,248478,178,269275
11.412,248493,174,269292
11.417,248518,174,269311
11.422,248553,179,269325
11.427,248587,179,269361
11.432,248627,175,269374
11.437,248645,175,269399
11.442,248683,176,269415
11.447,248684,176,269419
11.452,248725,173,269438
11.457,248773,181,269453
11.462,248822,176,269477
11.467,248821,177,269497
11.472,248854,174,269526
11.477,248902,182,269546
11.482,248910,177,269536
11.487,248955,178,269546
11.492,248976,177,269585
11.497,249004,177,269593
11.502,249032,173,269596
11.507,249078,182,269618
11.512,249086,178,269609
11.517,249146,179,269661
11.522,249143,174,269678
11.527,249179,174,269704
11.532,249202,178,269670
11.537,249220,182,269677
11.541,249172,174,269664
11.546,249145,175,269634
11.551,249100,178,269587
11.556,249050,178,269556
11.561,248992,174,269530
11.566,248908,183,269467
11.571,248812,177,269406
11.576,248751,178,269349
11.581,248645,173,269290
11.586,248546,178,269239
11.591,248477,174,269187
11.596,248372,182,269135
11.601,248305,177,269077
11.606,248242,178,269048
11.611,248162,173,268988
11.616,248104,183,268960
11.621,248049,177,268949
11.626,248007,178,268906
11.631,247984,174,268888
11.636,247945,176,268863
11.641,247933,178,268862
11.646,247895,178,268831
11.651,247884,173,268819
11.656,247837,182,268788
11.661,247827,176,268795
11.666,247825,177,268793
11.670,247804,172,268767
11.675,247815,181,268772
11.680,247822,176,268783
11.685,247793,175,268792
11.690,247818,180,268778
11.695,247797,180,268767
11.700,247783,175,268783
11.705,247796,176,268760
11.710,247755,172,268774
11.715,247752,181,268734
11.720,247756,176,268744
11.725,247752,177,268724
11.730,247748,173,268733
11.735,247748,178,268714
11.740,247760,174,268717
11.745,247776,183,268713
11.750,247771,177,268715
11.755,247794,178,268732
11.760,247816,173,268742
11.765,247825,174,268770
11.770,247845,178,268758
11.775,247877,179,268780
11.780,247876,178,268763
11.785,247902,175,268780
11.790,247928,180,268811
11.795,247952,180,268814
11.800,247944,176,268819
11.804,247968,176,268842
11.809,247984,172,268811
11.814,247962,181,268832
11.819,247966,176,268822
11.824,247985,176,268832
11.829,247995,176,268818
11.834,247985,176,268821
11.839,247971,173,268837
11.844,248001,181,268813
11.849,247979,177,268807
11.854,248004,177,268844
11.859,248004,174,268817
11.864,248012,174,268831
11.869,248006,180,268817
11.874,248007,179,268810
11.879,248037,180,268800
11.884,248028,179,268805
11.889,248044,177,268802
11.894,248031,177,268810
11.899,248062,174,268817
11.904,248059,182,268814
11.909,248090,179,268822
11.914,248100,179,268818
11.919,248108,177,268847
11.924,248121,176,268840
11.929,248172,177,268847
11.934,248139,176,268848
11.938,248151,174,268841
11.943,248182,180,268856
11.948,248181,178,268853
11.953,248217,176,268877
11.958,248221,174,268889
11.963,248232,180,268902
11.968,248251,177,268909
11.973,248288,173,268891
11.978,248289,176,268907
11.983,248306,174,268904
11.988,248319,180,268915
11.993,248342,177,268946
11.998,248346,175,268949
12.003,248371,173,268935
12.008,248355,180,268922
12.013,248372,177,268944
12.018,248396,174,268955
12.023,248385,181,268917
12.028,248399,174,268919
12.033,248409,180,268936
12.038,248417,178,268930
12.043,248428,175,268937
12.048,248467,175,268969
12.053,248464,181,268967
12.058,248487,179,268984
12.063,248511,175,268996
12.068,248543,174,269003
12.072,248550,172,268996
12.077,248573,175,269014
12.082,248579,173,269026
12.087,248612,182,269028
12.092,248588,178,269017
12.097,248636,178,269043
12.102,248663,176,269028
12.107,248657,176,269057
12.112,248680,172,269056
12.117,248692,180,269073
12.122,248706,179,269041
12.127,248743,179,269066
12.132,248763,175,269067
12.137,248745,176,269059
12.142,248778,172,269070
12.147,248770,181,269064
12.152,248800,177,269090
12.157,248814,177,269073
12.162,248790,174,269057
12.167,248813,174,269050
12.172,248768,174,269022
12.177,248725,174,269004
12.182,248664,178,268977
12.187,248610,178,268921
12.192,248515,175,268882
12.197,248446,176,268829
12.201,248379,172,268749
12.206,248302,179,268706
12.211,248187,176,268659
12.216,248092,177,268593
12.221,248026,176,268565
12.226,247926,177,268498
12.231,247858,173,268459
12.236,247789,175,268412
12.241,247723,180,268382
12.246,247670,181,268332
12.251,247603,176,268297
12.256,247592,176,268253
12.261,247545,173,268248
12.266,247493,183,268215
12.271,247474,178,268177
12.276,247427,178,268154
12.281,247419,174,268111
12.286,247384,175,268082
12.291,247367,179,268083
12.296,247345,179,268050
12.301,247302,175,268058
12.306,247293,176,267988
12.311,247324,184,267952
12.316,247258,180,267939
12.321,247229,171,267871
12.326,247240,180,267862
12.331,247226,177,267791
12.335,247206,177,267774
12.340,247199,173,267708
12.345,247173,181,267694
12.350,247184,176,267640
12.355,247174,177,267607
12.360,247155,173,267555
12.365,247165,171,267535
12.370,247160,172,267494
12.375,247164,180,267489
12.380,247146,175,267478
12.385,247138,176,267444
12.390,247167,179,267429
12.395,247162,179,267416
12.400,247146,174,267399
12.405,247172,175,267377
12.410,247168,179,267369
12.415,247194,175,267379
12.420,247193,180,267372
12.425,247204,179,267351
12.430,247186,175,267338
12.435,247203,175,267346
12.440,247205,179,267321
12.445,247201,178,267317
12.450,247206,174,267359
12.455,247221,174,267336
12.460,247238,179,267372
12.465,247244,175,267369
12.469,247256,180,267372
12.474,247252,180,267389
12.479,247256,176,267356
12.484,247233,176,267336
12.489,247234,173,267327
12.494,247241,181,267326
12.499,247234,177,267302
12.504,247224,177,267297
12.509,247221,173,267281
12.514,247233,183,267258
12.519,247198,175,267239
12.524,247207,175,267232
12.529,247203,180,267231
12.534,247224,179,267200
12.539,247200,176,267199
12.544,247222,175,267189
12.549,247227,173,267191
12.554,247227,181,267167
12.559,247209,177,267169
12.564,247229,181,267143
12.569,247228,177,267113
12.574,247245,176,267098
12.579,247266,173,267085
12.584,247267,180,267090
12.589,247259,177,267050
12.594,247266,176,267067
12.599,247283,173,267055
12.603,247298,178,267035
12.608,247307,177,267002
12.613,247292,180,267013
12.618,247298,177,267007
12.623,247314,175,267028
12.628,247331,174,267039
12.633,247336,181,267036
12.638,247379,178,267074
12.643,247438,176,267102
12.648,247413,175,267136
12.653,247476,182,267152
12.658,247453,172,267177
12.663,247526,173,267202
12.668,247542,180,267235
12.673,247565,177,267269
12.678,247609,176,267290
12.683,247619,174,267294
12.688,247634,180,267322
12.693,247676,176,267357
12.698,247710,175,267379
12.703,247753,173,267434
12.708,247797,175,267474
12.713,247828,173,267509
12.718,247855,180,267578
12.723,247902,177,267607
12.728,247949,176,267649
12.732,248013,173,267730
12.737,248037,180,267769
12.742,248093,176,267828
12.747,248121,176,267851
12.752,248168,173,267922
12.757,248204,177,267969
12.762,248229,174,268050
12.767,248270,182,268088
12.772,248315,178,268131
12.777,248322,177,268176
12.782,248339,174,268220
12.787,248347,175,268255
12.792,248344,179,268252
12.797,248324,178,268290
12.802,248285,175,268298
12.807,248244,178,268272
12.812,248165,174,268262
12.817,248098,174,268240
12.822,248039,178,268211
12.827,247925,178,268180
12.832,247819,174,268153
12.837,247757,174,268115
12.842,247652,178,268060
12.847,247574,178,268021
12.852,247480,174,267963
12.857,247387,177,267911
12.862,247303,173,267872
12.866,247216,182,267815
12.871,247158,178,267781
12.876,247102,178,267717
12.881,247046,174,267710
12.886,246997,176,267657
12.891,246937,179,267618
12.896,246907,179,267589
12.901,246859,176,267579
12.906,246829,175,267522
12.911,246795,179,267507
12.916,246787,180,267510
12.921,246761,175,267479
12.926,246722,176,267460
12.931,246692,179,267437
12.936,246681,180,267415
12.941,246649,175,267406
12.946,246604,176,267384
12.951,246618,174,267377
12.956,246582,176,267364
12.961,246559,179,267336
12.966,246544,180,267326
12.971,246527,175,267303
12.976,246504,175,267292
12.981,246505,179,267273
12.986,246471,179,267271
12.991,246451,174,267230
12.996,246461,175,267254
13.000,246446,173,267216
13.005,246435,175,267230
13.010,246420,179,267204
13.015,246420,179,267205
13.020,246430,174,267217
13.025,246431,175,267191
13.030,246431,179,267188
13.035,246429,179,267199
13.040,246436,174,267164
13.045,246432,175,267157
13.050,246447,175,267141
13.055,246440,175,267160
13.060,246442,179,267137
13.065,246454,179,267149
13.070,246456,175,267114
13.075,246444,175,267137
13.080,246477,179,267125
13.085,246456,179,267091
13.090,246438,174,267069
13.095,246456,176,267057
13.100,246440,174,267040
13.105,246421,182,267009
13.110,246409,178,266963
13.115,246393,177,266947
13.120,246391,173,266922
13.125,246399,181,266929
13.129,246401,176,266910
13.134,246384,176,266913
13.139,246389,179,266913
13.144,246399,178,266894
13.149,246397,175,266888
13.154,246427,175,266865
13.159,246434,179,266873
13.164,246459,178,266885
13.169,246476,174,266862
13.174,246504,181,266888
13.179,246528,177,266913
13.184,246559,176,266924
13.189,246615,173,266923
13.194,246654,176,266936
13.199,246698,173,266989
13.204,246721,180,267026
13.209,246744,177,267025
13.214,246808,175,267067
13.219,246837,180,267113
13.224,246895,179,267135
13.229,246920,176,267187
13.234,246975,175,267191
13.239,246998,180,267229
13.244,247084,173,267266
13.249,247095,173,267293
13.254,247121,179,267303
13.259,247134,177,267308
13.263,247152,175,267329
13.268,247149,181,267305
13.273,247193,179,267320
13.278,247226,176,267315
13.283,247224,174,267350
13.288,247262,181,267355
13.293,247278,174,267356
13.298,247313,180,267375
13.303,247347,178,267400
13.308,247366,176,267404
13.313,247378,174,267389
13.318,247418,180,267417
13.323,247426,176,267404
13.328,247463,175,267414
13.333,247460,181,267430
13.338,247476,179,267416
13.343,247516,176,267438
13.348,247525,178,267445
13.353,247557,176,267453
13.358,247578,175,267466
13.363,247614,180,267469
13.368,247652,178,267484
13.373,247658,175,267493
13.378,247683,183,267480
13.383,247736,178,267533
13.388,247749,177,267516
13.393,247769,180,267546
13.397,247789,179,267559
13.402,247790,175,267537
13.407,247799,175,267544
13.412,247758,179,267524
13.417,247755,178,267501
13.422,247714,174,267437
13.427,247677,182,267417
13.432,247620,178,267386
13.437,247571,177,267329
13.442,247463,177,267283
13.447,247377,176,267219
13.452,247297,173,267151
13.457,247188,180,267070
13.462,247066,175,266981
13.467,246946,174,266887
13.472,246834,178,266816
13.477,246761,178,266717
13.482,246630,173,266647
13.487,246534,174,266577
13.492,246437,173,266503
13.497,246338,182,266402
13.502,246250,177,266349
13.507,246194,177,266275
13.512,246137,173,266222
13.517,246055,181,266157
13.522,246000,176,266081
13.527,245965,177,266017
13.531,245887,172,265970
13.536,245820,176,265940
13.541,245798,172,265892
13.546,245734,180,265857
13.551,245730,175,265837
13.556,245690,175,265825
13.561,245668,179,265786
13.566,245635,179,265777
13.571,245612,175,265783
13.576,245591,175,265743
13.581,245570,172,265726
13.586,245572,177,265761
13.591,245550,176,265733
13.596,245549,176,265730
13.601,245509,173,265738
13.606,245523,182,265730
13.611,245508,176,265738
13.616,245499,177,265759
13.621,245499,173,265746
13.626,245505,182,265758
13.631,245525,177,265785
13.636,245558,181,265804
13.641,245587,176,265863
13.646,245636,175,265891
13.651,245656,179,265949
13.656,245688,178,265975
13.660,245720,173,265998
13.665,245744,181,266025
13.670,245761,175,266022
13.675,245793,176,266066
13.680,245817,171,266097
13.685,245833,174,266153
13.690,245890,179,266173
13.695,245914,178,266265
13.700,245967,173,266335
13.705,246032,173,266434
13.710,246086,176,266571
13.715,246204,176,266687
13.720,246294,172,266838
13.725,246398,180,267007
13.730,246524,175,267188
13.735,246648,179,267427
13.740,246824,174,267677
13.745,246986,173,267966
13.750,247207,177,268263
13.755,247466,176,268726
13.760,248013,172,269460
13.765,248429,179,270066
13.770,248826,174,270633
13.775,249208,173,271210
13.780,249605,173,271880
13.785,250017,172,272497
13.790,250562,175,272869
13.794,251104,173,272950
13.799,251802,172,273866
13.804,252249,178,274388
13.809,252637,174,274925
13.814,253033,172,275431
13.819,253284,171,275775
13.824,253501,176,276008
13.829,253666,176,276181
13.834,253772,175,276268
13.839,253825,173,276334
13.844,253885,172,276412
13.849,253901,176,276397
13.854,253880,173,276401
13.859,253863,173,276380
13.864,253867,179,276404
13.869,253893,175,276481
13.874,253891,173,276556
13.879,253908,173,276668
13.884,253869,172,276778
13.889,253830,177,276901
13.894,253728,173,277018
13.899,253642,172,277139
13.904,253636,179,277310
13.909,253657,175,277556
13.914,253721,172,277780
13.919,254078,172,278813
13.924,254396,171,280314
13.928,254893,172,281462
13.933,255334,170,282278
13.938,255661,176,282971
13.943,256076,174,283774
13.948,256536,171,284638
13.953,256969,177,285425
13.958,257391,174,286182
13.963,257864,172,286983
13.968,258338,176,287789
13.973,258832,174,288569
13.978,259355,175,289344
13.983,259917,173,290129
13.988,260398,171,290868
13.993,260981,178,291625
13.998,261498,176,292351
14.003,261913,174,292849
14.008,262153,171,293184
14.013,262340,178,293469
14.018,262564,175,293739
14.023,262804,173,294048
14.028,263075,171,294355
14.033,263317,176,294655
14.038,263459,174,294885
14.043,263584,172,295043
14.048,263663,171,295246
14.053,263763,175,295404
14.058,263768,173,295560
14.062,263766,171,295680
14.067,263818,176,295844
14.072,263848,178,296088
14.077,263873,175,296313
14.082,263889,173,296599
14.087,263933,178,296956
14.092,263946,175,297255
14.097,263972,174,297536
14.102,263883,171,297851
14.107,263899,177,298159
14.112,264021,174,298566
14.117,264104,173,298975
14.122,264273,174,299440
14.127,264579,172,300068
14.132,265036,176,300832
14.137,265631,175,301737
14.142,266308,173,302739
14.147,267112,177,303865
14.152,268035,174,305122
14.157,268902,173,306290
14.162,269770,179,307414
14.167,270569,175,308450
14.172,271285,171,309326
14.177,271933,173,310172
14.182,272514,179,310687
14.187,273017,176,311373
14.191,273532,173,311980
14.196,273961,173,312481
14.201,274177,179,312834
14.206,274492,173,313250
14.211,274881,173,313699
14.216,275521,173,314451
14.221,276343,175,315295
14.226,277195,172,316273
14.231,278137,176,317229
14.236,279020,176,318216
14.241,279918,174,319247
14.246,280914,171,320362
14.251,281967,175,321306
14.256,282973,173,322459
14.261,283921,172,323554
14.266,284833,177,324643
14.271,285723,177,325595
14.276,286565,174,326500
14.281,287512,174,327494
14.286,288439,171,328505
14.291,289314,175,329513
14.296,290226,173,330570
14.301,291264,172,331751
14.306,292176,177,332822
14.311,293119,172,333862
14.316,293902,171,334783
14.321,294438,173,335460
14.325,295154,179,336253
14.330,295893,174,336945
14.335,296611,173,338054
14.340,297253,173,339057
14.345,297845,171,339703
14.350,298347,175,340225
14.355,298794,173,340795
14.360,299171,173,341339
14.365,299551,170,341783
14.370,299917,171,342200
14.375,300323,176,342542
14.380,300616,175,342825
14.385,300877,173,343063
14.390,301131,177,343233
14.395,301356,174,343303
14.400,301496,171,343411
14.405,301754,177,343546
14.410,301941,173,343667
14.415,302026,176,343705
14.420,302221,174,343788
14.425,302271,172,343835
14.430,302382,177,343911
14.435,302421,174,343913
14.440,302568,172,344028
14.445,302758,171,344261
14.450,302967,176,344382
14.455,303149,173,344492
14.459,303335,171,344637
14.464,303548,176,344782
14.469,303860,175,345170
14.474,304175,173,345398
14.479,304332,172,345561
14.484,304517,179,345699
14.489,304631,176,345786
14.494,304759,174,345869
14.499,304800,173,345883
14.504,304933,171,345983
14.509,305086,176,346066
14.514,305296,178,346282
14.519,305510,176,346476
14.524,305667,174,346586
14.529,305831,172,346732
14.534,306069,171,346973
14.539,306394,176,347265
14.544,306777,175,347621
14.549,307138,173,347992
14.554,307620,171,348460
14.559,308144,177,348969
14.564,308774,172,349607
14.569,309430,177,350207
14.574,310154,175,350906
14.579,310970,174,351685
14.584,311784,173,352458
14.589,312621,171,353196
14.593,313381,176,353922
14.598,314214,175,354730
14.603,314950,173,355430
14.608,315602,172,356059
14.613,316238,176,356633
14.618,316832,174,357162
14.623,317408,173,357659
14.628,317986,178,358130
14.633,318555,174,358556
14.638,319077,173,358929
14.643,319481,173,359242
14.648,319971,178,359590
14.653,320237,174,360012
14.658,320720,174,360415
14.663,321281,177,360877
14.668,321784,173,361284
14.673,322200,170,361574
14.678,322465,176,361744
14.683,322734,175,361893
14.688,322859,172,361947
14.693,322919,170,361928
14.698,322934,176,361907
14.703,322902,176,361799
14.708,322817,177,361686
14.713,322613,172,361540
14.718,322435,178,361285
14.722,322197,177,360947
14.727,321953,174,360599
14.732,321741,171,360285
14.737,321508,176,359945
14.742,321363,174,359714
14.747,321297,173,359486
14.752,321301,177,359404
14.757,321263,171,359255
14.762,321250,177,359078
14.767,321255,175,358970
14.772,321304,171,358910
14.777,321395,174,359006
14.782,321467,173,359070
14.787,321618,179,359159
14.792,321710,174,359228
14.797,321747,171,359282
14.802,321692,177,359171
14.807,321545,172,359034
14.812,321455,175,358816
14.817,321341,172,358578
14.822,321236,171,358394
14.827,321180,178,358173
14.832,321088,175,357905
14.837,320933,174,357540
14.842,320868,174,357143
14.847,320693,174,356752
14.852,320443,172,356099
14.856,319947,171,355163
14.861,319358,171,354062
14.866,318693,179,352594
14.871,317870,176,350800
14.876,316433,174,348490
14.881,315286,175,346409
14.886,314088,175,344065
14.891,312815,173,341856
14.896,311462,171,339660
14.901,309926,173,337265
14.906,308396,174,335087
14.911,307054,172,333243
14.916,305842,170,331568
14.921,304756,178,330052
14.926,303625,178,328565
14.931,302646,175,327216
14.936,302101,173,326172
14.941,301389,173,325079
14.946,300552,173,323930
14.951,299868,173,323087
14.956,299224,172,322234
14.961,298638,174,321280
14.966,297964,173,320422
14.971,297403,172,319567
14.976,296716,170,318758
14.981,296153,171,318226
14.986,295744,179,317532
14.990,295279,176,316841
14.995,294823,175,316226
15.000,294541,172,315838
15.005,294471,175,315505
15.010,294510,171,315321
15.015,294781,171,315440
15.020,295178,171,315657
15.025,295619,178,316044
15.030,296379,175,316654
15.035,297131,173,317384
15.040,298042,172,318327
15.045,299215,171,319510
15.050,300622,172,320921
15.055,302224,171,322581
15.060,303977,177,324388
15.065,305890,176,326368
15.070,307994,173,328669
15.075,310313,172,331320
15.080,312760,171,334178
15.085,315356,172,337049
15.090,317897,179,339506
15.095,320350,176,342148
15.100,322591,171,344722
15.105,325463,179,347608
15.110,328532,176,350615
15.115,331455,175,353612
15.119,334535,174,356733
15.124,337814,173,360148
15.129,340787,172,363396
15.134,343561,172,366317
15.139,346149,178,369080
15.144,348738,178,371635
15.149,351042,176,374136
15.154,353137,176,376472
15.159,354888,172,378649
15.164,356572,173,380616
15.169,358157,171,382575
15.174,359564,179,384330
15.179,360865,176,386083
15.184,361993,177,387395
15.189,362957,176,388789
15.194,363816,184,390038
15.199,364620,176,391217
15.204,365354,178,392262
15.209,366118,177,393304
15.214,366838,175,394276
15.219,367551,173,395212
15.224,368167,174,396098
15.229,368863,173,396975
15.234,369385,172,397755
15.239,369893,171,398395
15.244,370372,174,398945
15.249,370770,174,399429
15.253,371090,174,399859
15.258,371418,172,400265
15.263,371712,171,400653
15.268,371821,178,400849
15.273,371823,177,400959
15.278,371690,175,400918
15.283,371529,174,400896
15.288,371429,174,400905
15.293,371273,171,401001
15.298,371197,171,401117
15.303,371280,172,401335
15.308,371492,172,401738
15.313,371726,171,401971
15.318,372007,170,402311
15.323,372277,171,402614
15.328,372633,179,402960
15.333,372946,177,403282
15.338,373166,177,403526
15.343,373338,171,403653
15.348,373413,179,403698
15.353,373441,178,403694
15.358,373454,177,403695
15.363,373478,176,403704
15.368,373443,175,403734
15.373,373535,174,403792
15.378,373614,175,403892
15.383,373764,174,404024
15.387,373881,173,404180
15.392,374036,176,404402
15.397,374189,176,404645
15.402,374344,175,404887
15.407,374468,174,405038
15.412,374605,173,405237
15.417,374730,173,405425
15.422,374867,173,405627
15.427,375016,172,405733
15.432,375079,171,405877
15.437,375179,173,406023
15.442,375255,174,406052
15.447,375274,173,406054
15.452,375233,173,405976
15.457,375139,173,405891
15.462,375122,172,405821
15.467,375066,171,405794
15.472,375027,171,405764
15.477,374966,171,405686
15.482,374888,171,405609
15.487,374895,173,405510
15.492,374797,175,405485
15.497,374792,175,405446
15.502,374770,175,405450
15.507,374753,174,405466
15.512,374832,173,405492
15.517,374804,174,405453
15.521,374746,173,405414
15.526,374709,172,405395
15.531,374748,171,405435
15.536,374739,175,405400
15.541,374706,179,405318
15.546,374667,177,405243
15.551,374581,177,405135
15.556,374578,177,405128
15.561,374583,176,405157
15.566,374622,175,405233
15.571,374693,174,405362
15.576,374810,174,405475
15.581,374980,173,405713
15.586,375218,176,405930
15.591,375515,175,406224
15.596,375827,175,406558
15.601,376151,174,406863
15.606,376527,174,407191
15.611,376900,172,407568
15.616,377400,172,407969
15.621,377846,178,408352
15.626,378364,178,408726
15.631,378830,177,409032
15.636,379232,174,409197
15.641,379617,173,409293
15.646,379855,173,409245
15.650,379959,173,409004
15.655,379974,175,408801
15.660,380014,174,408646
15.665,380092,175,408525
15.670,380140,174,408450
15.675,380310,175,408523
15.680,380480,174,408736
15.685,380755,178,409086
15.690,381077,175,409461
15.695,381386,176,409919
15.700,381747,174,410419
15.705,382098,175,410872
15.710,382381,173,411330
15.715,382758,174,411871
15.720,383089,173,412341
15.725,383399,173,412770
15.730,383738,180,413215
15.735,384034,175,413653
15.740,384266,173,414040
15.745,384473,173,414390
15.750,384615,172,414667
15.755,384791,172,414941
15.760,384974,171,415138
15.765,385090,180,415312
15.770,385090,178,415469
15.775,385217,179,415704
15.780,385387,173,415916
15.784,385560,173,416139
15.789,385711,173,416341
15.794,385871,173,416546
15.799,386019,172,416756
15.804,386111,172,416866
15.809,386156,171,416887
15.814,386166,179,416919
15.819,386128,177,416937
15.824,386116,177,416915
15.829,386085,173,416866
15.834,386073,175,416872
15.839,385996,174,416826
15.844,385992,173,416783
15.849,385983,172,416784
15.854,386007,172,416748
15.859,385988,178,416727
15.864,385945,177,416651
15.869,385859,175,416519
15.874,385831,175,416459
15.879,385812,178,416510
15.884,385849,177,416528
15.889,385861,176,416550
15.894,385859,175,416550
15.899,385853,174,416561
15.904,385777,174,416522
15.909,385735,173,416458
15.914,385635,173,416416
15.918,385621,172,416364
15.923,385626,173,416327
15.928,385629,175,416355
15.933,385606,175,416397
15.938,385613,174,416420
15.943,385587,176,416367
15.948,385523,175,416327
15.953,385434,176,416212
15.958,385322,175,416086
15.963,385236,176,416031
15.968,385198,176,415971
15.973,385172,179,415959
15.978,385118,175,415955
15.983,385133,175,416004
15.988,385172,174,416017
15.993,385165,174,416069
15.998,385218,172,416150
16.003,385254,173,416179
16.008,385268,171,416265
16.013,385335,171,416344
16.018,385414,178,416430
16.023,385485,173,416629
16.028,385791,172,416949
16.033,386044,179,417246
16.038,386178,176,417380
16.043,386255,174,417459
16.048,386252,172,417397
16.052,386175,171,417320
16.057,386128,177,417207
16.062,386005,175,417111
16.067,385951,172,417055
16.072,385899,174,417043
16.077,385914,172,417076
16.082,385957,171,417161
16.087,385971,176,417231
16.092,386035,174,417309
16.097,386031,171,417396
16.102,386002,177,417435
16.107,386012,174,417491
16.112,385997,172,417578
16.117,386023,178,417617
16.122,386040,174,417708
16.127,386136,174,417979
16.132,386271,172,418100
16.137,386389,177,418305
16.142,386451,174,418487
16.147,386593,173,418684
16.152,386704,179,418878
16.157,386873,177,419062
16.162,386958,174,419286
16.167,387100,174,419512
16.172,387289,174,419740
16.177,387421,172,419906
16.181,387505,177,420013
16.186,387550,174,420088
16.191,387550,171,420110
16.196,387539,177,420153
16.201,387560,173,420163
16.206,387589,170,420263
16.211,387670,177,420404
16.216,387776,175,420608
16.221,387867,176,420766
16.226,387994,174,420959
16.231,388076,172,421109
16.236,388184,177,421276
16.241,388241,174,421454
16.246,388322,173,421539
16.251,388402,178,421698
16.256,388468,176,421856
16.261,388619,173,422013
16.266,388727,175,422232
16.271,388885,177,422422
16.276,389068,175,422692
16.281,389230,172,422867
16.286,389330,179,422996
16.291,389460,175,423148
16.296,389523,174,423274
16.301,389616,171,423310
16.306,389636,177,423428
16.311,389663,173,423467
16.315,389777,176,423559
16.320,389797,174,423635
16.325,389870,173,423748
16.330,389960,178,423839
16.335,390032,176,423947
16.340,390133,173,424087
16.345,390238,172,424184
16.350,390399,176,424373
16.355,390514,175,424556
16.360,390650,172,424722
16.365,390821,174,424916
16.370,390998,171,425150
16.375,391176,178,425343
16.380,391373,174,425599
16.385,391576,173,425848
16.390,391733,171,426075
16.395,391882,177,426282
16.400,392070,174,426471
16.405,392224,173,426708
16.410,392391,177,426873
16.415,392537,171,427075
16.420,392688,176,427236
16.425,392836,175,427429
16.430,392997,171,427594
16.435,393114,178,427734
16.440,393257,174,427940
16.445,393453,172,428075
16.449,393578,177,428248
16.454,393752,174,428464
16.459,393885,170,428637
16.464,394037,173,428832
16.469,394180,177,429003
16.474,394313,175,429184
16.479,394478,172,429380
16.484,394650,178,429572
16.489,394814,174,429751
16.494,394991,173,429942
16.499,395146,171,430119
16.504,395286,177,430318
16.509,395439,174,430505
16.514,395638,173,430719
16.519,395836,178,430948
16.524,396037,177,431190
16.529,396229,175,431391
16.534,396413,174,431571
16.539,396539,172,431786
16.544,396698,172,431901
16.549,396774,178,432050
16.554,396877,177,432135
16.559,396940,175,432209
16.564,396999,178,432309
16.569,397095,175,432352
16.574,397142,174,432463
16.579,397199,172,432524
16.583,397268,178,432623
16.588,397338,175,432723
16.593,397410,174,432830
16.598,397529,172,432992
16.603,397695,179,433161
16.608,397874,171,433386
16.613,398092,178,433644
16.618,398288,175,433918
16.623,398516,174,434170
16.628,398745,171,434457
16.633,398929,177,434661
16.638,399087,175,434881
16.643,399261,174,435058
16.648,399429,172,435216
16.653,399528,178,435373
16.658,399721,173,435530
16.663,399804,175,435687
16.668,399921,173,435836
16.673,400030,173,435980
16.678,400174,179,436170
16.683,400286,177,436350
16.688,400400,175,436494
16.693,400510,173,436623
16.698,400620,172,436736
16.703,400746,179,436835
16.708,400812,173,436965
16.712,400945,171,437135
16.717,401061,177,437235
16.722,401196,175,437373
16.727,401317,173,437539
16.732,401410,172,437663
16.737,401517,177,437829
16.742,401644,175,437948
16.747,401780,173,438143
16.752,401896,171,438270
16.757,402018,173,438370
16.762,402132,179,438499
16.767,402180,176,438616
16.772,402302,174,438694
16.777,402371,172,438795
16.782,402428,171,438898
16.787,402497,177,438959
16.792,402535,175,439067
16.797,402596,172,439155
16.802,402579,178,439252
16.807,402569,171,439280
16.812,402564,176,439311
16.817,402513,174,439369
16.822,402489,172,439369
16.827,402457,178,439392
16.832,402407,175,439395
16.837,402343,174,439440
16.842,402309,171,439454
16.846,402254,177,439454
16.851,402270,177,439528
16.856,402302,177,439587
16.861,402277,175,439594
16.866,402296,173,439658
16.871,402304,172,439729
16.876,402301,178,439745
16.881,402325,175,439789
16.886,402354,174,439860
16.891,402370,173,439916
16.896,402386,172,439978
16.901,402354,172,439991
16.906,402354,179,439988
16.911,402329,176,440024
16.916,402341,175,440052
16.921,402307,173,440042
16.926,402323,172,440081
16.931,402368,178,440142
16.936,402370,176,440194
16.941,402409,173,440222
16.946,402405,172,440261
16.951,402504,175,440326
16.956,402484,176,440380
16.961,402527,173,440420
16.966,402563,172,440470
16.971,402539,178,440508
16.976,402592,177,440573
16.980,402616,174,440576
16.985,402612,173,440645
16.990,402657,172,440655
16.995,402678,178,440702
17.000,402711,174,440699
17.005,402724,174,440740
17.010,402745,171,440756
17.015,402788,178,440801
17.020,402814,174,440848
17.025,402832,172,440886
17.030,402869,178,440899
17.035,402890,177,440956
17.040,402936,174,440970
17.045,402954,173,441032
17.050,403051,174,441161
17.055,403091,173,441225
17.060,403176,178,441340
17.065,403239,177,441422
17.070,403304,174,441491
17.075,403350,173,441594
17.080,403400,171,441636
17.085,403422,177,441640
17.090,403428,174,441648
17.095,403420,174,441649
17.100,403366,174,441607
17.105,403333,173,441578
17.109,403338,179,441564
17.114,403359,177,441579
17.119,403335,174,441563
17.124,403337,174,441584
17.129,403342,171,441600
17.134,403402,177,441652
17.139,403458,175,441740
17.144,403464,175,441791
17.149,403529,175,441844
17.154,403548,174,441955
17.159,403602,171,441954
17.164,403644,179,441971
17.169,403656,176,442009
17.174,403639,175,442011
17.179,403664,172,441967
17.184,403635,171,441984
17.189,403629,177,441985
17.194,403631,172,441945
17.199,403651,178,441929
17.204,403632,177,441935
17.209,403651,174,441967
17.214,403659,174,441963
17.219,403687,171,441975
17.224,403699,178,441981
17.229,403728,175,442023
17.234,403787,173,442084
17.239,403792,171,442114
17.243,403818,174,442131
17.248,403853,172,442159
17.253,403872,179,442160
17.258,403866,176,442166
17.263,403871,176,442180
17.268,403927,173,442206
17.273,403958,172,442241
17.278,404029,177,442282
17.283,404005,176,442311
17.288,404058,173,442332
17.293,404096,176,442376
17.298,404202,173,442448
17.303,404244,172,442517
17.308,404330,177,442589
17.313,404337,176,442615
17.318,404399,173,442697
17.323,404454,172,442690
17.328,404484,177,442717
17.333,404523,176,442747
17.338,404551,174,442781
17.343,404622,174,442859
17.348,404643,173,442916
17.353,404740,179,442986
17.358,404824,176,443051
17.363,404884,174,443152
17.368,404941,172,443197
17.373,405017,179,443263
17.377,405047,175,443287
17.382,405127,173,443327
17.387,405156,174,443413
17.392,405196,173,443430
17.397,405260,171,443480
17.402,405343,177,443543
17.407,405390,174,443632
17.412,405452,172,443676
17.417,405567,178,443763
17.422,405645,176,443821
17.427,405709,174,443921
17.432,405806,172,443969
17.437,405916,173,444024
17.442,405938,172,444095
17.447,405955,178,444083
17.452,405993,176,444110
17.457,406021,174,444141
17.462,406113,172,444171
17.467,406171,177,444226
17.472,406272,175,444389
17.477,406344,173,444507
17.482,406481,179,444585
17.487,406582,173,444650
17.492,406657,179,444770
17.497,406758,176,444802
17.502,406782,173,444848
17.507,406806,171,444830
17.511,406786,176,444833
17.516,406783,173,444801
17.521,406763,179,444745
17.526,406722,176,444650
17.531,406596,173,444616
17.536,406476,176,444449
17.541,406362,173,444375
17.546,406267,179,444272
17.551,406170,176,444229
17.556,406129,174,444199
17.561,405973,171,444096
17.566,405854,178,444044
17.571,405734,174,443907
17.576,405587,172,443824
17.581,405455,176,443734
17.586,405336,174,443582
17.591,405158,172,443457
17.596,404986,177,443336
17.601,404802,174,443169
17.606,404632,173,443052
17.611,404478,171,442882
17.616,404318,178,442729
17.621,404162,175,442547
17.626,403978,174,442345
17.631,403805,172,442165
17.636,403584,178,441955
17.640,403435,174,441808
17.645,403257,173,441650
17.650,403115,178,441486
17.655,402957,176,441337
17.660,402815,173,441196
17.665,402680,172,440997
17.670,402547,175,440808
17.675,402336,173,440671
17.680,402111,174,440355
17.685,401859,172,440106
17.690,401592,177,439769
17.695,401287,174,439406
17.700,401000,171,439093
17.705,400682,177,438737
17.710,400327,173,438340
17.715,399996,171,437982
17.720,399680,176,437606
17.725,399372,174,437213
17.730,399048,175,436972
17.735,398860,174,436720
17.740,398647,171,436452
17.745,398450,176,436215
17.750,398156,173,435884
17.755,397852,172,435530
17.760,397543,177,435154
17.765,397225,174,434776
17.770,396871,171,434342
17.774,396515,178,433897
17.779,396160,172,433460
17.784,395784,174,433020
17.789,395414,171,432577
17.794,395061,177,432122
17.799,394683,173,431632
17.804,394291,172,431153
17.809,393885,176,430650
17.814,393443,174,430096
17.819,392999,171,429552
17.824,392576,179,428952
17.829,392072,172,428313
17.834,391598,178,427655
17.839,391082,174,427067
17.844,390607,172,426473
17.849,390164,177,425949
17.854,389770,175,425526
17.859,389447,171,425106
17.864,389194,178,424803
17.869,388919,175,424463
17.874,388706,174,424175
17.879,388480,173,423879
17.884,388274,172,423583
17.889,388052,178,423280
17.894,387807,176,422958
17.899,387537,172,422626
17.904,387343,171,422371
17.908,387160,177,422126
17.913,386967,176,421857
17.918,386585,171,421531
17.923,386376,177,421396
17.928,386275,172,421341
17.933,386148,178,421195
17.938,386081,174,421090
17.943,385960,172,420976
17.948,385909,178,420917
17.953,385853,176,420832
17.958,385778,173,420774
17.963,385686,171,420700
17.968,385628,178,420669
17.973,385620,181,420647
17.978,385529,176,420623
17.983,385492,175,420576
17.988,385443,174,420453
17.993,385331,172,420318
17.998,385250,174,420214
18.003,385201,173,420146
18.008,385144,172,420026
18.013,385085,178,419912
18.018,385009,174,419812
18.023,385008,176,419693
18.028,384901,176,419574
18.033,384857,174,419421
18.038,384782,171,419295
18.042,384731,175,419187
18.047,384661,174,419074
18.052,384593,174,418974
18.057,384516,177,418864
18.062,384481,174,418751
18.067,384415,174,418638
18.072,384381,179,418539
18.077,384308,177,418415
18.082,384275,176,418365
18.087,384222,175,418283
18.092,384170,175,418189
18.097,384155,172,418160
18.102,384135,177,418033
18.107,384099,176,417995
18.112,384110,175,417905
18.117,384047,172,417838
18.122,384065,174,417762
18.127,384054,174,417781
18.132,384030,173,417746
18.137,383989,178,417707
18.142,383957,174,417676
18.147,383966,174,417620
18.152,383949,181,417555
18.157,383929,178,417496
18.162,383928,174,417471
18.167,383891,175,417408
18.171,383877,178,417405
18.176,383831,175,417368
18.181,383860,173,417339
18.186,383841,174,417297
18.191,383867,181,417256
18.196,383825,178,417241
18.201,383865,176,417199
18.206,383865,168,417161
18.211,383828,175,417134
18.216,383840,172,417126
18.221,383839,172,417096
18.226,383852,180,417072
18.231,383818,177,416972
18.236,383831,174,416977
18.241,383805,171,416970
18.246,383830,179,416933
18.251,383805,176,416875
18.256,383801,174,416844
18.261,383798,178,416806
18.266,383770,178,416782
18.271,383737,179,416686
18.276,383677,178,416658
18.281,383608,174,416567
18.286,383502,174,416484
18.291,383412,172,416370
18.296,383307,178,416269
18.301,383198,173,416165
18.305,383081,174,416090
18.310,382950,172,415974
18.315,382863,175,415882
18.320,382714,177,415774
18.325,382626,177,415676
18.330,382493,174,415593
18.335,382394,173,415517
18.340,382283,177,415433
18.345,382172,177,415359
18.350,382075,174,415270
18.355,381998,173,415176
18.360,381926,178,415101
18.365,381862,174,415078
18.370,381807,179,414984
18.375,381741,178,414977
18.380,381679,173,414903
18.385,381645,173,414821
18.390,381577,177,414779
18.395,381532,176,414741
18.400,381489,171,414648
18.405,381464,179,414608
18.410,381428,175,414562
18.415,381335,178,414502
18.420,381299,173,414444
18.425,381292,173,414396
18.430,381260,178,414316
18.435,381220,176,414287
18.439,381162,172,414289
18.444,381146,180,414190
18.449,381096,176,414163
18.454,381070,175,414083
18.459,381030,171,414070
18.464,380957,175,414006
18.469,380919,172,413950
18.474,380926,180,413905
18.479,380867,175,413853
18.484,380866,174,413850
18.489,380827,171,413812
18.494,380814,178,413764
18.499,380778,173,413715
18.504,380789,173,413695
18.509,380776,178,413635
18.514,380743,176,413603
18.519,380740,172,413583
18.524,380732,172,413563
18.529,380734,178,413522
18.534,380725,176,413498
18.539,380714,171,413494
18.544,380707,179,413465
18.549,380671,176,413424
18.554,380641,174,413418
18.559,380648,170,413371
18.564,380626,174,413378
18.569,380600,172,413357
18.573,380590,180,413314
18.578,380547,175,413260
18.583,380537,175,413229
18.588,380515,173,413213
18.593,380507,173,413156
18.598,380472,177,413124
18.603,380426,176,413100
18.608,380440,177,413091
18.613,380401,181,413016
18.618,380384,177,413000
18.623,380368,175,412985
18.628,380332,172,412963
18.633,380332,180,412942
18.638,380320,175,412891
18.643,380340,173,412871
18.648,380291,179,412875
18.653,380335,177,412836
18.658,380293,176,412823
18.663,380315,174,412800
18.668,380319,173,412823
18.673,380313,180,412797
18.678,380312,174,412800
18.683,380342,173,412794
18.688,380355,179,412787
18.693,380333,177,412785
18.698,380335,173,412793
18.702,380377,172,412779
18.707,380387,173,412794
18.712,380399,181,412763
18.717,380429,175,412762
18.722,380428,174,412747
18.727,380420,172,412710
18.732,380480,178,412745
18.737,380494,174,412723
18.742,380475,172,412736
18.747,380519,180,412721
18.752,380555,178,412746
18.757,380563,179,412730
18.762,380576,175,412742
18.767,380602,174,412762
18.772,380627,173,412784
18.777,380680,179,412759
18.782,380661,176,412750
18.787,380699,175,412805
18.792,380717,174,412786
18.797,380746,179,412787
18.802,380790,177,412808
18.807,380795,180,412796
18.812,380837,177,412803
18.817,380861,175,412832
18.822,380906,172,412874
18.827,380932,180,412874
18.832,380967,177,412883
18.836,380984,175,412936
18.841,381031,173,412936
18.846,381113,173,412972
18.851,381115,171,412999
18.856,381151,172,413010
18.861,381201,178,413042
18.866,381255,177,413033
18.871,381282,175,413040
18.876,381316,173,413069
18.881,381322,171,413121
18.886,381370,179,413109
18.891,381403,176,413125
18.896,381446,173,413150
18.901,381462,173,413173
18.906,381486,174,413191
18.911,381508,173,413178
18.916,381517,179,413216
18.921,381570,174,413207
18.926,381612,174,413185
18.931,381587,172,413230
18.936,381612,179,413210
18.941,381657,175,413284
18.946,381667,175,413255
18.951,381673,176,413260
18.956,381706,174,413282
18.961,381721,171,413286
18.966,381742,179,413300
18.970,381758,176,413278
18.975,381790,174,413286
18.980,381821,178,413331
18.985,381831,178,413350
18.990,381889,175,413369
18.995,381928,173,413352
19.000,381954,174,413384
19.005,381976,174,413410
19.010,382007,179,413388
19.015,381996,178,413404
19.020,382019,173,413425
19.025,382059,173,413425
19.030,382038,179,413407
19.035,382057,178,413377
19.040,382030,174,413327
19.045,381984,174,413314
19.050,381919,172,413281
19.055,381836,179,413215
19.060,381750,174,413138
19.065,381635,174,413067
19.070,381545,179,413032
19.075,381466,177,412978
19.080,381331,173,412923
19.085,381247,173,412850
19.090,381170,178,412832
19.095,381062,177,412760
19.100,380969,172,412711
19.104,380899,181,412629
19.109,380772,177,412579
19.114,380698,176,412532
19.119,380614,172,412487
19.124,380539,181,412455
19.129,380484,177,412444
19.134,380436,175,412381
19.139,380412,171,412323
19.144,380399,174,412304
19.149,380278,172,412297
19.154,380278,180,412282
19.159,380265,175,412274
19.164,380243,175,412253
19.169,380197,172,412217
19.174,380172,179,412214
19.179,380120,173,412184
19.184,380124,173,412195
19.189,380069,179,412146
19.194,380050,174,412100
19.199,380017,178,412110
19.204,380001,177,412074
19.209,379950,173,412038
19.214,379948,173,412054
19.219,379915,177,412004
19.224,379868,175,412001
19.229,379838,172,411968
19.233,379828,180,411955
19.238,379771,174,411922
19.243,379757,178,411925
19.248,379729,175,411857
19.253,379714,174,411853
19.258,379646,178,411886
19.263,379662,176,411850
19.268,379661,173,411818
19.273,379669,180,411843
19.278,379640,175,411818
19.283,379615,174,411805
19.288,379631,172,411792
19.293,379646,175,411785
19.298,379652,178,411784
19.303,379629,176,411736
19.308,379609,173,411728
19.313,379632,182,411718
19.318,379612,175,411723
19.323,379616,173,411716
19.328,379641,179,411733
19.333,379662,177,411743
19.338,379645,173,411749
19.343,379662,176,411741
19.348,379652,173,411733
19.353,379662,181,411695
19.358,379678,175,411698
19.363,379658,174,411681
19.367,379678,172,411680
19.372,379679,178,411691
19.377,379670,174,411676
19.382,379657,172,411644
19.387,379662,173,411691
19.392,379674,173,411643
19.397,379692,177,411678
19.402,379710,174,411631
19.407,379723,173,411655
19.412,379743,180,411684
19.417,379762,177,411681
19.422,379806,175,411700
19.427,379794,174,411704
19.432,379840,174,411714
19.437,379889,174,411721
19.442,379886,176,411702
19.447,379916,175,411724
19.452,379923,173,411720
19.457,379936,178,411746
19.462,379971,176,411755
19.467,379983,174,411745
19.472,380029,173,411769
19.477,380034,177,411772
19.482,380086,175,411807
19.487,380092,178,411838
19.492,380118,175,411838
19.497,380123,173,411847
19.501,380202,171,411864
19.506,380243,178,411876
19.511,380266,176,411929
19.516,380305,173,411944
19.521,380329,178,411975
19.526,380388,177,411993
19.531,380417,174,411996
19.536,380441,176,412029
19.541,380507,173,412063
19.546,380549,172,412097
19.551,380584,179,412154
19.556,380627,176,412164
19.561,380663,173,412218
19.566,380701,172,412209
19.571,380758,178,412251
19.576,380803,175,412299
19.581,380847,171,412319
19.586,380876,175,412335
19.591,380911,173,412357
19.596,380941,179,412403
19.601,380999,175,412438
19.606,381060,174,412456
19.611,381065,179,412498
19.616,381140,178,412525
19.621,381190,174,412551
19.626,381225,174,412623
19.630,381299,179,412590
19.635,381327,173,412631
19.640,381368,179,412680
19.645,381411,178,412689
19.650,381453,176,412741
19.655,381503,175,412761
19.660,381567,172,412784
19.665,381569,179,412821
19.670,381625,175,412832
19.675,381641,175,412861
19.680,381703,175,412864
19.685,381723,175,412907
19.690,381758,172,412943
19.695,381790,179,412965
19.700,381823,175,412971
19.705,381848,175,412985
19.710,381874,172,412978
19.715,381896,179,413015
19.720,381920,175,412997
19.725,381912,175,413021
19.730,381987,176,413040
19.735,381960,180,413046
19.740,382004,175,413040
19.745,382014,175,413052
19.750,382010,180,413066
19.755,382050,178,413107
19.760,382073,173,413106
19.764,382103,180,413148
19.769,382146,176,413157
19.774,382182,175,413168
19.779,382221,174,413196
19.784,382253,174,413219
19.789,382264,179,413244
19.794,382295,177,413207
19.799,382311,171,413246
19.804,382335,178,413266
19.809,382376,173,413265
19.814,382394,173,413314
19.819,382433,176,413312
19.824,382403,176,413264
19.829,382402,177,413253
19.834,382409,175,413260
19.839,382318,171,413229
19.844,382241,177,413138
19.849,382205,173,413122
19.854,382124,173,413068
19.859,382026,177,413009
19.864,381939,176,412935
19.869,381820,173,412862
19.874,381690,180,412858
19.879,381626,171,412784
19.884,381549,179,412735
19.889,381425,175,412666
19.894,381333,175,412635
19.898,381259,172,412595
19.903,381173,180,412559
19.908,381126,176,412513
19.913,381090,176,412509
19.918,380982,172,412472
19.923,380977,172,412433
19.928,380930,173,412378
19.933,380865,173,412353
19.938,380801,176,412325
19.943,380783,176,412305
19.948,380761,174,412267
19.953,380720,174,412244
19.958,380666,179,412211
19.963,380687,178,412214
19.968,380616,175,412196
19.973,380591,176,412174
19.978,380612,172,412141
19.983,380558,180,412116
19.988,380532,177,412143
19.993,380518,176,412117
19.998,380499,173,412125
20.003,380507,173,412082
20.008,380519,172,412119
20.013,380452,180,412081
20.018,380460,177,412049
20.023,380417,172,412051
20.028,380429,179,412051
20.032,380427,179,412044
20.037,380441,175,412047
20.042,380427,174,412093
20.047,380450,172,412048
20.052,380416,179,412051
20.057,380445,176,412072
20.062,380442,174,412091
20.067,380501,172,412094
20.072,380526,175,412119
20.077,380517,172,412140
20.082,380544,178,412170
20.087,380561,176,412166
20.092,380566,174,412157
20.097,380574,172,412159
20.102,380624,178,412183
20.107,380632,175,412205
20.112,380640,175,412203
20.117,380664,172,412190
20.122,380693,177,412208
20.127,380693,175,412207
20.132,380724,174,412211
20.137,380683,180,412252
20.142,380716,176,412206
20.147,380712,175,412218
20.152,380711,173,412227
20.157,380741,178,412228
20.161,380724,175,412251
20.166,380731,173,412270
20.171,380773,175,412283
20.176,380797,173,412309
20.181,380808,178,412320
20.186,380826,177,412337
20.191,380824,174,412334
20.196,380812,173,412354
20.201,380827,179,412322
20.206,380855,177,412332
20.211,380803,175,412305
20.216,380802,174,412306
20.221,380752,175,412299
20.226,380718,174,412222
20.231,380726,172,412216
20.236,380703,178,412185
20.241,380665,174,412185
20.246,380671,173,412160
20.251,380652,172,412147
20.256,380643,179,412117
20.261,380648,174,412105
20.266,380644,187,412120
20.271,380704,176,412112
20.276,380720,174,412122
20.281,380767,171,412140
20.286,380753,179,412177
20.291,380767,176,412165
20.295,380803,174,412155
20.300,380827,172,412163
20.305,380829,180,412158
20.310,380868,176,412178
20.315,380873,180,412189
20.320,380886,175,412174
20.325,380900,174,412213
20.330,380920,173,412211
20.335,380925,180,412178
20.340,380917,176,412162
20.345,380924,175,412178
20.350,380956,173,412170
20.355,380959,173,412171
20.360,380974,178,412159
20.365,380961,173,412190
20.370,381003,178,412208
20.375,381013,178,412212
20.380,381067,174,412218
20.385,381067,174,412257
20.390,381060,172,412231
20.395,381089,179,412241
20.400,381117,175,412231
20.405,381114,175,412245
20.410,381118,171,412255
20.415,381171,174,412246
20.420,381139,178,412260
20.425,381166,177,412263
20.429,381168,173,412277
20.434,381188,173,412268
20.439,381201,177,412283
20.444,381184,176,412292
20.449,381232,172,412276
20.454,381251,179,412294
20.459,381255,175,412286
20.464,381271,179,412297
20.469,381276,175,412307
20.474,381294,174,412297
20.479,381301,178,412281
20.484,381340,177,412307
20.489,381318,174,412320
20.494,381339,174,412299
20.499,381361,178,412312
20.504,381396,178,412326
20.509,381398,174,412350
20.514,381439,177,412340
20.519,381429,172,412367
20.524,381491,180,412379
20.529,381517,176,412394
20.534,381561,174,412442
20.539,381552,178,412471
20.544,381611,177,412481
20.549,381588,174,412512
20.554,381541,173,412482
20.559,381499,173,412491
20.563,381471,173,412421
20.568,381341,173,412402
20.573,381235,180,412309
20.578,381145,175,412227
20.583,380990,174,412120
20.588,380860,179,412022
20.593,380709,177,411943
20.598,380607,172,411882
20.603,380518,180,411819
20.608,380423,172,411819
20.613,380346,180,411783
20.618,380287,175,411802
20.623,380250,174,411747
20.628,380175,171,411707
20.633,380159,178,411689
20.638,380091,174,411716
20.643,380067,173,411673
20.648,380064,171,411675
20.653,380002,179,411612
20.658,379938,179,411592
20.663,379903,176,411493
20.668,379852,174,411473
20.673,379805,173,411440
20.678,379785,176,411377
20.683,379721,174,411314
20.688,379656,172,411290
20.692,379602,177,411218
20.697,379573,174,411169
20.702,379537,172,411127
20.707,379494,173,411087
20.712,379413,172,411024
20.717,379354,177,410945
20.722,379312,175,410914
20.727,379227,172,410872
20.732,379191,178,410794
20.737,379160,175,410744
20.742,379074,173,410699
20.747,379049,178,410643
20.752,378996,176,410618
20.757,378916,176,410528
20.762,378907,174,410497
20.767,378826,180,410451
20.772,378842,177,410404
20.777,378835,174,410382
20.782,378830,172,410366
20.787,378817,178,410369
20.792,378820,176,410319
20.797,378813,173,410295
20.802,378815,172,410267
20.807,378838,173,410258
20.812,378848,179,410240
20.817,378824,176,410206
20.822,378806,173,410177
20.826,378808,172,410159
20.831,378820,178,410167
20.836,378809,174,410122
20.841,378805,173,410082
20.846,378777,178,410048
20.851,378788,179,410063
20.856,378776,174,410023
20.861,378751,179,410018
20.866,378762,176,410003
20.871,378759,173,409995
20.876,378732,180,409966
20.881,378769,176,409972
20.886,378736,174,409955
20.891,378733,171,409928
20.896,378728,176,409903
20.901,378706,177,409874
20.906,378685,175,409855
20.911,378698,173,409835
20.916,378671,178,409813
20.921,378701,175,409812
20.926,378703,174,409784
20.931,378716,179,409820
20.936,378729,176,409830
20.941,378761,172,409827
20.946,378809,172,409832
20.951,378817,174,409816
20.956,378813,180,409855
20.960,378846,175,409829
20.965,378882,175,409867
20.970,378888,173,409893
20.975,378917,180,409892
20.980,378958,176,409877
20.985,378975,175,409888
20.990,378979,173,409919
20.995,379028,179,409913
21.000,379097,172,409937
21.005,379123,178,409947
21.010,379142,175,409950
21.015,379182,173,409962
21.020,379218,178,409986
21.025,379226,178,409983
21.030,379284,175,410016
21.035,379301,173,410032
21.040,379339,178,410053
21.045,379356,177,410093
21.050,379401,178,410107
21.055,379431,177,410115
21.060,379435,173,410158
21.065,379447,173,410191
21.070,379466,178,410205
21.075,379499,177,410193
21.080,379503,174,410238
21.085,379534,173,410274
21.090,379559,178,410286
21.094,379565,178,410289
21.099,379600,178,410317
21.104,379623,177,410349
21.109,379665,174,410409
21.114,379718,174,410423
21.119,379741,171,410451
21.124,379774,177,410436
21.129,379802,174,410437
21.134,379892,173,410494
21.139,379932,177,410510
21.144,380027,178,410522
21.149,380098,177,410569
21.154,380126,177,410640
21.159,380210,173,410658
21.164,380261,173,410703
21.169,380287,177,410727
21.174,380366,177,410749
21.179,380382,173,410802
21.184,380409,179,410758
21.189,380439,175,410764
21.194,380434,179,410760
21.199,380462,175,410805
21.204,380476,174,410761
21.209,380543,170,410794
21.214,380540,178,410818
21.219,380545,174,410822
21.223,380622,175,410834
21.228,380659,172,410831
21.233,380714,179,410898
21.238,380770,175,410874
21.243,380901,175,410899
21.248,380896,173,410957
21.253,380998,180,410977
21.258,381009,176,411023
21.263,381117,175,411061
21.268,381154,172,411107
21.273,381152,180,411112
21.278,381186,176,411083
21.283,381189,176,411050
21.288,381163,173,411038
21.293,381111,176,411009
21.298,381075,173,410994
21.303,381011,172,410943
21.308,380930,177,410924
21.313,380848,200,410849
21.318,380804,173,410821
21.323,380711,180,410773
21.328,380618,176,410701
21.333,380542,175,410682
21.338,380444,172,410622
21.343,380374,175,410606
21.348,380289,172,410529
21.353,380207,179,410517
21.357,380133,174,410449
21.362,380067,174,410412
21.367,379985,180,410374
21.372,379929,178,410337
21.377,379854,175,410297
21.382,379794,174,410285
21.387,379714,175,410273
21.392,379683,175,410215
21.397,379635,172,410171
21.402,379563,180,410129
21.407,379536,177,410155
21.412,379495,176,410106
21.417,379465,173,410062
21.422,379417,179,410033
21.427,379366,176,410024
21.432,379338,175,410018
21.437,379337,175,409993
21.442,379307,174,409990
21.447,379260,173,409956
21.452,379250,180,409975
21.457,379211,177,409955
21.462,379165,175,409893
21.467,379139,174,409900
21.472,379115,173,409872
21.477,379110,179,409881
21.482,379100,177,409858
21.487,379123,173,409863
21.491,379080,174,409846
21.496,379118,172,409844
21.501,379110,179,409899
21.506,379181,178,409880
21.511,379198,177,409930
21.516,379247,174,409968
21.521,379288,173,410028
21.526,379326,172,410047
21.531,379399,178,410086
21.536,379484,173,410100
21.541,379461,174,410144
21.546,379513,173,410143
21.551,379536,180,410150
21.556,379544,178,410150
21.561,379582,176,410146
21.566,379587,174,410175
21.571,379593,174,410169
21.576,379581,173,410213
21.581,379617,180,410190
21.586,379605,173,410203
21.591,379616,179,410240
21.596,379620,177,410239
21.601,379598,175,410223
21.606,379612,175,410212
21.611,379590,173,410180
21.616,379564,172,410208
21.620,379556,177,410171
21.625,379535,176,410168
21.630,379515,174,410158
21.635,379496,177,410175
21.640,379494,174,410198
21.645,379518,174,410179
21.650,379493,180,410223
21.655,379476,178,410195
21.660,379499,174,410198
21.665,379499,174,410218
21.670,379483,172,410210
21.675,379524,178,410198
21.680,379548,177,410231
21.685,379550,179,410207
21.690,379574,177,410234
21.695,379599,176,410238
21.700,379620,173,410259
21.705,379681,173,410274
21.710,379702,172,410290
21.715,379770,173,410343
21.720,379812,172,410354
21.725,379846,173,410429
21.730,379854,175,410426
21.735,379916,176,410466
21.740,379982,174,410503
21.745,380079,175,410530
21.750,380141,174,410611
21.754,380212,175,410659
21.759,380249,173,410712
21.764,380289,174,410771
21.769,380390,173,410802
21.774,380465,173,410865
21.779,380503,176,410941
21.784,380590,176,410965
21.789,380646,175,411016
21.794,380727,175,411098
21.799,380793,173,411127
21.804,380808,175,411178
21.809,380879,173,411212
21.814,380905,174,411225
21.819,380949,172,411225
21.824,380999,173,411255
21.829,381004,174,411284
21.834,381016,175,411277
21.839,381017,173,411295
21.844,381046,174,411294
21.849,381039,172,411330
21.854,381065,174,411304
21.859,381081,172,411352
21.864,381105,173,411366
21.869,381121,171,411367
21.874,381099,172,411370
21.879,381127,173,411373
21.884,381123,174,411384
21.888,381132,173,411345
21.893,381126,174,411381
21.898,381132,172,411362
21.903,381123,173,411358
21.908,381156,173,411371
21.913,381136,173,411378
21.918,381177,172,411397
21.923,381160,174,411423
21.928,381183,171,411412
21.933,381213,174,411387
21.938,381237,171,411401
21.943,381242,172,411392
21.948,381246,172,411401
21.953,381243,173,411393
21.958,381271,171,411392
21.963,381310,172,411404
21.968,381322,172,411391
21.973,381397,174,411423
21.978,381347,174,411452
21.983,381380,176,411450
21.988,381379,175,411427
21.993,381402,177,411474
21.998,381442,174,411513
22.003,381433,176,411504
22.008,381439,175,411519
22.013,381432,176,411532
22.018,381446,174,411505
22.022,381440,179,411503
22.027,381397,179,411475
22.032,381349,179,411440
22.037,381282,177,411412
22.042,381212,178,411382
22.047,381150,176,411321
22.052,381034,178,411262
22.057,380969,176,411214
22.062,380847,178,411175
22.067,380753,177,411093
22.072,380656,174,411070
22.077,380588,172,410993
22.082,380467,173,410954
22.087,380393,172,410907
22.092,380279,174,410848
22.097,380239,172,410803
22.102,380144,173,410754
22.107,380034,172,410722
22.112,380028,173,410668
22.117,379966,171,410650
22.122,379876,180,410605
22.127,379850,179,410581
22.132,379777,180,410566
22.137,379751,178,410519
22.142,379727,179,410520
22.147,379680,178,410501
22.151,379664,179,410499
22.156,379661,177,410473
22.161,379649,178,410467
22.166,379624,177,410426
22.171,379585,173,410430
22.176,379575,171,410398
22.181,379585,180,410380
22.186,379550,178,410384
22.191,379521,178,410358
22.196,379514,178,410348
22.201,379499,177,410379
22.206,379482,176,410372
22.211,379499,176,410361
22.216,379469,177,410371
22.221,379466,177,410348
22.226,379451,176,410373
22.231,379456,176,410373
22.236,379444,174,410355
22.241,379475,174,410340
22.246,379479,173,410375
22.251,379465,173,410338
22.256,379528,172,410345
22.261,379512,171,410346
22.266,379525,174,410357
22.271,379551,174,410375
22.276,379550,172,410360
22.281,379562,171,410372
22.285,379598,178,410355
22.290,379582,178,410368
22.295,379599,175,410355
22.300,379622,175,410360
22.305,379641,174,410348
22.310,379647,173,410356
22.315,379620,176,410365
22.320,379658,174,410373
22.325,379655,174,410391
22.330,379691,173,410372
22.335,379635,172,410381
22.340,379677,172,410370
22.345,379639,172,410346
22.350,379660,179,410358
22.355,379634,178,410353
22.360,379650,176,410364
22.365,379640,175,410335
22.370,379658,175,410316
22.375,379621,173,410358
22.380,379667,172,410354
22.385,379671,172,410337
22.390,379701,180,410372
22.395,379696,177,410366
22.400,379722,176,410368
22.405,379730,176,410390
22.410,379710,176,410398
22.415,379762,171,410412
22.419,379763,178,410453
22.424,379752,178,410449
22.429,379813,178,410456
22.434,379823,177,410444
22.439,379840,175,410505
22.444,379863,176,410486
22.449,379868,175,410505
22.454,379905,174,410537
22.459,379928,172,410472
22.464,379926,175,410525
22.469,379974,173,410556
22.474,379979,174,410549
22.479,379991,172,410564
22.484,380018,171,410564
22.489,380045,178,410570
22.494,380057,177,410617
22.499,380088,175,410630
22.504,380108,176,410624
22.509,380162,173,410662
22.514,380116,178,410654
22.519,380180,177,410677
22.524,380234,177,410725
22.529,380234,176,410726
22.534,380268,176,410744
22.539,380279,174,410776
22.544,380334,174,410809
22.549,380344,173,410787
22.553,380367,173,410820
22.558,380412,175,410814
22.563,380419,176,410857
22.568,380449,174,410869
22.573,380495,174,410886
22.578,380483,172,410913
22.583,380519,172,410942
22.588,380555,179,410942
22.593,380594,179,410978
22.598,380597,177,410972
22.603,380614,178,410993
22.608,380652,172,411004
22.613,380663,172,411038
22.618,380712,170,411050
22.623,380732,179,411078
22.628,380761,177,411089
22.633,380812,177,411124
22.638,380825,175,411134
22.643,380860,176,411182
22.648,380871,174,411168
22.653,380906,176,411223
22.658,380952,172,411253
22.663,380976,173,411234
22.668,381023,171,411279
22.673,381028,179,411316
22.678,381046,176,411314
22.682,381129,177,411349
22.687,381122,176,411392
22.692,381191,177,411413
22.697,381182,174,411441
22.702,381240,175,411486
22.707,381251,176,411489
22.712,381314,177,411482
22.717,381338,175,411523
22.722,381380,177,411586
22.727,381403,175,411607
22.732,381472,176,411647
22.737,381483,173,411648
22.742,381518,173,411645
22.747,381515,171,411674
22.752,381584,173,411700
22.757,381581,173,411708
22.762,381580,174,411753
22.767,381576,172,411794
22.772,381585,172,411781
22.777,381586,177,411828
22.782,381539,177,411866
22.787,381509,175,411861
22.792,381479,175,411848
22.797,381406,173,411840
22.802,381361,177,411820
22.807,381262,175,411783
22.812,381185,176,411776
22.816,381146,173,411750
22.821,381101,174,411747
22.826,381063,172,411707
22.831,380962,173,411724
22.836,380946,178,411687
22.841,380884,178,411664
22.846,380812,177,411653
22.851,380778,173,411597
22.856,380736,171,411585
22.861,380711,172,411583
22.866,380677,178,411566
22.871,380670,178,411562
22.876,380659,175,411610
22.881,380682,174,411604
22.886,380681,173,411623
22.891,380682,173,411619
22.896,380637,171,411655
22.901,380668,174,411668
22.906,380688,172,411647
22.911,380672,172,411678
22.916,380641,171,411672
22.921,380593,179,411623
22.926,380602,178,411615
22.931,380564,178,411595
22.936,380563,176,411580
22.941,380538,177,411558
22.946,380534,175,411557
22.950,380513,174,411541
22.955,380474,172,411549
22.960,380470,173,411580
22.965,380496,172,411545
22.970,380489,172,411555
22.975,380483,171,411579
22.980,380502,171,411575
22.985,380477,178,411580
22.990,380494,178,411553
22.995,380517,177,411614
23.000,380521,175,411640
23.005,380573,175,411608
23.010,380578,174,411608
23.015,380561,172,411591
23.020,380558,172,411628
23.025,380564,171,411643
23.030,380583,172,411626
23.035,380599,178,411661
23.040,380608,177,411653
23.045,380651,171,411655
23.050,380618,176,411649
23.055,380639,174,411669
23.060,380603,174,411632
23.065,380618,175,411680
23.070,380662,175,411693
23.075,380676,174,411725
23.080,380687,173,411708
23.084,380696,173,411717
23.089,380692,172,411732
23.094,380776,174,411754
23.099,380757,173,411728
23.104,380779,174,411767
23.109,380765,173,411795
23.114,380779,171,411808
23.119,380811,171,411787
23.124,380819,179,411822
23.129,380814,178,411800
23.134,380850,177,411818
23.139,380877,176,411832
23.144,380899,172,411834
23.149,380900,179,411861
23.154,380936,178,411846
23.159,380960,177,411875
23.164,380991,177,411891
23.169,380980,177,411929
23.174,381020,177,411910
23.179,381036,176,411922
23.184,381058,176,411934
23.189,381090,178,411964
23.194,381127,171,411959
23.199,381176,171,411956
23.204,381189,171,412000
23.209,381203,171,412009
23.213,381227,171,412041
23.218,381240,170,412044
23.223,381296,171,412060
23.228,381302,179,412116
23.233,381374,177,412070
23.238,381360,176,412127
23.243,381390,172,412107
23.248,381437,172,412148
23.253,381477,172,412159
23.258,381479,171,412178
23.263,381525,172,412201
23.268,381591,172,412201
23.273,381605,172,412259
23.278,381615,171,412276
23.283,381645,172,412257
23.288,381667,175,412296
23.293,381718,174,412303
23.298,381722,173,412337
23.303,381734,174,412325
23.308,381797,173,412366
23.313,381822,173,412370
23.318,381859,172,412365
23.323,381888,173,412391
23.328,381915,173,412440
23.333,381942,174,412465
23.338,382004,177,412446
23.343,382000,172,412473
23.347,382031,172,412556
23.352,382064,173,412546
23.357,382095,172,412576
23.362,382156,173,412608
23.367,382197,172,412609
23.372,382199,173,412659
23.377,382222,171,412674
23.382,382244,172,412698
23.387,382291,175,412744
23.392,382334,176,412732
23.397,382350,175,412772
23.402,382387,177,412753
23.407,382434,176,412797
23.412,382462,177,412813
23.417,382472,176,412822
23.422,382522,178,412848
23.427,382549,177,412866
23.432,382588,179,412891
23.437,382603,173,412944
23.442,382668,174,412980
23.447,382704,174,412986
23.452,382701,175,412974
23.457,382743,173,412982
23.462,382772,175,413034
23.467,382791,173,413000
23.472,382821,174,413031
23.477,382823,172,413029
23.481,382835,174,413034
23.486,382806,172,413025
23.491,382777,174,412987
23.496,382731,173,412937
23.501,382700,175,412888
23.506,382614,175,412897
23.511,382525,175,412816
23.516,382467,174,412777
23.521,382376,176,412709
23.526,382276,175,412693
23.531,382165,179,412642
23.536,382100,173,412548
23.541,382012,174,412555
23.546,381944,174,412497
23.551,381892,175,412446
23.556,381808,173,412411
23.561,381763,174,412371
23.566,381719,173,412321
23.571,381664,175,412307
23.576,381592,172,412292
23.581,381564,178,412262
23.586,381546,171,412228
23.591,381466,172,412236
23.596,381464,170,412216
23.601,381451,179,412178
23.606,381441,177,412173
23.610,381418,178,412187
23.615,381422,175,412161
23.620,381435,176,412167
23.625,381416,174,412155
23.630,381392,178,412132
23.635,381391,176,412099
23.640,381379,176,412110
23.645,381378,173,412106
23.650,381357,173,412095
23.655,381352,170,412057
23.660,381317,178,412072
23.665,381312,176,412051
23.670,381319,177,412035
23.675,381311,175,412027
23.680,381258,172,412047
23.685,381277,178,411988
23.690,381278,180,412012
23.695,381266,177,411993
23.700,381262,178,411975
23.705,381264,175,411992
23.710,381245,177,411996
23.715,381298,175,411983
23.720,381284,175,411985
23.725,381324,174,411987
23.730,381317,174,411974
23.735,381332,173,411986
23.740,381350,173,411965
23.744,381334,173,411982
23.749,381350,174,411957
23.754,381377,172,411968
23.759,381381,173,411927
23.764,381373,172,411948
23.769,381414,173,411971
23.774,381395,171,411965
23.779,381417,175,411967
23.784,381448,174,411950
23.789,381444,175,411939
23.794,381440,174,411935
23.799,381440,174,411919
23.804,381439,173,411942
23.809,381423,174,411931
23.814,381450,172,411932
23.819,381456,173,411931
23.824,381475,171,411877
23.829,381442,176,411909
23.834,381475,174,411915
23.839,381481,175,411925
23.844,381481,174,411908
23.849,381512,174,411925
23.854,381525,173,411921
23.859,381531,173,411924
23.864,381530,174,411927
23.869,381534,174,411931
23.874,381550,177,411901
23.878,381553,177,411935
23.883,381580,178,411922
23.888,381591,178,411906
23.893,381596,177,411957
23.898,381620,177,411918
23.903,381647,177,411904
23.908,381650,177,411878
23.913,381660,176,411901
23.918,381684,176,411893
23.923,381695,172,411881
23.928,381684,172,411833
23.933,381719,171,411878
23.938,381725,171,411867
23.943,381751,179,411816
23.948,381778,179,411865
23.953,381828,178,411849
23.958,381899,177,411844
23.963,381912,177,411876
23.968,381947,177,411875
23.973,382021,172,411876
23.978,382046,172,411923
23.983,382086,172,411948
23.988,382156,172,411982
23.993,382185,171,411989
23.998,382236,172,412014
24.003,382282,172,412045
24.008,382342,171,412071
24.012,382393,171,412081
24.017,382408,171,412067
24.022,382449,174,412120
24.027,382512,174,412155
24.032,382534,174,412182
24.037,382595,173,412191
24.042,382633,174,412207
24.047,382671,174,412226
24.052,382704,173,412259
24.057,382733,172,412296
24.062,382785,172,412312
24.067,382850,175,412351
24.072,382862,174,412384
24.077,382898,173,412378
24.082,382968,173,412417
24.087,382982,173,412462
24.092,383007,173,412460
24.097,383052,171,412450
24.102,383091,172,412473
24.107,383134,172,412537
24.112,383176,172,412527
24.117,383185,172,412521
24.122,383218,173,412544
24.127,383256,172,412563
24.132,383282,172,412607
24.137,383275,170,412610
24.141,383307,179,412628
24.146,383324,178,412624
24.151,383339,178,412627
24.156,383363,176,412632
24.161,383330,177,412619
24.166,383378,173,412598
24.171,383382,176,412625
24.176,383340,175,412609
24.181,383304,175,412561
24.186,383310,174,412559
24.191,383204,174,412505
24.196,383163,172,412466
24.201,383062,173,412419
24.206,382997,169,412376
24.211,382868,172,412278
24.216,382761,174,412195
24.221,382640,175,412176
24.226,382571,174,412083
24.231,382422,174,412035
24.236,382328,173,411978
24.241,382223,174,411901
24.246,382096,173,411857
24.251,381978,174,411803
24.256,381915,172,411754
24.261,381828,173,411679
24.266,381727,174,411670
24.271,381648,175,411610
24.275,381617,172,411578
24.280,381528,173,411542
24.285,381496,171,411477
24.290,381474,179,411460
24.295,381410,177,411447
24.300,381370,177,411446
24.305,381342,175,411403
24.310,381325,176,411395
24.315,381265,177,411342
24.320,381236,178,411314
24.325,381221,175,411329
24.330,381182,176,411311
24.335,381159,174,411299
24.340,381148,175,411286
24.345,381113,174,411243
24.350,381105,175,411239
24.355,381070,173,411196
24.360,381023,176,411177
24.365,381021,176,411137
24.370,381001,176,411151
24.375,380998,174,411077
24.380,380965,176,411109
24.385,380952,174,411053
24.390,380926,175,411068
24.395,380931,173,411046
24.400,380914,174,411050
24.405,380925,173,411042
24.409,380933,178,411028
24.414,380949,176,411039
24.419,380985,177,411036
24.424,380978,175,411022
24.429,380958,176,411025
24.434,380954,173,411009
24.439,380959,175,410992
24.444,380965,173,410965
24.449,380957,174,410986
24.454,380979,172,410965
24.459,381005,173,410964
24.464,380991,175,410953
24.469,380992,176,410996
24.474,381004,174,410967
24.479,380997,174,410952
24.484,380998,173,410946
24.489,380966,174,410940
24.494,380957,172,410921
24.499,380994,173,410959
24.504,380956,173,410936
24.509,380955,176,410923
24.514,380945,174,410878
24.519,380981,175,410876
24.524,380936,173,410885
24.529,380922,175,410888
24.534,380920,173,410875
24.539,380951,174,410888
24.543,380948,173,410907
24.548,380984,174,410889
24.553,380990,172,410885
24.558,381004,175,410860
24.563,381015,174,410888
24.568,381015,175,410867
24.573,381046,173,410900
24.578,381031,174,410862
24.583,381027,173,410864
24.588,381047,173,410893
24.593,381049,172,410881
24.598,381084,172,410893
24.603,381100,172,410879
24.608,381090,175,410916
24.613,381132,173,410909
24.618,381138,174,410876
24.623,381136,173,410894
24.628,381172,174,410899
24.633,381170,172,410908
24.638,381183,172,410905
24.643,381179,171,410912
24.648,381216,179,410921
24.653,381253,172,410925
24.658,381292,173,410903
24.663,381275,172,410923
24.668,381288,173,410921
24.672,381290,171,410926
24.677,381297,172,410919
24.682,381352,171,410916
24.687,381347,179,410902
24.692,381357,178,410955
24.697,381364,177,410928
24.702,381412,172,410946
24.707,381421,173,410918
24.712,381437,172,410987
24.717,381443,172,410963
24.722,381468,172,410980
24.727,381506,172,411001
24.732,381560,171,410985
24.737,381538,171,411034
24.742,381574,171,411003
24.747,381582,180,411016
24.752,381616,173,411028
24.757,381647,173,411043
24.762,381668,173,411023
24.767,381654,173,411026
24.772,381685,173,411002
24.777,381698,173,411028
24.782,381733,173,411026
24.787,381741,174,411023
24.792,381773,172,411048
24.797,381800,172,411049
24.802,381787,176,411050
24.806,381839,176,411029
24.811,381862,174,411071
24.816,381855,174,411043
24.821,381886,175,411067
24.826,381928,174,411022
24.831,381921,173,411082
24.836,381981,173,411048
24.841,381969,174,411009
24.846,381952,173,410995
24.851,381952,171,411036
24.856,381960,171,411035
24.861,381926,171,410973
24.866,381891,172,410966
24.871,381856,172,410914
24.876,381767,171,410875
24.881,381690,171,410809
24.886,381593,179,410749
24.891,381491,178,410681
24.896,381419,171,410584
24.901,381235,172,410518
24.906,381134,172,410454
24.911,381050,171,410368
24.916,380923,170,410305
24.921,380784,179,410258
24.926,380703,178,410210
24.931,380597,177,410110
24.936,380485,176,410052
24.940,380380,176,409982
24.945,380285,171,409909
24.950,380239,171,409885
24.955,380190,178,409849
24.960,380112,178,409795
24.965,380066,178,409784
24.970,380015,177,409742
24.975,380012,175,409731
24.980,379947,177,409708
24.985,379955,175,409714
24.990,379926,175,409687
24.995,379887,178,409665
25.000,379880,178,409654
25.005,379843,177,409622
25.010,379850,177,409612
25.015,379816,176,409588
25.020,379785,176,409556
25.025,379761,175,409565
25.030,379777,176,409553
25.035,379748,175,409522
25.040,379733,177,409517
25.045,379675,175,409504
25.050,379688,175,409496
25.055,379678,174,409493
25.060,379686,175,409475
25.065,379646,172,409478
25.070,379649,172,409456
25.074,379625,171,409447
25.079,379631,172,409450
25.084,379641,171,409392
25.089,379657,172,409439
25.094,379627,173,409404
25.099,379650,174,409401
25.104,379669,173,409384
25.109,379635,173,409412
25.114,379642,172,409429
25.119,379648,173,409384
25.124,379655,172,409356
25.129,379668,172,409365
25.134,379664,171,409379
25.139,379678,175,409343
25.144,379696,173,409333
25.149,379669,174,409337
25.154,379665,172,409342
25.159,379627,174,409314
25.164,379644,173,409306
25.169,379595,173,409314
25.174,379605,171,409301
25.179,379619,172,409243
25.184,379608,171,409246
25.189,379579,174,409225
25.194,379598,173,409221
25.199,379525,174,409149
25.203,379523,173,409172
25.208,379511,174,409153
25.213,379497,172,409166
25.218,379517,173,409166
25.223,379502,171,409129
25.228,379501,172,409150
25.233,379531,177,409128
25.238,379516,174,409156
25.243,379501,172,409138
25.248,379510,172,409141
25.253,379538,170,409145
25.258,379536,180,409149
25.263,379574,178,409155
25.268,379577,178,409177
25.273,379584,176,409166
25.278,379573,178,409166
25.283,379597,176,409162
25.288,379624,176,409181
25.293,379630,174,409194
25.298,379652,176,409208
25.303,379645,175,409190
25.308,379674,175,409217
25.313,379692,173,409242
25.318,379745,174,409257
25.323,379753,174,409268
25.328,379787,175,409293
25.333,379835,174,409292
25.337,379853,178,409315
25.342,379865,176,409311
25.347,379895,177,409371
25.352,379918,175,409339
25.357,379949,176,409340
25.362,379959,174,409357
25.367,379997,174,409365
25.372,380010,172,409372
25.377,380019,173,409377
25.382,380059,174,409398
25.387,380090,177,409377
25.392,380117,175,409414
25.397,380129,177,409395
25.402,380168,176,409437
25.407,380182,177,409446
25.412,380182,176,409459
25.417,380198,177,409488
25.422,380235,176,409484
25.427,380267,177,409490
25.432,380276,175,409467
25.437,380242,172,409500
25.442,380300,171,409472
25.447,380319,179,409496
25.452,380318,178,409475
25.457,380295,179,409473
25.462,380353,178,409525
25.467,380331,179,409507
25.471,380358,177,409532
25.476,380376,178,409506
25.481,380410,173,409539
25.486,380423,173,409536
25.491,380440,171,409551
25.496,380457,171,409568
25.501,380499,178,409571
25.506,380516,177,409589
25.511,380555,176,409579
25.516,380563,176,409595
25.521,380604,174,409649
25.526,380662,175,409668
25.531,380685,177,409713
25.536,380707,178,409715
25.541,380693,176,409679
25.546,380679,176,409694
25.551,380666,175,409681
25.556,380605,175,409635
25.561,380548,175,409563
25.566,380459,175,409513
25.571,380377,174,409471
25.576,380261,173,409420
25.581,380164,172,409361
25.586,380089,173,409280
25.591,379976,171,409241
25.596,379842,171,409179
25.601,379753,178,409083
25.605,379660,179,409013
25.610,379542,171,408949
25.615,379450,179,408947
25.620,379398,178,408889
25.625,379296,179,408829
25.630,379232,174,408768
25.635,379196,174,408706
25.640,379131,174,408702
25.645,379071,175,408629
25.650,379037,175,408638
25.655,379020,175,408601
25.660,378961,175,408568
25.665,378931,175,408549
25.670,378888,176,408531
25.675,378855,174,408490
25.680,378868,172,408469
25.685,378847,172,408435
25.690,378785,171,408425
25.695,378752,171,408420
25.700,378735,171,408370
25.705,378670,171,408335
25.710,378649,178,408312
25.715,378648,178,408293
25.720,378583,179,408241
25.725,378594,174,408202
25.730,378537,173,408199
25.734,378517,173,408175
25.739,378487,173,408120
25.744,378466,172,408108
25.749,378430,172,408070
25.754,378408,172,408025
25.759,378398,172,408057
25.764,378383,172,408004
25.769,378386,172,407997
25.774,378397,173,407991
25.779,378374,173,407968
25.784,378388,173,407956
25.789,378411,173,407928
25.794,378364,172,407906
25.799,378404,173,407920
25.804,378394,172,407922
25.809,378409,173,407916
25.814,378424,171,407940
25.819,378435,172,407897
25.824,378454,174,407890
25.829,378443,175,407891
25.834,378461,173,407878
25.839,378432,174,407884
25.844,378443,173,407868
25.849,378428,173,407819
25.854,378448,172,407855
25.859,378435,174,407832
25.864,378437,173,407799
25.868,378428,174,407796
25.873,378416,176,407757
25.878,378398,177,407772
25.883,378396,176,407730
25.888,378395,178,407766
25.893,378372,178,407702
25.898,378363,178,407730
25.903,378410,177,407701
25.908,378382,177,407708
25.913,378392,176,407674
25.918,378383,181,407668
25.923,378382,175,407693
25.928,378380,176,407681
25.933,378389,175,407692
25.938,378408,176,407694
25.943,378418,174,407651
25.948,378427,175,407682
25.953,378419,173,407674
25.958,378442,174,407680
25.963,378465,173,407690
25.968,378483,178,407723
25.973,378473,177,407694
25.978,378505,179,407716
25.983,378544,177,407691
25.988,378563,178,407712
25.993,378542,177,407727
25.998,378580,179,407707
26.002,378605,177,407736
26.007,378620,177,407718
26.012,378644,175,407730
26.017,378634,172,407772
26.022,378684,171,407771
26.027,378696,171,407780
26.032,378692,177,407812
26.037,378706,178,407763
26.042,378761,177,407812
26.047,378774,178,407795
26.052,378739,176,407790
26.057,378770,177,407812
26.062,378786,177,407781
26.067,378820,172,407819
26.072,378835,171,407794
26.077,378835,172,407825
26.082,378881,172,407879
26.087,378878,172,407874
26.092,378898,171,407888
26.097,378903,172,407885
26.102,378949,171,407898
26.107,378929,172,407927
26.112,378981,170,407971
26.117,379044,174,407946
26.122,379026,173,407978
26.127,379037,174,408012
26.131,379055,172,408034
26.136,379082,173,408042
26.141,379120,172,408077
26.146,379133,173,408106
26.151,379137,171,408132
26.156,379188,172,408134
26.161,379217,171,408133
26.166,379228,174,408190
26.171,379259,172,408178
26.176,379285,173,408200
26.181,379329,173,408209
26.186,379319,174,408242
26.191,379339,172,408267
26.196,379369,174,408263
26.201,379326,173,408253
26.206,379367,174,408249
26.211,379293,174,408262
26.216,379267,178,408210
26.221,379216,170,408193
26.226,379182,172,408118
26.231,379045,171,408103
26.236,378988,172,408049
26.241,378904,171,408005
26.246,378770,172,407970
26.251,378672,171,407872
26.256,378547,171,407846
26.261,378441,172,407765
26.265,378321,173,407692
26.270,378204,171,407654
26.275,378110,179,407601
26.280,378050,176,407550
26.285,377949,176,407536
26.290,377850,175,407459
26.295,377803,175,407429
26.300,377740,174,407406
26.305,377694,175,407367
26.310,377639,178,407349
26.315,377592,178,407302
26.320,377543,176,407289
26.325,377536,176,407304
26.330,377495,174,407240
26.335,377466,175,407260
26.340,377448,173,407230
26.345,377432,174,407189
26.350,377383,172,407193
26.355,377370,174,407188
26.360,377347,176,407119
26.365,377306,176,407103
26.370,377262,174,407116
26.375,377239,175,407093
26.380,377189,174,407054
26.385,377175,175,407039
26.390,377156,173,407048
26.395,377105,173,406984
26.399,377099,172,406967
26.404,377072,173,406987
26.409,377057,171,406909
26.414,377005,178,406938
26.419,376992,177,406910
26.424,376979,177,406887
26.429,376983,176,406898
26.434,376956,176,406897
26.439,376977,175,406878
26.444,376986,175,406898
26.449,376993,173,406900
26.454,377015,173,406879
26.459,377003,175,406869
26.464,377000,175,406863
26.469,377000,174,406894
26.474,377029,173,406857
26.479,377051,173,406908
26.484,377041,173,406858
26.489,377035,172,406891
26.494,377045,172,406860
26.499,377054,172,406869
26.504,377012,175,406824
26.509,377015,175,406815
26.514,377031,174,406823
26.519,377026,175,406832
26.524,377001,174,406817
26.529,376992,173,406808
26.533,376989,172,406780
26.538,376987,173,406792
26.543,376976,172,406779
26.548,376953,172,406805
26.553,377015,176,406799
26.558,376954,177,406773
26.563,376948,176,406800
26.568,376973,176,406798
26.573,377011,174,406802
26.578,376986,174,406804
26.583,376988,174,406767
26.588,376994,173,406831
26.593,377031,173,406791
26.598,377028,173,406818
26.603,377030,175,406812
26.608,377047,175,406801
26.613,377068,174,406810
26.618,377082,174,406859
26.623,377091,174,406841
26.628,377098,174,406856
26.633,377144,172,406851
26.638,377195,172,406880
26.643,377189,172,406896
26.648,377162,172,406903
26.653,377192,171,406917
26.658,377234,171,406924
26.662,377242,178,406961
26.667,377273,176,406971
26.672,377279,174,406939
26.677,377345,174,406981
26.682,377333,173,406967
26.687,377341,173,407012
26.692,377391,171,407009
26.697,377388,173,407018
26.702,377406,174,407043
26.707,377413,175,407032
26.712,377436,173,407038
26.717,377466,174,407059
26.722,377486,173,407051
26.727,377503,173,407079
26.732,377499,172,407086
26.737,377551,172,407082
26.742,377548,171,407104
26.747,377581,172,407090
26.752,377614,172,407133
26.757,377624,173,407133
26.762,377640,171,407150
26.767,377639,171,407200
26.772,377678,177,407141
26.777,377707,176,407197
26.782,377718,175,407211
26.787,377766,175,407187
26.792,377709,173,407232
26.796,377780,176,407236
26.801,377808,175,407233
26.806,377833,175,407258
26.811,377868,173,407276
26.816,377895,175,407345
26.821,377950,174,407366
26.826,377968,174,407388
26.831,377974,172,407363
26.836,378030,173,407412
26.841,378036,171,407419
26.846,378065,176,407441
26.851,378109,174,407460
26.856,378132,175,407439
26.861,378148,173,407481
26.866,378164,173,407496
26.871,378187,171,407469
26.876,378186,173,407462
26.881,378152,171,407483
26.886,378151,171,407443
26.891,378104,177,407405
26.896,378033,173,407391
26.901,377959,172,407337
26.906,377872,172,407270
26.911,377781,171,407244
26.916,377687,171,407170
26.921,377556,170,407092
26.926,377465,179,407071
26.930,377365,176,406985
26.935,377225,177,406969
26.940,377116,176,406883
26.945,377023,172,406826
26.950,376945,170,406787
26.955,376853,178,406773
26.960,376795,175,406695
26.965,376738,176,406665
26.970,376674,173,406616
26.975,376657,174,406604
26.980,376603,173,406581
26.985,376526,174,406548
26.990,376502,174,406521
26.995,376470,176,406528
27.000,376451,175,406513
27.005,376409,175,406477
27.010,376372,173,406444
27.015,376375,174,406454
27.020,376366,172,406441
27.025,376317,173,406432
27.030,376289,171,406384
27.035,376249,172,406416
27.040,376236,174,406385
27.045,376240,175,406379
27.050,376177,173,406354
27.055,376147,174,406362
27.060,376175,174,406340
27.064,376107,176,406340
27.069,376098,174,406344
27.074,376047,176,406301
27.079,376094,174,406342
27.084,376047,176,406323
27.089,376054,171,406287
27.094,376052,174,406322
27.099,376060,173,406356
27.104,376044,174,406377
27.109,376103,172,406397
27.114,376128,173,406408
27.119,376139,172,406477
27.124,376202,172,406499
27.129,376234,170,406546
27.134,376233,171,406522
27.139,376278,173,406567
27.144,376320,173,406604
27.149,376361,171,406650
27.154,376421,172,406702
27.159,376456,171,406725
27.164,376504,179,406760
27.169,376500,176,406813
27.174,376532,176,406837
27.179,376561,175,406861
27.184,376606,176,406889
27.189,376632,170,406933
27.193,376673,170,406984
27.198,376671,170,406993
27.203,376714,176,407012
27.208,376707,177,407022
27.213,376757,178,407066
27.218,376772,178,407097
27.223,376786,179,407142
27.228,376836,177,407141
27.233,376795,173,407207
27.238,376870,173,407217
27.243,376896,173,407222
27.248,376934,172,407230
27.253,376954,172,407321
27.258,376983,171,407319
27.263,377006,171,407376
27.268,377082,170,407422
27.273,377093,177,407416
27.278,377126,177,407446
27.283,377126,172,407540
27.288,377222,172,407585
27.293,377251,172,407610
27.298,377311,171,407650
27.303,377328,174,407688
27.308,377406,171,407731
27.313,377434,171,407741
27.318,377449,171,407787
27.323,377492,171,407811
27.327,377538,171,407834
27.332,377563,173,407928
27.337,377622,173,407933
27.342,377630,174,407950
27.347,377669,173,407989
27.352,377725,173,408029
27.357,377765,173,408022
27.362,377801,173,408065
27.367,377833,172,408106
27.372,377840,171,408066
27.377,377842,171,408103
27.382,377900,177,408147
27.387,377958,172,408178
27.392,377994,171,408245
27.397,378069,170,408305
27.402,378083,178,408332
27.407,378144,177,408409
27.412,378190,176,408422
27.417,378218,176,408432
27.422,378211,175,408415
27.427,378254,174,408419
27.432,378244,173,408436
27.437,378270,174,408427
27.442,378279,174,408428
27.447,378289,175,408477
27.452,378330,174,408468
27.457,378335,175,408501
27.461,378373,175,408503
27.466,378424,174,408534
27.471,378417,173,408539
27.476,378445,175,408606
27.481,378521,177,408613
27.486,378542,178,408659
27.491,378551,176,408660
27.496,378586,177,408684
27.501,378605,177,408726
27.506,378650,177,408733
27.511,378686,176,408750
27.516,378684,177,408768
27.521,378750,177,408786
27.526,378798,169,408861
27.531,378809,172,408850
27.536,378842,173,408855
27.541,378838,173,408863
27.546,378881,173,408924
27.551,378924,173,408963
27.556,378950,175,408967
27.561,378985,175,409018
27.566,379027,175,409011
27.571,379052,174,409062
27.576,379064,171,409056
27.581,379094,171,409089
27.586,379153,172,409088
27.591,379158,171,409128
27.595,379187,173,409159
27.600,379188,172,409140
27.605,379191,173,409179
27.610,379151,171,409141
27.615,379143,174,409121
27.620,379066,173,409109
27.625,379003,178,409051
27.630,378914,177,408990
27.635,378786,171,408913
27.640,378704,171,408852
27.645,378571,172,408817
27.650,378462,172,408767
27.655,378349,173,408701
27.660,378238,173,408637
27.665,378133,174,408592
27.670,378041,173,408521
27.675,377958,177,408489
27.680,377883,176,408449
27.685,377765,177,408406
27.690,377717,175,408352
27.695,377682,176,408364
27.700,377597,175,408309
27.705,377553,175,408279
27.710,377497,173,408268
27.715,377451,176,408230
27.720,377416,176,408212
27.724,377387,173,408172
27.729,377351,173,408182
27.734,377295,174,408139
27.739,377262,173,408122
27.744,377219,174,408082
27.749,377196,172,408077
27.754,377161,174,408051
27.759,377114,173,408042
27.764,377090,175,408028
27.769,377058,174,407992
27.774,376993,174,407966
27.779,376913,173,407908
27.784,376896,175,407886
27.789,376837,174,407904
27.794,376833,176,407822
27.799,376824,175,407811
27.804,376746,176,407790
27.809,376750,174,407796
27.814,376704,175,407774
27.819,376679,170,407733
27.824,376655,171,407733
27.829,376620,170,407721
27.834,376619,171,407703
27.839,376600,170,407693
27.844,376611,171,407691
27.849,376606,170,407674
27.854,376619,171,407671
27.858,376635,171,407687
27.863,376637,172,407675
27.868,376650,173,407644
27.873,376635,175,407660
27.878,376633,174,407680
27.883,376641,175,407693
27.888,376640,172,407658
27.893,376654,175,407636
27.898,376683,174,407629
27.903,376678,174,407645
27.908,376696,173,407648
27.913,376702,174,407693
27.918,376745,177,407691
27.923,376768,178,407705
27.928,376811,176,407738
27.933,376777,178,407688
27.938,376790,177,407707
27.943,376763,177,407695
27.948,376760,175,407654
27.953,376748,176,407644
27.958,376736,175,407638
27.963,376715,176,407663
27.968,376704,170,407629
27.973,376744,178,407619
27.978,376736,177,407645
27.983,376717,178,407656
27.988,376731,175,407625
27.992,376738,176,407610
27.997,376711,174,407596
28.002,376693,175,407574
28.007,376695,173,407571
28.012,376688,175,407530
28.017,376697,172,407560
28.022,376695,174,407565
28.027,376652,172,407578
28.032,376684,173,407522
28.037,376685,173,407513
28.042,376673,173,407496
28.047,376659,172,407478
28.052,376722,172,407518
28.057,376699,172,407479
28.062,376740,172,407479
28.067,376689,174,407464
28.072,376712,174,407443
28.077,376681,173,407421
28.082,376679,173,407366
28.087,376695,171,407384
28.092,376764,172,407409
28.097,376801,171,407436
28.102,376835,171,407509
28.107,376877,170,407584
28.112,376961,173,407601
28.117,377034,173,407674
28.121,377084,174,407735
28.126,377112,172,407759
28.131,377095,173,407738
28.136,377130,172,407748
28.141,377092,172,407721
28.146,377107,171,407698
28.151,377102,171,407710
28.156,377132,171,407658
28.161,377094,173,407705
28.166,377125,172,407683
28.171,377150,172,407688
28.176,377159,172,407728
28.181,377136,173,407703
28.186,377164,172,407708
28.191,377165,172,407719
28.196,377155,172,407683
28.201,377175,172,407683
28.206,377179,170,407678
28.211,377169,170,407624
28.216,377177,170,407606
28.221,377175,171,407594
28.226,377137,178,407592
28.231,377190,177,407579
28.236,377175,177,407561
28.241,377192,178,407584
28.246,377222,177,407561
28.251,377198,176,407545
28.255,377194,177,407539
28.260,377171,173,407483
28.265,377185,172,407476
28.270,377184,172,407450
28.275,377240,173,407456
28.280,377249,173,407485
28.285,377328,174,407517
28.290,377383,174,407582
28.295,377478,175,407640
28.300,377521,175,407704
28.305,377582,178,407734
28.310,377608,170,407779
28.315,377609,171,407749
28.320,377649,172,407736
28.325,377617,172,407716
28.330,377648,172,407740
28.335,377682,172,407748
28.340,377691,173,407758
28.345,377732,173,407814
28.350,377759,172,407814
28.355,377775,176,407862
28.360,377786,177,407841
28.365,377785,176,407803
28.370,377746,176,407793
28.375,377719,176,407757
28.380,377653,176,407688
28.385,377612,177,407650
28.389,377469,176,407569
28.394,377425,176,407549
28.399,377294,176,407457
28.404,377177,172,407400
28.409,377057,171,407330
28.414,376964,171,407273
28.419,376822,171,407212
28.424,376740,171,407117
28.429,376631,170,407070
28.434,376528,171,407002
28.439,376429,171,406950
28.444,376361,172,406933
28.449,376275,172,406857
28.454,376230,172,406818
28.459,376189,172,406776
28.464,376102,172,406734
28.469,376090,170,406711
28.474,376041,171,406698
28.479,376049,171,406707
28.484,376015,171,406666
28.489,375984,170,406647
28.494,375948,171,406602
28.499,375933,170,406653
28.504,375954,174,406604
28.509,375950,172,406638
28.514,375952,174,406655
28.519,375927,173,406673
28.523,375967,174,406707
28.528,375945,173,406718
28.533,375894,174,406695
28.538,375870,173,406673
28.543,375873,174,406662
28.548,375790,176,406586
28.553,375770,177,406575
28.558,375706,176,406537
28.563,375680,177,406539
28.568,375664,176,406521
28.573,375645,177,406508
28.578,375615,175,406461
28.583,375599,177,406472
28.588,375564,176,406450
28.593,375592,178,406447
28.598,375550,180,406456
28.603,375576,174,406442
28.608,375580,173,406428
28.613,375584,175,406443
28.618,375603,174,406433
28.623,375611,175,406418
28.628,375636,173,406419
28.633,375663,174,406445
28.638,375681,174,406446
28.643,375688,174,406442
28.648,375696,176,406441
28.652,375680,177,406410
28.657,375710,176,406421
28.662,375690,178,406420
28.667,375697,170,406410
28.672,375702,172,406420
28.677,375745,171,406433
28.682,375742,173,406443
28.687,375776,172,406426
28.692,375779,174,406434
28.697,375818,176,406479
28.702,375822,178,406484
28.707,375871,176,406532
28.712,375893,178,406544
28.717,375901,177,406551
28.722,375920,171,406582
28.727,375934,170,406582
28.732,375983,172,406586
28.737,376013,171,406654
28.742,376094,173,406708
28.747,376095,174,406731
28.752,376136,176,406792
28.757,376204,174,406825
28.762,376201,177,406824
28.767,376232,175,406847
28.772,376236,177,406881
28.777,376277,176,406886
28.782,376266,178,406890
28.786,376276,170,406888
28.791,376305,172,406869
28.796,376303,174,406883
28.801,376320,177,406953
28.806,376355,176,406929
28.811,376383,178,406947
28.816,376409,177,406937
28.821,376400,171,406931
28.826,376417,170,406946
28.831,376451,172,406952
28.836,376436,172,406969
28.841,376508,175,406972
28.846,376488,175,406940
28.851,376500,177,406964
28.856,376533,177,406973
28.861,376529,171,407005
28.866,376545,170,406971
28.871,376586,172,406971
28.876,376598,172,407009
28.881,376641,175,406981
28.886,376646,173,407022
28.891,376669,172,407057
28.896,376706,171,407079
28.901,376748,173,407090
28.906,376760,172,407119
28.911,376829,174,407144
28.916,376842,174,407169
28.920,376867,177,407188
28.925,376904,175,407230
28.930,376974,177,407290
28.935,376977,177,407322
28.940,377081,173,407322
28.945,377069,172,407355
28.950,377109,174,407354
28.955,377170,174,407425
28.960,377219,176,407434
28.965,377263,176,407469
28.970,377297,179,407487
28.975,377371,171,407554
28.980,377364,173,407577
28.985,377446,172,407633
28.990,377510,177,407667
28.995,377542,176,407674
29.000,377565,177,407731
29.005,377633,176,407725
29.010,377673,178,407759
29.015,377688,171,407800
29.020,377721,172,407807
29.025,377763,171,407892
29.030,377781,172,407867
29.035,377818,173,407892
29.040,377838,177,407940
29.045,377871,176,407947
29.050,377908,178,407963
29.054,377931,177,407964
29.059,377968,179,408008
29.064,378010,177,408050
29.069,378006,170,408068
29.074,378081,171,408061
29.079,378103,172,408121
29.084,378151,170,408116
29.089,378178,175,408151
29.094,378193,175,408145
29.099,378223,176,408191
29.104,378264,176,408230
29.109,378275,176,408217
29.114,378320,177,408246
29.119,378365,178,408242
29.124,378380,177,408279
29.129,378405,178,408306
29.134,378423,173,408284
29.139,378427,174,408356
29.144,378421,175,408330
29.149,378360,175,408262
29.154,378329,175,408303
29.159,378308,176,408271
29.164,378218,176,408233
29.169,378177,176,408185
29.174,378061,177,408149
29.179,378031,177,408105
29.183,377942,170,408092
29.188,377843,177,408021
29.193,377713,171,407978
29.198,377603,172,407926
29.203,377575,172,407886
29.208,377492,173,407817
29.213,377408,175,407795
29.218,377369,175,407801
29.223,377282,176,407776
29.228,377234,178,407734
29.233,377190,172,407739
29.238,377215,173,407711
29.243,377177,174,407715
29.248,377169,173,407715
29.253,377158,174,407714
29.258,377176,175,407724
29.263,377203,175,407732
29.268,377157,176,407762
29.273,377151,176,407751
29.278,377169,177,407793
29.283,377141,172,407779
29.288,377175,172,407795
29.293,377188,173,407790
29.298,377161,173,407787
29.303,377153,172,407771
29.308,377136,172,407803
29.313,377147,173,407762
29.317,377142,173,407754
29.322,377145,172,407760
29.327,377154,171,407735
29.332,377117,175,407733
29.337,377118,175,407743
29.342,377128,175,407722
29.347,377137,173,407727
29.352,377153,174,407726
29.357,377170,174,407756
29.362,377188,174,407743
29.367,377210,173,407758
29.372,377235,174,407761
29.377,377285,178,407783
29.382,377293,171,407779
29.387,377326,170,407808
29.392,377366,171,407827
29.397,377381,171,407813
29.402,377392,171,407854
29.407,377406,171,407870
29.412,377456,172,407844
29.417,377422,172,407887
29.422,377450,174,407874
29.427,377483,176,407887
29.432,377492,178,407913
29.437,377476,170,407874
29.442,377504,172,407885
29.447,377516,171,407908
29.451,377486,172,407876
29.456,377526,172,407894
29.461,377525,173,407900
29.466,377517,172,407906
29.471,377533,173,407894
29.476,377562,176,407909
29.481,377543,178,407885
29.486,377554,177,407898
29.491,377546,171,407917
29.496,377548,171,407907
29.501,377545,172,407924
29.506,377587,171,407926
29.511,377615,172,407948
29.516,377629,171,407943
29.521,377654,172,407925
29.526,377646,177,407949
29.531,377675,178,407979
29.536,377705,178,407999
29.541,377720,171,408033
29.546,377722,170,408011
29.551,377764,179,407995
29.556,377753,177,408014
29.561,377801,171,408065
29.566,377836,170,408040
29.571,377841,173,408079
29.576,377897,170,408109
29.581,377908,171,408114
29.585,377947,171,408129
29.590,377969,172,408173
29.595,377988,171,408147
29.600,378066,172,408190
29.605,378017,171,408172
29.610,378071,173,408194
29.615,378122,172,408235
29.620,378144,177,408268
29.625,378184,175,408265
29.630,378228,177,408287
29.635,378256,175,408329
29.640,378293,175,408325
29.645,378317,172,408347
29.650,378350,174,408370
29.655,378406,173,408386
29.660,378462,174,408395
29.665,378476,172,408456
29.670,378525,177,408456
29.675,378540,176,408496
29.680,378591,178,408509
29.685,378638,175,408548
29.690,378683,177,408588
29.695,378747,175,408575
29.700,378777,177,408650
29.705,378818,174,408650
29.710,378872,176,408673
29.714,378914,174,408736
29.719,378955,179,408762
29.724,378990,175,408793
29.729,379064,177,408830
29.734,379080,176,408858
29.739,379129,177,408820
29.744,379161,175,408889
29.749,379222,175,408919
29.754,379254,173,408922
29.759,379314,174,408973
29.764,379339,172,409015
29.769,379391,177,409034
29.774,379449,175,409081
29.779,379486,177,409121
29.784,379513,174,409173
29.789,379581,175,409219
29.794,379639,174,409230
29.799,379686,175,409261
29.804,379762,173,409312
29.809,379828,174,409349
29.814,379880,173,409402
29.819,379951,172,409461
29.824,379989,170,409480
29.829,380022,171,409498
29.834,380081,170,409547
29.839,380109,171,409614
29.844,380194,170,409632
29.848,380235,171,409656
29.853,380226,170,409681
29.858,380292,179,409663
29.863,380324,169,409693
29.868,380284,173,409721
29.873,380304,172,409671
29.878,380260,173,409661
29.883,380194,172,409627
29.888,380155,172,409609
29.893,380087,172,409562
29.898,379988,173,409531
29.903,379943,172,409471
29.908,379834,172,409453
29.913,379777,175,409379
29.918,379688,177,409340
29.923,379577,175,409324
29.928,379490,176,409239
29.933,379399,176,409207
29.938,379352,178,409121
29.943,379266,177,409125
29.948,379232,177,409083
29.953,379145,176,409100
29.958,379083,177,409057
29.963,379073,171,409035
29.968,379010,172,408976
29.973,378986,170,408988
29.978,378967,179,409011
29.982,378944,177,408976
29.987,378936,177,408957
29.992,378924,177,408969
29.997,378884,178,408951
30.002,378890,177,408932
30.007,378854,176,408931
30.012,378803,175,408911
30.017,378812,176,408872
30.022,378805,175,408845
30.027,378776,175,408836
30.032,378748,175,408778
30.037,378709,175,408793
30.042,378715,174,408770
30.047,378662,174,408753
30.052,378641,174,408726
30.057,378583,175,408694
30.062,378616,177,408678
30.067,378546,176,408681
30.072,378528,176,408684
30.077,378536,176,408640
30.082,378524,175,408662
30.087,378518,175,408634
30.092,378524,176,408652
30.097,378526,176,408633
30.102,378519,175,408637
30.107,378542,177,408681
30.112,378537,171,408663
30.116,378576,171,408623
30.121,378557,171,408643
30.126,378545,171,408610
30.131,378542,171,408636
