df_hash,22ZHK4.3SLRU5
device,HZ2X61
project_hash,29R7
project_name,istanbul_aydin_university
person_hash,29R7.ZGH0
person_label,v105
date_time_start,2026-03-02_13-21-59.790000_+03
date_time_start_unix,1772443319.79
date_time_end,2026-03-02_13-29-41.789000_+03
length_difference_noticed,no

time,ppg_med
6.004,647
6.029,743
6.054,897
6.079,979
6.104,947
6.129,913
6.154,1002
6.179,1165
6.204,1227
6.229,1127
6.254,1021
6.279,1076
6.304,1227
6.329,1236
6.354,1022
6.379,795
6.404,782
6.429,894
6.454,813
6.479,431
6.504,32
6.529,-81
6.554,-30
6.579,-232
6.604,-826
6.629,-1438
6.654,-1670
6.679,-1679
6.704,-2010
6.729,-2837
6.754,-3675
6.779,-4008
6.804,-4040
6.829,-4466
6.854,-5509
6.879,-6542
6.904,-6910
6.929,-6872
6.954,-7309
6.979,-8498
7.004,-9645
7.029,-9925
7.054,-9664
7.079,-9968
7.104,-11184
7.129,-12314
7.154,-12327
7.179,-11631
7.204,-11610
7.229,-12695
7.254,-13642
7.279,-13166
7.304,-11779
7.329,-11207
7.354,-11992
7.379,-12585
7.404,-11381
7.429,-9024
7.454,-7673
7.479,-8016
7.504,-8116
7.529,-5958
7.554,-2349
7.579,-22
7.604,143
7.629,588
7.654,3886
7.679,9018
7.704,12466
7.729,13061
7.754,13955
7.779,18530
7.804,25480
7.829,30126
7.854,30829
7.879,31818
7.904,32767
7.929,32767
7.954,32767
7.979,32767
8.004,32767
8.029,32767
8.054,32767
8.079,32767
8.104,32767
8.129,32767
8.154,32767
8.179,32767
8.204,32767
8.229,32767
8.254,17268
8.279,-32768
8.304,-32768
8.329,-32768
8.354,-32768
8.379,-32768
8.404,-32768
8.429,-32768
8.454,-32768
8.479,-32768
8.504,-32768
8.529,-32768
8.554,-32768
8.579,-32768
8.604,-32768
8.629,-32768
8.654,-30631
8.679,-30496
8.704,-27561
8.729,-20966
8.754,-14954
8.779,-12776
8.804,-12588
8.829,-10414
8.854,-5560
8.879,-1177
8.904,259
8.929,128
8.954,1484
8.979,4881
9.004,7882
9.029,8549
9.054,7963
9.079,8534
9.104,10712
9.129,12572
9.154,12576
9.179,11584
9.204,11523
9.229,12755
9.254,13743
9.279,13255
9.304,11994
9.329,11522
9.354,12143
9.379,12619
9.404,11939
9.429,10640
9.454,9960
9.479,10146
9.504,10220
9.529,9389
9.554,8090
9.579,7313
9.604,7254
9.629,7137
9.654,6335
9.679,5193
9.704,4486
9.729,4361
9.754,4202
9.779,3520
9.804,2591
9.829,2024
9.854,1927
9.879,1813
9.904,1303
9.929,614
9.954,218
9.979,190
10.004,148
10.029,-196
10.054,-661
10.079,-868
10.104,-753
10.129,-617
10.154,-707
10.179,-916
10.204,-972
10.229,-821
10.254,-672
10.279,-699
10.304,-816
10.329,-827
10.354,-690
10.379,-555
10.404,-546
10.429,-598
10.454,-572
10.479,-444
10.504,-330
10.529,-317
10.554,-355
10.579,-333
10.604,-228
10.629,-133
10.654,-119
10.679,-148
10.704,-132
10.729,-52
10.754,16
10.779,14
10.804,-17
10.829,-9
10.854,19
10.879,82
10.904,154
10.929,213
10.954,257
10.979,296
11.004,335
11.029,370
11.054,391
11.079,396
11.104,395
11.129,397
11.154,402
11.179,403
11.204,396
11.229,383
11.254,368
11.279,353
11.304,337
11.329,317
11.354,294
11.379,267
11.404,235
11.429,202
11.454,170
11.479,139
11.504,104
11.529,63
11.554,24
11.579,7
11.604,27
11.629,82
11.654,150
11.679,211
11.704,256
11.729,292
11.754,326
11.779,357
11.804,376
11.829,378
11.854,371
11.879,365
11.904,366
11.929,370
11.954,370
11.979,361
12.004,345
12.029,328
12.054,311
12.079,294
12.104,273
12.129,248
12.154,221
12.179,193
12.204,165
12.229,131
12.254,90
12.279,44
12.304,5
12.329,-7
12.354,14
12.379,65
12.404,130
12.429,190
12.454,240
12.479,282
12.504,320
12.529,352
12.554,372
12.579,379
12.604,374
12.629,368
12.654,367
12.679,371
12.704,373
12.729,368
12.754,355
12.779,339
12.804,322
12.829,304
12.854,282
12.879,256
12.904,227
12.929,201
12.954,176
12.979,145
13.004,104
13.029,64
13.054,43
13.079,58
13.104,109
13.129,175
13.154,235
13.179,280
13.204,312
13.229,340
13.254,362
13.279,375
13.304,374
13.329,367
13.354,363
13.379,364
13.404,366
13.429,362
13.454,349
13.479,331
13.504,314
13.529,298
13.554,280
13.579,256
13.604,228
13.629,200
13.654,176
13.679,153
13.704,122
13.729,81
13.754,38
13.779,12
13.804,21
13.829,65
13.854,130
13.879,193
13.904,243
13.929,281
13.954,314
13.979,342
14.004,362
14.029,370
14.054,367
14.079,362
14.104,360
14.129,361
14.154,360
14.179,352
14.204,338
14.229,321
14.254,303
14.279,283
14.304,260
14.329,234
14.354,208
14.379,184
14.404,162
14.429,137
14.454,103
14.479,61
14.504,25
14.529,14
14.554,38
14.579,91
14.604,152
14.629,206
14.654,247
14.679,284
14.704,320
14.729,351
14.754,369
14.779,374
14.804,371
14.829,371
14.854,375
14.879,379
14.904,378
14.929,372
14.954,362
14.979,348
15.004,329
15.029,306
15.054,281
15.079,258
15.104,236
15.129,214
15.154,189
15.179,159
15.204,123
15.229,87
15.254,60
15.279,56
15.304,85
15.329,138
15.354,199
15.379,248
15.404,281
15.429,305
15.454,327
15.479,346
15.504,352
15.529,342
15.554,323
15.579,308
15.604,306
15.629,315
15.654,327
15.679,335
15.704,338
15.729,332
15.754,318
15.779,294
15.804,264
15.829,234
15.854,209
15.879,188
15.904,168
15.929,142
15.954,109
15.979,73
16.004,48
16.029,50
16.054,84
16.079,138
16.104,194
16.129,236
16.154,265
16.179,290
16.204,318
16.229,340
16.254,348
16.279,338
16.304,323
16.329,316
16.354,319
16.379,321
16.404,311
16.429,292
16.454,273
16.479,265
16.504,261
16.529,251
16.554,230
16.579,204
16.604,183
16.629,166
16.654,145
16.679,115
16.704,84
16.729,71
16.754,89
16.779,132
16.804,181
16.829,219
16.854,246
16.879,268
16.904,295
16.929,320
16.954,334
16.979,334
17.004,328
17.029,329
17.054,338
17.079,351
17.104,357
17.129,355
17.154,350
17.179,347
17.204,343
17.229,332
17.254,315
17.279,298
17.304,289
17.329,282
17.354,265
17.379,227
17.404,177
17.429,134
17.454,120
17.479,143
17.504,191
17.529,245
17.554,292
17.579,321
17.604,334
17.629,331
17.654,320
17.679,311
17.704,315
17.729,336
17.754,368
17.779,400
17.804,415
17.829,408
17.854,380
17.879,344
17.904,312
17.929,287
17.954,265
17.979,236
18.004,198
18.029,158
18.054,119
18.079,82
18.104,43
18.129,3
18.154,-23
18.179,-21
18.204,12
18.229,65
18.254,118
18.279,159
18.304,192
18.329,227
18.354,263
18.379,292
18.404,305
18.429,305
18.454,304
18.479,314
18.504,335
18.529,358
18.554,374
18.579,380
18.604,376
18.629,367
18.654,357
18.679,345
18.704,331
18.729,315
18.754,297
18.779,280
18.804,267
18.829,252
18.854,229
18.879,198
18.904,172
18.929,169
18.954,198
18.979,256
19.004,323
19.029,383
19.054,425
19.079,453
19.104,472
19.129,486
19.154,497
19.179,505
19.204,510
19.229,506
19.254,489
19.279,456
19.304,412
19.329,367
19.354,330
19.379,302
19.404,275
19.429,236
19.454,179
19.479,105
19.504,25
19.529,-49
19.554,-116
19.579,-183
19.604,-257
19.629,-334
19.654,-394
19.679,-420
19.704,-406
19.729,-371
19.754,-337
19.779,-316
19.804,-302
19.829,-282
19.854,-251
19.879,-213
19.904,-173
19.929,-120
19.954,-37
19.979,83
20.004,227
20.029,364
20.054,477
20.079,568
20.104,655
20.129,749
20.154,841
20.179,913
20.204,952
20.229,957
20.254,935
20.279,894
20.304,839
20.329,775
20.354,712
20.379,651
20.404,596
20.429,551
20.454,529
20.479,539
20.504,575
20.529,612
20.554,629
20.579,626
20.604,613
20.629,594
20.654,556
20.679,491
20.704,413
20.729,346
20.754,297
20.779,241
20.804,143
20.829,5
20.854,-132
20.879,-228
20.904,-279
20.929,-310
20.954,-337
20.979,-337
21.004,-289
21.029,-213
21.054,-169
21.079,-203
21.104,-291
21.129,-357
21.154,-336
21.179,-221
21.204,-52
21.229,126
21.254,291
21.279,428
21.304,525
21.329,575
21.354,596
21.379,613
21.404,626
21.429,600
21.454,504
21.479,355
21.504,223
21.529,166
21.554,188
21.579,247
21.604,305
21.629,365
21.654,456
21.679,583
21.704,708
21.729,780
21.754,763
21.779,659
21.804,499
21.829,329
21.854,201
21.879,151
21.904,181
21.929,248
21.954,294
21.979,291
22.004,255
22.029,217
22.054,192
22.079,163
22.104,114
22.129,54
22.154,12
22.179,6
22.204,24
22.229,36
22.254,17
22.279,-26
22.304,-73
22.329,-101
22.354,-102
22.379,-87
22.404,-81
22.429,-113
22.454,-198
22.479,-321
22.504,-436
22.529,-493
22.554,-462
22.579,-355
22.604,-210
22.629,-71
22.654,33
22.679,98
22.704,132
22.729,147
22.754,159
22.779,181
22.804,222
22.829,287
22.854,373
22.879,465
22.904,546
22.929,598
22.954,621
22.979,634
23.004,668
23.029,740
23.054,839
23.079,930
23.104,983
23.129,992
23.154,979
23.179,973
23.204,981
23.229,992
23.254,1001
23.279,1026
23.304,1102
23.329,1238
23.354,1394
23.379,1486
23.404,1439
23.429,1240
23.454,943
23.479,631
23.504,363
23.529,156
23.554,0
23.579,-116
23.604,-200
23.629,-257
23.654,-298
23.679,-330
23.704,-355
23.729,-366
23.754,-362
23.779,-350
23.804,-342
23.829,-342
23.854,-353
23.879,-381
23.904,-430
23.929,-494
23.954,-541
23.979,-538
24.004,-473
24.029,-368
24.054,-264
24.079,-182
24.104,-115
24.129,-47
24.154,26
24.179,92
24.204,136
24.229,167
24.254,203
24.279,253
24.304,306
24.329,344
24.354,361
24.379,364
24.404,363
24.429,359
24.454,348
24.479,331
24.504,316
24.529,301
24.554,273
24.579,222
24.604,160
24.629,123
24.654,145
24.679,223
24.704,323
24.729,407
24.754,461
24.779,498
24.804,534
24.829,565
24.854,577
24.879,565
24.904,547
24.929,539
24.954,543
24.979,540
25.004,519
25.029,482
25.054,441
25.079,401
25.104,355
25.129,299
25.154,242
25.179,200
25.204,173
25.229,143
25.254,91
25.279,25
25.304,-24
25.329,-28
25.354,19
25.379,97
25.404,178
25.429,252
25.454,317
25.479,374
25.504,413
25.529,428
25.554,422
25.579,405
25.604,385
25.629,369
25.654,363
25.679,369
25.704,382
25.729,392
25.754,385
25.779,361
25.804,327
25.829,291
25.854,254
25.879,216
25.904,183
25.929,165
25.954,157
25.979,139
26.004,89
26.029,16
26.054,-39
26.079,-41
26.104,15
26.129,100
26.154,179
26.179,244
26.204,310
26.229,381
26.254,440
26.279,464
26.304,451
26.329,426
26.354,416
26.379,426
26.404,439
26.429,439
26.454,425
26.479,406
26.504,387
26.529,367
26.554,341
26.579,311
26.604,279
26.629,249
26.654,222
26.679,194
26.704,163
26.729,121
26.754,64
26.779,0
26.804,-45
26.829,-49
26.854,-4
26.879,69
26.904,143
26.929,202
26.954,250
26.979,297
27.004,340
27.029,368
27.054,373
27.079,364
27.104,356
27.129,360
27.154,370
27.179,374
27.204,365
27.229,347
27.254,328
27.279,313
27.304,299
27.329,279
27.354,253
27.379,223
27.404,193
27.429,166
27.454,135
27.479,90
27.504,31
27.529,-26
27.554,-62
27.579,-59
27.604,-21
27.629,31
27.654,83
27.679,131
27.704,187
27.729,260
27.754,343
27.779,418
27.804,473
27.829,508
27.854,535
27.879,562
27.904,587
27.929,608
27.954,627
27.979,649
28.004,674
28.029,688
28.054,679
28.079,648
28.104,610
28.129,580
28.154,553
28.179,510
28.204,437
28.229,343
28.254,256
28.279,202
28.304,184
28.329,184
28.354,185
28.379,178
28.404,159
28.429,129
28.454,83
28.479,23
28.504,-42
28.529,-107
28.554,-176
28.579,-256
28.604,-344
28.629,-423
28.654,-479
28.679,-509
28.704,-523
28.729,-526
28.754,-513
28.779,-480
28.804,-434
28.829,-395
28.854,-369
28.879,-344
28.904,-308
28.929,-268
28.954,-245
28.979,-235
29.004,-190
29.029,-56
29.054,178
29.079,453
29.104,682
29.129,821
29.154,894
29.179,957
29.204,1033
29.229,1102
29.254,1132
29.279,1126
29.304,1115
29.329,1124
29.354,1143
29.379,1147
29.404,1119
29.429,1060
29.454,980
29.479,878
29.504,750
29.529,606
29.554,470
29.579,360
29.604,271
29.629,182
29.654,80
29.679,-27
29.704,-117
29.729,-167
29.754,-165
29.779,-120
29.804,-50
29.829,20
29.854,71
29.879,101
29.904,120
29.929,139
29.954,162
29.979,181
30.004,193
30.029,207
30.054,234
30.079,274
30.104,309
30.129,328
30.154,333
30.179,340
30.204,352
30.229,353
30.254,323
30.279,265
30.304,204
30.329,164
30.354,145
30.379,131
30.404,118
30.429,127
30.454,182
30.479,280
30.504,385
30.529,463
30.554,505
30.579,533
30.604,562
30.629,586
30.654,580
30.679,534
30.704,462
30.729,384
30.754,308
30.779,225
30.804,131
30.829,33
30.854,-54
30.879,-129
30.904,-195
30.929,-256
30.954,-303
30.979,-331
31.004,-349
31.029,-375
31.054,-415
31.079,-445
31.104,-429
31.129,-350
31.154,-232
31.179,-114
31.204,-20
31.229,56
31.254,134
31.279,212
31.304,275
31.329,307
31.354,316
31.379,324
31.404,347
31.429,377
31.454,402
31.479,418
31.504,434
31.529,454
31.554,472
31.579,474
31.604,460
31.629,442
31.654,431
31.679,420
31.704,394
31.729,345
31.754,296
31.779,280
31.804,317
31.829,394
31.854,480
31.879,555
31.904,621
31.929,692
31.954,768
31.979,834
32.004,871
32.029,878
32.054,875
32.079,882
32.104,901
32.129,911
32.154,894
32.179,846
32.204,780
32.229,714
32.254,652
32.279,590
32.304,522
32.329,449
32.354,363
32.379,253
32.404,108
32.429,-64
32.454,-237
32.479,-373
32.504,-456
32.529,-496
32.554,-519
32.579,-536
32.604,-540
32.629,-514
32.654,-454
32.679,-381
32.704,-317
32.729,-271
32.754,-235
32.779,-195
32.804,-147
32.829,-98
32.854,-55
32.879,-17
32.904,22
32.929,66
32.954,105
32.979,129
33.004,132
33.029,124
33.054,118
33.079,121
33.104,127
33.129,122
33.154,103
33.179,83
33.204,89
33.229,138
33.254,225
33.279,327
33.304,419
33.329,493
33.354,557
33.379,617
33.404,665
33.429,689
33.454,688
33.479,674
33.504,667
33.529,668
33.554,663
33.579,639
33.604,601
33.629,564
33.654,539
33.679,518
33.704,489
33.729,450
33.754,410
33.779,375
33.804,340
33.829,292
33.854,234
33.879,186
33.904,176
33.929,208
33.954,260
33.979,306
34.004,333
34.029,348
34.054,358
34.079,360
34.104,347
34.129,319
34.154,291
34.179,280
34.204,285
34.229,293
34.254,289
34.279,270
34.304,246
34.329,225
34.354,204
34.379,181
34.404,153
34.429,124
34.454,95
34.479,62
34.504,20
34.529,-27
34.554,-65
34.579,-71
34.604,-36
34.629,29
34.654,104
34.679,173
34.704,230
34.729,280
34.754,325
34.779,359
34.804,375
34.829,376
34.854,374
34.879,377
34.904,384
34.929,385
34.954,372
34.979,351
35.004,332
35.029,318
35.054,300
35.079,271
35.104,232
35.129,196
35.154,168
35.179,141
35.204,101
35.229,51
35.254,13
35.279,13
35.304,54
35.329,118
35.354,177
35.379,222
35.404,261
35.429,306
35.454,355
35.479,394
35.504,415
35.529,421
35.554,420
35.579,418
35.604,412
35.629,399
35.654,381
35.679,363
35.704,345
35.729,323
35.754,296
35.779,267
35.804,240
35.829,215
35.854,189
35.879,160
35.904,130
35.929,97
35.954,59
35.979,20
36.004,-5
36.029,1
36.054,47
36.079,116
36.104,184
36.129,236
36.154,277
36.179,320
36.204,365
36.229,398
36.254,409
36.279,403
36.304,398
36.329,401
36.354,408
36.379,408
36.404,397
36.429,383
36.454,371
36.479,358
36.504,339
36.529,313
36.554,287
36.579,262
36.604,236
36.629,204
36.654,169
36.679,139
36.704,113
36.729,81
36.754,41
36.779,7
36.804,3
36.829,44
36.854,116
36.879,190
36.904,245
36.929,280
36.954,309
36.979,340
37.004,368
37.029,384
37.054,387
37.079,386
37.104,388
37.129,393
37.154,394
37.179,389
37.204,379
37.229,364
37.254,346
37.279,325
37.304,301
37.329,277
37.354,252
37.379,223
37.404,194
37.429,166
37.454,138
37.479,104
37.504,63
37.529,26
37.554,12
37.579,37
37.604,94
37.629,159
37.654,213
37.679,251
37.704,284
37.729,320
37.754,351
37.779,364
37.804,359
37.829,346
37.854,342
37.879,350
37.904,360
37.929,359
37.954,345
37.979,328
38.004,316
38.029,307
38.054,294
38.079,270
38.104,242
38.129,216
38.154,192
38.179,163
38.204,120
38.229,72
38.254,41
38.279,48
38.304,96
38.329,167
38.354,237
38.379,293
38.404,337
38.429,377
38.454,411
38.479,432
38.504,436
38.529,429
38.554,422
38.579,422
38.604,427
38.629,427
38.654,418
38.679,400
38.704,379
38.729,356
38.754,332
38.779,305
38.804,274
38.829,238
38.854,201
38.879,164
38.904,128
38.929,87
38.954,30
38.979,-37
39.004,-97
39.029,-121
39.054,-95
39.079,-30
39.104,48
39.129,121
39.154,186
39.179,255
39.204,325
39.229,384
39.254,417
39.279,424
39.304,424
39.329,432
39.354,447
39.379,456
39.404,452
39.429,439
39.454,427
39.479,417
39.504,401
39.529,372
39.554,334
39.579,296
39.604,262
39.629,228
39.654,188
39.679,141
39.704,93
39.729,41
39.754,-17
39.779,-78
39.804,-123
39.829,-128
39.854,-84
39.879,-8
39.904,72
39.929,142
39.954,202
39.979,265
40.004,331
40.029,388
40.054,422
40.079,435
40.104,442
40.129,454
40.154,472
40.179,484
40.204,485
40.229,474
40.254,457
40.279,436
40.304,410
40.329,378
40.354,345
40.379,314
40.404,281
40.429,242
40.454,196
40.479,147
40.504,102
40.529,56
40.554,4
40.579,-46
40.604,-75
40.629,-59
40.654,4
40.679,93
40.704,173
40.729,231
40.754,276
40.779,326
40.804,382
40.829,426
40.854,444
40.879,441
40.904,436
40.929,443
40.954,456
40.979,459
41.004,447
41.029,425
41.054,404
41.079,382
41.104,356
41.129,324
41.154,291
41.179,261
41.204,227
41.229,187
41.254,142
41.279,104
41.304,74
41.329,43
41.354,1
41.379,-41
41.404,-56
41.429,-21
41.454,55
41.479,141
41.504,204
41.529,243
41.554,276
41.579,314
41.604,351
41.629,372
41.654,374
41.679,375
41.704,386
41.729,404
41.754,414
41.779,408
41.804,393
41.829,379
41.854,371
41.879,359
41.904,339
41.929,314
41.954,290
41.979,267
42.004,242
42.029,214
42.054,187
42.079,160
42.104,128
42.129,86
42.154,46
42.179,31
42.204,56
42.229,114
42.254,178
42.279,227
42.304,259
42.329,286
42.354,314
42.379,337
42.404,346
42.429,342
42.454,334
42.479,332
42.504,337
42.529,344
42.554,347
42.579,345
42.604,338
42.629,325
42.654,307
42.679,284
42.704,261
42.729,238
42.754,213
42.779,187
42.804,160
42.829,131
42.854,98
42.879,64
42.904,45
42.929,57
42.954,102
42.979,163
43.004,218
43.029,258
43.054,288
43.079,319
43.104,349
43.129,366
43.154,367
43.179,362
43.204,364
43.229,375
43.254,383
43.279,378
43.304,359
43.329,338
43.354,324
43.379,312
43.404,298
43.429,278
43.454,255
43.479,233
43.504,210
43.529,184
43.554,155
43.579,127
43.604,95
43.629,61
43.654,31
43.679,23
43.704,51
43.729,109
43.754,175
43.779,227
43.804,262
43.829,290
43.854,322
43.879,353
43.904,374
43.929,379
43.954,376
43.979,372
44.004,372
44.029,372
44.054,369
44.079,363
44.104,353
44.129,338
44.154,320
44.179,301
44.204,285
44.229,268
44.254,246
44.279,217
44.304,190
44.329,169
44.354,152
44.379,128
44.404,97
44.429,73
44.454,79
44.479,121
44.504,181
44.529,234
44.554,271
44.579,300
44.604,332
44.629,366
44.654,391
44.679,397
44.704,391
44.729,385
44.754,384
44.779,383
44.804,376
44.829,361
44.854,346
44.879,332
44.904,318
44.929,298
44.954,273
44.979,247
45.004,222
45.029,198
45.054,175
45.079,151
45.104,124
45.129,90
45.154,53
45.179,26
45.204,28
45.229,63
45.254,120
45.279,177
45.304,220
45.329,251
45.354,281
45.379,313
45.404,341
45.429,356
45.454,358
45.479,355
45.504,355
45.529,359
45.554,364
45.579,362
45.604,354
45.629,340
45.654,325
45.679,310
45.704,296
45.729,281
45.754,261
45.779,236
45.804,209
45.829,186
45.854,163
45.879,135
45.904,96
45.929,57
45.954,40
45.979,58
46.004,109
46.029,173
46.054,227
46.079,264
46.104,288
46.129,310
46.154,331
46.179,344
46.204,347
46.229,344
46.254,342
46.279,346
46.304,352
46.329,353
46.354,347
46.379,335
46.404,323
46.429,310
46.454,296
46.479,277
46.504,256
46.529,237
46.554,225
46.579,214
46.604,191
46.629,153
46.654,114
46.679,98
46.704,123
46.729,183
46.754,254
46.779,315
46.804,361
46.829,400
46.854,438
46.879,474
46.904,497
46.929,502
46.954,497
46.979,489
47.004,482
47.029,470
47.054,448
47.079,409
47.104,355
47.129,292
47.154,230
47.179,181
47.204,148
47.229,119
47.254,76
47.279,11
47.304,-56
47.329,-100
47.354,-105
47.379,-79
47.404,-40
47.429,2
47.454,53
47.479,121
47.504,194
47.529,252
47.554,280
47.579,287
47.604,296
47.629,320
47.654,353
47.679,374
47.704,375
47.729,363
47.754,355
47.779,361
47.804,374
47.829,382
47.854,378
47.879,363
47.904,345
47.929,329
47.954,310
47.979,283
48.004,249
48.029,216
48.054,192
48.079,176
48.104,155
48.129,116
48.154,62
48.179,15
48.204,1
48.229,32
48.254,94
48.279,161
48.304,218
48.329,264
48.354,311
48.379,359
48.404,403
48.429,431
48.454,441
48.479,441
48.504,439
48.529,438
48.554,437
48.579,435
48.604,427
48.629,410
48.654,383
48.679,349
48.704,313
48.729,280
48.754,249
48.779,218
48.804,185
48.829,152
48.854,119
48.879,80
48.904,34
48.929,-6
48.954,-21
48.979,4
49.004,64
49.029,136
49.054,196
49.079,239
49.104,275
49.129,314
49.154,351
49.179,374
49.204,376
49.229,368
49.254,364
49.279,374
49.304,388
49.329,391
49.354,378
49.379,355
49.404,335
49.429,319
49.454,302
49.479,275
49.504,240
49.529,207
49.554,181
49.579,157
49.604,121
49.629,71
49.654,22
49.679,2
49.704,28
49.729,92
49.754,169
49.779,235
49.804,282
49.829,318
49.854,352
49.879,383
49.904,401
49.929,403
49.954,396
49.979,394
50.004,402
50.029,412
50.054,411
50.079,393
50.104,364
50.129,333
50.154,305
50.179,273
50.204,236
50.229,195
50.254,160
50.279,129
50.304,95
50.329,50
50.354,1
50.379,-30
50.404,-22
50.429,25
50.454,96
50.479,167
50.504,225
50.529,275
50.554,322
50.579,363
50.604,391
50.629,403
50.654,404
50.679,406
50.704,416
50.729,427
50.754,430
50.779,421
50.804,402
50.829,381
50.854,363
50.879,347
50.904,325
50.929,295
50.954,260
50.979,224
51.004,191
51.029,158
51.054,118
51.079,69
51.104,25
51.129,6
51.154,26
51.179,80
51.204,149
51.229,211
51.254,260
51.279,300
51.304,341
51.329,381
51.354,410
51.379,421
51.404,413
51.429,396
51.454,378
51.479,364
51.504,353
51.529,340
51.554,323
51.579,304
51.604,285
51.629,267
51.654,249
51.679,226
51.704,196
51.729,160
51.754,118
51.779,72
51.804,23
51.829,-18
51.854,-40
51.879,-30
51.904,14
51.929,78
51.954,143
51.979,200
52.004,248
52.029,295
52.054,337
52.079,367
52.104,381
52.129,383
52.154,385
52.179,392
52.204,402
52.229,407
52.254,400
52.279,387
52.304,371
52.329,357
52.354,342
52.379,321
52.404,295
52.429,266
52.454,238
52.479,213
52.504,188
52.529,157
52.554,121
52.579,88
52.604,75
52.629,93
52.654,138
52.679,193
52.704,237
52.729,264
52.754,280
52.779,298
52.804,319
52.829,335
52.854,338
52.879,334
52.904,333
52.929,341
52.954,352
52.979,354
53.004,345
53.029,331
53.054,317
53.079,305
53.104,290
53.129,268
53.154,246
53.179,231
53.204,220
53.229,203
53.254,172
53.279,133
53.304,108
53.329,114
53.354,150
53.379,199
53.404,241
53.429,271
53.454,294
53.479,317
53.504,338
53.529,349
53.554,344
53.579,330
53.604,320
53.629,323
53.654,334
53.679,339
53.704,332
53.729,314
53.754,296
53.779,282
53.804,268
53.829,247
53.854,218
53.879,187
53.904,159
53.929,133
53.954,103
53.979,67
54.004,35
54.029,24
54.054,46
54.079,98
54.104,166
54.129,230
54.154,283
54.179,324
54.204,359
54.229,386
54.254,401
54.279,404
54.304,399
54.329,396
54.354,399
54.379,406
54.404,408
54.429,400
54.454,386
54.479,370
54.504,352
54.529,327
54.554,291
54.579,247
54.604,206
54.629,173
54.654,141
54.679,100
54.704,47
54.729,0
54.754,-17
54.779,3
54.804,53
54.829,110
54.854,161
54.879,208
54.904,259
54.929,313
54.954,358
54.979,382
55.004,387
55.029,384
55.054,385
55.079,392
55.104,397
55.129,396
55.154,387
55.179,373
55.204,355
55.229,334
55.254,308
55.279,279
55.304,252
55.329,225
55.354,197
55.379,162
55.404,120
55.429,73
55.454,30
55.479,7
55.504,14
55.529,53
55.554,113
55.579,176
55.604,228
55.629,268
55.654,304
55.679,339
55.704,369
55.729,386
55.754,387
55.779,380
55.804,378
55.829,384
55.854,392
55.879,392
55.904,381
55.929,365
55.954,348
55.979,329
56.004,301
56.029,266
56.054,230
56.079,201
56.104,175
56.129,142
56.154,96
56.179,50
56.204,31
56.229,53
56.254,112
56.279,182
56.304,240
56.329,282
56.354,317
56.379,353
56.404,384
56.429,400
56.454,396
56.479,384
56.504,376
56.529,379
56.554,385
56.579,384
56.604,373
56.629,356
56.654,337
56.679,315
56.704,284
56.729,247
56.754,211
56.779,180
56.804,148
56.829,103
56.854,46
56.879,-3
56.904,-17
56.929,14
56.954,81
56.979,156
57.004,219
57.029,270
57.054,319
57.079,366
57.104,403
57.129,421
57.154,423
57.179,419
57.204,417
57.229,418
57.254,416
57.279,408
57.304,393
57.329,373
57.354,346
57.379,313
57.404,278
57.429,245
57.454,214
57.479,181
57.504,144
57.529,105
57.554,66
57.579,19
57.604,-39
57.629,-101
57.654,-141
57.679,-135
57.704,-77
57.729,8
57.754,93
57.779,162
57.804,224
57.829,289
57.854,353
57.879,403
57.904,431
57.929,445
57.954,456
57.979,470
58.004,481
58.029,482
58.054,474
58.079,463
58.104,450
58.129,433
58.154,409
58.179,378
58.204,343
58.229,303
58.254,259
58.279,211
58.304,165
58.329,121
58.354,72
58.379,15
58.404,-34
58.429,-54
58.454,-25
58.479,44
58.504,128
58.529,200
58.554,255
58.579,304
58.604,354
58.629,400
58.654,426
58.679,427
58.704,416
58.729,408
58.754,412
58.779,421
58.804,424
58.829,414
58.854,394
58.879,370
58.904,345
58.929,320
58.954,291
58.979,259
59.004,222
59.029,186
59.054,152
59.079,118
59.104,77
59.129,32
59.154,-4
59.179,-13
59.204,17
59.229,81
59.254,155
59.279,219
59.304,266
59.329,304
59.354,340
59.379,371
59.404,387
59.429,384
59.454,374
59.479,372
59.504,384
59.529,397
59.554,395
59.579,373
59.604,344
59.629,324
59.654,316
59.679,306
59.704,280
59.729,239
59.754,200
59.779,172
59.804,145
59.829,104
59.854,45
59.879,-6
59.904,-17
59.929,22
59.954,94
59.979,164
60.004,216
60.029,253
60.054,289
60.079,324
60.104,349
60.129,355
60.154,349
60.179,347
60.204,355
60.229,367
60.254,374
60.279,370
60.304,358
60.329,341
60.354,324
60.379,307
60.404,290
60.429,271
60.454,247
60.479,218
60.504,189
60.529,163
60.554,137
60.579,106
60.604,69
60.629,43
60.654,49
60.679,94
60.704,164
60.729,231
60.754,278
60.779,310
60.804,340
60.829,371
60.854,394
60.879,401
60.904,396
60.929,388
60.954,385
60.979,384
61.004,378
61.029,366
61.054,351
61.079,336
61.104,319
61.129,301
61.154,283
61.179,264
61.204,244
61.229,219
61.254,189
61.279,157
61.304,126
61.329,95
61.354,64
61.379,42
61.404,45
61.429,80
61.454,139
61.479,198
61.504,242
61.529,273
61.554,301
61.579,330
61.604,352
61.629,360
61.654,355
61.679,350
61.704,349
61.729,352
61.754,352
61.779,347
61.804,340
61.829,332
61.854,322
61.879,305
61.904,285
61.929,264
61.954,242
61.979,219
62.004,194
62.029,170
62.054,146
62.079,119
62.104,86
62.129,56
62.154,46
62.179,71
62.204,124
62.229,183
62.254,230
62.279,263
62.304,294
62.329,329
62.354,360
62.379,374
62.404,369
62.429,355
62.454,349
62.479,353
62.504,360
62.529,361
62.554,352
62.579,338
62.604,323
62.629,310
62.654,299
62.679,288
62.704,273
62.729,252
62.754,226
62.779,201
62.804,180
62.829,161
62.854,136
62.879,107
62.904,88
62.929,96
62.954,137
62.979,198
63.004,258
63.029,302
63.054,334
63.079,360
63.104,387
63.129,408
63.154,416
63.179,415
63.204,410
63.229,409
63.254,411
63.279,407
63.304,393
63.329,370
63.354,345
63.379,322
63.404,298
63.429,269
63.454,236
63.479,203
63.504,174
63.529,147
63.554,115
63.579,75
63.604,35
63.629,12
63.654,20
63.679,59
63.704,114
63.729,168
63.754,212
63.779,246
63.804,272
63.829,292
63.854,303
63.879,307
63.904,309
63.929,316
63.954,329
63.979,343
64.004,353
64.029,356
64.054,351
64.079,340
64.104,326
64.129,310
64.154,291
64.179,268
64.204,242
64.229,214
64.254,187
64.279,157
64.304,122
64.329,84
64.354,53
64.379,48
64.404,78
64.429,134
64.454,197
64.479,253
64.504,299
64.529,342
64.554,382
64.579,413
64.604,427
64.629,424
64.654,414
64.679,406
64.704,405
64.729,403
64.754,395
64.779,380
64.804,358
64.829,335
64.854,310
64.879,285
64.904,256
64.929,221
64.954,185
64.979,151
65.004,123
65.029,95
65.054,56
65.079,8
65.104,-31
65.129,-38
65.154,0
65.179,71
65.204,145
65.229,202
65.254,244
65.279,289
65.304,343
65.329,396
65.354,429
65.379,438
65.404,434
65.429,432
65.454,438
65.479,445
65.504,444
65.529,432
65.554,414
65.579,392
65.604,369
65.629,345
65.654,319
65.679,289
65.704,251
65.729,210
65.754,170
65.779,134
65.804,97
65.829,50
65.854,0
65.879,-38
65.904,-38
65.929,4
65.954,73
65.979,142
66.004,199
66.029,248
66.054,296
66.079,342
66.104,371
66.129,380
66.154,376
66.179,375
66.204,381
66.229,388
66.254,387
66.279,379
66.304,368
66.329,356
66.354,340
66.379,316
66.404,288
66.429,260
66.454,233
66.479,205
66.504,174
66.529,143
66.554,114
66.579,82
66.604,39
66.629,-4
66.654,-27
66.679,-8
66.704,52
66.729,134
66.754,208
66.779,263
66.804,307
66.829,352
66.854,395
66.879,426
66.904,440
66.929,443
66.954,444
66.979,447
67.004,450
67.029,448
67.054,440
67.079,427
67.104,409
67.129,387
67.154,361
67.179,336
67.204,309
67.229,278
67.254,242
67.279,205
67.304,173
67.329,141
67.354,102
67.379,52
67.404,8
67.429,-6
67.454,19
67.479,74
67.504,136
67.529,185
67.554,222
67.579,254
67.604,284
67.629,306
67.654,315
67.679,312
67.704,309
67.729,313
67.754,324
67.779,336
67.804,344
67.829,345
67.854,340
67.879,329
67.904,316
67.929,301
67.954,285
67.979,265
68.004,242
68.029,217
68.054,190
68.079,158
68.104,117
68.129,78
68.154,57
68.179,74
68.204,127
68.229,197
68.254,258
68.279,301
68.304,332
68.329,357
68.354,378
68.379,389
68.404,389
68.429,388
68.454,392
68.479,401
68.504,407
68.529,405
68.554,395
68.579,385
68.604,376
68.629,366
68.654,352
68.679,332
68.704,310
68.729,288
68.754,267
68.779,244
68.804,218
68.829,186
68.854,152
68.879,125
68.904,122
68.929,152
68.954,209
68.979,274
69.004,325
69.029,359
69.054,383
69.079,407
69.104,427
69.129,435
69.154,427
69.179,411
69.204,395
69.229,382
69.254,367
69.279,344
69.304,316
69.329,288
69.354,263
69.379,237
69.404,206
69.429,170
69.454,129
69.479,82
69.504,30
69.529,-26
69.554,-83
69.579,-138
69.604,-192
69.629,-245
69.654,-288
69.679,-308
69.704,-298
69.729,-270
69.754,-240
69.779,-213
69.804,-177
69.829,-110
69.854,-9
69.879,105
69.904,206
69.929,282
69.954,344
69.979,412
70.004,492
70.029,574
70.054,641
70.079,686
70.104,711
70.129,722
70.154,716
70.179,693
70.204,658
70.229,620
70.254,579
70.279,525
70.304,446
70.329,350
70.354,260
70.379,203
70.404,189
70.429,201
70.454,217
70.479,226
70.504,235
70.529,255
70.554,286
70.579,315
70.604,331
70.629,335
70.654,341
70.679,356
70.704,379
70.729,397
70.754,404
70.779,398
70.804,385
70.829,365
70.854,335
70.879,293
70.904,243
70.929,193
70.954,149
70.979,112
71.004,77
71.029,40
71.054,8
71.079,-7
71.104,4
71.129,46
71.154,107
71.179,168
71.204,219
71.229,260
71.254,297
71.279,334
71.304,363
71.329,379
71.354,380
71.379,376
71.404,375
71.429,380
71.454,385
71.479,384
71.504,376
71.529,362
71.554,344
71.579,318
71.604,286
71.629,255
71.654,232
71.679,215
71.704,194
71.729,165
71.754,138
71.779,135
71.804,167
71.829,223
71.854,280
71.879,321
71.904,350
71.929,376
71.954,403
71.979,420
72.004,416
72.029,395
72.054,372
72.079,361
72.104,358
72.129,353
72.154,339
72.179,317
72.204,292
72.229,264
72.254,231
72.279,194
72.304,159
72.329,127
72.354,93
72.379,45
72.404,-10
72.429,-57
72.454,-71
72.479,-47
72.504,0
72.529,47
72.554,84
72.579,115
72.604,146
72.629,176
72.654,196
72.679,197
72.704,183
72.729,165
72.754,148
72.779,130
72.804,109
72.829,83
72.854,57
72.879,36
72.904,22
72.929,17
72.954,23
72.979,45
73.004,79
73.029,112
73.054,127
73.079,125
73.104,118
73.129,131
73.154,175
73.179,249
73.204,337
73.229,426
73.254,512
73.279,592
73.304,655
73.329,690
73.354,692
73.379,673
73.404,648
73.429,629
73.454,610
73.479,582
73.504,544
73.529,504
73.554,469
73.579,439
73.604,403
73.629,358
73.654,309
73.679,261
73.704,213
73.729,158
73.754,95
73.779,45
73.804,30
73.829,56
73.854,105
73.879,154
73.904,190
73.929,217
73.954,245
73.979,271
74.004,288
74.029,292
74.054,291
74.079,296
74.104,310
74.129,326
74.154,336
74.179,339
74.204,335
74.229,321
74.254,293
74.279,259
74.304,227
74.329,203
74.354,181
74.379,147
74.404,102
74.429,65
74.454,58
74.479,86
74.504,135
74.529,182
74.554,216
74.579,244
74.604,273
74.629,299
74.654,312
74.679,310
74.704,302
74.729,299
74.754,304
74.779,308
74.804,301
74.829,286
74.854,270
74.879,261
74.904,252
74.929,233
74.954,203
74.979,168
75.004,138
75.029,117
75.054,96
75.079,65
75.104,26
75.129,-4
75.154,-8
75.179,23
75.204,80
75.229,143
75.254,198
75.279,243
75.304,285
75.329,326
75.354,360
75.379,381
75.404,388
75.429,386
75.454,386
75.479,392
75.504,401
75.529,405
75.554,398
75.579,382
75.604,359
75.629,337
75.654,318
75.679,301
75.704,279
75.729,250
75.754,219
75.779,192
75.804,169
75.829,143
75.854,106
75.879,63
75.904,36
75.929,44
75.954,88
75.979,147
76.004,198
76.029,233
76.054,262
76.079,297
76.104,333
76.129,360
76.154,368
76.179,366
76.204,365
76.229,372
76.254,382
76.279,386
76.304,380
76.329,370
76.354,359
76.379,346
76.404,328
76.429,305
76.454,284
76.479,264
76.504,243
76.529,217
76.554,187
76.579,160
76.604,136
76.629,111
76.654,79
76.679,48
76.704,34
76.729,53
76.754,102
76.779,162
76.804,213
76.829,250
76.854,281
76.879,314
76.904,346
76.929,366
76.954,369
76.979,362
77.004,357
77.029,361
77.054,368
77.079,372
77.104,367
77.129,357
77.154,344
77.179,330
77.204,314
77.229,297
77.254,279
77.279,258
77.304,231
77.329,200
77.354,170
77.379,146
77.404,124
77.429,94
77.454,54
77.479,19
77.504,12
77.529,47
77.554,115
77.579,189
77.604,248
77.629,290
77.654,322
77.679,348
77.704,365
77.729,366
77.754,355
77.779,342
77.804,336
77.829,335
77.854,334
77.879,328
77.904,320
77.929,314
77.954,307
77.979,296
78.004,282
78.029,267
78.054,253
78.079,239
78.104,223
78.129,208
78.154,196
78.179,184
78.204,164
78.229,132
78.254,102
78.279,94
78.304,120
78.329,170
78.354,222
78.379,260
78.404,287
78.429,314
78.454,344
78.479,367
78.504,374
78.529,367
78.554,359
78.579,358
78.604,362
78.629,362
78.654,355
78.679,347
78.704,342
78.729,335
78.754,321
78.779,297
78.804,274
78.829,256
78.854,241
78.879,219
78.904,187
78.929,155
78.954,131
78.979,111
79.004,86
79.029,50
79.054,18
79.079,15
79.104,51
79.129,115
79.154,180
79.179,227
79.204,260
79.229,291
79.254,327
79.279,358
79.304,372
79.329,371
79.354,364
79.379,365
79.404,374
79.429,381
79.454,380
79.479,371
79.504,359
79.529,347
79.554,331
79.579,310
79.604,286
79.629,266
79.654,249
79.679,231
79.704,208
79.729,179
79.754,151
79.779,125
79.804,98
79.829,62
79.854,26
79.879,6
79.904,22
79.929,72
79.954,138
79.979,199
80.004,246
80.029,287
80.054,329
80.079,370
80.104,398
80.129,408
80.154,406
80.179,404
80.204,409
80.229,414
80.254,413
80.279,405
80.304,395
80.329,386
80.354,375
80.379,357
80.404,333
80.429,307
80.454,284
80.479,258
80.504,224
80.529,186
80.554,151
80.579,125
80.604,98
80.629,60
80.654,12
80.679,-21
80.704,-17
80.729,30
80.754,102
80.779,170
80.804,222
80.829,264
80.854,307
80.879,349
80.904,380
80.929,392
80.954,390
80.979,389
81.004,393
81.029,398
81.054,396
81.079,387
81.104,377
81.129,368
81.154,354
81.179,333
81.204,307
81.229,282
81.254,261
81.279,236
81.304,205
81.329,172
81.354,143
81.379,119
81.404,89
81.429,46
81.454,2
81.479,-18
81.504,4
81.529,64
81.554,139
81.579,205
81.604,256
81.629,297
81.654,335
81.679,365
81.704,381
81.729,383
81.754,379
81.779,378
81.804,382
81.829,387
81.854,387
81.879,380
81.904,366
81.929,348
81.954,330
81.979,311
82.004,290
82.029,265
82.054,239
82.079,215
82.104,194
82.129,170
82.154,135
82.179,90
82.204,54
82.229,49
82.254,84
82.279,147
82.304,214
82.329,266
82.354,304
82.379,334
82.404,359
82.429,374
82.454,374
82.479,365
82.504,356
82.529,354
82.554,358
82.579,362
82.604,359
82.629,350
82.654,334
82.679,315
82.704,291
82.729,266
82.754,238
82.779,209
82.804,179
82.829,148
82.854,115
82.879,77
82.904,34
82.929,-5
82.954,-26
82.979,-10
83.004,43
83.029,117
83.054,190
83.079,249
83.104,297
83.129,339
83.154,376
83.179,401
83.204,409
83.229,405
83.254,400
83.279,399
83.304,402
83.329,401
83.354,391
83.379,374
83.404,352
83.429,330
83.454,307
83.479,283
83.504,255
83.529,225
83.554,194
83.579,165
83.604,133
83.629,92
83.654,44
83.679,2
83.704,-14
83.729,6
83.754,60
83.779,128
83.804,188
83.829,236
83.854,276
83.879,315
83.904,351
83.929,373
83.954,379
83.979,374
84.004,371
84.029,375
84.054,384
84.079,390
84.104,389
84.129,378
84.154,361
84.179,340
84.204,318
84.229,295
84.254,267
84.279,234
84.304,201
84.329,167
84.354,132
84.379,91
84.404,47
84.429,13
84.454,12
84.479,50
84.504,115
84.529,182
84.554,233
84.579,268
84.604,302
84.629,340
84.654,373
84.679,388
84.704,385
84.729,376
84.754,376
84.779,386
84.804,393
84.829,386
84.854,366
84.879,345
84.904,330
84.929,318
84.954,300
84.979,273
85.004,241
85.029,214
85.054,190
85.079,163
85.104,125
85.129,81
85.154,48
85.179,45
85.204,77
85.229,132
85.254,190
85.279,236
85.304,269
85.329,296
85.354,321
85.379,337
85.404,340
85.429,331
85.454,321
85.479,320
85.504,326
85.529,329
85.554,323
85.579,310
85.604,298
85.629,289
85.654,278
85.679,260
85.704,236
85.729,214
85.754,200
85.779,186
85.804,163
85.829,130
85.854,103
85.879,99
85.904,126
85.929,172
85.954,218
85.979,254
86.004,280
86.029,303
86.054,323
86.079,332
86.104,328
86.129,317
86.154,309
86.179,309
86.204,314
86.229,318
86.254,319
86.279,318
86.304,317
86.329,315
86.354,304
86.379,284
86.404,259
86.429,233
86.454,205
86.479,171
86.504,133
86.529,101
86.554,93
86.579,116
86.604,163
86.629,213
86.654,253
86.679,280
86.704,303
86.729,325
86.754,343
86.779,350
86.804,344
86.829,334
86.854,330
86.879,332
86.904,333
86.929,326
86.954,309
86.979,290
87.004,276
87.029,266
87.054,253
87.079,232
87.104,207
87.129,187
87.154,170
87.179,149
87.204,118
87.229,84
87.254,64
87.279,77
87.304,121
87.329,177
87.354,224
87.379,254
87.404,275
87.429,299
87.454,325
87.479,344
87.504,347
87.529,339
87.554,333
87.579,337
87.604,347
87.629,351
87.654,340
87.679,320
87.704,302
87.729,291
87.754,281
87.779,264
87.804,240
87.829,215
87.854,193
87.879,172
87.904,145
87.929,113
87.954,90
87.979,90
88.004,119
88.029,165
88.054,213
88.079,250
88.104,279
88.129,306
88.154,331
88.179,351
88.204,360
88.229,359
88.254,353
88.279,347
88.304,346
88.329,346
88.354,345
88.379,338
88.404,326
88.429,310
88.454,293
88.479,277
88.504,259
88.529,240
88.554,219
88.579,198
88.604,175
88.629,144
88.654,107
88.679,74
88.704,63
88.729,87
88.754,138
88.779,194
88.804,237
88.829,262
88.854,282
88.879,307
88.904,333
88.929,348
88.954,345
88.979,334
89.004,330
89.029,337
89.054,346
89.079,346
89.104,334
89.129,318
89.154,306
89.179,297
89.204,281
89.229,256
89.254,229
89.279,208
89.304,194
89.329,174
89.354,143
89.379,108
89.404,92
89.429,111
89.454,160
89.479,220
89.504,269
89.529,302
89.554,325
89.579,344
89.604,358
89.629,363
89.654,358
89.679,350
89.704,346
89.729,344
89.754,338
89.779,326
89.804,311
89.829,297
89.854,285
89.879,270
89.904,251
89.929,229
89.954,211
89.979,192
90.004,165
90.029,129
90.054,93
90.079,78
90.104,97
90.129,147
90.154,208
90.179,262
90.204,303
90.229,336
90.254,364
90.279,384
90.304,393
90.329,389
90.354,382
90.379,382
90.404,389
90.429,392
90.454,381
90.479,355
90.504,323
90.529,294
90.554,268
90.579,238
90.604,202
90.629,165
90.654,132
90.679,101
90.704,63
90.729,11
90.754,-45
90.779,-82
90.804,-79
90.829,-37
90.854,26
90.879,89
90.904,143
90.929,195
90.954,248
90.979,299
91.004,336
91.029,355
91.054,364
91.079,372
91.104,385
91.129,398
91.154,406
91.179,404
91.204,398
91.229,390
91.254,380
91.279,366
91.304,345
91.329,321
91.354,297
91.379,275
91.404,251
91.429,216
91.454,166
91.479,106
91.504,56
91.529,37
91.554,60
91.579,116
91.604,183
91.629,243
91.654,290
91.679,330
91.704,367
91.729,397
91.754,415
91.779,417
91.804,411
91.829,406
91.854,403
91.879,401
91.904,392
91.929,374
91.954,352
91.979,330
92.004,311
92.029,292
92.054,270
92.079,241
92.104,209
92.129,179
92.154,151
92.179,117
92.204,71
92.229,19
92.254,-20
92.279,-22
92.304,18
92.329,88
92.354,158
92.379,212
92.404,251
92.429,289
92.454,329
92.479,362
92.504,375
92.529,372
92.554,368
92.579,372
92.604,383
92.629,387
92.654,377
92.679,358
92.704,338
92.729,317
92.754,291
92.779,257
92.804,223
92.829,197
92.854,173
92.879,141
92.904,96
92.929,54
92.954,40
92.979,69
93.004,129
93.029,194
93.054,244
93.079,280
93.104,313
93.129,345
93.154,368
93.179,372
93.204,361
93.229,352
93.254,354
93.279,361
93.304,363
93.329,354
93.354,340
93.379,328
93.404,315
93.429,293
93.454,259
93.479,221
93.504,188
93.529,158
93.554,120
93.579,72
93.604,25
93.629,3
93.654,19
93.679,69
93.704,134
93.729,196
93.754,248
93.779,292
93.804,328
93.829,353
93.854,364
93.879,365
93.904,362
93.929,362
93.954,366
93.979,368
94.004,363
94.029,350
94.054,334
94.079,317
94.104,301
94.129,281
94.154,255
94.179,223
94.204,191
94.229,164
94.254,137
94.279,101
94.304,56
94.329,18
94.354,8
94.379,35
94.404,92
94.429,155
94.454,208
94.479,251
94.504,290
94.529,328
94.554,360
94.579,376
94.604,378
94.629,375
94.654,375
94.679,380
94.704,383
94.729,382
94.754,374
94.779,361
94.804,343
94.829,324
94.854,306
94.879,289
94.904,272
94.929,251
94.954,227
94.979,200
95.004,170
95.029,134
95.054,94
95.079,63
95.104,59
95.129,88
95.154,142
95.179,198
95.204,240
95.229,271
95.254,301
95.279,333
95.304,361
95.329,373
95.354,370
95.379,362
95.404,361
95.429,365
95.454,369
95.479,365
95.504,355
95.529,342
95.554,329
95.579,313
95.604,295
95.629,273
95.654,250
95.679,226
95.704,205
95.729,184
95.754,162
95.779,133
95.804,98
95.829,68
95.854,59
95.879,82
95.904,132
95.929,189
95.954,236
95.979,266
96.004,287
96.029,307
96.054,323
96.079,329
96.104,323
96.129,313
96.154,310
96.179,316
96.204,322
96.229,321
96.254,310
96.279,295
96.304,281
96.329,270
96.354,259
96.379,245
96.404,230
96.429,216
96.454,201
96.479,181
96.504,152
96.529,117
96.554,89
96.579,82
96.604,105
96.629,151
96.654,206
96.679,254
96.704,289
96.729,312
96.754,329
96.779,341
96.804,346
96.829,342
96.854,334
96.879,326
96.904,323
96.929,320
96.954,315
96.979,306
97.004,298
97.029,294
97.054,291
97.079,281
97.104,257
97.129,220
97.154,183
97.179,152
97.204,126
97.229,97
97.254,63
97.279,35
97.304,32
97.329,67
97.354,132
97.379,208
97.404,275
97.429,327
97.454,370
97.479,408
97.504,437
97.529,447
97.554,441
97.579,429
97.604,423
97.629,425
97.654,427
97.679,417
97.704,393
97.729,366
97.754,343
97.779,325
97.804,306
97.829,278
97.854,244
97.879,211
97.904,180
97.929,148
97.954,108
97.979,62
98.004,26
98.029,16
98.054,43
98.079,95
98.104,152
98.129,198
98.154,230
98.179,257
98.204,283
98.229,308
98.254,322
98.279,325
98.304,325
98.329,330
98.354,341
98.379,349
98.404,345
98.429,329
98.454,312
98.479,301
98.504,294
98.529,279
98.554,252
98.579,220
98.604,190
98.629,165
98.654,136
98.679,97
98.704,54
98.729,27
98.754,34
98.779,78
98.804,142
98.829,205
98.854,256
98.879,295
98.904,330
98.929,360
98.954,380
98.979,385
99.004,379
99.029,372
99.054,372
99.079,380
99.104,385
99.129,380
99.154,365
99.179,346
99.204,328
99.229,311
99.254,289
99.279,260
99.304,229
99.329,201
99.354,176
99.379,144
99.404,101
99.429,57
99.454,37
99.479,56
99.504,110
99.529,175
99.554,230
99.579,267
99.604,299
99.629,331
99.654,358
99.679,369
99.704,362
99.729,351
99.754,348
99.779,355
99.804,358
99.829,349
99.854,331
99.879,314
99.904,303
99.929,291
99.954,268
99.979,238
100.004,209
100.029,184
100.054,157
100.079,119
100.104,78
100.129,56
100.154,74
100.179,128
100.204,194
100.229,250
100.254,289
100.279,321
100.304,352
100.329,378
100.354,387
100.379,377
100.404,360
100.429,351
100.454,354
100.479,357
100.504,350
100.529,331
100.554,307
100.579,286
100.604,266
100.629,244
100.654,215
100.679,184
100.704,155
100.729,127
100.754,92
100.779,48
100.804,4
100.829,-19
100.854,-6
100.879,43
100.904,115
100.929,187
100.954,243
100.979,285
101.004,321
101.029,353
101.054,379
101.079,391
101.104,390
101.129,385
101.154,386
101.179,392
101.204,395
101.229,388
101.254,371
101.279,352
101.304,333
101.329,310
101.354,278
101.379,240
101.404,205
101.429,177
101.454,147
101.479,106
101.504,52
101.529,5
101.554,-9
101.579,20
101.604,82
101.629,151
101.654,210
101.679,255
101.704,296
101.729,337
101.754,371
101.779,391
101.804,395
101.829,392
101.854,390
101.879,392
101.904,393
101.929,389
101.954,377
101.979,361
102.004,345
102.029,329
102.054,309
102.079,282
102.104,250
102.129,216
102.154,183
102.179,148
102.204,106
102.229,60
102.254,24
102.279,17
102.304,46
102.329,103
102.354,166
102.379,220
102.404,263
102.429,300
102.454,335
102.479,360
102.504,369
102.529,365
102.554,359
102.579,358
102.604,363
102.629,365
102.654,358
102.679,343
102.704,325
102.729,308
102.754,289
102.779,264
102.804,236
102.829,210
102.854,190
102.879,172
102.904,147
102.929,111
102.954,72
102.979,49
103.004,56
103.029,97
103.054,157
103.079,218
103.104,266
103.129,300
103.154,326
103.179,346
103.204,357
103.229,356
103.254,347
103.279,340
103.304,340
103.329,345
103.354,348
103.379,341
103.404,327
103.429,311
103.454,295
103.479,277
103.504,254
103.529,228
103.554,204
103.579,181
103.604,153
103.629,118
103.654,87
103.679,78
103.704,103
103.729,155
103.754,214
103.779,260
103.804,289
103.829,309
103.854,329
103.879,346
103.904,352
103.929,346
103.954,336
103.979,333
104.004,340
104.029,346
104.054,342
104.079,327
104.104,309
104.129,295
104.154,282
104.179,263
104.204,234
104.229,203
104.254,179
104.279,160
104.304,134
104.329,96
104.354,54
104.379,32
104.404,45
104.429,90
104.454,148
104.479,201
104.504,244
104.529,282
104.554,319
104.579,349
104.604,367
104.629,371
104.654,368
104.679,365
104.704,365
104.729,367
104.754,367
104.779,363
104.804,353
104.829,337
104.854,319
104.879,302
104.904,285
104.929,265
104.954,239
104.979,207
105.004,178
105.029,152
105.054,126
105.079,89
105.104,48
105.129,21
105.154,29
105.179,74
105.204,138
105.229,196
105.254,238
105.279,271
105.304,304
105.329,337
105.354,363
105.379,374
105.404,375
105.429,371
105.454,369
105.479,367
105.504,363
105.529,359
105.554,354
105.579,346
105.604,333
105.629,313
105.654,291
105.679,268
105.704,245
105.729,221
105.754,197
105.779,174
105.804,151
105.829,120
105.854,82
105.879,50
105.904,43
105.929,72
105.954,129
105.979,191
106.004,240
106.029,277
106.054,308
106.079,338
106.104,363
106.129,374
106.154,372
106.179,365
106.204,363
106.229,368
106.254,376
106.279,380
106.304,376
106.329,367
106.354,352
106.379,334
106.404,311
106.429,282
106.454,251
106.479,220
106.504,194
106.529,173
106.554,151
106.579,121
106.604,84
106.629,51
106.654,42
106.679,66
106.704,119
106.729,181
106.754,233
106.779,269
106.804,294
106.829,317
106.854,336
106.879,345
106.904,342
106.929,333
106.954,328
106.979,331
107.004,339
107.029,342
107.054,334
107.079,318
107.104,302
107.129,289
107.154,275
107.179,255
107.204,228
107.229,203
107.254,184
107.279,169
107.304,150
107.329,124
107.354,102
107.379,101
107.404,132
107.429,186
107.454,245
107.479,292
107.504,324
107.529,347
107.554,365
107.579,377
107.604,378
107.629,371
107.654,364
107.679,363
107.704,366
107.729,365
107.754,354
107.779,335
107.804,317
107.829,302
107.854,288
107.879,266
107.904,234
107.929,199
107.954,170
107.979,148
108.004,123
108.029,84
108.054,34
108.079,-6
108.104,-15
108.129,16
108.154,76
108.179,142
108.204,198
108.229,244
108.254,286
108.279,328
108.304,363
108.329,381
108.354,383
108.379,376
108.404,373
108.429,378
108.454,385
108.479,388
108.504,381
108.529,365
108.554,346
108.579,323
108.604,299
108.629,270
108.654,238
108.679,206
108.704,175
108.729,141
108.754,99
108.779,50
108.804,7
108.829,-11
108.854,7
108.879,60
108.904,127
108.929,193
108.954,248
108.979,296
109.004,341
109.029,379
109.054,402
109.079,409
109.104,405
109.129,401
109.154,402
109.179,406
109.204,407
109.229,402
109.254,389
109.279,371
109.304,351
109.329,328
109.354,301
109.379,268
109.404,233
109.429,198
109.454,163
109.479,124
109.504,78
109.529,30
109.554,-5
109.579,-9
109.604,26
109.629,92
109.654,165
109.679,229
109.704,281
109.729,326
109.754,364
109.779,392
109.804,402
109.829,397
109.854,388
109.879,386
109.904,391
109.929,393
109.954,386
109.979,371
110.004,355
110.029,341
110.054,326
110.079,303
110.104,270
110.129,234
110.154,203
110.179,179
110.204,151
110.229,108
110.254,53
110.279,5
110.304,-14
110.329,6
110.354,60
110.379,126
110.404,186
110.429,234
110.454,272
110.479,305
110.504,329
110.529,342
110.554,342
110.579,339
110.604,339
110.629,346
110.654,354
110.679,354
110.704,345
110.729,330
110.754,314
110.779,300
110.804,281
110.829,254
110.854,221
110.879,191
110.904,170
110.929,154
110.954,131
110.979,97
111.004,67
111.029,63
111.054,96
111.079,158
111.104,225
111.129,280
111.154,320
111.179,355
111.204,385
111.229,405
111.254,408
111.279,397
111.304,384
111.329,378
111.354,378
111.379,379
111.404,375
111.429,365
111.454,349
111.479,328
111.504,304
111.529,279
111.554,254
111.579,226
111.604,194
111.629,159
111.654,123
111.679,88
111.704,48
111.729,4
111.754,-30
111.779,-33
111.804,4
111.829,73
111.854,145
111.879,201
111.904,243
111.929,283
111.954,328
111.979,367
112.004,387
112.029,389
112.054,386
112.079,387
112.104,393
112.129,394
112.154,388
112.179,380
112.204,372
112.229,361
112.254,338
112.279,308
112.304,277
112.329,253
112.354,230
112.379,203
112.404,169
112.429,135
112.454,101
112.479,62
112.504,21
112.529,-6
112.554,0
112.579,47
112.604,118
112.629,186
112.654,235
112.679,273
112.704,314
112.729,357
112.754,389
112.779,400
112.804,397
112.829,394
112.854,399
112.879,405
112.904,404
112.929,395
112.954,385
112.979,377
113.004,364
113.029,342
113.054,314
113.079,289
113.104,267
113.129,240
113.154,203
113.179,161
113.204,127
113.229,101
113.254,71
113.279,30
113.304,-7
113.329,-13
113.354,28
113.379,100
113.404,170
113.429,218
113.454,252
113.479,290
113.504,336
113.529,374
113.554,388
113.579,383
113.604,376
113.629,380
113.654,390
113.679,396
113.704,391
113.729,381
113.754,369
113.779,355
113.804,334
113.829,309
113.854,286
113.879,268
113.904,248
113.929,221
113.954,189
113.979,159
114.004,130
114.029,97
114.054,60
114.079,30
114.104,31
114.129,71
114.154,136
114.179,202
114.204,250
114.229,283
114.254,310
114.279,333
114.304,348
114.329,350
114.354,345
114.379,344
114.404,351
114.429,359
114.454,361
114.479,355
114.504,345
114.529,334
114.554,322
114.579,307
114.604,291
114.629,274
114.654,253
114.679,227
114.704,199
114.729,171
114.754,143
114.779,107
114.804,63
114.829,26
114.854,20
114.879,58
114.904,127
114.929,202
114.954,260
114.979,300
115.004,333
115.029,364
115.054,386
115.079,394
115.104,390
115.129,385
115.154,386
115.179,390
115.204,388
115.229,380
115.254,369
115.279,355
115.304,337
115.329,312
115.354,283
115.379,256
115.404,230
115.429,201
115.454,166
115.479,130
115.504,96
115.529,58
115.554,10
115.579,-41
115.604,-72
115.629,-54
115.654,12
115.679,101
115.704,179
115.729,234
115.754,279
115.779,326
115.804,374
115.829,406
115.854,416
115.879,413
115.904,414
115.929,422
115.954,428
115.979,425
116.004,414
116.029,405
116.054,395
116.079,379
116.104,351
116.129,316
116.154,282
116.179,250
116.204,217
116.229,180
116.254,141
116.279,101
116.304,56
116.329,1
116.354,-51
116.379,-75
116.404,-47
116.429,26
116.454,118
116.479,197
116.504,254
116.529,303
116.554,352
116.579,399
116.604,430
116.629,440
116.654,439
116.679,438
116.704,441
116.729,445
116.754,442
116.779,433
116.804,420
116.829,402
116.854,379
116.879,350
116.904,318
116.929,283
116.954,244
116.979,203
117.004,163
117.029,124
117.054,82
117.079,29
117.104,-28
117.129,-71
117.154,-70
117.179,-17
117.204,67
117.229,155
117.254,223
117.279,274
117.304,318
117.329,360
117.354,392
117.379,404
117.404,400
117.429,392
117.454,390
117.479,395
117.504,399
117.529,395
117.554,383
117.579,366
117.604,348
117.629,327
117.654,297
117.679,259
117.704,218
117.729,182
117.754,155
117.779,126
117.804,86
117.829,33
117.854,-13
117.879,-27
117.904,7
117.929,82
117.954,167
117.979,241
118.004,296
118.029,341
118.054,381
118.079,411
118.104,423
118.129,417
118.154,406
118.179,400
118.204,403
118.229,408
118.254,405
118.279,391
118.304,367
118.329,339
118.354,311
118.379,283
118.404,253
118.429,217
118.454,177
118.479,135
118.504,93
118.529,49
118.554,-4
118.579,-61
118.604,-101
118.629,-99
118.654,-46
118.679,41
118.704,133
118.729,209
118.754,269
118.779,324
118.804,374
118.829,412
118.854,429
118.879,430
118.904,425
118.929,426
118.954,430
118.979,431
119.004,425
119.029,412
119.054,392
119.079,368
119.104,340
119.129,310
119.154,278
119.179,241
119.204,199
119.229,156
119.254,116
119.279,78
119.304,31
119.329,-27
119.354,-81
119.379,-98
119.404,-57
119.429,28
119.454,122
119.479,195
119.504,249
119.529,300
119.554,358
119.579,409
119.604,435
119.629,433
119.654,423
119.679,420
119.704,427
119.729,431
119.754,425
119.779,413
119.804,401
119.829,389
119.854,369
119.879,341
119.904,312
119.929,286
119.954,259
119.979,224
120.004,182
120.029,142
120.054,105
120.079,65
120.104,13
120.129,-37
120.154,-57
120.179,-23
120.204,53
120.229,141
120.254,208
120.279,255
120.304,297
120.329,343
120.354,385
120.379,406
120.404,406
120.429,399
120.454,399
120.479,404
120.504,405
120.529,398
120.554,388
120.579,379
120.604,369
120.629,350
120.654,323
120.679,294
120.704,269
120.729,245
120.754,214
120.779,178
120.804,146
120.829,122
120.854,94
120.879,53
120.904,6
120.929,-17
120.954,5
120.979,72
121.004,153
121.029,217
121.054,258
121.079,287
121.104,318
121.129,347
121.154,362
121.179,358
121.204,346
121.229,339
121.254,343
121.279,352
121.304,357
121.329,355
121.354,346
121.379,332
121.404,316
121.429,298
121.454,278
121.479,255
121.504,227
121.529,199
121.554,173
121.579,150
121.604,122
121.629,83
121.654,47
121.679,36
121.704,69
121.729,137
121.754,213
121.779,270
121.804,305
121.829,330
121.854,357
121.879,379
121.904,384
121.929,373
121.954,359
121.979,355
122.004,361
122.029,365
122.054,359
122.079,347
122.104,336
122.129,324
122.154,307
122.179,283
122.204,258
122.229,236
122.254,215
122.279,188
122.304,156
122.329,125
122.354,95
122.379,62
122.404,23
122.429,-10
122.454,-15
122.479,24
122.504,96
122.529,174
122.554,233
122.579,273
122.604,310
122.629,348
122.654,381
122.679,395
122.704,392
122.729,387
122.754,389
122.779,396
122.804,398
122.829,389
122.854,376
122.879,366
122.904,356
122.929,341
122.954,320
122.979,296
123.004,271
123.029,242
123.054,205
123.079,166
123.104,133
123.129,107
123.154,77
123.179,34
123.204,-9
123.229,-26
123.254,3
123.279,73
123.304,153
123.329,216
123.354,260
123.379,300
123.404,342
123.429,379
123.454,397
123.479,397
123.504,392
123.529,396
123.554,406
123.579,410
123.604,405
123.629,395
123.654,386
123.679,377
123.704,360
123.729,336
123.754,312
123.779,291
123.804,269
123.829,238
123.854,201
123.879,166
123.904,137
123.929,104
123.954,57
123.979,4
124.004,-27
124.029,-11
124.054,50
124.079,130
124.104,197
124.129,244
124.154,284
124.179,326
124.204,366
124.229,389
124.254,392
124.279,385
124.304,382
124.329,386
124.354,390
124.379,388
124.404,378
124.429,365
124.454,351
124.479,333
124.504,313
124.529,291
124.554,265
124.579,235
124.604,202
124.629,171
124.654,145
124.679,117
124.704,76
124.729,28
124.754,-6
124.779,0
124.804,54
124.829,136
124.854,215
124.879,273
124.904,316
124.929,353
124.954,384
124.979,401
125.004,398
125.029,385
125.054,379
125.079,384
125.104,393
125.129,396
125.154,387
125.179,370
125.204,349
125.229,327
125.254,304
125.279,281
125.304,255
125.329,224
125.354,187
125.379,148
125.404,113
125.429,76
125.454,29
125.479,-25
125.504,-68
125.529,-69
125.554,-13
125.579,77
125.604,169
125.629,238
125.654,288
125.679,336
125.704,385
125.729,422
125.754,435
125.779,428
125.804,421
125.829,424
125.854,432
125.879,434
125.904,426
125.929,413
125.954,398
125.979,379
126.004,350
126.029,315
126.054,281
126.079,251
126.104,217
126.129,176
126.154,132
126.179,92
126.204,51
126.229,0
126.254,-60
126.279,-108
126.304,-110
126.329,-54
126.354,37
126.379,129
126.404,199
126.429,255
126.454,312
126.479,371
126.504,416
126.529,437
126.554,439
126.579,437
126.604,440
126.629,445
126.654,444
126.679,437
126.704,428
126.729,416
126.754,396
126.779,366
126.804,331
126.829,300
126.854,271
126.879,237
126.904,194
126.929,149
126.954,107
126.979,64
127.004,10
127.029,-50
127.054,-95
127.079,-92
127.104,-31
127.129,62
127.154,156
127.179,227
127.204,282
127.229,332
127.254,381
127.279,416
127.304,431
127.329,431
127.354,428
127.379,431
127.404,437
127.429,439
127.454,432
127.479,418
127.504,397
127.529,373
127.554,347
127.579,321
127.604,293
127.629,259
127.654,218
127.679,177
127.704,141
127.729,107
127.754,65
127.779,10
127.804,-40
127.829,-59
127.854,-28
127.879,44
127.904,130
127.929,202
127.954,253
127.979,293
128.004,331
128.029,363
128.054,380
128.079,380
128.104,371
128.129,366
128.154,370
128.179,377
128.204,379
128.229,372
128.254,359
128.279,344
128.304,329
128.329,312
128.354,287
128.379,255
128.404,219
128.429,189
128.454,161
128.479,128
128.504,81
128.529,27
128.554,-7
128.579,3
128.604,64
128.629,151
128.654,230
128.679,285
128.704,321
128.729,353
128.754,382
128.779,400
128.804,401
128.829,390
128.854,382
128.879,383
128.904,388
128.929,386
128.954,373
128.979,353
129.004,333
129.029,312
129.054,290
129.079,266
129.104,240
129.129,211
129.154,179
129.179,148
129.204,116
129.229,82
129.254,39
129.279,-7
129.304,-43
129.329,-44
129.354,0
129.379,77
129.404,157
129.429,219
129.454,263
129.479,302
129.504,342
129.529,374
129.554,390
129.579,388
129.604,382
129.629,381
129.654,386
129.679,390
129.704,388
129.729,380
129.754,367
129.779,351
129.804,332
129.829,313
129.854,294
129.879,271
129.904,241
129.929,204
129.954,172
129.979,147
130.004,121
130.029,84
130.054,39
130.079,10
130.104,24
130.129,83
130.154,161
130.179,226
130.204,266
130.229,295
130.254,327
130.279,361
130.304,383
130.329,385
130.354,374
130.379,364
130.404,364
130.429,369
130.454,370
130.479,365
130.504,352
130.529,335
130.554,313
130.579,291
130.604,271
130.629,254
130.654,232
130.679,204
130.704,176
130.729,156
130.754,142
130.779,123
130.804,90
130.829,56
130.854,49
130.879,82
130.904,147
130.929,213
130.954,258
130.979,286
131.004,312
131.029,342
131.054,366
131.079,370
131.104,356
131.129,341
131.154,340
131.179,352
131.204,362
131.229,359
131.254,343
131.279,325
131.304,310
131.329,297
131.354,281
131.379,259
131.404,234
131.429,210
131.454,188
131.479,164
131.504,132
131.529,94
131.554,61
131.579,49
131.604,68
131.629,116
131.654,179
131.679,239
131.704,285
131.729,317
131.754,339
131.779,353
131.804,358
131.829,355
131.854,347
131.879,343
131.904,344
131.929,349
131.954,349
131.979,341
132.004,325
132.029,307
132.054,291
132.079,278
132.104,261
132.129,238
132.154,212
132.179,188
132.204,166
132.229,139
132.254,101
132.279,56
132.304,29
132.329,40
132.354,93
132.379,167
132.404,235
132.429,284
132.454,319
132.479,351
132.504,380
132.529,395
132.554,394
132.579,383
132.604,375
132.629,378
132.654,384
132.679,385
132.704,377
132.729,362
132.754,345
132.779,326
132.804,303
132.829,279
132.854,252
132.879,223
132.904,190
132.929,156
132.954,125
132.979,94
133.004,55
133.029,5
133.054,-39
133.079,-54
133.104,-19
133.129,55
133.154,140
133.179,206
133.204,251
133.229,291
133.254,338
133.279,384
133.304,415
133.329,423
133.354,416
133.379,409
133.404,409
133.429,412
133.454,411
133.479,402
133.504,386
133.529,364
133.554,339
133.579,313
133.604,289
133.629,263
133.654,231
133.679,195
133.704,157
133.729,123
133.754,85
133.779,37
133.804,-14
133.829,-50
133.854,-45
133.879,5
133.904,84
133.929,163
133.954,228
133.979,279
134.004,326
134.029,369
134.054,401
134.079,419
134.104,429
134.129,437
134.154,442
134.179,441
134.204,430
134.229,414
134.254,398
134.279,381
134.304,362
134.329,339
134.354,315
134.379,290
134.404,260
134.429,225
134.454,186
134.479,149
134.504,113
134.529,70
134.554,16
134.579,-32
134.604,-51
134.629,-20
134.654,52
134.679,139
134.704,214
134.729,271
134.754,317
134.779,358
134.804,389
134.829,401
134.854,397
134.879,388
134.904,386
134.929,394
134.954,407
134.979,414
135.004,411
135.029,398
135.054,379
135.079,356
135.104,331
135.129,302
135.154,268
135.179,230
135.204,194
135.229,164
135.254,135
135.279,96
135.304,45
135.329,-3
135.354,-22
135.379,4
135.404,68
135.429,143
135.454,204
135.479,249
135.504,284
135.529,316
135.554,339
135.579,343
135.604,330
135.629,317
135.654,317
135.679,333
135.704,350
135.729,356
135.754,347
135.779,329
135.804,313
135.829,300
135.854,284
135.879,261
135.904,233
135.929,203
135.954,175
135.979,143
136.004,102
136.029,56
136.054,26
136.079,37
136.104,96
136.129,185
136.154,274
136.179,342
136.204,387
136.229,420
136.254,445
136.279,457
136.304,450
136.329,426
136.354,400
136.379,383
136.404,376
136.429,373
136.454,365
136.479,349
136.504,327
136.529,301
136.554,273
136.579,245
136.604,217
136.629,183
136.654,144
136.679,101
136.704,63
136.729,28
136.754,-7
136.779,-48
136.804,-85
136.829,-93
136.854,-56
136.879,20
136.904,107
136.929,178
136.954,227
136.979,266
137.004,304
137.029,340
137.054,360
137.079,360
137.104,350
137.129,342
137.154,343
137.179,350
137.204,356
137.229,360
137.254,364
137.279,368
137.304,373
137.329,374
137.354,370
137.379,358
137.404,337
137.429,306
137.454,267
137.479,220
137.504,164
137.529,104
137.554,55
137.579,39
137.604,67
137.629,131
137.654,206
137.679,268
137.704,311
137.729,341
137.754,367
137.779,391
137.804,405
137.829,404
137.854,393
137.879,382
137.904,376
137.929,375
137.954,372
137.979,360
138.004,340
138.029,314
138.054,289
138.079,267
138.104,246
138.129,222
138.154,194
138.179,166
138.204,140
138.229,113
138.254,77
138.279,35
138.304,0
138.329,-6
138.354,26
138.379,90
138.404,163
138.429,224
138.454,267
138.479,299
138.504,328
138.529,351
138.554,365
138.579,367
138.604,360
138.629,355
138.654,355
138.679,358
138.704,358
138.729,350
138.754,336
138.779,319
138.804,305
138.829,289
138.854,269
138.879,240
138.904,210
138.929,183
138.954,161
138.979,137
139.004,105
139.029,70
139.054,52
139.079,69
139.104,123
139.129,192
139.154,252
139.179,290
139.204,313
139.229,331
139.254,347
139.279,354
139.304,350
139.329,341
139.354,334
139.379,334
139.404,335
139.429,329
139.454,314
139.479,298
139.504,289
139.529,283
139.554,271
139.579,248
139.604,217
139.629,191
139.654,174
139.679,157
139.704,127
139.729,85
139.754,49
139.779,43
139.804,79
139.829,144
139.854,215
139.879,270
139.904,307
139.929,335
139.954,357
139.979,373
140.004,377
140.029,371
140.054,363
140.079,361
140.104,367
140.129,373
140.154,372
140.179,363
140.204,348
140.229,332
140.254,316
140.279,301
140.304,283
140.329,259
140.354,230
140.379,202
140.404,177
140.429,152
140.454,119
140.479,83
140.504,58
140.529,65
140.554,114
140.579,190
140.604,267
140.629,322
140.654,355
140.679,376
140.704,395
140.729,408
140.754,407
140.779,390
140.804,369
140.829,355
140.854,351
140.879,347
140.904,335
140.929,313
140.954,289
140.979,267
141.004,246
141.029,219
141.054,184
141.079,145
141.104,110
141.129,82
141.154,53
141.179,14
141.204,-36
141.229,-80
141.254,-96
141.279,-68
141.304,-1
141.329,81
141.354,159
141.379,222
141.404,277
141.429,328
141.454,373
141.479,404
141.504,417
141.529,416
141.554,415
141.579,420
141.604,429
141.629,434
141.654,427
141.679,409
141.704,388
141.729,366
141.754,344
141.779,317
141.804,285
141.829,251
141.854,217
141.879,183
141.904,141
141.929,90
141.954,41
141.979,17
142.004,37
142.029,99
142.054,180
142.079,252
142.104,302
142.129,337
142.154,369
142.179,400
142.204,418
142.229,417
142.254,403
142.279,393
142.304,395
142.329,402
142.354,399
142.379,381
142.404,357
142.429,336
142.454,318
142.479,292
142.504,254
142.529,211
142.554,176
142.579,148
142.604,113
142.629,62
142.654,8
142.679,-19
142.704,2
142.729,67
142.754,145
142.779,207
142.804,250
142.829,285
142.854,320
142.879,349
142.904,359
142.929,351
142.954,340
142.979,341
143.004,353
143.029,360
143.054,352
143.079,335
143.104,319
143.129,307
143.154,290
143.179,262
143.204,226
143.229,195
143.254,171
143.279,142
143.304,98
143.329,48
143.354,20
143.379,40
143.404,107
143.429,193
143.454,266
143.479,314
143.504,347
143.529,375
143.554,399
143.579,407
143.604,396
143.629,377
143.654,366
143.679,367
143.704,371
143.729,366
143.754,348
143.779,324
143.804,301
143.829,278
143.854,249
143.879,213
143.904,176
143.929,142
143.954,108
143.979,66
144.004,13
144.029,-35
144.054,-52
144.079,-21
144.104,52
144.129,140
144.154,214
144.179,267
144.204,310
144.229,353
144.254,394
144.279,420
144.304,422
144.329,409
144.354,396
144.379,392
144.404,394
144.429,388
144.454,372
144.479,352
144.504,333
144.529,313
144.554,285
144.579,247
144.604,206
144.629,170
144.654,138
144.679,99
144.704,47
144.729,-2
144.754,-24
144.779,1
144.804,68
144.829,149
144.854,219
144.879,268
144.904,308
144.929,347
144.954,383
144.979,405
145.004,406
145.029,393
145.054,383
145.079,385
145.104,390
145.129,388
145.154,372
145.179,349
145.204,329
145.229,314
145.254,296
145.279,265
145.304,226
145.329,190
145.354,164
145.379,139
145.404,99
145.429,43
145.454,-6
145.479,-20
145.504,15
145.529,88
145.554,167
145.579,230
145.604,276
145.629,315
145.654,354
145.679,386
145.704,400
145.729,396
145.754,385
145.779,382
145.804,388
145.829,396
145.854,394
145.879,379
145.904,357
145.929,337
145.954,319
145.979,300
146.004,272
146.029,236
146.054,199
146.079,168
146.104,140
146.129,106
146.154,61
146.179,17
146.204,0
146.229,26
146.254,90
146.279,167
146.304,230
146.329,272
146.354,302
146.379,328
146.404,349
146.429,357
146.454,350
146.479,341
146.504,342
146.529,349
146.554,352
146.579,340
146.604,319
146.629,300
146.654,290
146.679,279
146.704,258
146.729,230
146.754,205
146.779,188
146.804,170
146.829,141
146.854,104
146.879,79
146.904,90
146.929,142
146.954,215
146.979,282
147.004,328
147.029,355
147.054,375
147.079,389
147.104,394
147.129,386
147.154,372
147.179,363
147.204,364
147.229,369
147.254,366
147.279,349
147.304,323
147.329,300
147.354,280
147.379,260
147.404,234
147.429,204
147.454,178
147.479,154
147.504,123
147.529,81
147.554,37
147.579,16
147.604,40
147.629,104
147.654,182
147.679,247
147.704,290
147.729,321
147.754,354
147.779,383
147.804,395
147.829,387
147.854,368
147.879,357
147.904,362
147.929,374
147.954,382
147.979,382
148.004,377
148.029,369
148.054,356
148.079,337
148.104,314
148.129,298
148.154,288
148.179,273
148.204,237
148.229,179
148.254,113
148.279,62
148.304,45
148.329,65
148.354,111
148.379,167
148.404,221
148.429,271
148.454,319
148.479,366
148.504,404
148.529,420
148.554,406
148.579,366
148.604,310
148.629,251
148.654,188
148.679,116
148.704,34
148.729,-49
148.754,-125
148.779,-181
148.804,-216
148.829,-232
148.854,-234
148.879,-225
148.904,-205
148.929,-166
148.954,-96
148.979,13
149.004,155
149.029,304
149.054,435
149.079,533
149.104,601
149.129,643
149.154,660
149.179,648
149.204,607
149.229,553
149.254,505
149.279,468
149.304,437
149.329,403
149.354,364
149.379,324
149.404,286
149.429,248
149.454,209
149.479,167
149.504,117
149.529,57
149.554,-8
149.579,-64
149.604,-81
149.629,-41
149.654,49
149.679,167
149.704,291
149.729,413
149.754,529
149.779,626
149.804,678
149.829,669
149.854,612
149.879,538
149.904,474
149.929,428
149.954,390
149.979,353
150.004,316
150.029,281
150.054,245
150.079,206
150.104,166
150.129,129
150.154,96
150.179,63
150.204,33
150.229,24
150.254,58
150.279,138
150.304,240
150.329,325
150.354,369
150.379,380
150.404,381
150.429,388
150.454,401
150.479,411
150.504,411
150.529,407
150.554,404
150.579,408
150.604,412
150.629,411
150.654,398
150.679,371
150.704,330
150.729,279
150.754,222
150.779,158
150.804,90
150.829,25
150.854,-23
150.879,-45
150.904,-39
150.929,-14
150.954,15
150.979,48
151.004,84
151.029,124
151.054,162
151.079,194
151.104,216
151.129,233
151.154,253
151.179,278
151.204,303
151.229,319
151.254,321
151.279,307
151.304,280
151.329,248
151.354,215
151.379,181
151.404,142
151.429,96
151.454,55
151.479,40
151.504,62
151.529,115
151.554,180
151.579,234
151.604,269
151.629,291
151.654,308
151.679,323
151.704,333
151.729,335
151.754,334
151.779,334
151.804,337
151.829,338
151.854,330
151.879,312
151.904,287
151.929,264
151.954,243
151.979,222
152.004,191
152.029,151
152.054,114
152.079,98
152.104,117
152.129,167
152.154,231
152.179,288
152.204,326
152.229,350
152.254,366
152.279,378
152.304,384
152.329,382
152.354,374
152.379,365
152.404,358
152.429,352
152.454,342
152.479,322
152.504,296
152.529,270
152.554,250
152.579,232
152.604,208
152.629,171
152.654,128
152.679,96
152.704,95
152.729,128
152.754,181
152.779,232
152.804,269
152.829,291
152.854,304
152.879,315
152.904,320
152.929,318
152.954,309
152.979,299
153.004,293
153.029,293
153.054,293
153.079,286
153.104,269
153.129,245
153.154,222
153.179,205
153.204,190
153.229,169
153.254,136
153.279,101
153.304,82
153.329,96
153.354,141
153.379,200
153.404,252
153.429,287
153.454,308
153.479,321
153.504,327
153.529,326
153.554,322
153.579,320
153.604,323
153.629,329
153.654,330
153.679,323
153.704,307
153.729,287
153.754,267
153.779,248
153.804,229
153.829,203
153.854,169
153.879,128
153.904,98
153.929,96
153.954,130
153.979,189
154.004,248
154.029,291
154.054,316
154.079,332
154.104,344
154.129,348
154.154,342
154.179,329
154.204,320
154.229,317
154.254,314
154.279,304
154.304,288
154.329,271
154.354,257
154.379,240
154.404,218
154.429,196
154.454,177
154.479,157
154.504,127
154.529,86
154.554,54
154.579,62
154.604,118
154.629,201
154.654,273
154.679,316
154.704,338
154.729,359
154.754,385
154.779,405
154.804,406
154.829,391
154.854,374
154.879,365
154.904,361
154.929,356
154.954,348
154.979,341
155.004,333
155.029,316
155.054,289
155.079,260
155.104,240
155.129,228
155.154,207
155.179,169
155.204,121
155.229,93
155.254,107
155.279,159
155.304,222
155.329,272
155.354,302
155.379,320
155.404,334
155.429,345
155.454,345
155.479,337
155.504,330
155.529,335
155.554,346
155.579,351
155.604,338
155.629,307
155.654,263
155.679,215
155.704,166
155.729,117
155.754,71
155.779,34
155.804,5
155.829,-21
155.854,-54
155.879,-92
155.904,-119
155.929,-111
155.954,-60
155.979,22
156.004,111
156.029,182
156.054,232
156.079,270
156.104,307
156.129,344
156.154,373
156.179,393
156.204,409
156.229,430
156.254,455
156.279,472
156.304,471
156.329,456
156.354,435
156.379,416
156.404,395
156.429,360
156.454,314
156.479,265
156.504,224
156.529,186
156.554,142
156.579,92
156.604,55
156.629,59
156.654,110
156.679,188
156.704,259
156.729,306
156.754,335
156.779,358
156.804,380
156.829,394
156.854,394
156.879,388
156.904,389
156.929,398
156.954,403
156.979,393
157.004,367
157.029,341
157.054,322
157.079,305
157.104,279
157.129,243
157.154,205
157.179,170
157.204,133
157.229,87
157.254,40
157.279,14
157.304,30
157.329,87
157.354,160
157.379,223
157.404,264
157.429,288
157.454,302
157.479,308
157.504,303
157.529,295
157.554,289
157.579,291
157.604,294
157.629,292
157.654,285
157.679,276
157.704,266
157.729,251
157.754,229
157.779,207
157.804,192
157.829,181
157.854,162
157.879,126
157.904,86
157.929,72
157.954,105
157.979,179
158.004,266
158.029,338
158.054,385
158.079,416
158.104,437
158.129,444
158.154,436
158.179,418
158.204,404
158.229,402
158.254,403
158.279,396
158.304,374
158.329,348
158.354,324
158.379,302
158.404,272
158.429,230
158.454,184
158.479,147
158.504,119
158.529,85
158.554,38
158.579,-11
158.604,-35
158.629,-12
158.654,52
158.679,130
158.704,189
158.729,219
158.754,235
158.779,251
158.804,271
158.829,288
158.854,295
158.879,296
158.904,302
158.929,316
158.954,330
158.979,335
159.004,330
159.029,319
159.054,305
159.079,286
159.104,259
159.129,225
159.154,193
159.179,165
159.204,136
159.229,97
159.254,49
159.279,7
159.304,-3
159.329,29
159.354,96
159.379,172
159.404,236
159.429,283
159.454,318
159.479,350
159.504,376
159.529,390
159.554,389
159.579,383
159.604,381
159.629,385
159.654,387
159.679,376
159.704,352
159.729,324
159.754,302
159.779,284
159.804,263
159.829,233
159.854,198
159.879,169
159.904,146
159.929,122
159.954,88
159.979,50
160.004,30
160.029,48
160.054,105
160.079,179
160.104,246
160.129,295
160.154,334
160.179,371
160.204,405
160.229,428
160.254,434
160.279,431
160.304,432
160.329,444
160.354,458
160.379,461
160.404,448
160.429,428
160.454,410
160.479,394
160.504,374
160.529,342
160.554,303
160.579,265
160.604,235
160.629,205
160.654,164
160.679,110
160.704,57
160.729,28
160.754,34
160.779,70
160.804,115
160.829,151
160.854,173
160.879,185
160.904,195
160.929,203
160.954,207
160.979,211
161.004,218
161.029,234
161.054,256
161.079,274
161.104,283
161.129,282
161.154,277
161.179,273
161.204,268
161.229,259
161.254,246
161.279,232
161.304,220
161.329,205
161.354,182
161.379,154
161.404,131
161.429,131
161.454,163
161.479,216
161.504,270
161.529,309
161.554,330
161.579,340
161.604,347
161.629,348
161.654,341
161.679,329
161.704,321
161.729,323
161.754,328
161.779,328
161.804,315
161.829,294
161.854,274
161.879,258
161.904,240
161.929,217
161.954,193
161.979,174
162.004,161
162.029,144
162.054,116
162.079,85
162.104,73
162.129,95
162.154,147
162.179,209
162.204,260
162.229,296
162.254,319
162.279,338
162.304,351
162.329,357
162.354,357
162.379,358
162.404,363
162.429,369
162.454,371
162.479,363
162.504,348
162.529,329
162.554,312
162.579,296
162.604,277
162.629,252
162.654,223
162.679,195
162.704,173
162.729,153
162.754,128
162.779,96
162.804,66
162.829,55
162.854,77
162.879,127
162.904,187
162.929,237
162.954,271
162.979,295
163.004,318
163.029,340
163.054,354
163.079,356
163.104,353
163.129,350
163.154,353
163.179,358
163.204,359
163.229,353
163.254,342
163.279,326
163.304,309
163.329,289
163.354,269
163.379,247
163.404,224
163.429,201
163.454,180
163.479,160
163.504,136
163.529,104
163.554,67
163.579,42
163.604,47
163.629,86
163.654,146
163.679,203
163.704,246
163.729,275
163.754,300
163.779,324
163.804,342
163.829,350
163.854,353
163.879,357
163.904,368
163.929,379
163.954,381
163.979,375
164.004,363
164.029,351
164.054,337
164.079,320
164.104,300
164.129,280
164.154,261
164.179,241
164.204,216
164.229,189
164.254,164
164.279,142
164.304,116
164.329,79
164.354,42
164.379,23
164.404,38
164.429,86
164.454,148
164.479,204
164.504,251
164.529,293
164.554,335
164.579,371
164.604,392
164.629,395
164.654,389
164.679,387
164.704,391
164.729,396
164.754,393
164.779,383
164.804,368
164.829,350
164.854,329
164.879,305
164.904,283
164.929,264
164.954,247
164.979,224
165.004,195
165.029,165
165.054,143
165.079,124
165.104,99
165.129,61
165.154,25
165.179,13
165.204,42
165.229,102
165.254,166
165.279,216
165.304,250
165.329,280
165.354,310
165.379,335
165.404,346
165.429,346
165.454,345
165.479,351
165.504,361
165.529,365
165.554,360
165.579,349
165.604,338
165.629,326
165.654,309
165.679,289
165.704,268
165.729,250
165.754,234
165.779,215
165.804,194
165.829,177
165.854,162
165.879,141
165.904,106
165.929,70
165.954,55
165.979,79
166.004,138
166.029,207
166.054,263
166.079,298
166.104,324
166.129,348
166.154,367
166.179,377
166.204,378
166.229,380
166.254,388
166.279,399
166.304,404
166.329,396
166.354,382
166.379,365
166.404,346
166.429,324
166.454,300
166.479,278
166.504,259
166.529,235
166.554,205
166.579,173
166.604,146
166.629,123
166.654,95
166.679,55
166.704,18
166.729,10
166.754,46
166.779,111
166.804,177
166.829,224
166.854,259
166.879,296
166.904,340
166.929,374
166.954,385
166.979,375
167.004,364
167.029,364
167.054,370
167.079,368
167.104,354
167.129,337
167.154,324
167.179,313
167.204,296
167.229,269
167.254,240
167.279,216
167.304,196
167.329,174
167.354,147
167.379,121
167.404,96
167.429,66
167.454,23
167.479,-18
167.504,-35
167.529,-6
167.554,64
167.579,147
167.604,217
167.629,267
167.654,309
167.679,352
167.704,391
167.729,416
167.754,424
167.779,427
167.804,434
167.829,443
167.854,446
167.879,439
167.904,426
167.929,411
167.954,392
167.979,366
168.004,333
168.029,299
168.054,268
168.079,237
168.104,202
168.129,165
168.154,130
168.179,96
168.204,58
168.229,14
168.254,-25
168.279,-35
168.304,-2
168.329,65
168.354,142
168.379,204
168.404,248
168.429,286
168.454,324
168.479,357
168.504,374
168.529,376
168.554,377
168.579,387
168.604,405
168.629,418
168.654,417
168.679,404
168.704,388
168.729,372
168.754,353
168.779,329
168.804,302
168.829,274
168.854,249
168.879,221
168.904,189
168.929,157
168.954,124
168.979,89
169.004,46
169.029,0
169.054,-32
169.079,-27
169.104,22
169.129,99
169.154,175
169.179,231
169.204,270
169.229,303
169.254,335
169.279,362
169.304,377
169.329,380
169.354,383
169.379,391
169.404,401
169.429,405
169.454,401
169.479,390
169.504,376
169.529,360
169.554,339
169.579,315
169.604,290
169.629,265
169.654,238
169.679,208
169.704,177
169.729,151
169.754,128
169.779,97
169.804,55
169.829,12
169.854,-8
169.879,10
169.904,67
169.929,138
169.954,198
169.979,239
170.004,269
170.029,297
170.054,319
170.079,330
170.104,330
170.129,330
170.154,339
170.179,355
170.204,369
170.229,372
170.254,365
170.279,353
170.304,341
170.329,330
170.354,317
170.379,303
170.404,288
170.429,270
170.454,248
170.479,225
170.504,204
170.529,187
170.554,165
170.579,133
170.604,100
170.629,82
170.654,97
170.679,142
170.704,199
170.729,250
170.754,290
170.779,324
170.804,354
170.829,373
170.854,377
170.879,366
170.904,354
170.929,349
170.954,350
170.979,348
171.004,338
171.029,324
171.054,311
171.079,297
171.104,280
171.129,259
171.154,239
171.179,222
171.204,205
171.229,184
171.254,160
171.279,136
171.304,116
171.329,93
171.354,66
171.379,42
171.404,41
171.429,73
171.454,132
171.479,193
171.504,236
171.529,261
171.554,282
171.579,306
171.604,329
171.629,340
171.654,340
171.679,338
171.704,344
171.729,356
171.754,365
171.779,364
171.804,355
171.829,343
171.854,330
171.879,314
171.904,294
171.929,273
171.954,254
171.979,235
172.004,214
172.029,193
172.054,174
172.079,154
172.104,127
172.129,93
172.154,66
172.179,67
172.204,105
172.229,167
172.254,224
172.279,259
172.304,276
172.329,292
172.354,312
172.379,331
172.404,338
172.429,336
172.454,335
172.479,341
172.504,349
172.529,347
172.554,333
172.579,315
172.604,300
172.629,290
172.654,277
172.679,261
172.704,244
172.729,228
172.754,211
172.779,188
172.804,163
172.829,143
172.854,130
172.879,120
172.904,108
172.929,102
172.954,117
172.979,161
173.004,226
173.029,288
173.054,332
173.079,360
173.104,385
173.129,412
173.154,435
173.179,442
173.204,431
173.229,408
173.254,386
173.279,370
173.304,361
173.329,356
173.354,347
173.379,327
173.404,294
173.429,249
173.454,204
173.479,167
173.504,143
173.529,126
173.554,113
173.579,104
173.604,96
173.629,84
173.654,63
173.679,39
173.704,28
173.729,45
173.754,88
173.779,143
173.804,192
173.829,231
173.854,264
173.879,297
173.904,324
173.929,340
173.954,346
173.979,349
174.004,356
174.029,365
174.054,371
174.079,371
174.104,368
174.129,364
174.154,359
174.179,348
174.204,330
174.229,308
174.254,284
174.279,261
174.304,240
174.329,220
174.354,198
174.379,171
174.404,137
174.429,104
174.454,86
174.479,96
174.504,133
174.529,182
174.554,228
174.579,262
174.604,288
174.629,308
174.654,322
174.679,327
174.704,324
174.729,321
174.754,324
174.779,334
174.804,345
174.829,350
174.854,347
174.879,336
174.904,324
174.929,311
174.954,299
174.979,285
175.004,267
175.029,247
175.054,228
175.079,207
175.104,183
175.129,152
175.154,120
175.179,99
175.204,105
175.229,140
175.254,191
175.279,239
175.304,275
175.329,297
175.354,315
175.379,331
175.404,343
175.429,345
175.454,340
175.479,335
175.504,336
175.529,341
175.554,345
175.579,340
175.604,324
175.629,303
175.654,281
175.679,262
175.704,243
175.729,219
175.754,192
175.779,165
175.804,143
175.829,123
175.854,96
175.879,58
175.904,19
175.929,0
175.954,15
175.979,63
176.004,124
176.029,181
176.054,226
176.079,265
176.104,303
176.129,340
176.154,367
176.179,381
176.204,384
176.229,383
176.254,384
176.279,385
176.304,385
176.329,381
176.354,370
176.379,355
176.404,336
176.429,316
176.454,293
176.479,266
176.504,235
176.529,204
176.554,177
176.579,150
176.604,115
176.629,69
176.654,24
176.679,4
176.704,27
176.729,84
176.754,149
176.779,203
176.804,244
176.829,284
176.854,330
176.879,372
176.904,397
176.929,400
176.954,395
176.979,394
177.004,402
177.029,412
177.054,413
177.079,403
177.104,385
177.129,362
177.154,339
177.179,315
177.204,288
177.229,259
177.254,225
177.279,192
177.304,161
177.329,130
177.354,93
177.379,48
177.404,7
177.429,-7
177.454,16
177.479,74
177.504,143
177.529,205
177.554,255
177.579,299
177.604,339
177.629,365
177.654,373
177.679,366
177.704,359
177.729,361
177.754,370
177.779,375
177.804,372
177.829,362
177.854,351
177.879,339
177.904,323
177.929,301
177.954,276
177.979,249
178.004,222
178.029,192
178.054,163
178.079,133
178.104,100
178.129,61
178.154,21
178.179,0
178.204,11
178.229,60
178.254,128
178.279,192
178.304,239
178.329,273
178.354,303
178.379,332
178.404,355
178.429,365
178.454,365
178.479,365
178.504,371
178.529,381
178.554,386
178.579,381
178.604,367
178.629,346
178.654,324
178.679,303
178.704,282
178.729,262
178.754,239
178.779,215
178.804,189
178.829,160
178.854,127
178.879,91
178.904,64
178.929,59
178.954,86
178.979,139
179.004,198
179.029,245
179.054,277
179.079,300
179.104,323
179.129,343
179.154,351
179.179,346
179.204,336
179.229,334
179.254,342
179.279,348
179.304,343
179.329,325
179.354,305
179.379,290
179.404,276
179.429,254
179.454,226
179.479,200
179.504,182
179.529,167
179.554,142
179.579,104
179.604,69
179.629,59
179.654,83
179.679,131
179.704,179
179.729,219
179.754,253
179.779,289
179.804,328
179.829,360
179.854,376
179.879,379
179.904,378
179.929,379
179.954,380
179.979,377
180.004,366
180.029,349
180.054,328
180.079,305
180.104,281
180.129,258
180.154,237
180.179,216
180.204,195
180.229,172
180.254,149
180.279,124
180.304,92
180.329,59
180.354,38
180.379,46
180.404,87
180.429,145
180.454,198
180.479,234
180.504,258
180.529,285
180.554,316
180.579,343
180.604,356
180.629,358
180.654,357
180.679,360
180.704,364
180.729,362
180.754,353
180.779,341
180.804,330
180.829,318
180.854,303
180.879,285
180.904,267
180.929,248
180.954,228
180.979,204
181.004,180
181.029,159
181.054,136
181.079,109
181.104,80
181.129,63
181.154,75
181.179,115
181.204,168
181.229,214
181.254,248
181.279,276
181.304,304
181.329,330
181.354,345
181.379,346
181.404,342
181.429,344
181.454,351
181.479,356
181.504,354
181.529,349
181.554,344
181.579,337
181.604,324
181.629,301
181.654,276
181.679,255
181.704,240
181.729,224
181.754,204
181.779,182
181.804,161
181.829,140
181.854,112
181.879,84
181.904,70
181.929,87
181.954,134
181.979,192
182.004,238
182.029,267
182.054,288
182.079,311
182.104,333
182.129,348
182.154,350
182.179,345
182.204,343
182.229,345
182.254,348
182.279,348
182.304,343
182.329,334
182.354,323
182.379,308
182.404,293
182.429,278
182.454,262
182.479,244
182.504,220
182.529,197
182.554,180
182.579,168
182.604,150
182.629,122
182.654,90
182.679,76
182.704,94
182.729,140
182.754,193
182.779,234
182.804,261
182.829,281
182.854,302
182.879,320
182.904,330
182.929,330
182.954,328
182.979,331
183.004,339
183.029,345
183.054,343
183.079,333
183.104,320
183.129,307
183.154,295
183.179,282
183.204,267
183.229,250
183.254,232
183.279,214
183.304,197
183.329,179
183.354,159
183.379,134
183.404,114
183.429,109
183.454,131
183.479,175
183.504,228
183.529,272
183.554,300
183.579,316
183.604,329
183.629,339
183.654,344
183.679,341
183.704,333
183.729,330
183.754,336
183.779,345
183.804,348
183.829,340
183.854,323
183.879,306
183.904,292
183.929,276
183.954,255
183.979,228
184.004,204
184.029,186
184.054,168
184.079,140
184.104,101
184.129,67
184.154,60
184.179,89
184.204,143
184.229,200
184.254,243
184.279,273
184.304,298
184.329,322
184.354,340
184.379,347
184.404,345
184.429,343
184.454,348
184.479,356
184.504,360
184.529,352
184.554,335
184.579,315
184.604,296
184.629,277
184.654,255
184.679,230
184.704,203
184.729,180
184.754,159
184.779,134
184.804,99
184.829,57
184.854,22
184.879,11
184.904,36
184.929,91
184.954,156
184.979,213
185.004,256
185.029,291
185.054,327
185.079,360
185.104,382
185.129,389
185.154,387
185.179,389
185.204,397
185.229,404
185.254,399
185.279,379
185.304,356
185.329,337
185.354,324
185.379,306
185.404,279
185.429,247
185.454,214
185.479,182
185.504,144
185.529,97
185.554,49
185.579,22
185.604,31
185.629,76
185.654,137
185.679,193
185.704,237
185.729,271
185.754,303
185.779,333
185.804,355
185.829,365
185.854,365
185.879,364
185.904,369
185.929,378
185.954,381
185.979,375
186.004,360
186.029,339
186.054,317
186.079,292
186.104,263
186.129,233
186.154,205
186.179,180
186.204,150
186.229,111
186.254,65
186.279,27
186.304,18
186.329,47
186.354,105
186.379,173
186.404,231
186.429,273
186.454,304
186.479,330
186.504,351
186.529,365
186.554,371
186.579,374
186.604,377
186.629,380
186.654,379
186.679,371
186.704,357
186.729,341
186.754,324
186.779,303
186.804,276
186.829,247
186.854,220
186.879,196
186.904,168
186.929,128
186.954,82
186.979,47
187.004,44
187.029,75
187.054,126
187.079,177
187.104,216
187.129,247
187.154,275
187.179,301
187.204,316
187.229,317
187.254,309
187.279,305
187.304,310
187.329,319
187.354,323
187.379,317
187.404,305
187.429,291
187.454,277
187.479,262
187.504,246
187.529,230
187.554,214
187.579,191
187.604,157
187.629,123
187.654,107
187.679,126
187.704,175
187.729,232
187.754,275
187.779,299
187.804,313
187.829,323
187.854,328
187.879,323
187.904,312
187.929,304
187.954,307
187.979,314
188.004,313
188.029,300
188.054,280
188.079,264
188.104,248
188.129,228
188.154,201
188.179,173
188.204,154
188.229,139
188.254,118
188.279,86
188.304,54
188.329,45
188.354,71
188.379,120
188.404,171
188.429,210
188.454,242
188.479,273
188.504,306
188.529,332
188.554,342
188.579,343
188.604,346
188.629,357
188.654,371
188.679,378
188.704,376
188.729,370
188.754,368
188.779,368
188.804,364
188.829,352
188.854,335
188.879,322
188.904,316
188.929,307
188.954,288
188.979,259
189.004,237
189.029,236
189.054,261
189.079,301
189.104,338
189.129,364
189.154,382
189.179,395
189.204,404
189.229,405
189.254,397
189.279,389
189.304,387
189.329,382
189.354,361
189.379,319
189.404,268
189.429,232
189.454,222
189.479,231
189.504,236
189.529,224
189.554,198
189.579,168
189.604,134
189.629,85
189.654,14
189.679,-69
189.704,-145
189.729,-189
189.754,-193
189.779,-163
189.804,-113
189.829,-58
189.854,-12
189.879,19
189.904,42
189.929,65
189.954,98
189.979,143
190.004,196
190.029,246
190.054,290
190.079,325
190.104,352
190.129,371
190.154,381
190.179,384
190.204,376
190.229,358
190.254,333
190.279,312
190.304,305
190.329,315
190.354,333
190.379,349
190.404,357
190.429,362
190.454,370
190.479,377
190.504,375
190.529,359
190.554,338
190.579,322
190.604,319
190.629,326
190.654,336
190.679,346
190.704,356
190.729,364
190.754,366
190.779,356
190.804,336
190.829,313
190.854,291
190.879,269
190.904,245
190.929,222
190.954,205
190.979,197
191.004,193
191.029,191
191.054,195
191.079,217
191.104,260
191.129,312
191.154,352
191.179,364
191.204,351
191.229,330
191.254,310
191.279,295
191.304,282
191.329,273
191.354,272
191.379,280
191.404,285
191.429,279
191.454,262
191.479,242
191.504,227
191.529,214
191.554,198
191.579,176
191.604,153
191.629,131
191.654,107
191.679,75
191.704,39
191.729,19
191.754,34
191.779,83
191.804,145
191.829,196
191.854,228
191.879,253
191.904,284
191.929,319
191.954,344
191.979,351
192.004,348
192.029,348
192.054,357
192.079,366
192.104,363
192.129,348
192.154,332
192.179,320
192.204,311
192.229,293
192.254,264
192.279,232
192.304,203
192.329,175
192.354,141
192.379,100
192.404,68
192.429,64
192.454,94
192.479,146
192.504,199
192.529,240
192.554,271
192.579,301
192.604,330
192.629,351
192.654,359
192.679,357
192.704,355
192.729,359
192.754,366
192.779,366
192.804,355
192.829,338
192.854,318
192.879,298
192.904,273
192.929,242
192.954,212
192.979,187
193.004,165
193.029,137
193.054,100
193.079,62
193.104,47
193.129,69
193.154,123
193.179,186
193.204,238
193.229,276
193.254,306
193.279,336
193.304,362
193.329,374
193.354,370
193.379,362
193.404,361
193.429,367
193.454,369
193.479,358
193.504,335
193.529,308
193.554,284
193.579,262
193.604,237
193.629,209
193.654,183
193.679,159
193.704,131
193.729,98
193.754,66
193.779,53
193.804,73
193.829,123
193.854,184
193.879,238
193.904,277
193.929,306
193.954,328
193.979,344
194.004,350
194.029,347
194.054,344
194.079,346
194.104,353
194.129,356
194.154,351
194.179,338
194.204,321
194.229,301
194.254,277
194.279,249
194.304,221
194.329,195
194.354,167
194.379,132
194.404,92
194.429,63
194.454,64
194.479,103
194.504,165
194.529,226
194.554,272
194.579,303
194.604,327
194.629,348
194.654,362
194.679,362
194.704,354
194.729,350
194.754,356
194.779,366
194.804,369
194.829,356
194.854,332
194.879,307
194.904,283
194.929,257
194.954,227
194.979,194
195.004,163
195.029,130
195.054,90
195.079,41
195.104,-1
195.129,-16
195.154,11
195.179,71
195.204,139
195.229,195
195.254,236
195.279,272
195.304,310
195.329,343
195.354,363
195.379,367
195.404,365
195.429,367
195.454,374
195.479,380
195.504,375
195.529,362
195.554,345
195.579,329
195.604,308
195.629,281
195.654,249
195.679,219
195.704,191
195.729,158
195.754,114
195.779,64
195.804,27
195.829,24
195.854,60
195.879,124
195.904,191
195.929,247
195.954,291
195.979,329
196.004,366
196.029,394
196.054,408
196.079,409
196.104,406
196.129,409
196.154,415
196.179,417
196.204,405
196.229,381
196.254,353
196.279,326
196.304,298
196.329,263
196.354,219
196.379,174
196.404,137
196.429,106
196.454,74
196.479,39
196.504,11
196.529,10
196.554,48
196.579,113
196.604,182
196.629,233
196.654,263
196.679,284
196.704,305
196.729,323
196.754,331
196.779,325
196.804,312
196.829,299
196.854,288
196.879,274
196.904,256
196.929,238
196.954,223
196.979,209
197.004,189
197.029,161
197.054,135
197.079,128
197.104,143
197.129,170
197.154,188
197.179,192
197.204,194
197.229,214
197.254,261
197.279,328
197.304,398
197.329,457
197.354,501
197.379,529
197.404,545
197.429,550
197.454,544
197.479,525
197.504,492
197.529,442
197.554,375
197.579,299
197.604,226
197.629,164
197.654,116
197.679,80
197.704,55
197.729,43
197.754,40
197.779,37
197.804,24
197.829,2
197.854,-18
197.879,-19
197.904,11
197.929,68
197.954,135
197.979,193
198.004,237
198.029,268
198.054,288
198.079,300
198.104,305
198.129,307
198.154,311
198.179,322
198.204,335
198.229,342
198.254,341
198.279,331
198.304,318
198.329,303
198.354,285
198.379,265
198.404,246
198.429,231
198.454,217
198.479,195
198.504,163
198.529,132
198.554,123
198.579,148
198.604,200
198.629,254
198.654,295
198.679,324
198.704,351
198.729,380
198.754,400
198.779,399
198.804,382
198.829,365
198.854,361
198.879,366
198.904,368
198.929,359
198.954,344
198.979,331
199.004,319
199.029,295
199.054,253
199.079,206
199.104,167
199.129,139
199.154,112
199.179,77
199.204,46
199.229,40
199.254,68
199.279,118
199.304,164
199.329,194
199.354,216
199.379,244
199.404,275
199.429,294
199.454,295
199.479,286
199.504,285
199.529,296
199.554,305
199.579,300
199.604,283
199.629,265
199.654,255
199.679,249
199.704,236
199.729,220
199.754,207
199.779,199
199.804,189
199.829,168
199.854,145
199.879,143
199.904,175
199.929,230
199.954,281
199.979,311
200.004,324
200.029,337
200.054,355
200.079,368
200.104,367
200.129,355
200.154,344
200.179,342
200.204,343
200.229,339
200.254,325
200.279,308
200.304,290
200.329,270
200.354,247
200.379,222
200.404,201
200.429,183
200.454,160
200.479,130
200.504,106
200.529,109
200.554,143
200.579,193
200.604,236
200.629,260
200.654,272
200.679,285
200.704,301
200.729,312
200.754,311
200.779,305
200.804,301
200.829,303
200.854,304
200.879,297
200.904,283
200.929,272
200.954,262
200.979,250
201.004,229
201.029,204
201.054,182
201.079,162
201.104,137
201.129,106
201.154,82
201.179,87
201.204,127
201.229,187
201.254,238
201.279,269
201.304,290
201.329,315
201.354,344
201.379,365
201.404,365
201.429,353
201.454,345
201.479,350
201.504,358
201.529,353
201.554,334
201.579,312
201.604,298
201.629,288
201.654,270
201.679,239
201.704,206
201.729,179
201.754,158
201.779,130
201.804,91
201.829,56
201.854,47
201.879,76
201.904,131
201.929,187
201.954,229
201.979,258
202.004,287
202.029,319
202.054,348
202.079,364
202.104,366
202.129,361
202.154,358
202.179,361
202.204,364
202.229,361
202.254,349
202.279,332
202.304,314
202.329,296
202.354,276
202.379,251
202.404,221
202.429,194
202.454,171
202.479,149
202.504,119
202.529,80
202.554,44
202.579,32
202.604,54
202.629,102
202.654,159
202.679,209
202.704,252
202.729,293
202.754,331
202.779,359
202.804,372
202.829,373
202.854,373
202.879,379
202.904,387
202.929,391
202.954,387
202.979,378
203.004,367
203.029,351
203.054,331
203.079,308
203.104,286
203.129,264
203.154,238
203.179,207
203.204,177
203.229,151
203.254,127
203.279,95
203.304,51
203.329,11
203.354,1
203.379,32
203.404,93
203.429,156
203.454,203
203.479,236
203.504,270
203.529,307
203.554,337
203.579,349
203.604,348
203.629,347
203.654,355
203.679,369
203.704,376
203.729,369
203.754,353
203.779,340
203.804,332
203.829,323
203.854,305
203.879,279
203.904,251
203.929,226
203.954,204
203.979,176
204.004,140
204.029,100
204.054,74
204.079,78
204.104,115
204.129,173
204.154,230
204.179,272
204.204,300
204.229,320
204.254,339
204.279,350
204.304,348
204.329,337
204.354,330
204.379,334
204.404,345
204.429,350
204.454,339
204.479,319
204.504,300
204.529,287
204.554,271
204.579,245
204.604,213
204.629,183
204.654,160
204.679,135
204.704,101
204.729,62
204.754,40
204.779,52
204.804,100
204.829,166
204.854,226
204.879,270
204.904,301
204.929,326
204.954,346
204.979,357
205.004,357
205.029,353
205.054,353
205.079,358
205.104,361
205.129,356
205.154,342
205.179,322
205.204,301
205.229,280
205.254,255
205.279,227
205.304,198
205.329,172
205.354,148
205.379,118
205.404,76
205.429,29
205.454,-3
205.479,-2
205.504,38
205.529,106
205.554,179
205.579,237
205.604,278
205.629,311
205.654,340
205.679,363
205.704,375
205.729,375
205.754,372
205.779,374
205.804,382
205.829,385
205.854,376
205.879,355
205.904,333
205.929,315
205.954,302
205.979,284
206.004,257
206.029,224
206.054,193
206.079,165
206.104,133
206.129,91
206.154,48
206.179,25
206.204,40
206.229,94
206.254,167
206.279,232
206.304,278
206.329,306
206.354,328
206.379,348
206.404,360
206.429,361
206.454,354
206.479,351
206.504,357
206.529,363
206.554,360
206.579,345
206.604,324
206.629,307
206.654,295
206.679,279
206.704,254
206.729,224
206.754,198
206.779,177
206.804,153
206.829,119
206.854,81
206.879,59
206.904,72
206.929,119
206.954,180
206.979,232
207.004,266
207.029,289
207.054,311
207.079,332
207.104,344
207.129,343
207.154,335
207.179,332
207.204,337
207.229,343
207.254,341
207.279,328
207.304,312
207.329,299
207.354,288
207.379,271
207.404,245
207.429,217
207.454,196
207.479,180
207.504,160
207.529,128
207.554,93
207.579,78
207.604,98
207.629,148
207.654,206
207.679,251
207.704,277
207.729,292
207.754,303
207.779,311
207.804,313
207.829,310
207.854,309
207.879,313
207.904,318
207.929,317
207.954,308
207.979,295
208.004,284
208.029,274
208.054,261
208.079,245
208.104,230
208.129,215
208.154,195
208.179,167
208.204,138
208.229,125
208.254,143
208.279,185
208.304,231
208.329,265
208.354,283
208.379,295
208.404,306
208.429,314
208.454,313
208.479,307
208.504,303
208.529,305
208.554,306
208.579,302
208.604,292
208.629,281
208.654,273
208.679,263
208.704,248
208.729,228
208.754,209
208.779,193
208.804,174
208.829,147
208.854,122
208.879,117
208.904,142
208.929,190
208.954,239
208.979,274
209.004,293
209.029,307
209.054,320
209.079,326
209.104,323
209.129,314
209.154,309
209.179,313
209.204,318
209.229,314
209.254,301
209.279,285
209.304,273
209.329,260
209.354,243
209.379,221
209.404,199
209.429,182
209.454,164
209.479,138
209.504,108
209.529,94
209.554,109
209.579,151
209.604,201
209.629,240
209.654,264
209.679,283
209.704,306
209.729,328
209.754,340
209.779,336
209.804,326
209.829,321
209.854,323
209.879,326
209.904,321
209.929,310
209.954,300
209.979,291
210.004,280
210.029,262
210.054,238
210.079,216
210.104,196
210.129,173
210.154,142
210.179,111
210.204,94
210.229,107
210.254,148
210.279,198
210.304,239
210.329,266
210.354,287
210.379,309
210.404,331
210.429,344
210.454,343
210.479,336
210.504,333
210.529,338
210.554,343
210.579,338
210.604,325
210.629,311
210.654,303
210.679,295
210.704,278
210.729,251
210.754,221
210.779,199
210.804,185
210.829,166
210.854,136
210.879,102
210.904,84
210.929,95
210.954,133
210.979,179
211.004,220
211.029,253
211.054,282
211.079,311
211.104,335
211.129,349
211.154,354
211.179,354
211.204,356
211.229,358
211.254,359
211.279,356
211.304,348
211.329,336
211.354,322
211.379,305
211.404,287
211.429,266
211.454,243
211.479,219
211.504,199
211.529,183
211.554,165
211.579,138
211.604,103
211.629,74
211.654,69
211.679,98
211.704,147
211.729,195
211.754,228
211.779,247
211.804,265
211.829,286
211.854,301
211.879,303
211.904,296
211.929,296
211.954,314
211.979,340
212.004,354
212.029,344
212.054,320
212.079,298
212.104,288
212.129,280
212.154,263
212.179,236
212.204,210
212.229,191
212.254,175
212.279,151
212.304,115
212.329,83
212.354,76
212.379,105
212.404,162
212.429,227
212.454,285
212.479,326
212.504,351
212.529,365
212.554,370
212.579,370
212.604,368
212.629,367
212.654,369
212.679,370
212.704,369
212.729,361
212.754,346
212.779,326
212.804,305
212.829,286
212.854,267
212.879,243
212.904,216
212.929,189
212.954,165
212.979,139
213.004,104
213.029,61
213.054,25
213.079,16
213.104,41
213.129,92
213.154,148
213.179,196
213.204,236
213.229,272
213.254,308
213.279,336
213.304,354
213.329,362
213.354,369
213.379,377
213.404,385
213.429,388
213.454,385
213.479,377
213.504,365
213.529,348
213.554,328
213.579,307
213.604,283
213.629,255
213.654,219
213.679,182
213.704,151
213.729,127
213.754,99
213.779,60
213.804,15
213.829,-9
213.854,5
213.879,59
213.904,127
213.929,184
213.954,224
213.979,261
214.004,303
214.029,341
214.054,365
214.079,370
214.104,370
214.129,377
214.154,391
214.179,399
214.204,397
214.229,387
214.254,376
214.279,364
214.304,347
214.329,322
214.354,297
214.379,276
214.404,254
214.429,226
214.454,191
214.479,156
214.504,124
214.529,92
214.554,54
214.579,16
214.604,1
214.629,26
214.654,84
214.679,150
214.704,203
214.729,241
214.754,278
214.779,318
214.804,353
214.829,371
214.854,374
214.879,376
214.904,384
214.929,395
214.954,399
214.979,394
215.004,386
215.029,379
215.054,369
215.079,349
215.104,321
215.129,295
215.154,273
215.179,252
215.204,224
215.229,192
215.254,164
215.279,142
215.304,116
215.329,79
215.354,40
215.379,24
215.404,47
215.429,102
215.454,163
215.479,209
215.504,241
215.529,271
215.554,303
215.579,327
215.604,334
215.629,329
215.654,325
215.679,333
215.704,346
215.729,354
215.754,349
215.779,337
215.804,325
215.829,315
215.854,304
215.879,291
215.904,275
215.929,255
215.954,231
215.979,207
216.004,186
216.029,167
216.054,144
216.079,113
216.104,80
216.129,65
216.154,80
216.179,124
216.204,180
216.229,228
216.254,263
216.279,291
216.304,318
216.329,338
216.354,344
216.379,340
216.404,338
216.429,347
216.454,364
216.479,379
216.504,382
216.529,377
216.554,366
216.579,351
216.604,331
216.629,306
216.654,280
216.679,256
216.704,232
216.729,205
216.754,176
216.779,150
216.804,127
216.829,102
216.854,68
216.879,33
216.904,18
216.929,38
216.954,91
216.979,156
217.004,210
217.029,246
217.054,273
217.079,302
217.104,330
217.129,348
217.154,352
217.179,349
217.204,350
217.229,357
217.254,364
217.279,365
217.304,357
217.329,346
217.354,333
217.379,319
217.404,301
217.429,279
217.454,257
217.479,234
217.504,209
217.529,182
217.554,155
217.579,128
217.604,101
217.629,71
217.654,43
217.679,30
217.704,45
217.729,89
217.754,148
217.779,203
217.804,242
217.829,271
217.854,296
217.879,322
217.904,346
217.929,367
217.954,386
217.979,405
218.004,419
218.029,422
218.054,413
218.079,397
218.104,380
218.129,363
218.154,345
218.179,324
218.204,300
218.229,278
218.254,256
218.279,230
218.304,201
218.329,174
218.354,151
218.379,127
218.404,96
218.429,61
218.454,39
218.479,50
218.504,95
218.529,154
218.554,206
218.579,241
218.604,267
218.629,295
218.654,325
218.679,346
218.704,353
218.729,353
218.754,356
218.779,364
218.804,370
218.829,366
218.854,356
218.879,345
218.904,333
218.929,317
218.954,296
218.979,275
219.004,260
219.029,247
219.054,228
219.079,201
219.104,173
219.129,151
219.154,132
219.179,108
219.204,75
219.229,51
219.254,55
219.279,97
219.304,158
219.329,213
219.354,250
219.379,276
219.404,304
219.429,332
219.454,351
219.479,353
219.504,346
219.529,344
219.554,353
219.579,366
219.604,372
219.629,367
219.654,355
219.679,340
219.704,325
219.729,309
219.754,292
219.779,274
219.804,252
219.829,227
219.854,203
219.879,184
219.904,168
219.929,146
219.954,111
219.979,74
220.004,56
220.029,75
220.054,124
220.079,183
220.104,229
220.129,260
220.154,284
220.179,305
220.204,320
220.229,326
220.254,324
220.279,321
220.304,322
220.329,326
220.354,328
220.379,327
220.404,321
220.429,310
220.454,292
220.479,267
220.504,241
220.529,215
220.554,188
220.579,156
220.604,123
220.629,99
220.654,91
220.679,87
220.704,72
220.729,45
220.754,29
220.779,51
220.804,114
220.829,195
220.854,264
220.879,311
220.904,348
220.929,392
220.954,441
220.979,480
221.004,498
221.029,502
221.054,503
221.079,504
221.104,497
221.129,469
221.154,421
221.179,366
221.204,319
221.229,285
221.254,259
221.279,232
221.304,198
221.329,159
221.354,123
221.379,93
221.404,68
221.429,40
221.454,3
221.479,-33
221.504,-50
221.529,-28
221.554,32
221.579,110
221.604,177
221.629,225
221.654,261
221.679,300
221.704,346
221.729,387
221.754,413
221.779,426
221.804,436
221.829,451
221.854,467
221.879,476
221.904,473
221.929,465
221.954,457
221.979,450
222.004,436
222.029,413
222.054,385
222.079,363
222.104,349
222.129,333
222.154,304
222.179,261
222.204,224
222.229,217
222.254,250
222.279,307
222.304,361
222.329,393
222.354,405
222.379,405
222.404,395
222.429,367
222.454,313
222.479,238
222.504,158
222.529,94
222.554,57
222.579,40
222.604,34
222.629,31
222.654,26
222.679,15
222.704,0
222.729,-23
222.754,-50
222.779,-78
222.804,-100
222.829,-117
222.854,-132
222.879,-154
222.904,-187
222.929,-226
222.954,-252
222.979,-244
223.004,-194
223.029,-116
223.054,-31
223.079,43
223.104,110
223.129,174
223.154,241
223.179,305
223.204,364
223.229,419
223.254,477
223.279,540
223.304,605
223.329,670
223.354,739
223.379,813
223.404,882
223.429,922
223.454,916
223.479,862
223.504,780
223.529,689
223.554,594
223.579,492
223.604,385
223.629,292
223.654,237
223.679,228
223.704,250
223.729,280
223.754,301
223.779,315
223.804,327
223.829,338
223.854,340
223.879,326
223.904,300
223.929,272
223.954,249
223.979,231
224.004,208
224.029,175
224.054,136
224.079,99
224.104,67
224.129,40
224.154,16
224.179,-1
224.204,-9
224.229,-11
224.254,-20
224.279,-40
224.304,-59
224.329,-56
224.354,-13
224.379,60
224.404,139
224.429,197
224.454,228
224.479,245
224.504,260
224.529,273
224.554,274
224.579,262
224.604,249
224.629,246
224.654,255
224.679,262
224.704,259
224.729,245
224.754,232
224.779,227
224.804,226
224.829,222
224.854,211
224.879,198
224.904,187
224.929,172
224.954,142
224.979,98
225.004,54
225.029,35
225.054,53
225.079,103
225.104,167
225.129,228
225.154,281
225.179,330
225.204,377
225.229,418
225.254,443
225.279,452
225.304,453
225.329,455
225.354,463
225.379,470
225.404,468
225.429,452
225.454,428
225.479,402
225.504,375
225.529,344
225.554,309
225.579,275
225.604,248
225.629,226
225.654,200
225.679,165
225.704,129
225.729,111
225.754,123
225.779,160
225.804,201
225.829,235
225.854,260
225.879,285
225.904,315
225.929,340
225.954,350
225.979,343
226.004,331
226.029,326
226.054,329
226.079,330
226.104,324
226.129,312
226.154,297
226.179,283
226.204,263
226.229,235
226.254,202
226.279,172
226.304,150
226.329,128
226.354,100
226.379,68
226.404,46
226.429,51
226.454,85
226.479,135
226.504,181
226.529,212
226.554,228
226.579,242
226.604,257
226.629,273
226.654,282
226.679,283
226.704,281
226.729,280
226.754,280
226.779,278
226.804,269
226.829,255
226.854,241
226.879,229
226.904,216
226.929,198
226.954,177
226.979,158
227.004,143
227.029,125
227.054,97
227.079,67
227.104,51
227.129,67
227.154,115
227.179,177
227.204,230
227.229,264
227.254,287
227.279,309
227.304,333
227.329,352
227.354,360
227.379,360
227.404,360
227.429,366
227.454,374
227.479,377
227.504,370
227.529,354
227.554,333
227.579,314
227.604,299
227.629,287
227.654,276
227.679,262
227.704,244
227.729,223
227.754,198
227.779,168
227.804,131
227.829,94
227.854,70
227.879,74
227.904,109
227.929,164
227.954,222
227.979,270
228.004,309
228.029,347
228.054,384
228.079,416
228.104,434
228.129,437
228.154,424
228.179,396
228.204,353
228.229,299
228.254,251
228.279,224
228.304,223
228.329,235
228.354,240
228.379,227
228.404,202
228.429,179
228.454,167
228.479,160
228.504,146
228.529,118
228.554,84
228.579,60
228.604,60
228.629,91
228.654,141
228.679,198
228.704,247
228.729,281
228.754,297
228.779,301
228.804,299
228.829,297
228.854,302
228.879,316
228.904,339
228.929,363
228.954,380
228.979,382
229.004,369
229.029,343
229.054,309
229.079,271
229.104,232
229.129,198
229.154,174
229.179,159
229.204,147
229.229,128
229.254,99
229.279,69
229.304,55
229.329,70
229.354,110
229.379,158
229.404,197
229.429,222
229.454,241
229.479,263
229.504,287
229.529,305
229.554,312
229.579,310
229.604,310
229.629,320
229.654,341
229.679,365
229.704,382
229.729,390
229.754,391
229.779,387
229.804,376
229.829,353
229.854,320
229.879,284
229.904,254
229.929,229
229.954,201
229.979,165
230.004,127
230.029,104
230.054,111
230.079,143
230.104,184
230.129,215
230.154,233
230.179,248
230.204,268
230.229,290
230.254,303
230.279,305
230.304,302
230.329,304
230.354,316
230.379,330
230.404,335
230.429,328
230.454,316
230.479,303
230.504,290
230.529,273
230.554,248
230.579,220
230.604,195
230.629,175
230.654,155
230.679,129
230.704,93
230.729,57
230.754,39
230.779,52
230.804,96
230.829,157
230.854,214
230.879,255
230.904,282
230.929,305
230.954,328
230.979,345
231.004,352
231.029,348
231.054,344
231.079,347
231.104,353
231.129,354
231.154,344
231.179,328
231.204,312
231.229,298
231.254,281
231.279,257
231.304,230
231.329,206
231.354,184
231.379,156
231.404,119
231.429,81
231.454,64
231.479,84
231.504,135
231.529,194
231.554,243
231.579,277
231.604,303
231.629,327
231.654,347
231.679,354
231.704,351
231.729,347
231.754,350
231.779,359
231.804,363
231.829,356
231.854,341
231.879,326
231.904,312
231.929,294
231.954,267
231.979,234
232.004,204
232.029,177
232.054,147
232.079,109
232.104,73
232.129,60
232.154,84
232.179,138
232.204,200
232.229,249
232.254,279
232.279,298
232.304,311
232.329,315
232.354,311
232.379,302
232.404,297
232.429,300
232.454,305
232.479,302
232.504,289
232.529,271
232.554,255
232.579,240
232.604,220
232.629,196
232.654,172
232.679,153
232.704,135
232.729,110
232.754,75
232.779,44
232.804,39
232.829,67
232.854,118
232.879,172
232.904,215
232.929,248
232.954,279
232.979,309
233.004,332
233.029,345
233.054,350
233.079,354
233.104,362
233.129,367
233.154,364
233.179,354
233.204,343
233.229,334
233.254,324
233.279,305
233.304,278
233.329,251
233.354,229
233.379,207
233.404,175
233.429,133
233.454,99
233.479,94
233.504,125
233.529,177
233.554,227
233.579,264
233.604,291
233.629,320
233.654,346
233.679,359
233.704,353
233.729,339
233.754,331
233.779,331
233.804,330
233.829,314
233.854,287
233.879,261
233.904,244
233.929,231
233.954,210
233.979,180
234.004,147
234.029,118
234.054,93
234.079,66
234.104,46
234.129,47
234.154,81
234.179,139
234.204,201
234.229,249
234.254,283
234.279,310
234.304,334
234.329,353
234.354,361
234.379,361
234.404,361
234.429,364
234.454,368
234.479,368
234.504,365
234.529,360
234.554,345
234.579,315
234.604,273
234.629,236
234.654,218
234.679,211
234.704,194
234.729,154
234.754,103
234.779,76
234.804,94
234.829,149
234.854,210
234.879,251
234.904,272
234.929,283
234.954,294
234.979,301
235.004,302
235.029,299
235.054,300
235.079,307
235.104,310
235.129,304
235.154,291
235.179,278
235.204,267
235.229,253
235.254,232
235.279,210
235.304,192
235.329,177
235.354,156
235.379,125
235.404,97
235.429,93
235.454,122
235.479,170
235.504,215
235.529,247
235.554,271
235.579,295
235.604,317
235.629,328
235.654,326
235.679,320
235.704,320
235.729,325
235.754,325
235.779,313
235.804,294
235.829,280
235.854,273
235.879,264
235.904,245
235.929,222
235.954,203
235.979,191
236.004,176
236.029,150
236.054,120
236.079,107
236.104,126
236.129,169
236.154,214
236.179,245
236.204,264
236.229,283
236.254,305
236.279,320
236.304,320
236.329,310
236.354,304
236.379,309
236.404,319
236.429,319
236.454,305
236.479,284
236.504,266
236.529,253
236.554,239
236.579,222
236.604,204
236.629,189
236.654,175
236.679,154
236.704,127
236.729,105
236.754,106
236.779,137
236.804,185
236.829,230
236.854,261
236.879,280
236.904,298
236.929,319
236.954,336
236.979,341
237.004,336
237.029,331
237.054,332
237.079,335
237.104,333
237.129,321
237.154,304
237.179,288
237.204,276
237.229,263
237.254,244
237.279,222
237.304,205
237.329,190
237.354,171
237.379,143
237.404,114
237.429,102
237.454,119
237.479,160
237.504,206
237.529,243
237.554,268
237.579,288
237.604,309
237.629,324
237.654,327
237.679,318
237.704,309
237.729,310
237.754,316
237.779,321
237.804,317
237.829,308
237.854,299
237.879,290
237.904,278
237.929,260
237.954,239
237.979,222
238.004,207
238.029,185
238.054,153
238.079,119
238.104,101
238.129,112
238.154,147
238.179,191
238.204,228
238.229,254
238.254,276
238.279,298
238.304,317
238.329,327
238.354,327
238.379,324
238.404,324
238.429,328
238.454,331
238.479,331
238.504,330
238.529,330
238.554,328
238.579,318
238.604,297
238.629,269
238.654,243
238.679,220
238.704,192
238.729,154
238.754,111
238.779,81
238.804,82
238.829,111
238.854,154
238.879,190
238.904,215
238.929,233
238.954,251
238.979,267
239.004,275
239.029,272
239.054,264
239.079,257
239.104,253
239.129,250
239.154,244
239.179,232
239.204,213
239.229,189
239.254,161
239.279,135
239.304,113
239.329,93
239.354,67
239.379,32
239.404,-9
239.429,-48
239.454,-82
239.479,-116
239.504,-157
239.529,-196
239.554,-211
239.579,-182
239.604,-107
239.629,-5
239.654,104
239.679,217
239.704,341
239.729,479
239.754,620
239.779,738
239.804,814
239.829,850
239.854,859
239.879,858
239.904,848
239.929,824
239.954,788
239.979,752
240.004,738
240.029,752
240.054,782
240.079,799
240.104,784
240.129,735
240.154,665
240.179,589
240.204,513
240.229,439
240.254,373
240.279,318
240.304,267
240.329,198
240.354,86
240.379,-65
240.404,-222
240.429,-336
240.454,-376
240.479,-353
240.504,-307
240.529,-271
240.554,-253
240.579,-235
240.604,-195
240.629,-128
240.654,-48
240.679,25
240.704,82
240.729,119
240.754,141
240.779,144
240.804,121
240.829,69
240.854,-3
240.879,-77
240.904,-128
240.929,-151
240.954,-154
240.979,-150
241.004,-140
241.029,-108
241.054,-31
241.079,93
241.104,243
241.129,381
241.154,479
241.179,538
241.204,578
241.229,624
241.254,679
241.279,732
241.304,767
241.329,781
241.354,782
241.379,779
241.404,769
241.429,739
241.454,678
241.479,592
241.504,500
241.529,417
241.554,346
241.579,279
241.604,213
241.629,160
241.654,129
241.679,115
241.704,94
241.729,52
241.754,-2
241.779,-37
241.804,-25
241.829,30
241.854,102
241.879,161
241.904,203
241.929,239
241.954,278
241.979,318
242.004,346
242.029,359
242.054,364
242.079,370
242.104,380
242.129,389
242.154,392
242.179,387
242.204,375
242.229,356
242.254,330
242.279,303
242.304,276
242.329,250
242.354,217
242.379,168
242.404,103
242.429,28
242.454,-47
242.479,-116
242.504,-168
242.529,-193
242.554,-178
242.579,-120
242.604,-33
242.629,59
242.654,141
242.679,206
242.704,258
242.729,302
242.754,337
242.779,363
242.804,380
242.829,393
242.854,405
242.879,412
242.904,411
242.929,401
242.954,385
242.979,366
243.004,345
243.029,321
243.054,296
243.079,275
243.104,257
243.129,235
243.154,204
243.179,165
243.204,136
243.229,136
243.254,170
243.279,225
243.304,277
243.329,312
243.354,332
243.379,345
243.404,357
243.429,364
243.454,362
243.479,354
243.504,348
243.529,349
243.554,350
243.579,343
243.604,327
243.629,308
243.654,295
243.679,286
243.704,274
243.729,252
243.754,224
243.779,195
243.804,167
243.829,135
243.854,98
243.879,68
243.904,60
243.929,82
243.954,123
243.979,164
244.004,196
244.029,223
244.054,251
244.079,278
244.104,295
244.129,296
244.154,287
244.179,281
244.204,287
244.229,297
244.254,302
244.279,296
244.304,286
244.329,280
244.354,277
244.379,272
244.404,260
244.429,242
244.454,223
244.479,204
244.504,179
244.529,147
244.554,117
244.579,107
244.604,126
244.629,169
244.654,220
244.679,261
244.704,290
244.729,314
244.754,340
244.779,367
244.804,386
244.829,392
244.854,389
244.879,388
244.904,394
244.929,407
244.954,418
244.979,420
245.004,417
245.029,411
245.054,407
245.079,399
245.104,383
245.129,353
245.154,305
245.179,232
245.204,136
245.229,27
245.254,-66
245.279,-119
245.304,-120
245.329,-77
245.354,-15
245.379,47
245.404,103
245.429,155
245.454,201
245.479,238
245.504,261
245.529,272
245.554,278
245.579,288
245.604,302
245.629,318
245.654,328
245.679,329
245.704,324
245.729,316
245.754,310
245.779,306
245.804,297
245.829,281
245.854,260
245.879,241
245.904,227
245.929,211
245.954,186
245.979,155
246.004,137
246.029,149
246.054,190
246.079,244
246.104,291
246.129,325
246.154,354
246.179,382
246.204,404
246.229,409
246.254,393
246.279,366
246.304,342
246.329,328
246.354,326
246.379,337
246.404,360
246.429,389
246.454,406
246.479,389
246.504,335
246.529,255
246.554,177
246.579,118
246.604,83
246.629,67
246.654,57
246.679,44
246.704,28
246.729,18
246.754,27
246.779,65
246.804,127
246.829,198
246.854,263
246.879,321
246.904,376
246.929,428
246.954,464
246.979,473
247.004,457
247.029,428
247.054,403
247.079,391
247.104,393
247.129,405
247.154,414
247.179,403
247.204,354
247.229,273
247.254,189
247.279,136
247.304,118
247.329,106
247.354,63
247.379,-12
247.404,-84
247.429,-115
247.454,-99
247.479,-68
247.504,-53
247.529,-54
247.554,-41
247.579,9
247.604,88
247.629,163
247.654,209
247.679,230
247.704,248
247.729,283
247.754,338
247.779,401
247.804,455
247.829,491
247.854,503
247.879,494
247.904,472
247.929,448
247.954,428
247.979,410
248.004,389
248.029,360
248.054,326
248.079,292
248.104,263
248.129,233
248.154,198
248.179,156
248.204,121
248.229,109
248.254,131
248.279,181
248.304,238
248.329,284
248.354,315
248.379,340
248.404,366
248.429,392
248.454,407
248.479,411
248.504,410
248.529,413
248.554,421
248.579,424
248.604,412
248.629,391
248.654,371
248.679,357
248.704,341
248.729,315
248.754,278
248.779,243
248.804,212
248.829,175
248.854,118
248.879,42
248.904,-24
248.929,-51
248.954,-27
248.979,31
249.004,94
249.029,140
249.054,168
249.079,185
249.104,193
249.129,192
249.154,185
249.179,178
249.204,181
249.229,194
249.254,208
249.279,209
249.304,189
249.329,152
249.354,108
249.379,79
249.404,86
249.429,144
249.454,242
249.479,347
249.504,418
249.529,431
249.554,392
249.579,335
249.604,293
249.629,282
249.654,296
249.679,323
249.704,351
249.729,375
249.754,390
249.779,390
249.804,375
249.829,351
249.854,331
249.879,319
249.904,314
249.929,308
249.954,299
249.979,290
250.004,282
250.029,272
250.054,255
250.079,230
250.104,203
250.129,182
250.154,159
250.179,124
250.204,72
250.229,15
250.254,-19
250.279,-16
250.304,23
250.329,81
250.354,140
250.379,195
250.404,245
250.429,290
250.454,324
250.479,342
250.504,349
250.529,356
250.554,366
250.579,376
250.604,380
250.629,376
250.654,369
250.679,363
250.704,353
250.729,335
250.754,306
250.779,271
250.804,237
250.829,202
250.854,161
250.879,110
250.904,57
250.929,18
250.954,8
250.979,27
251.004,66
251.029,110
251.054,148
251.079,182
251.104,217
251.129,254
251.154,288
251.179,312
251.204,325
251.229,333
251.254,344
251.279,360
251.304,375
251.329,383
251.354,383
251.379,379
251.404,373
251.429,361
251.454,338
251.479,308
251.504,279
251.529,257
251.554,233
251.579,199
251.604,157
251.629,128
251.654,130
251.679,164
251.704,211
251.729,249
251.754,275
251.779,299
251.804,329
251.829,360
251.854,381
251.879,387
251.904,388
251.929,394
251.954,406
251.979,416
252.004,413
252.029,400
252.054,382
252.079,363
252.104,342
252.129,318
252.154,292
252.179,268
252.204,242
252.229,210
252.254,169
252.279,131
252.304,109
252.329,113
252.354,137
252.379,166
252.404,187
252.429,194
252.454,190
252.479,179
252.504,164
252.529,147
252.554,129
252.579,112
252.604,96
252.629,76
252.654,47
252.679,9
252.704,-34
252.729,-72
252.754,-96
252.779,-99
252.804,-79
252.829,-32
252.854,47
252.879,153
252.904,263
252.929,344
252.954,376
252.979,370
253.004,360
253.029,367
253.054,385
253.079,383
253.104,342
253.129,277
253.154,223
253.179,209
253.204,237
253.229,287
253.254,341
253.279,388
253.304,426
253.329,454
253.354,471
253.379,478
253.404,474
253.429,451
253.454,399
253.479,319
253.504,232
253.529,160
253.554,117
253.579,95
253.604,84
253.629,81
253.654,92
253.679,118
253.704,150
253.729,177
253.754,205
253.779,250
253.804,324
253.829,415
253.854,499
253.879,555
253.904,582
253.929,591
253.954,593
253.979,592
254.004,589
254.029,582
254.054,568
254.079,542
254.104,504
254.129,459
254.154,415
254.179,370
254.204,314
254.229,242
254.254,162
254.279,93
254.304,50
254.329,28
254.354,13
254.379,-6
254.404,-36
254.429,-79
254.454,-141
254.479,-220
254.504,-301
254.529,-356
254.554,-371
254.579,-354
254.604,-329
254.629,-300
254.654,-248
254.679,-149
254.704,-7
254.729,145
254.754,280
254.779,394
254.804,508
254.829,630
254.854,738
254.879,796
254.904,787
254.929,734
254.954,676
254.979,638
255.004,615
255.029,587
255.054,541
255.079,476
255.104,401
255.129,322
255.154,245
255.179,174
255.204,107
255.229,43
255.254,-19
255.279,-70
255.304,-93
255.329,-78
255.354,-32
255.379,23
255.404,70
255.429,107
255.454,144
255.479,184
255.504,221
255.529,244
255.554,251
255.579,255
255.604,274
255.629,318
255.654,383
255.679,453
255.704,512
255.729,552
255.754,577
255.779,599
255.804,623
255.829,641
255.854,636
255.879,597
255.904,533
255.929,465
255.954,405
255.979,348
256.004,283
256.029,210
256.054,153
256.079,131
256.104,140
256.129,151
256.154,136
256.179,94
256.204,56
256.229,50
256.254,78
256.279,120
256.304,151
256.329,167
256.354,172
256.379,169
256.404,156
256.429,135
256.454,117
256.479,112
256.504,118
256.529,122
256.554,113
256.579,95
256.604,77
256.629,51
256.654,-3
256.679,-94
256.704,-187
256.729,-223
256.754,-158
256.779,-12
256.804,144
256.829,238
256.854,247
256.879,204
256.904,163
256.929,152
256.954,161
256.979,164
257.004,151
257.029,131
257.054,124
257.079,139
257.104,167
257.129,192
257.154,207
257.179,219
257.204,256
257.229,343
257.254,481
257.279,644
257.304,785
257.329,869
257.354,884
257.379,844
257.404,770
257.429,680
257.454,592
257.479,531
257.504,516
257.529,554
257.554,625
257.579,700
257.604,761
257.629,804
257.654,831
257.679,834
257.704,800
257.729,729
257.754,640
257.779,562
257.804,513
257.829,487
257.854,470
257.879,452
257.904,432
257.929,408
257.954,373
257.979,315
258.004,236
258.029,143
258.054,45
258.079,-57
258.104,-171
258.129,-298
258.154,-430
258.179,-558
258.204,-668
258.229,-743
258.254,-765
258.279,-727
258.304,-639
258.329,-529
258.354,-431
258.379,-357
258.404,-303
258.429,-258
258.454,-218
258.479,-187
258.504,-169
258.529,-155
258.554,-138
258.579,-117
258.604,-99
258.629,-89
258.654,-77
258.679,-47
258.704,12
258.729,97
258.754,192
258.779,290
258.804,395
258.829,514
258.854,643
258.879,752
258.904,809
258.929,802
258.954,754
258.979,712
259.004,713
259.029,765
259.054,848
259.079,929
259.104,987
259.129,1014
259.154,1014
259.179,986
259.204,932
259.229,857
259.254,775
259.279,700
259.304,639
259.329,595
259.354,560
259.379,525
259.404,483
259.429,429
259.454,362
259.479,287
259.504,205
259.529,113
259.554,16
259.579,-74
259.604,-145
259.629,-189
259.654,-220
259.679,-257
259.704,-305
259.729,-346
259.754,-354
259.779,-321
259.804,-262
259.829,-202
259.854,-148
259.879,-88
259.904,-11
259.929,77
259.954,153
259.979,202
260.004,230
260.029,258
260.054,300
260.079,348
260.104,386
260.129,401
260.154,402
260.179,402
260.204,412
260.229,429
260.254,440
260.279,435
260.304,415
260.329,383
260.354,347
260.379,310
260.404,274
260.429,246
260.454,244
260.479,290
260.504,385
260.529,501
260.554,589
260.579,611
260.604,567
260.629,500
260.654,455
260.679,443
260.704,438
260.729,403
260.754,327
260.779,233
260.804,153
260.829,108
260.854,92
260.879,87
260.904,79
260.929,68
260.954,56
260.979,50
261.004,52
261.029,59
261.054,59
261.079,36
261.104,-17
261.129,-87
261.154,-139
261.179,-141
261.204,-83
261.229,18
261.254,135
261.279,247
261.304,346
261.329,430
261.354,493
261.379,534
261.404,553
261.429,559
261.454,562
261.479,564
261.504,562
261.529,557
261.554,550
261.579,538
261.604,515
261.629,473
261.654,413
261.679,338
261.704,256
261.729,173
261.754,96
261.779,31
261.804,-21
261.829,-75
261.854,-139
261.879,-207
261.904,-252
261.929,-244
261.954,-175
261.979,-74
262.004,23
262.029,96
262.054,153
262.079,209
262.104,269
262.129,321
262.154,353
262.179,365
262.204,367
262.229,369
262.254,371
262.279,370
262.304,366
262.329,359
262.354,346
262.379,320
262.404,277
262.429,220
262.454,158
262.479,100
262.504,52
262.529,14
262.554,-24
262.579,-78
262.604,-152
262.629,-233
262.654,-286
262.679,-275
262.704,-196
262.729,-78
262.754,39
262.779,140
262.804,236
262.829,346
262.854,470
262.879,582
262.904,654
262.929,685
262.954,694
262.979,706
263.004,731
263.029,762
263.054,783
263.079,785
263.104,768
263.129,739
263.154,711
263.179,692
263.204,686
263.229,686
263.254,683
263.279,665
263.304,618
263.329,541
263.354,443
263.379,353
263.404,306
263.429,317
263.454,370
263.479,429
263.504,463
263.529,469
263.554,462
263.579,450
263.604,424
263.629,376
263.654,309
263.679,242
263.704,183
263.729,125
263.754,54
263.779,-27
263.804,-102
263.829,-156
263.854,-199
263.879,-255
263.904,-330
263.929,-404
263.954,-448
263.979,-458
264.004,-460
264.029,-476
264.054,-498
264.079,-490
264.104,-424
264.129,-309
264.154,-177
264.179,-56
264.204,46
264.229,140
264.254,227
264.279,301
264.304,358
264.329,402
264.354,444
264.379,485
264.404,520
264.429,543
264.454,554
264.479,555
264.504,549
264.529,537
264.554,523
264.579,509
264.604,497
264.629,476
264.654,438
264.679,386
264.704,326
264.729,263
264.754,190
264.779,104
264.804,23
264.829,-17
264.854,5
264.879,84
264.904,177
264.929,249
264.954,296
264.979,338
265.004,392
