df_hash,22ZHK4.6K1ZK0
device,HZ2X61
project_hash,29R7
project_name,istanbul_aydin_university
person_hash,29R7.U0TA
person_label,v114
date_time_start,2026-03-10_16-38-29.786000_+03
date_time_start_unix,1773146309.786
date_time_end,2026-03-10_16-44-01.631000_+03
length_difference_noticed,no

time,ppg_ir,ppg_ambient,ppg_red
5.095,137161,168,164234
5.100,137169,169,164244
5.105,137187,169,164256
5.110,137197,169,164258
5.115,137198,171,164280
5.120,137198,169,164276
5.125,137219,169,164271
5.130,137211,168,164284
5.135,137212,168,164298
5.140,137228,169,164297
5.145,137228,168,164301
5.150,137243,168,164312
5.155,137255,168,164308
5.160,137247,168,164297
5.165,137261,169,164320
5.170,137263,169,164329
5.174,137296,169,164339
5.179,137273,169,164346
5.184,137290,169,164344
5.189,137284,169,164361
5.194,137309,169,164377
5.199,137323,169,164365
5.204,137339,169,164380
5.209,137338,169,164384
5.214,137330,170,164402
5.219,137358,171,164392
5.224,137358,172,164396
5.229,137353,168,164396
5.234,137353,168,164385
5.239,137342,168,164373
5.244,137352,168,164389
5.249,137342,168,164387
5.254,137321,168,164410
5.259,137323,168,164389
5.264,137328,169,164383
5.269,137315,170,164375
5.274,137318,169,164385
5.279,137309,170,164388
5.284,137303,170,164372
5.289,137291,170,164388
5.294,137288,170,164383
5.299,137275,170,164373
5.304,137279,171,164388
5.309,137260,168,164372
5.314,137264,170,164362
5.319,137267,170,164377
5.324,137240,170,164379
5.329,137252,170,164367
5.334,137245,170,164380
5.338,137247,171,164376
5.343,137242,171,164359
5.348,137219,171,164375
5.353,137230,171,164369
5.358,137230,168,164384
5.363,137226,168,164366
5.368,137226,168,164383
5.373,137236,168,164375
5.378,137232,168,164360
5.383,137211,168,164379
5.388,137225,169,164383
5.393,137232,168,164385
5.398,137238,169,164377
5.403,137217,169,164392
5.408,137228,171,164388
5.413,137231,171,164387
5.418,137241,172,164384
5.423,137229,172,164370
5.428,137223,172,164380
5.433,137226,171,164380
5.438,137219,171,164384
5.443,137216,171,164367
5.448,137221,171,164373
5.453,137225,171,164371
5.458,137193,169,164362
5.463,137205,168,164362
5.468,137189,168,164350
5.473,137203,168,164348
5.478,137202,168,164349
5.483,137194,168,164350
5.488,137189,169,164356
5.493,137205,168,164364
5.498,137201,168,164354
5.502,137201,168,164358
5.507,137210,170,164358
5.512,137205,170,164347
5.517,137207,170,164342
5.522,137197,170,164360
5.527,137212,170,164364
5.532,137210,170,164366
5.537,137213,171,164359
5.542,137214,171,164384
5.547,137229,172,164364
5.552,137217,168,164400
5.557,137221,168,164374
5.562,137220,168,164384
5.567,137238,168,164388
5.572,137226,168,164398
5.577,137241,168,164403
5.582,137239,169,164406
5.587,137244,169,164395
5.592,137248,169,164402
5.597,137244,170,164404
5.602,137221,171,164397
5.607,137225,168,164394
5.612,137220,168,164411
5.617,137235,168,164402
5.622,137216,168,164400
5.627,137236,168,164386
5.632,137240,168,164406
5.637,137236,168,164416
5.642,137227,168,164400
5.647,137235,168,164403
5.652,137229,169,164407
5.657,137248,170,164407
5.662,137226,170,164416
5.666,137255,170,164418
5.671,137259,171,164419
5.676,137261,171,164423
5.681,137245,171,164429
5.686,137257,168,164433
5.691,137267,172,164446
5.696,137269,172,164449
5.701,137267,169,164444
5.706,137270,168,164452
5.711,137267,168,164452
5.716,137263,168,164437
5.721,137275,168,164448
5.726,137257,168,164450
5.731,137280,168,164434
5.736,137273,168,164444
5.741,137279,168,164443
5.746,137267,168,164441
5.751,137278,169,164446
5.756,137283,169,164440
5.761,137270,169,164441
5.766,137279,170,164439
5.771,137285,170,164434
5.776,137288,169,164412
5.781,137284,170,164427
5.786,137303,169,164437
5.791,137311,170,164452
5.796,137309,170,164453
5.801,137320,168,164470
5.806,137331,172,164462
5.811,137347,171,164477
5.816,137336,170,164473
5.821,137356,171,164480
5.826,137363,170,164491
5.830,137372,170,164502
5.835,137370,169,164503
5.840,137374,169,164503
5.845,137379,170,164509
5.850,137382,170,164521
5.855,137391,170,164534
5.860,137393,170,164526
5.865,137399,170,164523
5.870,137413,169,164530
5.875,137401,169,164529
5.880,137421,169,164518
5.885,137412,168,164526
5.890,137420,168,164531
5.895,137410,169,164531
5.900,137413,169,164548
5.905,137420,169,164531
5.910,137420,169,164531
5.915,137439,168,164538
5.920,137430,168,164544
5.925,137421,168,164533
5.930,137444,168,164550
5.935,137455,168,164558
5.940,137443,168,164555
5.945,137457,168,164537
5.950,137467,169,164552
5.955,137457,169,164537
5.960,137460,169,164543
5.965,137449,169,164548
5.970,137448,169,164545
5.975,137452,169,164545
5.980,137456,169,164547
5.985,137462,169,164552
5.990,137459,170,164549
5.994,137478,171,164553
5.999,137469,171,164535
6.004,137463,172,164532
6.009,137462,172,164531
6.014,137461,172,164523
6.019,137455,171,164503
6.024,137453,171,164503
6.029,137443,170,164498
6.034,137439,170,164482
6.039,137431,170,164494
6.044,137426,171,164480
6.049,137412,171,164476
6.054,137421,171,164455
6.059,137399,168,164459
6.064,137393,168,164449
6.069,137370,168,164448
6.074,137365,168,164422
6.079,137348,171,164428
6.084,137344,171,164394
6.089,137310,168,164398
6.094,137313,168,164377
6.099,137289,168,164371
6.104,137280,168,164359
6.109,137266,171,164334
6.114,137267,171,164331
6.119,137251,171,164333
6.124,137244,171,164325
6.129,137228,171,164316
6.134,137233,171,164318
6.139,137210,168,164299
6.144,137201,168,164282
6.149,137203,168,164288
6.153,137202,168,164288
6.158,137191,168,164270
6.163,137176,168,164272
6.168,137171,168,164272
6.173,137157,168,164275
6.178,137153,168,164276
6.183,137153,168,164256
6.188,137173,169,164256
6.193,137163,169,164245
6.198,137138,169,164259
6.203,137142,169,164258
6.208,137134,169,164253
6.213,137134,169,164244
6.218,137126,169,164237
6.223,137115,170,164228
6.228,137132,170,164244
6.233,137127,169,164242
6.238,137132,168,164241
6.243,137118,169,164232
6.248,137111,169,164228
6.253,137104,169,164214
6.258,137099,169,164227
6.263,137093,169,164231
6.268,137090,169,164247
6.273,137107,169,164249
6.278,137101,169,164254
6.283,137113,169,164254
6.288,137104,172,164257
6.293,137121,172,164253
6.298,137110,168,164259
6.303,137100,168,164250
6.308,137119,168,164259
6.313,137110,168,164246
6.318,137116,168,164257
6.322,137112,168,164247
6.327,137117,168,164265
6.332,137107,169,164274
6.337,137112,169,164226
6.342,137108,169,164244
6.347,137113,169,164239
6.352,137108,169,164219
6.357,137108,169,164226
6.362,137106,170,164218
6.367,137091,170,164224
6.372,137099,170,164224
6.377,137099,171,164220
6.382,137095,168,164189
6.387,137093,169,164208
6.392,137092,169,164199
6.397,137102,170,164180
6.402,137078,170,164181
6.407,137085,170,164176
6.412,137084,170,164176
6.417,137076,171,164159
6.422,137073,171,164149
6.427,137071,171,164145
6.432,137068,168,164152
6.437,137056,168,164142
6.442,137068,168,164130
6.447,137046,168,164132
6.452,137061,168,164131
6.457,137053,168,164117
6.462,137058,168,164123
6.467,137042,168,164101
6.472,137054,168,164104
6.477,137046,168,164103
6.481,137040,169,164107
6.486,137046,169,164111
6.491,137039,169,164103
6.496,137048,169,164093
6.501,137036,169,164097
6.506,137048,169,164084
6.511,137047,168,164097
6.516,137038,168,164107
6.521,137040,168,164090
6.526,137047,168,164085
6.531,137039,169,164073
6.536,137038,169,164079
6.541,137042,168,164069
6.546,137038,168,164059
6.551,137042,168,164064
6.556,137025,168,164068
6.561,137032,168,164056
6.566,137040,168,164046
6.571,137027,172,164043
6.576,137028,168,164054
6.581,137038,169,164034
6.586,137018,169,164023
6.591,137037,169,164033
6.596,137021,169,164033
6.601,137022,169,164017
6.606,137006,169,164015
6.611,137031,169,164013
6.616,137026,169,164012
6.621,137027,169,164005
6.626,136998,169,164009
6.631,137026,172,163996
6.636,137028,172,164017
6.641,137037,172,163996
6.645,137031,172,164001
6.650,137050,172,164009
6.655,137055,172,164010
6.660,137058,171,164017
6.665,137062,172,164013
6.670,137054,172,164009
6.675,137062,169,164007
6.680,137077,171,164011
6.685,137073,172,164015
6.690,137072,168,164028
6.695,137084,168,164018
6.700,137087,168,164019
6.705,137070,168,164021
6.710,137080,168,164020
6.715,137086,168,164022
6.720,137093,168,164005
6.725,137069,169,164024
6.730,137075,169,164028
6.735,137082,169,164025
6.740,137083,169,164014
6.745,137087,169,164004
6.750,137088,169,164014
6.755,137083,169,164013
6.760,137099,169,164034
6.765,137107,169,164024
6.770,137110,169,164020
6.775,137106,171,164026
6.780,137098,171,164015
6.785,137103,170,164001
6.790,137098,170,163998
6.795,137093,169,163996
6.800,137087,169,164003
6.805,137088,169,164002
6.809,137078,168,163983
6.814,137058,168,163988
6.819,137060,168,163980
6.824,137053,168,163982
6.829,137051,168,163982
6.834,137046,168,163960
6.839,137022,172,163975
6.844,137015,171,163956
6.849,136987,171,163942
6.854,136986,170,163939
6.859,136980,170,163919
6.864,136960,170,163928
6.869,136952,169,163907
6.874,136943,171,163903
6.879,136940,170,163897
6.884,136929,170,163887
6.889,136917,169,163884
6.894,136922,169,163889
6.899,136906,169,163893
6.904,136911,169,163873
6.909,136905,169,163866
6.914,136898,168,163872
6.919,136909,171,163886
6.924,136895,170,163875
6.929,136878,170,163871
6.934,136884,169,163863
6.939,136888,169,163861
6.944,136867,169,163851
6.949,136872,169,163852
6.954,136863,169,163832
6.959,136849,169,163840
6.964,136869,169,163841
6.969,136863,170,163838
6.973,136858,169,163837
6.978,136834,169,163844
6.983,136834,169,163821
6.988,136844,168,163839
6.993,136827,168,163820
6.998,136825,168,163822
7.003,136820,168,163820
7.008,136815,168,163814
7.013,136813,168,163799
7.018,136807,169,163800
7.023,136802,169,163808
7.028,136781,168,163804
7.033,136787,168,163804
7.038,136784,168,163806
7.043,136786,168,163818
7.048,136792,168,163813
7.053,136780,168,163802
7.058,136777,168,163808
7.063,136793,168,163795
7.068,136791,168,163806
7.073,136791,168,163801
7.078,136792,168,163798
7.083,136812,168,163801
7.088,136807,168,163809
7.093,136807,171,163785
7.098,136803,171,163822
7.103,136803,170,163798
7.108,136821,170,163812
7.113,136804,172,163828
7.118,136798,168,163802
7.123,136811,168,163808
7.128,136808,168,163799
7.133,136809,168,163806
7.137,136806,172,163799
7.142,136811,172,163807
7.147,136802,171,163816
7.152,136802,171,163822
7.157,136803,170,163815
7.162,136778,168,163814
7.167,136809,168,163804
7.172,136815,171,163814
7.177,136808,172,163835
7.182,136808,171,163832
7.187,136799,171,163838
7.192,136802,170,163844
7.197,136805,170,163825
7.202,136797,170,163840
7.207,136806,170,163850
7.212,136805,168,163841
7.217,136817,168,163837
7.222,136813,168,163833
7.227,136808,168,163840
7.232,136807,168,163837
7.237,136809,168,163849
7.242,136816,168,163846
7.247,136812,168,163855
7.252,136815,168,163842
7.257,136807,168,163854
7.262,136815,169,163862
7.267,136835,169,163878
7.272,136831,169,163856
7.277,136833,169,163878
7.282,136832,169,163884
7.287,136840,169,163893
7.292,136849,169,163907
7.297,136842,169,163903
7.301,136860,168,163918
7.306,136856,168,163920
7.311,136869,170,163925
7.316,136876,169,163938
7.321,136874,169,163942
7.326,136877,169,163945
7.331,136891,169,163956
7.336,136886,168,163965
7.341,136901,168,163965
7.346,136896,168,163961
7.351,136910,168,163979
7.356,136917,168,163987
7.361,136916,170,164001
7.366,136928,169,163997
7.371,136921,169,164002
7.376,136927,168,164028
7.381,136952,169,164028
7.386,136961,168,164026
7.391,136964,168,164049
7.396,136969,168,164060
7.401,136975,168,164054
7.406,136989,168,164061
7.411,136990,169,164050
7.416,136989,169,164061
7.421,136987,169,164071
7.426,136987,169,164082
7.431,136990,169,164085
7.436,136993,169,164090
7.441,137000,169,164085
7.446,137022,169,164118
7.451,137008,169,164109
7.456,137018,171,164104
7.461,137019,171,164130
7.465,137040,170,164133
7.470,137043,170,164151
7.475,137045,169,164161
7.480,137073,169,164174
7.485,137056,169,164177
7.490,137066,168,164175
7.495,137064,168,164188
7.500,137069,168,164170
7.505,137074,169,164184
7.510,137075,168,164174
7.515,137065,168,164190
7.520,137079,168,164182
7.525,137089,172,164189
7.530,137068,171,164194
7.535,137074,170,164199
7.540,137065,170,164204
7.545,137070,170,164214
7.550,137057,170,164201
7.555,137055,168,164194
7.560,137051,168,164201
7.565,137047,168,164188
7.570,137037,171,164205
7.575,137029,171,164200
7.580,137055,170,164193
7.585,137040,170,164199
7.590,137033,170,164203
7.595,137022,170,164194
7.600,137021,170,164190
7.605,137017,168,164191
7.610,137024,172,164195
7.615,137011,171,164191
7.620,137008,171,164196
7.625,137017,170,164194
7.629,137009,169,164199
7.634,137018,169,164201
7.639,137016,169,164211
7.644,137009,168,164208
7.649,137022,169,164216
7.654,137010,169,164211
7.659,137026,169,164203
7.664,137017,169,164209
7.669,137021,168,164208
7.674,137019,168,164218
7.679,137017,168,164215
7.684,137012,168,164222
7.689,137018,172,164207
7.694,137006,171,164200
7.699,137015,168,164195
7.704,137005,168,164206
7.709,137009,168,164193
7.714,137008,171,164197
7.719,137007,171,164207
7.724,137011,170,164187
7.729,136992,170,164196
7.734,136999,171,164195
7.739,136993,171,164182
7.744,136987,171,164186
7.749,136991,168,164191
7.754,137006,168,164196
7.759,137009,168,164200
7.764,136993,168,164197
7.769,137004,168,164204
7.774,137017,168,164194
7.779,137012,168,164195
7.784,137013,168,164196
7.789,137025,168,164210
7.793,137017,168,164217
7.798,137033,169,164207
7.803,137026,168,164204
7.808,137027,168,164213
7.813,137036,168,164218
7.818,137033,172,164226
7.823,137063,172,164231
7.828,137053,171,164236
7.833,137046,171,164242
7.838,137059,171,164245
7.843,137056,171,164250
7.848,137083,168,164253
7.853,137069,168,164256
7.858,137071,168,164246
7.863,137067,168,164264
7.868,137077,168,164276
7.873,137072,168,164255
7.878,137077,168,164268
7.883,137071,168,164255
7.888,137071,168,164272
7.893,137082,168,164274
7.898,137086,169,164258
7.903,137080,169,164279
7.908,137089,169,164273
7.913,137092,169,164275
7.918,137099,169,164282
7.923,137108,169,164277
7.928,137097,169,164291
7.933,137105,169,164300
7.938,137106,169,164307
7.943,137146,170,164304
7.948,137111,171,164319
7.953,137109,170,164309
7.957,137120,170,164315
7.962,137135,170,164332
7.967,137143,169,164320
7.972,137127,169,164323
7.977,137148,169,164357
7.982,137164,169,164351
7.987,137142,170,164346
7.992,137164,168,164350
7.997,137171,168,164368
8.002,137177,168,164376
8.007,137176,168,164386
8.012,137178,168,164384
8.017,137177,168,164391
8.022,137179,168,164385
8.027,137181,168,164377
8.032,137187,168,164367
8.037,137170,168,164376
8.042,137174,169,164388
8.047,137189,169,164391
8.052,137187,168,164399
8.057,137192,169,164394
8.062,137191,169,164397
8.067,137212,169,164412
8.072,137213,169,164416
8.077,137211,170,164408
8.082,137221,170,164431
8.087,137234,169,164441
8.092,137240,168,164443
8.097,137254,168,164478
8.102,137265,168,164474
8.107,137279,169,164477
8.112,137284,169,164464
8.117,137291,169,164490
8.121,137292,169,164485
8.126,137290,169,164494
8.131,137299,169,164502
8.136,137311,168,164528
8.141,137324,169,164521
8.146,137315,170,164522
8.151,137343,170,164539
8.156,137334,169,164530
8.161,137340,170,164547
8.166,137343,170,164555
8.171,137362,170,164552
8.176,137365,170,164558
8.181,137374,170,164555
8.186,137384,168,164576
8.191,137373,170,164570
8.196,137392,170,164580
8.201,137400,169,164596
8.206,137400,169,164584
8.211,137396,169,164574
8.216,137399,168,164591
8.221,137410,168,164596
8.226,137416,168,164607
8.231,137420,168,164623
8.236,137426,170,164597
8.241,137427,170,164617
8.246,137441,170,164588
8.251,137435,169,164595
8.256,137435,169,164611
8.261,137436,169,164611
8.266,137428,168,164606
8.271,137450,168,164609
8.276,137457,168,164617
8.281,137445,168,164609
8.285,137447,170,164607
8.290,137460,171,164616
8.295,137463,170,164620
8.300,137468,170,164623
8.305,137463,170,164598
8.310,137459,170,164598
8.315,137458,170,164596
8.320,137474,170,164583
8.325,137461,169,164585
8.330,137454,169,164575
8.335,137454,171,164560
8.340,137436,171,164548
8.345,137437,171,164558
8.350,137440,171,164553
8.355,137419,172,164559
8.360,137417,171,164562
8.365,137412,172,164537
8.370,137391,168,164526
8.375,137392,168,164534
8.380,137366,168,164500
8.385,137366,169,164506
8.390,137342,169,164491
8.395,137350,169,164473
8.400,137333,169,164458
8.405,137314,169,164471
8.410,137297,169,164475
8.415,137283,169,164446
8.420,137280,169,164422
8.425,137266,169,164422
8.430,137263,171,164442
8.435,137264,171,164417
8.440,137259,171,164417
8.445,137229,171,164412
8.449,137232,171,164402
8.454,137237,171,164406
8.459,137230,171,164399
8.464,137226,171,164397
8.469,137216,171,164399
8.474,137216,170,164408
8.479,137215,168,164359
8.484,137201,169,164402
8.489,137205,169,164385
8.494,137212,169,164404
8.499,137191,169,164403
8.504,137199,168,164403
8.509,137211,168,164403
8.514,137197,168,164397
8.519,137200,171,164401
8.524,137190,170,164397
8.529,137190,168,164424
8.534,137185,171,164420
8.539,137194,171,164413
8.544,137187,171,164408
8.549,137190,170,164409
8.554,137186,169,164413
8.559,137179,169,164413
8.564,137184,168,164409
8.569,137191,168,164414
8.574,137186,168,164420
8.579,137179,170,164412
8.584,137182,169,164419
8.589,137200,169,164437
8.594,137212,168,164452
8.599,137201,169,164451
8.604,137206,168,164459
8.609,137197,168,164455
8.613,137205,168,164486
8.618,137216,168,164474
8.623,137228,168,164467
8.628,137222,170,164489
8.633,137234,170,164484
8.638,137236,170,164495
8.643,137242,170,164497
8.648,137236,170,164513
8.653,137248,169,164507
8.658,137266,170,164498
8.663,137253,169,164530
8.668,137253,169,164507
8.673,137243,169,164511
8.678,137255,171,164508
8.683,137259,171,164511
8.688,137252,170,164517
8.693,137264,170,164505
8.698,137257,169,164508
8.703,137258,169,164508
8.708,137268,168,164513
8.713,137267,168,164509
8.718,137264,168,164520
8.723,137260,168,164480
8.728,137248,169,164499
8.733,137253,169,164493
8.738,137248,168,164479
8.743,137255,168,164488
8.748,137247,168,164473
8.753,137237,171,164475
8.758,137241,171,164467
8.763,137230,171,164474
8.768,137233,170,164460
8.773,137243,168,164467
8.777,137237,168,164466
8.782,137246,171,164463
8.787,137241,171,164475
8.792,137231,170,164466
8.797,137241,170,164481
8.802,137247,169,164468
8.807,137252,169,164484
8.812,137249,169,164489
8.817,137259,169,164506
8.822,137261,170,164489
8.827,137259,171,164496
8.832,137257,170,164486
8.837,137251,169,164493
8.842,137256,169,164497
8.847,137265,169,164482
8.852,137269,169,164494
8.857,137263,168,164495
8.862,137265,168,164507
8.867,137265,169,164490
8.872,137264,168,164479
8.877,137279,168,164487
8.882,137275,168,164482
8.887,137274,171,164482
8.892,137278,171,164496
8.897,137291,170,164503
8.902,137285,170,164494
8.907,137289,170,164505
8.912,137289,169,164490
8.917,137296,169,164500
8.922,137306,168,164489
8.927,137289,168,164510
8.932,137287,168,164499
8.937,137310,168,164524
8.941,137300,168,164512
8.946,137321,168,164511
8.951,137318,168,164528
8.956,137325,168,164524
8.961,137320,169,164527
8.966,137333,171,164535
8.971,137345,170,164550
8.976,137346,169,164532
8.981,137349,170,164536
8.986,137356,169,164554
8.991,137354,169,164554
8.996,137357,169,164554
9.001,137366,169,164535
9.006,137359,169,164543
9.011,137366,170,164544
9.016,137365,171,164548
9.021,137366,171,164545
9.026,137373,171,164544
9.031,137368,172,164547
9.036,137369,171,164544
9.041,137384,171,164546
9.046,137378,171,164533
9.051,137380,171,164563
9.056,137379,170,164549
9.061,137387,171,164556
9.066,137391,168,164537
9.071,137396,168,164560
9.076,137403,168,164550
9.081,137409,168,164566
9.086,137418,172,164554
9.091,137400,172,164552
9.096,137404,171,164549
9.101,137415,171,164551
9.105,137406,171,164537
9.110,137427,171,164546
9.115,137435,168,164569
9.120,137420,168,164548
9.125,137429,168,164562
9.130,137416,168,164531
9.135,137436,168,164551
9.140,137432,168,164545
9.145,137442,172,164546
9.150,137429,172,164553
9.155,137423,171,164535
9.160,137434,171,164527
9.165,137411,168,164509
9.170,137415,168,164505
9.175,137402,168,164511
9.180,137413,168,164494
9.185,137395,168,164487
9.190,137400,168,164485
9.195,137390,168,164490
9.200,137382,168,164478
9.205,137379,168,164481
9.210,137365,170,164522
9.215,137353,170,164492
9.220,137373,171,164468
9.225,137357,171,164486
9.230,137356,171,164482
9.235,137340,168,164472
9.240,137337,168,164465
9.245,137328,168,164474
9.250,137320,168,164480
9.255,137311,168,164459
9.260,137310,169,164450
9.265,137299,169,164439
9.269,137285,169,164435
9.274,137280,169,164435
9.279,137277,169,164421
9.284,137277,169,164417
9.289,137268,169,164423
9.294,137256,169,164413
9.299,137252,169,164414
9.304,137246,169,164403
9.309,137243,171,164403
9.314,137248,168,164408
9.319,137243,168,164394
9.324,137236,168,164409
9.329,137228,168,164407
9.334,137223,168,164392
9.339,137211,171,164404
9.344,137222,171,164400
9.349,137214,171,164386
9.354,137198,170,164377
9.359,137204,168,164393
9.364,137218,168,164366
9.369,137203,168,164371
9.374,137189,168,164353
9.379,137184,168,164336
9.384,137182,168,164338
9.389,137177,168,164336
9.394,137164,169,164326
9.399,137147,168,164328
9.404,137161,168,164313
9.409,137150,171,164299
9.414,137148,170,164300
9.419,137153,171,164273
9.424,137130,171,164283
9.429,137142,168,164291
9.433,137128,168,164271
9.438,137127,168,164281
9.443,137125,168,164267
9.448,137132,168,164264
9.453,137126,168,164276
9.458,137126,169,164250
9.463,137115,169,164260
9.468,137124,169,164252
9.473,137119,169,164251
9.478,137124,169,164258
9.483,137119,169,164248
9.488,137129,169,164251
9.493,137118,169,164247
9.498,137124,169,164238
9.503,137102,169,164283
9.508,137122,168,164230
9.513,137115,168,164240
9.518,137132,168,164240
9.523,137109,168,164232
9.528,137112,168,164228
9.533,137094,168,164229
9.538,137109,168,164218
9.543,137111,168,164217
9.548,137109,168,164227
9.553,137108,169,164190
9.558,137096,169,164213
9.563,137084,169,164215
9.568,137093,169,164209
9.573,137092,170,164190
9.578,137090,169,164189
9.583,137085,169,164186
9.588,137084,169,164198
9.593,137096,169,164195
9.597,137078,169,164174
9.602,137105,168,164166
9.607,137077,169,164175
9.612,137097,169,164180
9.617,137090,168,164181
9.622,137085,168,164187
9.627,137089,168,164180
9.632,137090,168,164161
9.637,137079,168,164171
9.642,137091,168,164166
9.647,137094,169,164176
9.652,137085,168,164186
9.657,137108,168,164183
9.662,137103,168,164188
9.667,137116,169,164174
9.672,137118,170,164189
9.677,137112,170,164192
9.682,137110,171,164186
9.687,137120,168,164153
9.692,137118,168,164176
9.697,137114,169,164165
9.702,137119,168,164150
9.707,137131,169,164153
9.712,137110,170,164154
9.717,137122,170,164141
9.722,137122,168,164148
9.727,137115,168,164147
9.732,137135,169,164142
9.737,137134,170,164165
9.742,137137,172,164147
9.747,137144,168,164148
9.752,137136,170,164150
9.757,137154,171,164152
9.761,137168,168,164153
9.766,137158,169,164168
9.771,137163,170,164157
9.776,137162,171,164141
9.781,137172,168,164149
9.786,137149,168,164140
9.791,137158,169,164138
9.796,137160,168,164138
9.801,137181,170,164142
9.806,137175,170,164134
9.811,137176,172,164136
9.816,137162,168,164124
9.821,137170,169,164147
9.826,137188,170,164137
9.831,137178,171,164136
9.836,137177,168,164151
9.841,137197,169,164165
9.846,137208,168,164142
9.851,137190,169,164151
9.856,137213,169,164154
9.861,137209,170,164165
9.866,137215,172,164161
9.871,137220,168,164145
9.876,137211,168,164159
9.881,137238,169,164175
9.886,137230,169,164159
9.891,137237,172,164153
9.896,137237,168,164158
9.901,137231,169,164153
9.906,137236,169,164164
9.911,137221,170,164173
9.916,137242,168,164168
9.921,137245,168,164166
9.925,137241,168,164175
9.930,137246,169,164163
9.935,137243,169,164167
9.940,137236,170,164158
9.945,137242,168,164158
9.950,137244,169,164161
9.955,137249,169,164184
9.960,137229,171,164185
9.965,137227,168,164168
9.970,137235,168,164168
9.975,137226,168,164162
9.980,137212,169,164153
9.985,137206,170,164134
9.990,137218,168,164136
9.995,137192,169,164138
10.000,137190,171,164136
10.005,137175,172,164129
10.010,137169,168,164127
10.015,137173,168,164124
10.020,137140,169,164105
10.025,137128,169,164114
10.030,137122,169,164108
10.035,137121,169,164101
10.040,137129,168,164096
10.045,137115,169,164080
10.050,137094,169,164076
10.055,137089,169,164090
10.060,137085,170,164073
10.065,137082,170,164085
10.070,137080,171,164074
10.075,137072,171,164079
10.080,137072,168,164083
10.085,137062,168,164069
10.089,137064,168,164075
10.094,137061,171,164075
10.099,137056,168,164084
10.104,137063,168,164079
10.109,137059,168,164085
10.114,137049,168,164072
10.119,137048,169,164085
10.124,137045,169,164081
10.129,137053,170,164091
10.134,137026,171,164071
10.139,137036,168,164085
10.144,137040,169,164073
10.149,137025,169,164056
10.154,137031,169,164071
10.159,137025,169,164063
10.164,137033,170,164068
10.169,137011,170,164067
10.174,137028,171,164061
10.179,137017,171,164072
10.184,137028,172,164070
10.189,137023,169,164087
10.194,137032,169,164086
10.199,137016,171,164090
10.204,137032,168,164100
10.209,137024,168,164101
10.214,137034,168,164104
10.219,137040,169,164098
10.224,137026,169,164114
10.229,137044,170,164107
10.234,137042,169,164116
10.239,137037,168,164125
10.244,137038,169,164137
10.249,137059,169,164144
10.253,137052,170,164141
10.258,137067,170,164139
10.263,137063,171,164146
10.268,137072,168,164148
10.273,137066,168,164154
10.278,137061,168,164150
10.283,137071,170,164151
10.288,137056,168,164161
10.293,137065,168,164158
10.298,137072,169,164164
10.303,137074,169,164179
10.308,137069,170,164169
10.313,137068,171,164176
10.318,137056,168,164165
10.323,137059,169,164176
10.328,137039,169,164171
10.333,137056,168,164177
10.338,137056,169,164183
10.343,137061,170,164182
10.348,137066,171,164181
10.353,137055,168,164206
10.358,137063,168,164200
10.363,137069,168,164184
10.368,137073,169,164208
10.373,137063,169,164215
10.378,137079,170,164225
10.383,137099,169,164230
10.388,137096,171,164243
10.393,137097,168,164228
10.398,137109,168,164252
10.403,137103,168,164261
10.408,137107,169,164259
10.413,137130,170,164265
10.417,137104,170,164267
10.422,137111,171,164267
10.427,137102,168,164256
10.432,137120,169,164251
10.437,137105,170,164264
10.442,137110,171,164246
10.447,137093,168,164244
10.452,137120,168,164240
10.457,137090,168,164240
10.462,137102,169,164229
10.467,137102,170,164237
10.472,137121,170,164252
10.477,137124,168,164257
10.482,137124,168,164261
10.487,137136,169,164288
10.492,137144,170,164285
10.497,137160,168,164297
10.502,137166,168,164304
10.507,137193,169,164319
10.512,137196,169,164334
10.517,137200,170,164352
10.522,137204,171,164375
10.527,137222,168,164375
10.532,137225,169,164399
10.537,137245,169,164415
10.542,137262,170,164413
10.547,137272,171,164435
10.552,137287,171,164449
10.557,137293,168,164441
10.562,137303,168,164457
10.567,137314,169,164461
10.572,137317,169,164468
10.577,137338,171,164468
10.581,137330,168,164476
10.586,137346,168,164482
10.591,137350,168,164500
10.596,137365,169,164514
10.601,137383,170,164515
10.606,137369,171,164516
10.611,137378,170,164522
10.616,137375,170,164514
10.621,137403,171,164549
10.626,137401,169,164542
10.631,137413,169,164563
10.636,137428,170,164550
10.641,137432,171,164562
10.646,137431,172,164571
10.651,137436,168,164572
10.656,137442,168,164571
10.661,137434,168,164560
10.666,137445,168,164567
10.671,137428,168,164560
10.676,137442,168,164569
10.681,137444,168,164566
10.686,137441,168,164570
10.691,137454,169,164574
10.696,137433,169,164585
10.701,137449,169,164600
10.706,137440,169,164584
10.711,137436,169,164576
10.716,137418,170,164594
10.721,137426,173,164605
10.726,137419,169,164581
10.731,137419,169,164560
10.736,137417,169,164580
10.741,137397,169,164557
10.745,137392,170,164563
10.750,137382,170,164567
10.755,137370,171,164564
10.760,137372,171,164547
10.765,137362,168,164539
10.770,137362,169,164524
10.775,137354,170,164528
10.780,137350,171,164522
10.785,137353,168,164525
10.790,137361,168,164513
10.795,137348,168,164522
10.800,137340,169,164520
10.805,137346,169,164524
10.810,137342,170,164519
10.815,137333,170,164531
10.820,137350,168,164535
10.825,137336,168,164529
10.830,137352,169,164529
10.835,137337,169,164539
10.840,137340,170,164536
10.845,137331,170,164518
10.850,137343,171,164529
10.855,137314,168,164524
10.860,137333,168,164516
10.865,137324,168,164511
10.870,137315,170,164525
10.875,137314,170,164508
10.880,137325,170,164505
10.885,137303,171,164512
10.890,137303,171,164491
10.895,137309,172,164502
10.900,137297,168,164498
10.905,137304,168,164485
10.909,137301,168,164505
10.914,137292,168,164496
10.919,137306,170,164492
10.924,137293,171,164477
10.929,137285,168,164473
10.934,137290,168,164455
10.939,137291,168,164469
10.944,137287,168,164466
10.949,137278,169,164461
10.954,137291,169,164450
10.959,137290,169,164451
10.964,137288,171,164500
10.969,137289,168,164458
10.974,137282,168,164445
10.979,137276,169,164440
10.984,137281,169,164426
10.989,137287,170,164424
10.994,137287,171,164429
10.999,137270,168,164432
11.004,137289,168,164431
11.009,137275,168,164420
11.014,137292,170,164421
11.019,137274,171,164430
11.024,137255,172,164424
11.029,137272,168,164425
11.034,137275,168,164401
11.039,137254,169,164414
11.044,137272,170,164409
11.049,137259,171,164405
11.054,137270,168,164394
11.059,137246,168,164402
11.064,137270,170,164395
11.068,137250,171,164384
11.073,137254,168,164376
11.078,137253,168,164375
11.083,137255,168,164383
11.088,137263,169,164383
11.093,137264,170,164368
11.098,137254,171,164374
11.103,137259,171,164375
11.108,137253,168,164370
11.113,137254,170,164373
11.118,137268,171,164384
11.123,137251,168,164385
11.128,137257,168,164375
11.133,137283,168,164386
11.138,137271,169,164398
11.143,137277,169,164391
11.148,137284,170,164400
11.153,137288,171,164393
11.158,137292,168,164412
11.163,137301,169,164410
11.168,137301,170,164418
11.173,137309,171,164424
11.178,137321,168,164440
11.183,137319,168,164436
11.188,137328,168,164436
11.193,137316,168,164445
11.198,137320,168,164452
11.203,137328,169,164466
11.208,137337,170,164462
11.213,137347,168,164471
11.218,137370,168,164499
11.223,137361,169,164493
11.228,137364,169,164499
11.232,137380,170,164515
11.237,137374,171,164509
11.242,137392,171,164518
11.247,137388,171,164523
11.252,137399,168,164535
11.257,137404,168,164533
11.262,137428,169,164553
11.267,137414,170,164557
11.272,137427,171,164558
11.277,137433,171,164551
11.282,137447,171,164587
11.287,137455,168,164566
11.292,137452,168,164589
11.297,137465,168,164592
11.302,137467,169,164590
11.307,137473,168,164591
11.312,137484,169,164591
11.317,137489,169,164597
11.322,137484,170,164604
11.327,137481,170,164616
11.332,137492,170,164609
11.337,137495,170,164600
11.342,137489,171,164623
11.347,137499,168,164614
11.352,137510,168,164616
11.357,137516,170,164622
11.362,137515,172,164609
11.367,137512,168,164626
11.372,137526,168,164628
11.377,137532,169,164618
11.382,137527,170,164623
11.387,137536,170,164633
11.392,137534,171,164616
11.396,137546,168,164621
11.401,137558,168,164634
11.406,137548,168,164636
11.411,137550,168,164616
11.416,137565,168,164643
11.421,137554,168,164642
11.426,137563,169,164627
11.431,137565,169,164623
11.436,137548,169,164609
11.441,137552,169,164609
11.446,137557,169,164615
11.451,137555,170,164600
11.456,137536,168,164605
11.461,137539,168,164592
11.466,137536,169,164592
11.471,137521,169,164578
11.476,137517,170,164579
11.481,137509,171,164583
11.486,137502,168,164583
11.491,137493,168,164566
11.496,137485,168,164559
11.501,137506,170,164560
11.506,137452,171,164546
11.511,137449,168,164537
11.516,137419,168,164532
11.521,137430,169,164511
11.526,137420,169,164518
11.531,137422,170,164508
11.536,137415,170,164507
11.541,137386,171,164481
11.546,137385,172,164480
11.551,137370,169,164462
11.556,137360,169,164466
11.560,137369,170,164469
11.565,137365,171,164452
11.570,137353,171,164454
11.575,137352,168,164443
11.580,137345,168,164441
11.585,137339,168,164444
11.590,137318,169,164428
11.595,137321,169,164426
11.600,137314,168,164430
11.605,137309,168,164413
11.610,137321,168,164423
11.615,137296,168,164421
11.620,137305,169,164423
11.625,137288,169,164403
11.630,137287,169,164408
11.635,137284,169,164404
11.640,137279,169,164421
11.645,137282,169,164401
11.650,137266,168,164394
11.655,137271,168,164390
11.660,137254,168,164384
11.665,137262,169,164390
11.670,137252,170,164371
11.675,137263,170,164377
11.680,137259,171,164374
11.685,137245,168,164363
11.690,137236,168,164369
11.695,137251,168,164359
11.700,137233,171,164362
11.705,137247,171,164353
11.710,137226,168,164352
11.715,137225,168,164356
11.720,137225,168,164343
11.724,137233,169,164356
11.729,137232,170,164364
11.734,137225,171,164358
11.739,137233,168,164365
11.744,137217,168,164374
11.749,137248,170,164363
11.754,137232,168,164383
11.759,137241,168,164383
11.764,137250,169,164380
11.769,137247,169,164398
11.774,137255,169,164403
11.779,137270,169,164407
11.784,137275,171,164420
11.789,137282,171,164430
11.794,137295,168,164437
11.799,137288,170,164448
11.804,137302,170,164452
11.809,137300,171,164466
11.814,137316,168,164473
11.819,137310,168,164460
11.824,137328,168,164480
11.829,137316,168,164484
11.834,137323,169,164493
11.839,137303,169,164477
11.844,137304,168,164485
11.849,137316,168,164498
11.854,137304,168,164472
11.859,137326,169,164472
11.864,137309,169,164462
11.869,137296,170,164467
11.874,137297,170,164454
11.879,137310,171,164459
11.884,137286,168,164466
11.888,137282,168,164443
11.893,137310,170,164450
11.898,137285,171,164468
11.903,137287,171,164463
11.908,137292,168,164469
11.913,137302,168,164478
11.918,137309,168,164472
11.923,137307,169,164489
11.928,137312,169,164475
11.933,137315,171,164488
11.938,137299,168,164494
11.943,137311,168,164490
11.948,137308,168,164485
11.953,137325,168,164494
11.958,137320,168,164484
11.963,137322,169,164485
11.968,137328,170,164475
11.973,137326,170,164493
11.978,137331,171,164495
11.983,137338,168,164494
11.988,137341,168,164493
11.993,137341,170,164501
11.998,137338,170,164495
12.003,137330,171,164500
12.008,137346,168,164513
12.013,137343,168,164525
12.018,137339,169,164512
12.023,137344,169,164506
12.028,137353,170,164522
12.033,137348,171,164501
12.038,137349,168,164529
12.043,137354,169,164516
12.048,137371,170,164527
12.052,137365,170,164524
12.057,137378,170,164539
12.062,137381,171,164533
12.067,137380,168,164534
12.072,137391,168,164562
12.077,137386,168,164558
12.082,137403,169,164553
12.087,137405,172,164592
12.092,137402,168,164566
12.097,137410,168,164581
12.102,137418,168,164578
12.107,137424,169,164590
12.112,137424,169,164589
12.117,137432,170,164588
12.122,137444,171,164585
12.127,137448,168,164606
12.132,137451,169,164630
12.137,137449,169,164624
12.142,137448,171,164617
12.147,137449,168,164606
12.152,137456,168,164631
12.157,137474,168,164649
12.162,137476,169,164639
12.167,137490,170,164646
12.172,137487,172,164642
12.177,137488,168,164661
12.182,137502,168,164643
12.187,137488,171,164649
12.192,137500,172,164655
12.197,137505,168,164656
12.202,137512,169,164659
12.207,137499,169,164668
12.212,137516,169,164670
12.216,137533,170,164679
12.221,137512,172,164669
12.226,137533,168,164670
12.231,137526,173,164663
12.236,137521,168,164655
12.241,137509,169,164630
12.246,137512,169,164631
12.251,137502,170,164632
12.256,137502,171,164620
12.261,137491,168,164622
12.266,137474,168,164619
12.271,137480,169,164615
12.276,137486,169,164610
12.281,137455,172,164607
12.286,137458,168,164600
12.291,137439,168,164594
12.296,137411,168,164594
12.301,137403,168,164567
12.306,137398,168,164553
12.311,137390,169,164552
12.316,137377,169,164536
12.321,137364,170,164511
12.326,137348,170,164509
12.331,137349,168,164495
12.336,137322,168,164473
12.341,137297,170,164471
12.346,137298,170,164440
12.351,137269,171,164422
12.356,137273,171,164426
12.361,137256,168,164399
12.366,137248,168,164392
12.371,137239,169,164399
12.376,137221,169,164385
12.380,137213,168,164354
12.385,137216,168,164347
12.390,137205,168,164353
12.395,137206,169,164353
12.400,137192,170,164346
12.405,137198,170,164350
12.410,137186,171,164319
12.415,137178,168,164310
12.420,137152,168,164318
12.425,137157,169,164308
12.430,137145,168,164302
12.435,137151,168,164288
12.440,137133,169,164278
12.445,137129,169,164277
12.450,137129,170,164272
12.455,137124,171,164261
12.460,137107,168,164265
12.465,137097,169,164240
12.470,137100,169,164258
12.475,137107,168,164216
12.480,137095,168,164236
12.485,137086,168,164230
12.490,137093,169,164226
12.495,137085,168,164221
12.500,137084,169,164224
12.505,137075,169,164218
12.510,137075,170,164221
12.515,137083,171,164230
12.520,137071,168,164217
12.525,137072,169,164213
12.530,137071,170,164216
12.535,137085,170,164203
12.540,137083,171,164218
12.544,137086,168,164212
12.549,137086,168,164205
12.554,137086,168,164224
12.559,137079,169,164221
12.564,137084,170,164221
12.569,137081,170,164227
12.574,137095,168,164237
12.579,137080,170,164201
12.584,137074,171,164191
12.589,137070,171,164184
12.594,137090,171,164174
12.599,137061,168,164169
12.604,137058,168,164164
12.609,137063,168,164169
12.614,137048,168,164162
12.619,137043,169,164158
12.624,137045,172,164142
12.629,137042,168,164148
12.634,137032,168,164147
12.639,137032,168,164145
12.644,137031,168,164132
12.649,137029,169,164131
12.654,137025,170,164134
12.659,137021,171,164121
12.664,137017,171,164105
12.669,137013,168,164130
12.674,137023,169,164106
12.679,137018,170,164111
12.684,137016,170,164095
12.689,137025,172,164116
12.694,137006,168,164112
12.699,137009,168,164120
12.704,137025,168,164111
12.708,137016,169,164115
12.713,137002,169,164083
12.718,137007,171,164108
12.723,137017,168,164094
12.728,137000,169,164107
12.733,137012,169,164086
12.738,137013,170,164084
12.743,137016,171,164091
12.748,137014,168,164104
12.753,137015,168,164105
12.758,137013,169,164090
12.763,137011,169,164092
12.768,137036,168,164090
12.773,137012,170,164077
12.778,137020,171,164074
12.783,137015,168,164085
12.788,137006,168,164090
12.793,137001,169,164064
12.798,136998,169,164078
12.803,137009,169,164081
12.808,137002,170,164079
12.813,137002,171,164076
12.818,136995,168,164078
12.823,137017,169,164087
12.828,137004,170,164082
12.833,137008,168,164099
12.838,137014,168,164099
12.843,137008,169,164094
12.848,137011,169,164089
12.853,137017,170,164096
12.858,137020,171,164104
12.863,137018,168,164087
12.868,137017,170,164112
12.872,137049,171,164099
12.877,137044,168,164100
12.882,137033,168,164093
12.887,137037,168,164109
12.892,137047,169,164105
12.897,137051,169,164116
12.902,137068,171,164120
12.907,137056,168,164105
12.912,137046,168,164116
12.917,137080,168,164124
12.922,137056,168,164127
12.927,137071,169,164122
12.932,137062,170,164126
12.937,137072,171,164125
12.942,137080,168,164141
12.947,137087,168,164130
12.952,137080,169,164124
12.957,137096,169,164132
12.962,137078,171,164149
12.967,137082,168,164141
12.972,137093,168,164146
12.977,137089,169,164120
12.982,137083,169,164130
12.987,137078,169,164133
12.992,137083,170,164125
12.997,137073,170,164124
13.002,137064,171,164116
13.007,137069,168,164124
13.012,137053,169,164114
13.017,137051,169,164107
13.022,137044,170,164110
13.027,137032,170,164092
13.032,137033,170,164109
13.036,137003,171,164091
13.041,137005,172,164100
13.046,136997,168,164100
13.051,137010,168,164101
13.056,136977,169,164114
13.061,136986,172,164093
13.066,136982,168,164093
13.071,136971,168,164091
13.076,136977,169,164086
13.081,136955,170,164089
13.086,136957,170,164084
13.091,136967,171,164090
13.096,136959,168,164108
13.101,136969,169,164106
13.106,136972,169,164130
13.111,136961,168,164122
13.116,136961,168,164132
13.121,136965,170,164121
13.126,136962,171,164124
13.131,136956,168,164126
13.136,136956,169,164148
13.141,136954,170,164145
13.146,136963,172,164135
13.151,136976,168,164138
13.156,136960,169,164158
13.161,136974,168,164158
13.166,136967,168,164150
13.171,136963,169,164150
13.176,136958,171,164151
13.181,136959,168,164176
13.186,136959,169,164151
13.191,136953,170,164164
13.196,136955,170,164147
13.200,136964,171,164169
13.205,136950,170,164150
13.210,136966,170,164166
13.215,136948,170,164165
13.220,136967,168,164174
13.225,136961,168,164185
13.230,136971,169,164167
13.235,136958,169,164167
13.240,136981,171,164174
13.245,136967,172,164176
13.250,136980,168,164179
13.255,136965,169,164198
13.260,136977,170,164189
13.265,136979,171,164187
13.270,136971,171,164187
13.275,136971,168,164194
13.280,136978,169,164189
13.285,136984,169,164209
13.290,136986,170,164215
13.295,137001,171,164213
13.300,137005,168,164211
13.305,137025,169,164235
13.310,137020,170,164262
13.315,137026,171,164258
13.320,137024,168,164256
13.325,137046,169,164251
13.330,137036,169,164279
13.335,137050,170,164291
13.340,137055,171,164279
13.345,137057,168,164276
13.350,137076,168,164307
13.355,137082,168,164303
13.360,137067,169,164310
13.364,137080,169,164302
13.369,137072,170,164315
13.374,137093,171,164317
13.379,137110,168,164319
13.384,137112,169,164335
13.389,137097,170,164348
13.394,137124,171,164346
13.399,137108,168,164352
13.404,137119,168,164345
13.409,137135,171,164360
13.414,137137,172,164353
13.419,137142,168,164356
13.424,137136,168,164376
13.429,137151,169,164374
13.434,137142,169,164376
13.439,137145,170,164395
13.444,137162,171,164384
13.449,137167,169,164385
13.454,137161,169,164415
13.459,137168,169,164410
13.464,137159,170,164416
13.469,137190,171,164437
13.474,137188,168,164417
13.479,137190,168,164423
13.484,137184,169,164443
13.489,137204,169,164441
13.494,137201,169,164456
13.499,137182,168,164451
13.504,137205,169,164455
13.509,137217,169,164465
13.514,137219,169,164466
13.519,137222,171,164473
13.524,137239,168,164476
13.528,137235,168,164476
13.533,137223,169,164474
13.538,137232,168,164471
13.543,137232,169,164478
13.548,137229,168,164491
13.553,137239,168,164488
13.558,137239,169,164494
13.563,137243,170,164492
13.568,137247,170,164499
13.573,137244,171,164512
13.578,137259,171,164500
13.583,137270,168,164517
13.588,137269,168,164515
13.593,137277,169,164541
13.598,137280,168,164514
13.603,137276,169,164530
13.608,137269,169,164552
13.613,137284,170,164545
13.618,137286,170,164545
13.623,137294,170,164538
13.628,137305,172,164550
13.633,137312,168,164563
13.638,137324,168,164568
13.643,137326,169,164577
13.648,137339,172,164566
13.653,137339,168,164578
13.658,137336,168,164586
13.663,137336,169,164581
13.668,137353,170,164601
13.673,137345,171,164586
13.678,137354,168,164597
13.683,137341,168,164593
13.688,137355,169,164592
13.692,137352,171,164612
13.697,137361,168,164584
13.702,137353,169,164587
13.707,137358,169,164568
13.712,137360,170,164584
13.717,137348,170,164595
13.722,137347,171,164589
13.727,137345,168,164601
13.732,137329,168,164576
13.737,137327,168,164567
13.742,137327,169,164564
13.747,137333,169,164574
13.752,137301,170,164585
13.757,137301,170,164560
13.762,137293,170,164568
13.767,137278,171,164558
13.772,137273,168,164550
13.777,137268,168,164568
13.782,137263,168,164549
13.787,137254,169,164537
13.792,137262,171,164548
13.797,137247,168,164535
13.802,137234,168,164526
13.807,137225,168,164514
13.812,137222,169,164519
13.817,137237,169,164532
13.822,137211,170,164517
13.827,137214,171,164521
13.832,137211,168,164513
13.837,137199,168,164501
13.842,137202,169,164516
13.847,137199,170,164526
13.852,137198,171,164514
13.856,137181,171,164509
13.861,137185,168,164514
13.866,137191,168,164520
13.871,137172,168,164504
13.876,137175,168,164521
13.881,137192,168,164500
13.886,137185,171,164505
13.891,137169,168,164505
13.896,137179,168,164518
13.901,137177,168,164518
13.906,137170,168,164512
13.911,137170,171,164513
13.916,137177,171,164520
13.921,137174,171,164505
13.926,137173,171,164507
13.931,137172,170,164491
13.936,137170,170,164497
13.941,137162,168,164507
13.946,137162,171,164497
13.951,137171,171,164512
13.956,137153,171,164502
13.961,137165,171,164513
13.966,137149,170,164511
13.971,137161,169,164514
13.976,137161,169,164522
13.981,137167,169,164520
13.986,137175,169,164525
13.991,137184,170,164537
13.996,137174,169,164535
14.001,137185,169,164533
14.006,137200,168,164546
14.011,137202,168,164545
14.016,137205,168,164543
14.020,137201,168,164543
14.025,137225,168,164547
14.030,137221,171,164560
14.035,137210,170,164560
14.040,137228,170,164571
14.045,137232,170,164569
14.050,137221,170,164559
14.055,137227,169,164564
14.060,137237,169,164552
14.065,137237,169,164574
14.070,137237,168,164554
14.075,137221,168,164563
14.080,137233,168,164556
14.085,137221,169,164540
14.090,137225,169,164531
14.095,137212,169,164543
14.100,137219,168,164525
14.105,137208,168,164531
14.110,137219,168,164525
14.115,137213,168,164527
14.120,137200,168,164531
14.125,137218,168,164545
14.130,137229,173,164536
14.135,137217,168,164538
14.140,137226,168,164536
14.145,137234,168,164537
14.150,137225,168,164533
14.155,137230,168,164533
14.160,137218,168,164521
14.165,137210,168,164532
14.170,137218,168,164516
14.175,137207,168,164513
14.180,137208,172,164512
14.184,137222,168,164516
14.189,137225,168,164505
14.194,137233,168,164527
14.199,137228,168,164513
14.204,137226,172,164513
14.209,137241,171,164518
14.214,137239,170,164517
14.219,137257,170,164531
14.224,137237,170,164525
14.229,137246,171,164548
14.234,137262,171,164544
14.239,137265,172,164567
14.244,137278,171,164565
14.249,137283,171,164606
14.254,137285,170,164583
14.259,137283,170,164592
14.264,137294,170,164604
14.269,137299,170,164613
14.274,137314,170,164611
14.279,137320,168,164607
14.284,137319,169,164612
14.289,137324,169,164635
14.294,137315,169,164621
14.299,137330,169,164639
14.304,137334,168,164649
14.309,137349,169,164657
14.314,137359,168,164660
14.319,137355,168,164664
14.324,137363,168,164678
14.329,137391,169,164686
14.334,137391,168,164704
14.339,137397,169,164685
14.344,137412,168,164694
14.348,137402,168,164702
14.353,137400,168,164708
14.358,137394,168,164704
14.363,137410,168,164714
14.368,137410,172,164699
14.373,137418,171,164709
14.378,137425,168,164715
14.383,137432,168,164728
14.388,137438,168,164724
14.393,137453,168,164736
14.398,137446,168,164755
14.403,137453,168,164758
14.408,137479,171,164758
14.413,137499,171,164781
14.418,137505,170,164784
14.423,137507,170,164800
14.428,137515,168,164795
14.433,137511,172,164799
14.438,137519,170,164801
14.443,137516,170,164777
14.448,137485,169,164797
14.453,137504,169,164776
14.458,137502,168,164776
14.463,137494,168,164779
14.468,137498,168,164772
14.473,137490,169,164795
14.478,137492,168,164776
14.483,137470,171,164761
14.488,137472,171,164754
14.493,137452,170,164755
14.498,137444,169,164735
14.503,137434,169,164741
14.508,137415,169,164730
14.512,137406,168,164709
14.517,137383,168,164704
14.522,137347,169,164684
14.527,137357,169,164696
14.532,137363,168,164684
14.537,137376,168,164664
14.542,137344,168,164651
14.547,137326,168,164658
14.552,137323,168,164662
14.557,137326,168,164670
14.562,137347,172,164668
14.567,137330,171,164671
14.572,137312,169,164686
14.577,137330,169,164691
14.582,137322,168,164688
14.587,137335,168,164686
14.592,137338,168,164710
14.597,137315,168,164707
14.602,137318,171,164697
14.607,137319,170,164692
14.612,137311,170,164696
14.617,137301,169,164687
14.622,137283,171,164689
14.627,137300,170,164674
14.632,137284,170,164689
14.637,137285,169,164665
14.642,137258,169,164662
14.647,137262,168,164645
14.652,137250,168,164629
14.657,137257,172,164618
14.662,137239,170,164601
14.667,137232,169,164599
14.672,137225,172,164600
14.676,137224,170,164605
14.681,137220,170,164596
14.686,137221,169,164587
14.691,137216,169,164597
14.696,137205,169,164569
14.701,137214,168,164594
14.706,137229,168,164586
14.711,137208,168,164586
14.716,137215,168,164586
14.721,137221,168,164593
14.726,137218,171,164600
14.731,137225,171,164592
14.736,137220,170,164586
14.741,137214,170,164590
14.746,137230,170,164578
14.751,137219,169,164575
14.756,137219,169,164586
14.761,137221,169,164596
14.766,137229,171,164573
14.771,137224,170,164583
14.776,137231,170,164590
14.781,137221,170,164569
14.786,137212,170,164572
14.791,137219,170,164558
14.796,137216,169,164561
14.801,137203,169,164564
14.806,137214,169,164553
14.811,137214,168,164554
14.816,137198,169,164545
14.821,137203,169,164545
14.826,137196,169,164559
14.831,137193,169,164532
14.836,137188,168,164538
14.840,137194,168,164519
14.845,137191,168,164535
14.850,137191,168,164539
14.855,137172,171,164542
14.860,137175,171,164531
14.865,137185,169,164529
14.870,137174,169,164519
14.875,137167,169,164492
14.880,137164,169,164511
14.885,137165,169,164504
14.890,137172,169,164505
14.895,137167,168,164508
14.900,137160,169,164502
14.905,137165,168,164504
14.910,137171,168,164472
14.915,137152,169,164499
14.920,137146,169,164490
14.925,137141,168,164493
14.930,137153,168,164461
14.935,137149,168,164468
14.940,137134,168,164458
14.945,137146,168,164458
14.950,137133,171,164449
14.955,137125,171,164438
14.960,137124,170,164420
14.965,137129,168,164408
14.970,137121,171,164410
14.975,137112,170,164399
14.980,137115,170,164396
14.985,137120,170,164403
14.990,137127,169,164374
14.995,137118,169,164384
15.000,137106,168,164369
15.004,137102,168,164377
15.009,137120,168,164380
15.014,137117,168,164372
15.019,137116,168,164354
15.024,137102,168,164368
15.029,137116,172,164349
15.034,137105,170,164355
15.039,137109,169,164357
15.044,137118,169,164350
15.049,137117,168,164351
15.054,137118,168,164354
15.059,137104,169,164352
15.064,137131,168,164356
15.069,137122,168,164349
15.074,137129,169,164361
15.079,137132,168,164357
15.084,137141,168,164351
15.089,137136,171,164353
15.094,137155,170,164355
15.099,137158,170,164353
15.104,137150,169,164347
15.109,137149,171,164342
15.114,137149,170,164353
15.119,137161,169,164348
15.124,137147,170,164348
15.129,137149,169,164332
15.134,137168,169,164324
15.139,137157,168,164333
15.144,137169,169,164346
15.149,137178,168,164343
15.154,137177,169,164335
15.159,137172,172,164333
15.164,137179,171,164344
15.168,137168,171,164327
15.173,137179,170,164322
15.178,137178,170,164328
15.183,137162,170,164329
15.188,137176,169,164314
15.193,137167,169,164325
15.198,137160,169,164313
15.203,137142,168,164314
15.208,137155,168,164314
15.213,137139,168,164302
15.218,137128,171,164308
15.223,137112,170,164279
15.228,137102,169,164262
15.233,137080,168,164260
15.238,137071,168,164247
15.243,137053,168,164244
15.248,137059,171,164235
15.253,137026,170,164245
15.258,137035,168,164217
15.263,137011,171,164213
15.268,137026,170,164224
15.273,137011,169,164217
15.278,137004,168,164208
15.283,136982,168,164194
15.288,136998,168,164182
15.293,136984,171,164188
15.298,136981,170,164177
15.303,136974,170,164182
15.308,136972,168,164181
15.313,136973,171,164175
15.318,136973,170,164181
15.323,136966,169,164186
15.328,136971,169,164168
15.332,136968,168,164175
15.337,136964,168,164176
15.342,136953,168,164176
15.347,136955,168,164175
15.352,136952,168,164162
15.357,136953,168,164157
15.362,136955,168,164171
15.367,136946,168,164172
15.372,136949,171,164152
15.377,136949,170,164176
15.382,136953,170,164160
15.387,136942,169,164163
15.392,136951,169,164183
15.397,136949,168,164168
15.402,136947,170,164157
15.407,136941,170,164155
15.412,136940,169,164145
15.417,136923,169,164163
15.422,136928,168,164154
15.427,136944,168,164176
15.432,136930,168,164170
15.437,136948,168,164181
15.442,136943,172,164155
15.447,136933,171,164166
15.452,136978,169,164177
15.457,136961,170,164188
15.462,136951,170,164183
15.467,136954,170,164196
15.472,136978,169,164196
15.477,136957,168,164191
15.482,136968,168,164222
15.487,136982,168,164216
15.492,136981,171,164224
15.496,136998,170,164214
15.501,136979,168,164235
15.506,136997,171,164237
15.511,136994,170,164248
15.516,136987,169,164254
15.521,136988,170,164244
15.526,136985,169,164249
15.531,137003,169,164261
15.536,137002,168,164270
15.541,137017,168,164291
15.546,137018,169,164294
15.551,137040,169,164322
15.556,137060,168,164338
15.561,137069,168,164361
15.566,137058,168,164356
15.571,137084,171,164371
15.576,137086,170,164376
15.581,137080,170,164360
15.586,137067,169,164362
15.591,137076,168,164365
15.596,137061,169,164362
15.601,137071,169,164356
15.606,137069,169,164353
15.611,137074,168,164361
15.616,137084,168,164376
15.621,137076,168,164382
15.626,137095,171,164371
15.631,137099,170,164384
15.636,137114,170,164408
15.641,137131,170,164415
15.646,137130,168,164421
15.651,137129,171,164437
15.656,137145,170,164450
15.660,137135,170,164449
15.665,137150,169,164457
15.670,137156,169,164447
15.675,137167,168,164454
15.680,137142,168,164455
15.685,137149,168,164462
15.690,137154,168,164447
15.695,137153,169,164440
15.700,137156,169,164438
15.705,137165,168,164453
15.710,137166,168,164474
15.715,137178,168,164472
15.720,137167,168,164472
15.725,137180,168,164465
15.730,137187,172,164475
15.735,137192,171,164487
15.740,137192,170,164480
15.745,137194,169,164487
15.750,137204,169,164493
15.755,137204,169,164489
15.760,137226,168,164500
15.765,137213,168,164504
15.770,137220,168,164501
15.775,137221,171,164503
15.780,137244,170,164526
15.785,137230,169,164533
15.790,137258,169,164532
15.795,137244,170,164531
15.800,137255,169,164524
15.805,137251,169,164544
15.810,137266,168,164540
15.815,137267,168,164570
15.819,137278,168,164560
15.824,137281,171,164564
15.829,137290,172,164556
15.834,137301,171,164571
15.839,137310,173,164567
15.844,137305,169,164584
15.849,137317,169,164576
15.854,137307,168,164562
15.859,137317,168,164566
15.864,137319,168,164563
15.869,137305,168,164557
15.874,137311,168,164560
15.879,137300,171,164553
15.884,137301,170,164550
15.889,137297,168,164555
15.894,137280,172,164552
15.899,137298,170,164561
15.904,137289,170,164562
15.909,137282,169,164567
15.914,137253,169,164529
15.919,137260,168,164557
15.924,137258,168,164548
15.929,137239,168,164530
15.934,137256,171,164531
15.939,137232,168,164530
15.944,137219,168,164509
15.949,137222,168,164523
15.954,137214,171,164528
15.959,137197,170,164502
15.964,137191,169,164507
15.969,137195,169,164479
15.974,137177,169,164477
15.979,137188,168,164488
15.983,137178,168,164467
15.988,137179,168,164468
15.993,137177,168,164466
15.998,137176,168,164491
16.003,137159,172,164484
16.008,137156,171,164479
16.013,137165,171,164486
16.018,137153,171,164477
16.023,137159,171,164484
16.028,137155,171,164472
16.033,137148,171,164477
16.038,137145,168,164461
16.043,137153,168,164469
16.048,137129,168,164477
16.053,137140,171,164465
16.058,137149,170,164468
16.063,137136,170,164469
16.068,137143,170,164470
16.073,137146,169,164470
16.078,137134,169,164471
16.083,137144,170,164479
16.088,137134,170,164474
16.093,137145,169,164480
16.098,137140,168,164468
16.103,137133,168,164478
16.108,137141,168,164483
16.113,137156,171,164495
16.118,137164,170,164508
16.123,137171,170,164498
16.128,137167,169,164498
16.133,137155,170,164514
16.138,137185,169,164510
16.143,137179,169,164518
16.147,137181,168,164514
16.152,137183,168,164513
16.157,137180,168,164518
16.162,137187,171,164521
16.167,137195,170,164521
16.172,137194,170,164513
16.177,137202,170,164546
16.182,137191,168,164528
16.187,137209,168,164534
16.192,137213,172,164543
16.197,137205,171,164550
16.202,137212,170,164562
16.207,137221,170,164584
16.212,137212,169,164573
16.217,137232,168,164576
16.222,137230,169,164572
16.227,137238,169,164564
16.232,137233,170,164581
16.237,137229,169,164587
16.242,137230,169,164573
16.247,137235,169,164563
16.252,137236,168,164580
16.257,137238,168,164571
16.262,137230,168,164585
16.267,137234,168,164582
16.272,137244,168,164587
16.277,137244,168,164591
16.282,137245,168,164587
16.287,137246,172,164601
16.292,137240,171,164610
16.297,137248,170,164592
16.302,137267,169,164596
16.307,137262,169,164618
16.311,137274,169,164617
16.316,137276,168,164617
16.321,137281,168,164633
16.326,137279,168,164621
16.331,137289,168,164631
16.336,137288,168,164638
16.341,137299,168,164638
16.346,137297,168,164631
16.351,137303,171,164644
16.356,137307,171,164652
16.361,137314,172,164638
16.366,137307,168,164626
16.371,137314,168,164640
16.376,137328,168,164654
16.381,137310,168,164636
16.386,137318,168,164651
16.391,137307,171,164614
16.396,137324,171,164636
16.401,137334,171,164636
16.406,137326,171,164626
16.411,137329,171,164634
16.416,137325,171,164633
16.421,137334,170,164641
16.426,137324,168,164636
16.431,137337,168,164647
16.436,137327,168,164647
16.441,137341,168,164649
16.446,137334,171,164639
16.451,137361,171,164657
16.456,137354,170,164652
16.461,137357,170,164655
16.466,137361,170,164662
16.471,137376,169,164660
16.475,137364,171,164665
16.480,137371,171,164667
16.485,137377,171,164669
16.490,137379,170,164681
16.495,137387,170,164671
16.500,137385,171,164680
16.505,137399,170,164699
16.510,137407,170,164695
16.515,137409,170,164705
16.520,137389,170,164697
16.525,137413,169,164689
16.530,137416,169,164697
16.535,137414,169,164681
16.540,137407,169,164695
16.545,137414,169,164704
16.550,137412,169,164697
16.555,137425,169,164703
16.560,137420,169,164701
16.565,137432,169,164696
16.570,137436,169,164711
16.575,137439,170,164718
16.580,137449,171,164718
16.585,137453,171,164729
16.590,137465,171,164739
16.595,137474,171,164735
16.600,137469,171,164710
16.605,137454,171,164719
16.610,137450,171,164709
16.615,137437,171,164688
16.620,137435,171,164695
16.625,137426,168,164685
16.630,137418,168,164687
16.635,137427,168,164675
16.639,137419,168,164679
16.644,137399,168,164675
16.649,137385,168,164665
16.654,137385,168,164671
16.659,137387,168,164666
16.664,137376,171,164661
16.669,137355,168,164661
16.674,137368,168,164670
16.679,137354,168,164660
16.684,137354,168,164644
16.689,137341,168,164645
16.694,137342,168,164653
16.699,137329,172,164641
16.704,137321,171,164652
16.709,137309,171,164626
16.714,137300,170,164621
16.719,137297,168,164632
16.724,137293,168,164636
16.729,137290,171,164630
16.734,137282,171,164634
16.739,137286,170,164640
16.744,137287,169,164644
16.749,137284,169,164647
16.754,137271,169,164639
16.759,137294,169,164642
16.764,137284,170,164642
16.769,137277,168,164642
16.774,137271,171,164624
16.779,137274,171,164618
16.784,137262,171,164627
16.789,137270,170,164623
16.794,137276,170,164626
16.799,137259,170,164629
16.803,137258,170,164631
16.808,137255,170,164631
16.813,137246,170,164623
16.818,137253,168,164621
16.823,137262,168,164619
16.828,137255,168,164608
16.833,137241,168,164609
16.838,137231,171,164606
16.843,137237,171,164609
16.848,137229,171,164599
16.853,137222,170,164600
16.858,137223,170,164599
16.863,137219,171,164589
16.868,137227,168,164611
16.873,137225,171,164615
16.878,137217,171,164594
16.883,137228,171,164603
16.888,137227,171,164605
16.893,137234,170,164587
16.898,137227,170,164591
16.903,137239,170,164588
16.908,137229,170,164588
16.913,137259,171,164577
16.918,137217,168,164594
16.923,137219,171,164564
16.928,137219,171,164562
16.933,137208,171,164547
16.938,137202,171,164554
16.943,137200,172,164546
16.948,137203,171,164525
16.953,137201,171,164533
16.958,137198,170,164519
16.963,137201,168,164514
16.967,137201,169,164509
16.972,137187,169,164506
16.977,137190,168,164486
16.982,137191,168,164484
16.987,137173,168,164481
16.992,137188,168,164470
16.997,137177,168,164480
17.002,137159,168,164462
17.007,137145,168,164460
17.012,137164,169,164429
17.017,137139,170,164443
17.022,137134,170,164446
17.027,137139,170,164437
17.032,137127,170,164420
17.037,137134,169,164422
17.042,137139,169,164410
17.047,137130,169,164413
17.052,137144,169,164419
17.057,137137,168,164424
17.062,137144,170,164405
17.067,137142,170,164427
17.072,137147,170,164423
17.077,137150,169,164424
17.082,137149,169,164421
17.087,137139,168,164413
17.092,137153,168,164413
17.097,137162,168,164410
17.102,137152,168,164412
17.107,137160,168,164413
17.112,137146,169,164409
17.117,137156,168,164421
17.122,137144,168,164412
17.127,137147,168,164414
17.131,137153,168,164411
17.136,137151,168,164396
17.141,137164,168,164389
17.146,137148,171,164403
17.151,137156,171,164407
17.156,137167,169,164412
17.161,137180,168,164393
17.166,137183,168,164416
17.171,137169,168,164422
17.176,137175,168,164410
17.181,137177,171,164398
17.186,137171,170,164416
17.191,137181,169,164408
17.196,137178,169,164396
17.201,137173,168,164395
17.206,137186,170,164395
17.211,137194,169,164402
17.216,137186,169,164390
17.221,137178,168,164394
17.226,137205,168,164396
17.231,137203,168,164394
17.236,137185,168,164383
17.241,137195,168,164388
17.246,137204,168,164381
17.251,137207,171,164413
17.256,137189,172,164403
17.261,137215,170,164399
17.266,137219,170,164395
17.271,137226,170,164412
17.276,137231,170,164419
17.281,137231,169,164410
17.286,137239,169,164422
17.291,137236,169,164415
17.295,137227,168,164418
17.300,137242,168,164404
17.305,137245,169,164417
17.310,137251,169,164428
17.315,137251,168,164412
17.320,137264,168,164415
17.325,137264,168,164410
17.330,137250,168,164397
17.335,137236,171,164393
17.340,137244,171,164394
17.345,137231,171,164401
17.350,137233,171,164384
17.355,137233,169,164384
17.360,137234,170,164378
17.365,137222,169,164376
17.370,137213,169,164375
17.375,137215,168,164374
17.380,137195,168,164370
17.385,137204,168,164372
17.390,137197,168,164348
17.395,137187,171,164352
17.400,137180,168,164340
17.405,137165,168,164343
17.410,137146,168,164341
17.415,137132,168,164341
17.420,137143,168,164321
17.425,137132,172,164322
17.430,137125,171,164322
17.435,137134,171,164321
17.440,137124,170,164309
17.445,137131,170,164303
17.450,137109,172,164299
17.455,137089,168,164292
17.459,137099,171,164306
17.464,137090,171,164285
17.469,137081,170,164306
17.474,137094,170,164303
17.479,137094,170,164293
17.484,137109,169,164288
17.489,137077,169,164289
17.494,137078,169,164279
17.499,137070,170,164278
17.504,137063,170,164281
17.509,137066,170,164280
17.514,137060,169,164259
17.519,137063,168,164271
17.524,137046,168,164262
17.529,137040,168,164241
17.534,137047,168,164231
17.539,137037,171,164236
17.544,137030,171,164231
17.549,137020,169,164218
17.554,137008,169,164213
17.559,137001,168,164204
17.564,136979,168,164209
17.569,136989,168,164195
17.574,136990,171,164188
17.579,136979,170,164184
17.584,136979,170,164177
17.589,136975,170,164185
17.594,136984,169,164193
17.599,136982,168,164169
17.604,136973,168,164181
17.609,136976,168,164186
17.614,136984,171,164179
17.619,136986,170,164191
17.623,136985,170,164192
17.628,136991,169,164181
17.633,136992,169,164183
17.638,136990,168,164184
17.643,137001,168,164182
17.648,136986,171,164180
17.653,136991,171,164183
17.658,136990,169,164177
17.663,136999,169,164186
17.668,136999,169,164165
17.673,136983,169,164164
17.678,136978,168,164168
17.683,136984,168,164169
17.688,136982,168,164160
17.693,136982,168,164156
17.698,136974,168,164162
17.703,136956,171,164151
17.708,136972,170,164157
17.713,136967,170,164139
17.718,136968,169,164152
17.723,136977,169,164148
17.728,136958,169,164141
17.733,136960,168,164143
17.738,136950,168,164135
17.743,136951,170,164156
17.748,136958,169,164136
17.753,136960,168,164160
17.758,136961,168,164135
17.763,136955,168,164152
17.768,136959,171,164132
17.773,136968,170,164139
17.778,136958,169,164147
17.783,136963,169,164134
17.787,136951,169,164156
17.792,136982,171,164141
17.797,136970,170,164153
17.802,136968,170,164164
17.807,136981,170,164166
17.812,136992,170,164174
17.817,136988,169,164170
17.822,136987,169,164173
17.827,136981,169,164169
17.832,136988,169,164179
17.837,136993,169,164173
17.842,136994,168,164169
17.847,136993,168,164191
17.852,137006,168,164186
17.857,136997,168,164188
17.862,136992,168,164185
17.867,136998,168,164182
17.872,137005,171,164197
17.877,137013,171,164189
17.882,137012,171,164202
17.887,137012,170,164202
17.892,137032,168,164209
17.897,137023,168,164209
17.902,137028,168,164214
17.907,137029,168,164216
17.912,137038,172,164215
17.917,137040,171,164227
17.922,137052,171,164246
17.927,137066,170,164237
17.932,137060,169,164259
17.937,137072,171,164240
17.942,137079,171,164282
17.947,137081,171,164286
17.951,137093,170,164283
17.956,137111,170,164291
17.961,137126,169,164323
17.966,137119,169,164335
17.971,137144,169,164350
17.976,137158,169,164350
17.981,137161,168,164384
17.986,137186,170,164377
17.991,137175,170,164394
17.996,137189,170,164408
18.001,137202,169,164430
18.006,137206,169,164450
18.011,137218,168,164454
18.016,137245,168,164450
18.021,137243,168,164464
18.026,137254,168,164473
18.031,137244,171,164485
18.036,137252,168,164487
18.041,137266,168,164502
18.046,137262,168,164494
18.051,137257,171,164495
18.056,137263,170,164505
18.061,137251,169,164495
18.066,137257,169,164496
18.071,137263,169,164506
18.076,137245,168,164493
18.081,137254,168,164505
18.086,137250,171,164495
18.091,137233,171,164498
18.096,137247,170,164505
18.101,137244,170,164500
18.106,137243,169,164498
18.111,137229,169,164500
18.115,137211,168,164485
18.120,137223,168,164481
18.125,137194,168,164477
18.130,137208,171,164485
18.135,137191,170,164473
18.140,137176,169,164471
18.145,137191,169,164478
18.150,137178,168,164479
18.155,137187,168,164480
18.160,137183,171,164472
18.165,137187,171,164468
18.170,137181,170,164477
18.175,137171,170,164472
18.180,137175,169,164486
18.185,137185,171,164465
18.190,137171,171,164470
18.195,137176,170,164472
18.200,137169,170,164475
18.205,137168,170,164468
18.210,137178,169,164479
18.215,137183,169,164460
18.220,137179,168,164473
18.225,137160,168,164478
18.230,137173,168,164457
18.235,137161,169,164445
18.240,137167,168,164459
18.245,137170,168,164465
18.250,137175,168,164451
18.255,137167,168,164472
18.260,137164,171,164477
18.265,137155,171,164463
18.270,137158,170,164471
18.275,137162,170,164475
18.279,137161,168,164467
18.284,137170,171,164480
18.289,137160,171,164484
18.294,137176,170,164492
18.299,137192,169,164509
18.304,137189,169,164506
18.309,137198,168,164511
18.314,137207,168,164528
18.319,137210,168,164544
18.324,137210,168,164521
18.329,137224,169,164539
18.334,137229,168,164559
18.339,137228,168,164560
18.344,137235,168,164567
18.349,137246,168,164593
18.354,137258,168,164595
18.359,137262,168,164605
18.364,137279,171,164633
18.369,137294,171,164609
18.374,137286,170,164635
18.379,137286,168,164624
18.384,137293,168,164644
18.389,137298,171,164649
18.394,137310,170,164672
18.399,137313,170,164653
18.404,137323,170,164681
18.409,137320,170,164662
18.414,137339,170,164661
18.419,137348,170,164689
18.424,137335,170,164699
18.429,137344,168,164691
18.434,137342,168,164689
18.439,137346,168,164693
18.443,137358,168,164673
18.448,137359,168,164700
18.453,137365,168,164683
18.458,137386,171,164698
18.463,137382,170,164701
18.468,137390,170,164709
18.473,137382,171,164688
18.478,137388,169,164713
18.483,137389,168,164705
18.488,137385,168,164701
18.493,137400,168,164697
18.498,137388,168,164691
18.503,137397,168,164686
18.508,137420,171,164695
18.513,137410,171,164667
18.518,137410,171,164692
18.523,137407,168,164674
18.528,137409,168,164660
18.533,137412,168,164642
18.538,137413,171,164632
18.543,137414,170,164621
18.548,137398,169,164626
18.553,137408,169,164602
18.558,137385,168,164587
18.563,137357,168,164560
18.568,137328,168,164538
18.573,137329,169,164524
18.578,137314,168,164489
18.583,137312,168,164493
18.588,137303,168,164496
18.593,137294,168,164458
18.598,137290,168,164449
18.603,137262,168,164431
18.607,137244,171,164404
18.612,137230,170,164371
18.617,137198,170,164350
18.622,137176,168,164327
18.627,137163,168,164307
18.632,137160,168,164297
18.637,137152,168,164279
18.642,137130,171,164254
18.647,137098,170,164215
18.652,137090,170,164186
18.657,137052,170,164153
18.662,137031,169,164115
18.667,137031,169,164073
18.672,137007,171,164065
18.677,136987,171,164013
18.682,136975,170,163998
18.687,136990,170,163978
18.692,136941,169,163947
18.697,136900,169,163911
18.702,136865,168,163878
18.707,136809,168,163843
18.712,136764,168,163819
18.717,136738,171,163794
18.722,136714,168,163794
18.727,136711,168,163769
18.732,136664,168,163744
18.737,136634,168,163722
18.742,136601,168,163672
18.747,136580,171,163629
18.752,136582,171,163609
18.757,136571,170,163587
18.762,136580,169,163566
18.767,136562,171,163550
18.771,136550,169,163493
18.776,136514,168,163483
18.781,136489,170,163467
18.786,136497,170,163474
18.791,136476,169,163473
18.796,136451,169,163450
18.801,136402,168,163412
18.806,136377,168,163381
18.811,136346,168,163357
18.816,136338,169,163317
18.821,136344,168,163319
18.826,136348,168,163320
18.831,136386,168,163290
18.836,136396,171,163290
18.841,136425,170,163304
18.846,136476,170,163292
18.851,136520,169,163309
18.856,136577,168,163328
18.861,136610,168,163340
18.866,136694,169,163358
18.871,136805,169,163392
18.876,136980,168,163469
18.881,137106,168,163499
18.886,137166,168,163513
18.891,137190,168,163508
18.896,137188,168,163497
18.901,137192,168,163480
18.906,137215,168,163479
18.911,137299,170,163499
18.916,137331,168,163537
18.921,137354,168,163511
18.926,137350,171,163522
18.931,137350,170,163506
18.935,137346,169,163499
18.940,137351,169,163500
18.945,137327,168,163482
18.950,137290,168,163445
18.955,137318,168,163450
18.960,137354,170,163471
18.965,137353,168,163490
18.970,137335,168,163430
18.975,137311,170,163419
18.980,137266,169,163387
18.985,137232,169,163350
18.990,137201,169,163339
18.995,137197,168,163333
19.000,137193,168,163336
19.005,137201,168,163331
19.010,137156,168,163307
19.015,137124,168,163283
19.020,137092,168,163242
19.025,137026,168,163204
19.030,137001,168,163172
19.035,136960,170,163181
19.040,136932,169,163163
19.045,136931,169,163181
19.050,136912,169,163140
19.055,136889,168,163109
19.060,136858,169,163101
19.065,136854,168,163100
19.070,136840,168,163084
19.075,136811,168,163068
19.080,136803,168,163057
19.085,136800,168,163055
19.090,136766,171,163049
19.095,136747,170,163031
19.099,136737,169,163038
19.104,136715,169,162998
19.109,136700,170,162992
19.114,136689,170,162985
19.119,136675,169,162967
19.124,136651,168,162968
19.129,136629,168,162953
19.134,136615,168,162945
19.139,136597,168,162957
19.144,136576,171,162935
19.149,136566,170,162955
19.154,136558,169,162933
19.159,136531,168,162939
19.164,136517,171,162909
19.169,136481,170,162899
19.174,136483,170,162886
19.179,136464,169,162874
19.184,136458,169,162871
19.189,136475,169,162865
19.194,136485,168,162867
19.199,136497,168,162890
19.204,136496,168,162857
19.209,136491,170,162853
19.214,136487,170,162839
19.219,136479,169,162833
19.224,136491,169,162832
19.229,136478,169,162838
19.234,136485,168,162819
19.239,136460,168,162807
19.244,136452,168,162796
19.249,136469,168,162802
19.254,136466,168,162819
19.259,136464,168,162807
19.263,136468,168,162817
19.268,136469,168,162809
19.273,136497,168,162811
19.278,136490,170,162823
19.283,136488,170,162822
19.288,136507,170,162840
19.293,136521,169,162839
19.298,136509,169,162845
19.303,136511,168,162842
19.308,136511,169,162842
19.313,136520,169,162846
19.318,136491,168,162860
19.323,136488,168,162846
19.328,136490,168,162845
19.333,136516,168,162883
19.338,136514,171,162878
19.343,136501,170,162890
19.348,136497,169,162889
19.353,136527,168,162902
19.358,136513,168,162907
19.363,136519,168,162897
19.368,136526,168,162907
19.373,136507,168,162912
19.378,136527,168,162935
19.383,136528,168,162941
19.388,136521,168,162939
19.393,136514,168,162928
19.398,136507,168,162918
19.403,136501,168,162928
19.408,136472,171,162906
19.413,136486,171,162917
19.418,136463,170,162922
19.423,136458,169,162917
19.427,136452,169,162905
19.432,136453,169,162929
19.437,136435,169,162925
19.442,136448,168,162931
19.447,136445,168,162931
19.452,136459,168,162940
19.457,136449,168,162947
19.462,136452,168,162953
19.467,136462,168,162961
19.472,136459,168,162982
19.477,136463,168,162984
19.482,136467,168,162998
19.487,136464,168,163002
19.492,136481,171,163024
19.497,136480,170,163026
19.502,136496,168,163045
19.507,136500,168,163028
19.512,136512,171,163049
19.517,136510,170,163054
19.522,136526,169,163061
19.527,136520,169,163057
19.532,136530,169,163074
19.537,136512,169,163078
19.542,136515,168,163074
19.547,136518,169,163087
19.552,136526,170,163081
19.557,136527,169,163082
19.562,136510,169,163084
19.567,136515,169,163100
19.572,136506,169,163098
19.577,136502,169,163089
19.582,136490,168,163084
19.587,136479,169,163102
19.591,136480,169,163113
19.596,136496,169,163097
19.601,136504,169,163102
19.606,136487,168,163105
19.611,136492,168,163117
19.616,136487,168,163115
19.621,136486,168,163122
19.626,136485,168,163120
19.631,136495,171,163122
19.636,136495,170,163133
19.641,136501,169,163134
19.646,136511,168,163150
19.651,136504,168,163162
19.656,136523,170,163157
19.661,136521,170,163156
19.666,136509,169,163173
19.671,136503,169,163160
19.676,136508,168,163150
19.681,136497,168,163155
19.686,136506,168,163157
19.691,136519,168,163174
19.696,136506,168,163174
19.701,136513,168,163157
19.706,136526,168,163177
19.711,136521,168,163197
19.716,136535,168,163178
19.721,136538,168,163188
19.726,136541,170,163192
19.731,136548,169,163204
19.736,136550,169,163198
19.741,136566,168,163213
19.746,136575,170,163201
19.751,136575,169,163209
19.755,136566,169,163210
19.760,136575,168,163213
19.765,136578,168,163222
19.770,136586,168,163220
19.775,136588,168,163215
19.780,136588,168,163223
19.785,136603,168,163200
19.790,136598,168,163222
19.795,136607,169,163208
19.800,136624,168,163214
19.805,136612,169,163220
19.810,136609,168,163192
19.815,136613,168,163205
19.820,136623,168,163194
19.825,136623,168,163188
19.830,136616,168,163194
19.835,136633,168,163181
19.840,136607,168,163183
19.845,136643,168,163185
19.850,136634,168,163189
19.855,136630,168,163189
19.860,136635,171,163191
19.865,136637,170,163177
19.870,136618,170,163168
19.875,136635,169,163174
19.880,136634,169,163163
19.885,136632,168,163161
19.890,136636,170,163160
19.895,136629,168,163148
19.900,136620,168,163162
19.905,136623,168,163155
19.910,136639,171,163149
19.915,136625,170,163141
19.919,136608,170,163131
19.924,136616,170,163131
19.929,136621,170,163122
19.934,136609,169,163115
19.939,136589,168,163137
19.944,136605,170,163117
19.949,136606,170,163124
19.954,136597,169,163101
19.959,136588,168,163080
19.964,136582,168,163069
19.969,136575,168,163050
19.974,136578,168,163055
19.979,136568,168,163037
19.984,136573,171,163024
19.989,136564,168,163023
19.994,136562,168,163023
19.999,136566,170,163024
20.004,136557,169,163030
20.009,136576,169,163044
20.014,136567,168,163043
20.019,136580,168,163041
20.024,136572,168,163048
20.029,136578,170,163029
20.034,136573,169,163036
20.039,136567,168,163014
20.044,136558,170,163011
20.049,136546,169,162996
20.054,136555,169,163000
20.059,136535,168,162987
20.064,136519,168,162983
20.069,136538,168,162963
20.074,136537,168,162979
20.079,136531,168,162968
20.083,136519,168,162971
20.088,136519,169,162985
20.093,136533,168,162978
20.098,136524,168,162992
20.103,136539,168,162990
20.108,136544,168,162991
20.113,136546,171,162984
20.118,136536,170,162998
20.123,136540,169,162990
20.128,136546,170,163003
20.133,136535,168,162993
20.138,136545,168,162986
20.143,136550,168,162985
20.148,136529,168,162974
20.153,136549,168,162991
20.158,136541,170,162989
20.163,136541,170,162999
20.168,136541,170,163008
20.173,136552,170,163007
20.178,136559,170,163020
20.183,136573,168,163024
20.188,136569,168,163024
20.193,136553,168,163017
20.198,136582,168,163020
20.203,136556,168,163029
20.208,136574,168,163031
20.213,136562,168,163045
20.218,136570,168,163030
20.223,136583,168,163025
20.228,136569,171,163028
20.233,136590,169,163033
20.238,136581,169,163031
20.243,136571,169,163023
20.247,136574,169,163022
20.252,136567,168,163030
20.257,136562,168,163026
20.262,136549,168,163004
20.267,136540,168,163017
20.272,136535,168,163010
20.277,136519,168,162988
20.282,136517,170,163013
20.287,136500,170,163001
20.292,136496,170,162977
20.297,136490,169,162989
20.302,136472,168,162984
20.307,136470,168,162997
20.312,136463,168,162986
20.317,136465,168,163001
20.322,136441,168,162992
20.327,136441,168,162968
20.332,136431,170,162981
20.337,136420,170,162982
20.342,136409,169,162987
20.347,136396,169,162989
20.352,136386,169,162962
20.357,136388,169,162973
20.362,136388,170,162971
20.367,136358,169,162992
20.372,136357,169,162980
20.377,136387,168,162996
20.382,136349,170,162990
20.387,136336,169,162995
20.392,136338,169,162996
20.397,136332,169,162993
20.402,136331,168,163007
20.407,136321,168,162998
20.411,136311,168,163013
20.416,136311,168,163013
20.421,136317,168,163007
20.426,136320,170,163001
20.431,136308,171,163007
20.436,136312,170,163020
20.441,136287,170,163013
20.446,136288,169,163016
20.451,136298,169,163012
20.456,136299,168,163029
20.461,136293,168,163018
20.466,136291,168,163033
20.471,136297,168,163030
20.476,136296,169,163040
20.481,136286,169,163052
20.486,136310,168,163064
20.491,136307,168,163070
20.496,136294,168,163071
20.501,136308,168,163086
20.506,136299,168,163082
20.511,136305,168,163077
20.516,136309,168,163112
20.521,136320,168,163107
20.526,136324,168,163131
20.531,136322,168,163131
20.536,136321,168,163145
20.541,136333,168,163145
20.546,136318,168,163159
20.551,136337,170,163155
20.556,136338,169,163155
20.561,136335,168,163162
20.566,136340,168,163174
20.570,136340,168,163184
20.575,136351,168,163183
20.580,136338,170,163189
20.585,136346,169,163188
20.590,136351,169,163185
20.595,136336,169,163200
20.600,136350,168,163213
20.605,136374,168,163204
20.610,136383,168,163221
20.615,136381,168,163242
20.620,136381,170,163258
20.625,136401,168,163265
20.630,136401,169,163276
20.635,136416,168,163286
20.640,136432,168,163296
20.645,136429,168,163312
20.650,136438,168,163309
20.655,136454,170,163331
20.660,136460,169,163342
20.665,136462,169,163348
20.670,136473,171,163346
20.675,136486,170,163353
20.680,136484,169,163363
20.685,136490,168,163370
20.690,136495,168,163368
20.695,136506,168,163383
20.700,136494,171,163375
20.705,136513,170,163386
20.710,136504,169,163409
20.715,136535,169,163414
20.720,136538,170,163423
20.725,136555,169,163434
20.730,136555,169,163438
20.735,136576,168,163451
20.739,136587,168,163461
20.744,136605,168,163464
20.749,136609,171,163470
20.754,136624,170,163475
20.759,136631,169,163482
20.764,136624,169,163489
20.769,136642,170,163504
20.774,136647,170,163493
20.779,136647,169,163525
20.784,136652,169,163516
20.789,136674,168,163509
20.794,136664,168,163524
20.799,136675,168,163535
20.804,136682,168,163539
20.809,136695,170,163533
20.814,136677,169,163526
20.819,136708,168,163535
20.824,136704,168,163547
20.829,136706,168,163530
20.834,136707,168,163552
20.839,136719,170,163570
20.844,136721,169,163569
20.849,136713,168,163564
20.854,136732,168,163566
20.859,136725,168,163575
20.864,136731,168,163536
20.869,136745,168,163573
20.874,136733,168,163568
20.879,136742,170,163569
20.884,136736,169,163572
20.889,136751,169,163584
20.894,136738,169,163585
20.898,136736,169,163587
20.903,136734,169,163584
20.908,136734,168,163583
20.913,136749,169,163583
20.918,136736,169,163580
20.923,136715,168,163579
20.928,136713,168,163577
20.933,136711,168,163575
20.938,136696,168,163572
20.943,136708,170,163586
20.948,136703,170,163562
20.953,136678,169,163557
20.958,136646,168,163534
20.963,136647,169,163529
20.968,136626,169,163517
20.973,136591,169,163516
20.978,136583,168,163512
20.983,136565,168,163482
20.988,136532,168,163478
20.993,136522,168,163484
20.998,136499,168,163468
21.003,136477,171,163469
21.008,136470,170,163458
21.013,136456,168,163452
21.018,136439,169,163452
21.023,136430,168,163437
21.028,136421,168,163427
21.033,136414,168,163444
21.038,136408,168,163440
21.043,136405,168,163456
21.048,136403,171,163449
21.053,136406,170,163459
21.058,136392,171,163454
21.062,136380,168,163457
21.067,136400,168,163461
21.072,136395,168,163473
21.077,136399,168,163482
21.082,136410,168,163474
21.087,136414,171,163506
21.092,136430,170,163514
21.097,136436,170,163520
21.102,136447,169,163529
21.107,136436,168,163537
21.112,136446,170,163542
21.117,136460,170,163544
21.122,136490,169,163571
21.127,136504,169,163574
21.132,136505,169,163580
21.137,136524,169,163596
21.142,136533,168,163628
21.147,136538,168,163627
21.152,136557,168,163638
21.157,136565,168,163656
21.162,136582,168,163668
21.167,136604,168,163678
21.172,136615,168,163705
21.177,136617,171,163701
21.182,136635,170,163732
21.187,136649,170,163735
21.192,136655,170,163741
21.197,136674,170,163760
21.202,136686,169,163765
21.207,136699,168,163779
21.212,136715,170,163798
21.217,136730,170,163810
21.222,136741,169,163811
21.226,136765,169,163836
21.231,136779,168,163868
21.236,136797,168,163877
21.241,136825,168,163909
21.246,136844,168,163911
21.251,136839,170,163921
21.256,136876,168,163936
21.261,136885,171,163942
21.266,136893,170,163971
21.271,136910,169,163968
21.276,136915,169,163986
21.281,136927,168,163997
21.286,136937,168,164004
21.291,136945,168,164026
21.296,136956,168,164047
21.301,136980,168,164060
21.306,136990,168,164059
21.311,136994,168,164076
21.316,137022,168,164088
21.321,137034,168,164106
21.326,137024,170,164101
21.331,137032,170,164114
21.336,137041,169,164133
21.341,137035,168,164135
21.346,137063,168,164150
21.351,137050,169,164145
21.356,137062,170,164160
21.361,137073,170,164173
21.366,137087,170,164180
21.371,137098,170,164188
21.376,137103,169,164205
21.381,137122,169,164223
21.386,137143,169,164229
21.390,137153,168,164246
21.395,137154,168,164251
21.400,137171,168,164241
21.405,137181,168,164291
21.410,137190,168,164282
21.415,137197,168,164309
21.420,137196,168,164312
21.425,137220,168,164346
21.430,137226,170,164353
21.435,137240,170,164368
21.440,137250,169,164380
21.445,137276,168,164400
21.450,137305,168,164386
21.455,137281,168,164433
21.460,137312,171,164437
21.465,137315,170,164450
21.470,137321,170,164474
21.475,137332,170,164474
21.480,137346,170,164492
21.485,137357,170,164505
21.490,137364,170,164489
21.495,137386,169,164498
21.500,137383,171,164528
21.505,137391,171,164535
21.510,137408,170,164537
21.515,137418,170,164545
21.520,137421,169,164562
21.525,137417,169,164546
21.530,137427,169,164573
21.535,137439,168,164575
21.540,137462,168,164589
21.545,137466,168,164611
21.550,137486,169,164613
21.554,137498,169,164619
21.559,137513,169,164640
21.564,137519,168,164644
21.569,137512,168,164650
21.574,137536,168,164659
21.579,137542,168,164672
21.584,137560,168,164675
21.589,137568,168,164694
21.594,137579,168,164695
21.599,137593,169,164718
21.604,137613,169,164735
21.609,137625,169,164736
21.614,137635,168,164730
21.619,137642,168,164758
21.624,137650,168,164769
21.629,137656,168,164780
21.634,137664,168,164794
21.639,137667,171,164803
21.644,137698,170,164818
21.649,137717,168,164843
21.654,137724,168,164859
21.659,137741,171,164876
21.664,137748,170,164882
21.669,137766,170,164892
21.674,137781,169,164900
21.679,137794,169,164905
21.684,137782,168,164918
21.689,137798,168,164919
21.694,137801,168,164925
21.699,137816,170,164926
21.704,137803,169,164926
21.709,137807,169,164944
21.714,137804,169,164949
21.718,137828,168,164933
21.723,137807,168,164917
21.728,137808,171,164913
21.733,137811,170,164914
21.738,137802,170,164899
21.743,137804,168,164901
21.748,137784,168,164883
21.753,137770,168,164869
21.758,137759,168,164872
21.763,137747,170,164851
21.768,137745,170,164852
21.773,137724,169,164845
21.778,137709,169,164832
21.783,137698,168,164815
21.788,137696,168,164821
21.793,137687,169,164809
21.798,137683,168,164815
21.803,137672,168,164788
21.808,137657,168,164788
21.813,137667,168,164799
21.818,137652,168,164795
21.823,137644,171,164781
21.828,137634,170,164787
21.833,137624,170,164785
21.838,137632,170,164778
21.843,137625,170,164768
21.848,137615,169,164757
21.853,137594,169,164750
21.858,137593,168,164747
21.863,137584,168,164728
21.868,137575,168,164732
21.873,137567,170,164722
21.878,137565,170,164726
21.882,137557,169,164731
21.887,137545,169,164699
21.892,137537,170,164711
21.897,137543,170,164716
21.902,137533,169,164705
21.907,137545,169,164689
21.912,137530,168,164687
21.917,137523,168,164682
21.922,137519,168,164686
21.927,137509,171,164663
21.932,137503,170,164665
21.937,137491,170,164604
21.942,137481,168,164632
21.947,137455,171,164613
21.952,137441,170,164606
21.957,137440,170,164576
21.962,137423,169,164579
21.967,137423,169,164542
21.972,137400,168,164552
21.977,137394,168,164539
21.982,137381,168,164538
21.987,137417,168,164534
21.992,137377,168,164532
21.997,137390,168,164537
22.002,137373,168,164528
22.007,137380,168,164529
22.012,137386,171,164539
22.017,137388,170,164535
22.022,137386,170,164510
22.027,137384,170,164524
22.032,137374,170,164518
22.037,137378,168,164511
22.042,137364,171,164501
22.046,137371,170,164488
22.051,137360,170,164497
22.056,137357,169,164472
22.061,137344,169,164486
22.066,137347,168,164466
22.071,137336,168,164458
22.076,137333,168,164466
22.081,137329,168,164462
22.086,137341,168,164456
22.091,137319,170,164436
22.096,137323,170,164440
22.101,137316,169,164435
22.106,137314,168,164437
22.111,137314,168,164403
22.116,137301,168,164419
22.121,137294,171,164420
22.126,137296,170,164399
22.131,137280,171,164391
22.136,137280,168,164404
22.141,137274,171,164376
22.146,137267,170,164396
22.151,137269,170,164388
22.156,137271,169,164385
22.161,137262,169,164376
22.166,137262,168,164385
22.171,137255,168,164375
22.176,137258,170,164372
22.181,137265,170,164381
22.186,137261,168,164366
22.191,137252,171,164371
22.196,137278,170,164351
22.201,137264,169,164357
22.206,137261,168,164360
22.210,137268,169,164372
22.215,137260,168,164378
22.220,137272,168,164369
22.225,137278,168,164357
22.230,137260,168,164331
22.235,137251,170,164340
22.240,137247,169,164332
22.245,137241,169,164330
22.250,137234,169,164332
22.255,137236,168,164307
22.260,137234,168,164299
22.265,137222,168,164287
22.270,137225,168,164286
22.275,137223,168,164294
22.280,137227,169,164285
22.285,137226,168,164290
22.290,137221,168,164294
22.295,137220,169,164290
22.300,137234,168,164297
22.305,137218,168,164271
22.310,137206,168,164265
22.315,137220,168,164263
22.320,137205,168,164267
22.325,137215,168,164257
22.330,137220,170,164245
22.335,137194,168,164242
22.340,137197,168,164238
22.345,137189,171,164224
22.350,137188,171,164212
22.355,137182,170,164222
22.360,137178,170,164219
22.365,137201,170,164236
22.370,137185,170,164230
22.374,137184,169,164238
22.379,137201,168,164219
22.384,137203,171,164227
22.389,137195,170,164230
22.394,137215,170,164224
22.399,137207,169,164231
22.404,137202,169,164212
22.409,137213,169,164225
22.414,137215,168,164219
22.419,137204,168,164217
22.424,137220,168,164237
22.429,137232,169,164236
22.434,137236,169,164232
22.439,137238,169,164241
22.444,137253,169,164237
22.449,137259,168,164245
22.454,137262,169,164262
22.459,137275,168,164240
22.464,137265,168,164254
22.469,137269,168,164265
22.474,137268,168,164277
22.479,137284,169,164281
22.484,137279,169,164262
22.489,137288,169,164259
22.494,137272,168,164269
22.499,137268,168,164263
22.504,137278,168,164251
22.509,137273,168,164253
22.514,137274,171,164246
22.519,137265,170,164229
22.524,137274,168,164232
22.529,137247,170,164223
22.534,137231,169,164229
22.538,137211,169,164221
22.543,137205,169,164205
22.548,137208,169,164191
22.553,137180,169,164169
22.558,137172,169,164170
22.563,137168,169,164155
22.568,137138,168,164135
22.573,137122,170,164144
22.578,137128,169,164121
22.583,137090,168,164100
22.588,137066,169,164090
22.593,137066,168,164087
22.598,137028,168,164044
22.603,137013,168,164028
22.608,137003,168,164013
22.613,136978,168,163994
22.618,136952,171,163972
22.623,136942,169,163959
22.628,136931,169,163939
22.633,136913,169,163938
22.638,136907,169,163925
22.643,136883,169,163913
22.648,136891,169,163921
22.653,136908,169,163942
22.658,136896,169,163923
22.663,136896,168,163913
22.668,136910,168,163943
22.673,136908,169,163951
22.678,136921,169,163963
22.683,136926,168,163977
22.688,136933,169,163983
22.693,136945,168,163988
22.698,136945,168,164001
22.702,136952,168,164011
22.707,136954,168,164008
22.712,136957,168,164015
22.717,136948,168,164019
22.722,136947,168,164004
22.727,136935,168,164012
22.732,136937,168,163996
22.737,136927,168,163992
22.742,136927,168,163997
22.747,136919,171,163981
22.752,136928,171,163973
22.757,136930,170,163991
22.762,136922,170,163964
22.767,136926,174,163969
22.772,136921,170,163978
22.777,136912,170,163963
22.782,136912,169,163968
22.787,136911,169,163973
22.792,136920,168,163995
22.797,136917,168,163984
22.802,136909,168,163994
22.807,136927,168,163989
22.812,136927,168,163987
22.817,136932,169,163985
22.822,136940,171,163990
22.827,136942,170,164013
22.832,136943,170,164013
22.837,136937,169,164006
22.842,136963,169,164031
22.847,136963,169,164037
22.852,136945,169,164033
22.857,136973,169,164065
22.862,136979,168,164067
22.866,136984,169,164076
22.871,136973,169,164085
22.876,136995,168,164088
22.881,137008,168,164100
22.886,137014,168,164089
22.891,137019,170,164101
22.896,137004,169,164097
22.901,137002,169,164102
22.906,137001,169,164093
22.911,136995,168,164080
22.916,136989,170,164074
22.921,136993,169,164062
22.926,136997,169,164074
22.931,136983,168,164066
22.936,136995,168,164073
22.941,136988,168,164051
22.946,136998,168,164069
22.951,136998,168,164076
22.956,137001,171,164064
22.961,137012,170,164074
22.966,136999,168,164088
22.971,137024,168,164099
22.976,137010,171,164088
22.981,137013,170,164102
22.986,137035,169,164120
22.991,137031,169,164123
22.996,137043,169,164117
23.001,137040,168,164131
23.006,137041,168,164133
23.011,137047,169,164209
23.016,137065,169,164166
23.021,137076,169,164170
23.026,137069,168,164166
23.030,137079,168,164179
23.035,137090,168,164177
23.040,137099,168,164192
23.045,137087,168,164194
23.050,137110,168,164205
23.055,137105,171,164220
23.060,137103,168,164220
23.065,137125,169,164221
23.070,137132,170,164240
23.075,137147,170,164252
23.080,137151,171,164261
23.085,137151,168,164264
23.090,137161,168,164276
23.095,137181,168,164293
23.100,137196,168,164302
23.105,137189,168,164317
23.110,137216,170,164327
23.115,137229,171,164327
23.120,137241,171,164338
23.125,137244,171,164352
23.130,137255,168,164369
23.135,137263,168,164363
23.140,137264,168,164362
23.145,137286,168,164381
23.150,137281,168,164398
23.155,137297,168,164416
23.160,137327,170,164420
23.165,137336,171,164442
23.170,137350,168,164467
23.175,137359,168,164460
23.180,137379,168,164481
23.185,137401,168,164490
23.190,137409,169,164503
23.194,137421,169,164520
23.199,137428,170,164520
23.204,137441,170,164514
23.209,137450,171,164521
23.214,137442,168,164523
23.219,137440,168,164519
23.224,137449,168,164528
23.229,137454,169,164516
23.234,137447,169,164511
23.239,137460,169,164518
23.244,137435,169,164516
23.249,137432,170,164507
23.254,137452,170,164506
23.259,137434,168,164517
23.264,137429,168,164510
23.269,137425,168,164519
23.274,137433,169,164509
23.279,137420,169,164521
23.284,137414,169,164516
23.289,137409,169,164509
23.294,137424,169,164508
23.299,137419,170,164514
23.304,137438,168,164510
23.309,137428,168,164528
23.314,137418,169,164525
23.319,137423,169,164525
23.324,137414,169,164528
23.329,137412,169,164527
23.334,137408,170,164522
23.339,137416,168,164548
23.344,137425,168,164530
23.349,137408,168,164527
23.354,137408,169,164528
23.358,137429,169,164525
23.363,137423,179,164524
23.368,137426,169,164548
23.373,137415,170,164539
23.378,137406,171,164543
23.383,137414,168,164527
23.388,137411,168,164536
23.393,137397,169,164531
23.398,137395,168,164527
23.403,137403,171,164531
23.408,137405,168,164532
23.413,137398,168,164533
23.418,137410,168,164522
23.423,137417,168,164540
23.428,137402,168,164539
23.433,137407,168,164530
23.438,137419,168,164520
23.443,137418,169,164525
23.448,137414,168,164512
23.453,137388,168,164503
23.458,137396,168,164517
23.463,137393,168,164509
23.468,137390,168,164505
23.473,137383,169,164517
23.478,137392,169,164510
23.483,137410,170,164532
23.488,137407,171,164512
23.493,137420,168,164523
23.498,137429,168,164536
23.503,137423,170,164543
23.508,137435,170,164548
23.513,137439,168,164563
23.518,137456,168,164576
23.522,137461,168,164572
23.527,137454,168,164576
23.532,137474,168,164579
23.537,137468,169,164585
23.542,137460,169,164595
23.547,137484,170,164595
23.552,137483,168,164603
23.557,137485,169,164607
23.562,137520,169,164628
23.567,137522,169,164627
23.572,137511,170,164631
23.577,137533,170,164638
23.582,137535,171,164636
23.587,137538,171,164657
23.592,137542,168,164652
23.597,137544,169,164658
23.602,137534,170,164649
23.607,137553,170,164656
23.612,137543,168,164647
23.617,137559,168,164659
23.622,137567,169,164663
23.627,137553,169,164663
23.632,137563,170,164655
23.637,137561,168,164656
23.642,137554,168,164652
23.647,137580,173,164673
23.652,137578,168,164680
23.657,137578,169,164667
23.662,137576,169,164693
23.667,137595,170,164685
23.672,137604,171,164704
23.677,137599,168,164694
23.682,137610,169,164712
23.686,137618,169,164707
23.691,137614,170,164713
23.696,137619,168,164714
23.701,137623,169,164718
23.706,137620,169,164718
23.711,137621,170,164714
23.716,137638,168,164711
23.721,137639,168,164733
23.726,137634,168,164728
23.731,137644,169,164731
23.736,137652,169,164724
23.741,137652,171,164727
23.746,137653,168,164747
23.751,137658,169,164733
23.756,137660,169,164746
23.761,137663,170,164728
23.766,137679,171,164733
23.771,137661,168,164744
23.776,137656,168,164732
23.781,137684,168,164734
23.786,137690,169,164754
23.791,137690,172,164717
23.796,137687,170,164753
23.801,137695,171,164763
23.806,137699,168,164758
23.811,137701,168,164767
23.816,137702,169,164760
23.821,137713,170,164764
23.826,137718,171,164774
23.831,137723,168,164770
23.836,137730,168,164788
23.841,137727,171,164784
23.846,137739,168,164786
23.850,137745,168,164785
23.855,137739,168,164793
23.860,137739,169,164794
23.865,137750,169,164789
23.870,137744,170,164774
23.875,137737,170,164787
23.880,137743,171,164787
23.885,137759,168,164786
23.890,137751,169,164783
23.895,137765,169,164799
23.900,137763,170,164803
23.905,137770,170,164814
23.910,137774,168,164818
23.915,137775,168,164822
23.920,137785,171,164827
23.925,137798,171,164830
23.930,137807,170,164837
23.935,137812,171,164842
23.940,137812,169,164829
23.945,137809,168,164843
23.950,137833,168,164848
23.955,137828,168,164859
23.960,137837,168,164856
23.965,137837,168,164855
23.970,137838,168,164857
23.975,137841,168,164867
23.980,137841,168,164875
23.985,137862,171,164868
23.990,137842,168,164881
23.995,137847,168,164876
24.000,137852,168,164876
24.005,137861,168,164887
24.010,137871,171,164876
24.014,137857,171,164870
24.019,137870,170,164858
24.024,137856,169,164850
24.029,137842,169,164834
24.034,137850,168,164821
24.039,137830,169,164824
24.044,137805,169,164806
24.049,137807,169,164803
24.054,137793,168,164793
24.059,137784,168,164778
24.064,137768,168,164775
24.069,137762,171,164790
24.074,137756,170,164778
24.079,137757,170,164782
24.084,137740,171,164773
24.089,137739,170,164774
24.094,137724,170,164762
24.099,137723,169,164769
24.104,137720,169,164766
24.109,137703,169,164765
24.114,137703,168,164759
24.119,137702,168,164752
24.124,137687,168,164756
24.129,137675,168,164755
24.134,137681,169,164754
24.139,137672,169,164748
24.144,137675,169,164750
24.149,137675,169,164740
24.154,137654,169,164754
24.159,137656,168,164740
24.164,137655,168,164742
24.169,137648,168,164731
24.174,137638,168,164754
24.178,137647,168,164761
24.183,137641,169,164751
24.188,137643,168,164749
24.193,137641,168,164749
24.198,137651,168,164735
24.203,137640,168,164756
24.208,137650,168,164756
24.213,137643,168,164754
24.218,137645,168,164752
24.223,137626,171,164753
24.228,137630,170,164758
24.233,137642,168,164740
24.238,137630,168,164747
24.243,137634,168,164747
24.248,137620,170,164742
24.253,137628,170,164753
24.258,137623,168,164756
24.263,137622,168,164761
24.268,137633,168,164762
24.273,137619,168,164747
24.278,137631,168,164724
24.283,137622,169,164741
24.288,137641,168,164763
24.293,137636,168,164773
24.298,137641,168,164776
24.303,137643,168,164792
24.308,137660,168,164792
24.313,137644,168,164784
24.318,137661,168,164802
24.323,137648,168,164809
24.328,137675,168,164789
24.333,137657,168,164805
24.338,137670,171,164805
24.342,137662,170,164808
24.347,137667,170,164798
24.352,137676,170,164815
24.357,137677,169,164805
24.362,137687,169,164829
24.367,137689,169,164840
24.372,137691,168,164831
24.377,137683,170,164843
24.382,137701,169,164849
24.387,137702,169,164864
24.392,137718,168,164858
24.397,137712,168,164878
24.402,137713,168,164870
24.407,137716,168,164897
24.412,137727,168,164904
24.417,137736,168,164896
24.422,137740,171,164917
24.427,137747,168,164919
24.432,137765,168,164926
24.437,137760,168,164920
24.442,137770,168,164943
24.447,137758,168,164940
24.452,137754,168,164925
24.457,137753,168,164933
24.462,137765,171,164919
24.467,137745,170,164921
24.472,137760,169,164923
24.477,137749,168,164914
24.482,137748,168,164911
24.487,137735,168,164900
24.492,137736,168,164910
24.497,137729,168,164892
24.502,137734,168,164885
24.506,137732,168,164884
24.511,137741,168,164900
24.516,137717,171,164894
24.521,137749,170,164910
24.526,137726,168,164905
24.531,137742,168,164922
24.536,137746,168,164919
24.541,137747,168,164905
24.546,137763,168,164923
24.551,137758,168,164900
24.556,137748,168,164903
24.561,137761,168,164892
24.566,137737,168,164899
24.571,137740,172,164881
24.576,137733,169,164884
24.581,137754,168,164886
24.586,137747,168,164881
24.591,137732,168,164867
24.596,137734,168,164865
24.601,137724,168,164870
24.606,137726,168,164841
24.611,137719,168,164842
24.616,137721,171,164827
24.621,137722,168,164848
24.626,137711,169,164829
24.631,137710,169,164825
24.636,137727,169,164825
24.641,137723,169,164835
24.646,137728,168,164835
24.651,137743,168,164854
24.656,137729,168,164866
24.661,137752,168,164862
24.666,137743,168,164862
24.670,137762,170,164868
24.675,137779,171,164869
24.680,137782,170,164882
24.685,137781,170,164894
24.690,137781,170,164893
24.695,137805,169,164904
24.700,137813,169,164914
24.705,137824,168,164934
24.710,137823,168,164941
24.715,137838,168,164939
24.720,137857,170,164956
24.725,137865,169,164959
24.730,137872,169,164974
24.735,137859,168,164967
24.740,137886,168,164957
24.745,137872,168,164972
24.750,137879,168,164977
24.755,137884,168,164985
24.760,137875,171,164971
24.765,137889,170,164976
24.770,137881,168,164976
24.775,137879,171,164981
24.780,137887,170,164962
24.785,137888,169,164976
24.790,137889,169,164985
24.795,137888,169,164972
24.800,137895,168,164960
24.805,137910,168,164975
24.810,137905,168,164967
24.815,137894,168,165029
24.820,137904,169,164983
24.825,137893,168,164985
24.830,137895,168,164988
24.834,137892,168,164995
24.839,137891,168,164974
24.844,137887,168,164965
24.849,137880,168,164947
24.854,137868,168,164949
24.859,137876,168,164948
24.864,137857,169,164931
24.869,137853,169,164939
24.874,137836,168,164924
24.879,137825,168,164902
24.884,137823,168,164915
24.889,137822,168,164901
24.894,137801,168,164909
24.899,137795,168,164887
24.904,137787,168,164877
24.909,137754,168,164872
24.914,137768,169,164865
24.919,137743,169,164862
24.924,137742,168,164865
24.929,137717,168,164826
24.934,137690,168,164821
24.939,137695,168,164810
24.944,137679,168,164798
24.949,137667,168,164789
24.954,137646,171,164780
24.959,137647,170,164771
24.964,137627,168,164770
24.969,137633,168,164770
24.974,137617,168,164769
24.979,137635,168,164751
24.984,137633,168,164746
24.989,137623,168,164741
24.994,137616,168,164750
24.998,137625,168,164758
25.003,137607,171,164748
25.008,137598,171,164741
25.013,137610,170,164738
25.018,137598,170,164720
25.023,137596,171,164729
25.028,137590,170,164709
25.033,137582,170,164723
25.038,137573,170,164708
25.043,137573,170,164693
25.048,137559,170,164681
25.053,137554,171,164673
25.058,137527,168,164673
25.063,137534,168,164656
25.068,137533,168,164657
25.073,137523,168,164625
25.078,137512,168,164623
25.083,137488,169,164602
25.088,137492,168,164595
25.093,137475,169,164590
25.098,137472,168,164579
25.103,137475,168,164584
25.108,137466,168,164563
25.113,137455,169,164553
25.118,137459,169,164545
25.123,137460,168,164534
25.128,137453,169,164537
25.133,137452,168,164528
25.138,137445,168,164523
25.143,137427,168,164505
25.148,137419,168,164493
25.153,137416,168,164505
25.158,137402,169,164477
25.162,137409,169,164475
25.167,137394,169,164464
25.172,137406,169,164470
25.177,137393,169,164469
25.182,137394,169,164456
25.187,137402,169,164453
25.192,137392,168,164449
25.197,137391,168,164456
25.202,137387,168,164448
25.207,137387,169,164454
25.212,137399,169,164445
25.217,137372,169,164420
25.222,137378,169,164427
25.227,137363,169,164442
25.232,137381,168,164415
25.237,137357,168,164397
25.242,137352,168,164393
25.247,137343,168,164405
25.252,137329,168,164378
25.257,137325,168,164371
25.262,137328,168,164376
25.267,137319,168,164353
25.272,137302,168,164359
25.277,137317,168,164345
25.282,137304,168,164354
25.287,137304,168,164329
25.292,137289,171,164335
25.297,137280,170,164323
25.302,137289,170,164311
25.307,137286,169,164304
25.312,137280,169,164304
25.317,137269,169,164304
25.321,137272,169,164295
25.326,137274,168,164303
25.331,137283,168,164299
25.336,137280,171,164305
25.341,137289,170,164316
25.346,137280,169,164325
25.351,137287,169,164316
25.356,137286,170,164319
25.361,137286,169,164293
25.366,137279,169,164294
25.371,137279,169,164289
25.376,137267,168,164290
25.381,137266,168,164280
25.386,137252,168,164267
25.391,137253,168,164263
25.396,137246,171,164239
25.401,137229,168,164242
25.406,137237,168,164229
25.411,137237,168,164223
25.416,137239,168,164227
25.421,137249,168,164233
25.426,137251,171,164233
25.431,137257,170,164243
25.436,137250,169,164251
25.441,137258,169,164237
25.446,137247,168,164246
25.451,137259,170,164244
25.456,137274,169,164263
25.461,137269,169,164253
25.466,137271,168,164259
25.471,137282,168,164268
25.476,137276,168,164280
25.481,137300,168,164293
25.485,137290,168,164316
25.490,137311,168,164323
25.495,137313,171,164326
25.500,137335,170,164315
25.505,137336,170,164340
25.510,137333,169,164367
25.515,137352,169,164355
25.520,137370,169,164361
25.525,137358,169,164356
25.530,137362,168,164365
25.535,137365,168,164356
25.540,137368,168,164379
25.545,137375,168,164367
25.550,137397,168,164382
25.555,137386,168,164388
25.560,137385,168,164370
25.565,137386,168,164384
25.570,137387,168,164378
25.575,137390,170,164390
25.580,137398,170,164371
25.585,137397,169,164387
25.590,137404,169,164373
25.595,137408,169,164374
25.600,137407,168,164383
25.605,137420,171,164381
25.610,137426,170,164395
25.615,137424,169,164393
25.620,137427,169,164402
25.625,137425,169,164408
25.630,137439,168,164404
25.635,137442,169,164407
25.640,137439,168,164404
25.645,137449,168,164406
25.649,137423,169,164400
25.654,137422,169,164387
25.659,137411,169,164406
25.664,137418,168,164409
25.669,137407,168,164406
25.674,137404,168,164407
25.679,137392,168,164390
25.684,137386,168,164384
25.689,137372,168,164375
25.694,137353,168,164377
25.699,137339,168,164376
25.704,137346,168,164374
25.709,137339,168,164362
25.714,137336,168,164363
25.719,137320,168,164340
25.724,137312,168,164355
25.729,137307,168,164342
25.734,137302,168,164334
25.739,137301,171,164329
25.744,137299,168,164335
25.749,137298,169,164336
25.754,137300,169,164338
25.759,137286,169,164336
25.764,137294,168,164365
25.769,137291,168,164355
25.774,137299,168,164362
25.779,137295,168,164368
25.784,137297,168,164372
25.789,137286,168,164369
25.794,137292,168,164374
25.799,137293,168,164375
25.804,137295,168,164378
25.809,137292,168,164381
25.813,137302,168,164395
25.818,137294,171,164374
25.823,137272,170,164363
25.828,137269,169,164333
25.833,137249,169,164315
25.838,137226,169,164310
25.843,137202,171,164274
25.848,137189,170,164267
25.853,137168,170,164244
25.858,137157,169,164232
25.863,137136,169,164204
25.868,137140,168,164200
25.873,137136,168,164191
25.878,137120,168,164194
25.883,137117,168,164183
25.888,137120,168,164167
25.893,137101,169,164173
25.898,137093,169,164151
25.903,137079,168,164149
25.908,137076,168,164149
25.913,137086,168,164136
25.918,137079,168,164151
25.923,137092,171,164152
25.928,137089,170,164155
25.933,137105,170,164186
25.938,137123,168,164213
25.943,137153,168,164248
25.948,137181,171,164291
25.953,137195,171,164336
25.958,137202,170,164331
25.963,137203,170,164353
25.968,137210,169,164322
25.973,137195,169,164346
25.977,137165,168,164301
25.982,137153,168,164284
25.987,137137,169,164279
25.992,137156,169,164275
25.997,137154,168,164276
26.002,137172,168,164276
26.007,137174,168,164297
26.012,137199,171,164318
26.017,137215,170,164325
26.022,137213,169,164317
26.027,137221,168,164328
26.032,137227,168,164342
26.037,137220,169,164344
26.042,137216,168,164327
26.047,137219,168,164320
26.052,137215,168,164317
26.057,137220,170,164327
26.062,137229,170,164332
26.067,137243,169,164352
26.072,137239,169,164347
26.077,137254,168,164351
26.082,137258,168,164346
26.087,137257,169,164383
26.092,137275,168,164390
26.097,137294,168,164391
26.102,137306,168,164402
26.107,137310,171,164417
26.112,137312,170,164435
26.117,137320,170,164429
26.122,137325,169,164438
26.127,137333,168,164451
26.132,137340,168,164439
26.137,137359,168,164472
26.141,137354,170,164469
26.146,137365,170,164488
26.151,137371,169,164484
26.156,137383,168,164490
26.161,137382,168,164501
26.166,137393,168,164511
26.171,137394,168,164514
26.176,137395,168,164512
26.181,137417,168,164510
26.186,137393,169,164514
26.191,137402,169,164503
26.196,137403,168,164488
26.201,137386,168,164486
26.206,137387,168,164481
26.211,137384,171,164490
26.216,137370,170,164479
26.221,137374,169,164468
26.226,137388,169,164476
26.231,137382,168,164469
26.236,137376,168,164483
26.241,137395,168,164499
26.246,137386,168,164505
26.251,137422,168,164507
26.256,137443,171,164535
26.261,137458,171,164546
26.266,137475,170,164568
26.271,137488,169,164585
26.276,137494,169,164592
26.281,137519,168,164605
26.286,137509,168,164613
26.291,137523,168,164619
26.296,137537,171,164615
26.301,137528,171,164626
26.305,137526,170,164628
26.310,137553,170,164625
26.315,137539,169,164623
26.320,137556,169,164620
26.325,137545,169,164631
26.330,137562,170,164624
26.335,137564,169,164612
26.340,137561,168,164605
26.345,137556,168,164619
26.350,137548,168,164621
26.355,137559,168,164619
26.360,137560,168,164614
26.365,137544,171,164597
26.370,137551,170,164596
26.375,137565,169,164602
26.380,137532,168,164595
26.385,137533,171,164601
26.390,137526,170,164608
26.395,137531,171,164577
26.400,137526,170,164596
26.405,137516,170,164598
26.410,137496,170,164569
26.415,137506,170,164585
26.420,137483,169,164576
26.425,137485,170,164575
26.430,137469,168,164563
26.435,137466,170,164565
26.440,137463,170,164554
26.445,137449,169,164542
26.450,137452,169,164561
26.455,137453,169,164551
26.460,137447,168,164547
26.465,137444,168,164548
26.469,137430,168,164549
26.474,137429,169,164547
26.479,137431,169,164534
26.484,137428,168,164531
26.489,137413,168,164544
26.494,137401,168,164526
26.499,137402,171,164543
26.504,137399,170,164533
26.509,137398,169,164516
26.514,137404,169,164537
26.519,137406,169,164533
26.524,137420,168,164547
26.529,137420,170,164554
26.534,137415,170,164561
26.539,137414,170,164562
26.544,137417,169,164574
26.549,137431,168,164568
26.554,137420,168,164571
26.559,137421,168,164575
26.564,137423,168,164576
26.569,137431,168,164578
26.574,137413,170,164565
26.579,137426,170,164571
26.584,137419,169,164567
26.589,137406,169,164567
26.594,137415,168,164563
26.599,137414,168,164564
26.604,137426,168,164575
26.609,137426,168,164595
26.614,137440,168,164595
26.619,137426,171,164592
26.624,137430,170,164586
26.629,137444,169,164608
26.633,137455,169,164618
26.638,137456,168,164622
26.643,137471,168,164625
26.648,137475,168,164651
26.653,137483,168,164635
26.658,137473,171,164630
26.663,137481,170,164637
26.668,137495,170,164620
26.673,137490,168,164647
26.678,137490,171,164663
26.683,137503,170,164663
26.688,137499,169,164671
26.693,137517,169,164686
26.698,137513,169,164700
26.703,137538,169,164699
26.708,137543,169,164732
26.713,137558,169,164737
26.718,137593,169,164737
26.723,137555,169,164733
26.728,137575,169,164770
26.733,137583,168,164752
26.738,137572,168,164771
26.743,137583,168,164766
26.748,137573,168,164762
26.753,137591,171,164762
26.758,137581,170,164766
26.763,137581,169,164767
26.768,137585,168,164767
26.773,137605,170,164775
26.778,137597,170,164769
26.783,137606,169,164795
26.788,137607,168,164786
26.793,137614,168,164793
26.797,137624,168,164812
26.802,137617,171,164816
26.807,137636,170,164832
26.812,137635,169,164807
26.817,137653,169,164831
26.822,137647,168,164816
26.827,137641,171,164811
26.832,137636,170,164823
26.837,137644,170,164811
26.842,137621,169,164793
26.847,137629,169,164795
26.852,137630,168,164807
26.857,137627,168,164809
26.862,137639,168,164811
26.867,137639,169,164806
26.872,137648,168,164816
26.877,137652,168,164815
26.882,137661,168,164831
26.887,137657,168,164830
26.892,137653,168,164824
26.897,137658,171,164821
26.902,137685,170,164830
26.907,137671,169,164819
26.912,137669,169,164823
26.917,137666,170,164811
26.922,137660,170,164824
26.927,137669,169,164840
26.932,137685,168,164811
26.937,137682,168,164847
26.942,137681,168,164838
26.947,137684,168,164865
26.952,137699,168,164838
26.957,137687,171,164859
26.961,137714,169,164866
26.966,137710,168,164878
26.971,137710,168,164875
26.976,137714,171,164881
26.981,137725,170,164880
26.986,137726,169,164878
26.991,137729,169,164870
26.996,137734,169,164867
27.001,137731,168,164872
27.006,137728,168,164863
27.011,137733,168,164861
27.016,137726,168,164859
27.021,137735,168,164857
27.026,137722,168,164862
27.031,137723,170,164855
27.036,137735,169,164856
27.041,137729,169,164844
27.046,137763,169,164863
27.051,137736,168,164861
27.056,137741,168,164869
27.061,137743,168,164869
27.066,137757,169,164880
27.071,137741,168,164869
27.076,137737,168,164851
27.081,137733,168,164849
27.086,137749,168,164842
27.091,137730,168,164832
27.096,137729,168,164834
27.101,137717,168,164819
27.106,137723,168,164839
27.111,137721,169,164819
27.116,137725,169,164805
27.121,137725,169,164826
27.125,137727,168,164827
27.130,137734,168,164828
27.135,137724,168,164833
27.140,137740,168,164830
27.145,137744,168,164812
27.150,137727,170,164819
27.155,137732,171,164799
27.160,137729,168,164832
27.165,137722,168,164821
27.170,137718,171,164815
27.175,137724,170,164799
27.180,137720,169,164805
27.185,137704,168,164791
27.190,137703,168,164777
27.195,137682,168,164771
27.200,137660,168,164769
27.205,137660,168,164758
27.210,137655,168,164752
27.215,137641,168,164742
27.220,137617,168,164736
27.225,137617,171,164722
27.230,137585,170,164725
27.235,137592,170,164692
27.240,137581,169,164680
27.245,137553,169,164689
27.250,137541,168,164673
27.255,137562,170,164666
27.260,137519,168,164645
27.265,137502,168,164640
27.270,137498,168,164625
27.275,137487,171,164626
27.280,137490,170,164623
27.285,137480,170,164607
27.289,137468,169,164615
27.294,137468,169,164607
27.299,137460,168,164597
27.304,137467,170,164614
27.309,137448,169,164603
27.314,137448,169,164594
27.319,137440,168,164599
27.324,137434,168,164600
27.329,137429,168,164603
27.334,137422,168,164589
27.339,137431,170,164577
27.344,137424,169,164566
27.349,137407,168,164572
27.354,137401,170,164562
27.359,137400,169,164554
27.364,137413,169,164576
27.369,137400,168,164555
27.374,137389,168,164550
27.379,137382,168,164548
27.384,137373,171,164549
27.389,137381,170,164543
27.394,137370,169,164539
27.399,137370,168,164545
27.404,137358,168,164543
27.409,137352,168,164525
27.414,137364,168,164515
27.419,137358,168,164535
27.424,137346,171,164525
27.429,137342,170,164527
27.434,137357,169,164534
27.439,137351,169,164535
27.444,137357,168,164543
27.449,137363,168,164537
27.453,137349,169,164534
27.458,137355,169,164540
27.463,137362,168,164542
27.468,137383,168,164541
27.473,137371,168,164551
27.478,137366,170,164560
27.483,137366,170,164553
27.488,137379,169,164530
27.493,137370,169,164542
27.498,137364,169,164543
27.503,137371,169,164544
27.508,137376,169,164530
27.513,137359,169,164544
27.518,137380,168,164525
27.523,137386,168,164542
27.528,137380,168,164559
27.533,137386,170,164557
27.538,137383,170,164563
27.543,137396,169,164560
27.548,137400,170,164572
27.553,137395,170,164560
27.558,137396,169,164575
27.563,137391,168,164556
27.568,137402,168,164577
27.573,137378,168,164552
27.578,137383,168,164529
27.583,137361,171,164538
27.588,137376,170,164527
27.593,137359,169,164535
27.598,137360,168,164531
27.603,137358,168,164510
27.608,137357,171,164524
27.613,137363,170,164499
27.617,137352,170,164514
27.622,137354,169,164498
27.627,137351,169,164507
27.632,137350,169,164514
27.637,137360,168,164493
27.642,137348,168,164508
27.647,137359,170,164500
27.652,137354,170,164499
27.657,137365,169,164497
27.662,137363,169,164507
27.667,137357,169,164500
27.672,137354,169,164489
27.677,137357,168,164492
27.682,137354,168,164509
27.687,137363,168,164481
27.692,137352,168,164503
27.697,137368,168,164488
27.702,137366,169,164490
27.707,137358,168,164492
27.712,137363,168,164486
27.717,137365,168,164490
27.722,137367,168,164482
27.727,137373,168,164499
27.732,137364,168,164491
27.737,137362,168,164470
27.742,137376,168,164505
27.747,137364,168,164483
27.752,137357,168,164483
27.757,137378,168,164480
27.762,137375,168,164494
27.767,137373,170,164494
27.772,137383,170,164482
27.777,137387,169,164494
27.781,137383,169,164479
27.786,137397,169,164471
27.791,137386,169,164473
27.796,137386,169,164467
27.801,137373,169,164456
27.806,137368,168,164464
27.811,137364,168,164457
27.816,137370,168,164463
27.821,137382,168,164460
27.826,137384,170,164443
27.831,137392,170,164470
27.836,137410,169,164459
27.841,137413,168,164466
27.846,137416,170,164468
27.851,137431,169,164479
27.856,137428,169,164480
27.861,137420,169,164482
27.866,137434,168,164479
27.871,137433,168,164472
27.876,137448,168,164475
27.881,137423,168,164461
27.886,137431,168,164469
27.891,137428,168,164455
27.896,137422,168,164455
27.901,137428,168,164449
27.906,137429,168,164455
27.911,137420,170,164430
27.916,137434,170,164437
27.921,137434,169,164444
27.926,137425,169,164432
27.931,137441,168,164432
27.936,137433,168,164440
27.941,137438,169,164450
27.945,137452,169,164441
27.950,137446,168,164435
27.955,137452,168,164425
27.960,137451,168,164431
27.965,137444,168,164418
27.970,137436,168,164431
27.975,137439,168,164414
27.980,137439,171,164403
27.985,137425,171,164400
27.990,137424,169,164395
27.995,137424,169,164391
28.000,137421,168,164378
28.005,137390,168,164378
28.010,137388,168,164359
28.015,137392,168,164373
28.020,137380,171,164365
28.025,137371,170,164347
28.030,137363,169,164352
28.035,137343,174,164356
28.040,137340,171,164338
28.045,137336,170,164343
28.050,137324,170,164338
28.055,137319,169,164334
28.060,137311,169,164323
28.065,137317,169,164299
28.070,137307,169,164318
28.075,137302,169,164277
28.080,137276,168,164290
28.085,137269,170,164281
28.090,137253,170,164266
28.095,137244,169,164273
28.100,137266,169,164266
28.105,137231,168,164253
28.109,137244,168,164257
28.114,137243,168,164251
28.119,137239,168,164265
28.124,137241,168,164266
28.129,137223,168,164264
28.134,137248,169,164274
28.139,137234,169,164253
28.144,137238,168,164267
28.149,137238,168,164257
28.154,137240,168,164271
28.159,137246,168,164277
28.164,137249,171,164269
28.169,137241,171,164272
28.174,137238,170,164269
28.179,137229,170,164270
28.184,137253,168,164275
28.189,137236,168,164271
28.194,137235,168,164269
28.199,137226,168,164278
28.204,137222,168,164268
28.209,137224,168,164262
28.214,137207,168,164253
28.219,137187,171,164235
28.224,137178,171,164214
28.229,137184,170,164204
28.234,137167,168,164210
28.239,137178,168,164210
28.244,137168,168,164207
28.249,137169,168,164205
28.254,137166,170,164213
28.259,137175,170,164220
28.264,137176,170,164227
28.269,137199,169,164235
28.273,137203,168,164238
28.278,137213,170,164267
28.283,137217,168,164254
28.288,137222,168,164263
28.293,137233,168,164254
28.298,137226,168,164272
28.303,137229,171,164279
28.308,137234,170,164286
28.313,137231,170,164300
28.318,137252,170,164285
28.323,137259,169,164287
28.328,137241,171,164325
28.333,137276,170,164308
28.338,137268,170,164325
28.343,137284,170,164325
28.348,137285,169,164324
28.353,137284,169,164320
28.358,137262,169,164341
28.363,137277,169,164325
28.368,137279,168,164316
28.373,137268,168,164322
28.378,137270,170,164305
28.383,137260,168,164305
28.388,137262,168,164299
28.393,137245,170,164306
28.398,137237,170,164278
28.403,137234,169,164281
28.408,137241,169,164268
28.413,137222,168,164252
28.418,137217,168,164250
28.423,137219,168,164239
28.428,137216,168,164254
28.433,137229,168,164250
28.437,137223,168,164255
28.442,137226,168,164250
28.447,137217,171,164257
28.452,137231,170,164242
28.457,137223,169,164246
28.462,137199,169,164241
28.467,137213,169,164240
28.472,137211,168,164242
28.477,137220,170,164223
28.482,137215,169,164233
28.487,137229,169,164252
28.492,137223,168,164234
28.497,137229,168,164256
28.502,137234,168,164248
28.507,137236,168,164244
28.512,137247,168,164256
28.517,137249,168,164247
28.522,137254,168,164251
28.527,137236,168,164235
28.532,137235,168,164261
28.537,137241,168,164259
28.542,137257,168,164262
28.547,137253,171,164270
28.552,137254,170,164265
28.557,137263,170,164269
28.562,137258,169,164272
28.567,137269,169,164262
28.572,137274,171,164307
28.577,137290,168,164279
28.582,137279,170,164295
28.587,137291,170,164284
28.592,137303,169,164294
28.597,137297,169,164293
28.601,137319,169,164310
28.606,137326,168,164324
28.611,137323,168,164312
28.616,137335,170,164313
28.621,137339,168,164320
28.626,137335,168,164295
28.631,137326,170,164314
28.636,137319,169,164303
28.641,137336,169,164303
28.646,137318,168,164298
28.651,137322,168,164291
28.656,137316,168,164286
28.661,137325,171,164284
28.666,137323,170,164278
28.671,137318,168,164281
28.676,137315,168,164269
28.681,137317,170,164278
28.686,137317,170,164263
28.691,137314,169,164270
28.696,137314,169,164275
28.701,137307,168,164259
28.706,137312,168,164262
28.711,137307,168,164257
28.716,137324,171,164256
28.721,137319,168,164260
28.726,137297,168,164262
28.731,137329,170,164270
28.736,137329,169,164247
28.741,137327,168,164260
28.746,137325,168,164265
28.751,137323,168,164256
28.756,137311,168,164260
28.761,137313,170,164250
28.765,137322,170,164257
28.770,137320,169,164256
28.775,137324,169,164252
28.780,137330,168,164263
28.785,137340,168,164261
28.790,137338,168,164260
28.795,137325,168,164280
28.800,137345,168,164261
28.805,137347,168,164264
28.810,137335,168,164250
28.815,137334,169,164295
28.820,137329,169,164246
28.825,137330,169,164246
28.830,137308,169,164239
28.835,137318,168,164226
28.840,137300,168,164226
28.845,137295,168,164228
28.850,137286,168,164222
28.855,137295,168,164232
28.860,137275,168,164243
28.865,137254,168,164226
28.870,137264,168,164233
28.875,137262,168,164232
28.880,137260,168,164219
28.885,137261,168,164225
28.890,137240,168,164231
28.895,137253,168,164232
28.900,137238,171,164214
28.905,137231,170,164216
28.910,137217,170,164205
28.915,137221,168,164201
28.920,137214,168,164202
28.925,137191,168,164197
28.929,137195,168,164194
28.934,137203,168,164198
28.939,137188,168,164185
28.944,137191,171,164182
28.949,137194,170,164196
28.954,137199,169,164204
28.959,137187,169,164198
28.964,137209,170,164222
28.969,137200,170,164223
28.974,137201,169,164222
28.979,137208,169,164229
28.984,137196,168,164216
28.989,137213,168,164220
28.994,137198,168,164228
28.999,137212,168,164220
29.004,137193,168,164226
29.009,137188,168,164224
29.014,137192,168,164207
29.019,137175,168,164203
29.024,137183,168,164200
29.029,137181,168,164191
29.034,137171,168,164200
29.039,137163,168,164179
29.044,137155,168,164182
29.049,137157,168,164170
29.054,137153,168,164187
29.059,137164,168,164187
29.064,137145,170,164196
29.069,137159,170,164190
29.074,137154,169,164209
