df_hash,22ZHK4.6K1ZK0
device,HZ2X61
project_hash,29R7
project_name,istanbul_aydin_university
person_hash,29R7.U0TA
person_label,v114
date_time_start,2026-03-10_16-38-29.786000_+03
date_time_start_unix,1773146309.786
date_time_end,2026-03-10_16-44-01.631000_+03
length_difference_noticed,no

time,ppg_med
5.399,388
5.424,446
5.449,538
5.474,588
5.499,568
5.524,548
5.549,601
5.574,699
5.599,736
5.624,676
5.649,612
5.674,646
5.699,736
5.724,742
5.749,613
5.774,477
5.799,469
5.824,536
5.849,488
5.874,259
5.899,19
5.924,-48
5.949,-18
5.974,-139
5.999,-495
6.024,-863
6.049,-1002
6.074,-1008
6.099,-1206
6.124,-1703
6.149,-2205
6.174,-2405
6.199,-2425
6.224,-2680
6.249,-3307
6.274,-3927
6.299,-4148
6.324,-4125
6.349,-4387
6.374,-5101
6.399,-5790
6.424,-5957
6.449,-5801
6.474,-5984
6.499,-6714
6.524,-7392
6.549,-7400
6.574,-6982
6.599,-6970
6.624,-7621
6.649,-8190
6.674,-7904
6.699,-7071
6.724,-6729
6.749,-7200
6.774,-7556
6.799,-6833
6.824,-5418
6.849,-4608
6.874,-4814
6.899,-4874
6.924,-3579
6.949,-1412
6.974,-16
6.999,82
7.024,350
7.049,2330
7.074,5411
7.099,7480
7.124,7836
7.149,8373
7.174,11121
7.199,15294
7.224,18082
7.249,18504
7.274,19098
7.299,22686
7.324,28238
7.349,31773
7.374,31768
7.399,31881
7.424,32767
7.449,32767
7.474,32767
7.499,32767
7.524,32767
7.549,32767
7.574,32767
7.599,32767
7.624,32767
7.649,10376
7.674,-32768
7.699,-32768
7.724,-32768
7.749,-32768
7.774,-32768
7.799,-32768
7.824,-32768
7.849,-32768
7.874,-32768
7.899,-32768
7.924,-31278
7.949,-31884
7.974,-29888
7.999,-24660
8.024,-19890
8.049,-18270
8.074,-18219
8.099,-16488
8.124,-12557
8.149,-8966
8.174,-7669
8.199,-7562
8.224,-6266
8.249,-3363
8.274,-742
8.299,111
8.324,22
8.349,816
8.374,2826
8.399,4598
8.424,4976
8.449,4613
8.474,4950
8.499,6254
8.524,7366
8.549,7368
8.574,6783
8.599,6774
8.624,7565
8.649,8227
8.674,8010
8.699,7313
8.724,7058
8.749,7427
8.774,7688
8.799,7251
8.824,6445
8.849,6012
8.874,6096
8.899,6113
8.924,5596
8.949,4813
8.974,4355
8.999,4330
9.024,4264
9.049,3777
9.074,3083
9.099,2655
9.124,2585
9.149,2499
9.174,2094
9.199,1529
9.224,1172
9.249,1099
9.274,1023
9.299,716
9.324,301
9.349,65
9.374,68
9.399,93
9.424,-41
9.449,-255
9.474,-353
9.499,-298
9.524,-247
9.549,-320
9.574,-446
9.599,-478
9.624,-401
9.649,-341
9.674,-383
9.699,-464
9.724,-466
9.749,-377
9.774,-296
9.799,-296
9.824,-333
9.849,-323
9.874,-255
9.899,-200
9.924,-207
9.949,-240
9.974,-232
9.999,-175
10.024,-126
10.049,-122
10.074,-136
10.099,-107
10.124,-23
10.149,68
10.174,119
10.199,139
10.224,158
10.249,166
10.274,179
10.299,199
10.324,215
10.349,219
10.374,209
10.399,196
10.424,189
10.449,191
10.474,193
10.499,188
10.524,175
10.549,161
10.574,153
10.599,150
10.624,146
10.649,131
10.674,106
10.699,75
10.724,45
10.749,20
10.774,0
10.799,-14
10.824,-27
10.849,-38
10.874,-45
10.899,-41
10.924,-17
10.949,30
10.974,92
10.999,154
11.024,200
11.049,229
11.074,246
11.099,259
11.124,270
11.149,275
11.174,267
11.199,250
11.224,228
11.249,212
11.274,205
11.299,209
11.324,218
11.349,225
11.374,223
11.399,214
11.424,201
11.449,189
11.474,179
11.499,165
11.524,143
11.549,116
11.574,93
11.599,75
11.624,62
11.649,44
11.674,22
11.699,1
11.724,-9
11.749,-5
11.774,10
11.799,34
11.824,62
11.849,92
11.874,119
11.899,139
11.924,154
11.949,169
11.974,189
11.999,210
12.024,225
12.049,228
12.074,224
12.099,221
12.124,225
12.149,233
12.174,238
12.199,233
12.224,223
12.249,210
12.274,197
12.299,182
12.324,166
12.349,149
12.374,135
12.399,120
12.424,103
12.449,83
12.474,63
12.499,47
12.524,41
12.549,48
12.574,72
12.599,112
12.624,157
12.649,197
12.674,222
12.699,236
12.724,248
12.749,264
12.774,276
12.799,276
12.824,262
12.849,246
12.874,244
12.899,255
12.924,264
12.949,259
12.974,243
12.999,232
13.024,233
13.049,238
13.074,228
13.099,191
13.124,136
13.149,83
13.174,43
13.199,13
13.224,-13
13.249,-35
13.274,-43
13.299,-27
13.324,6
13.349,45
13.374,74
13.399,92
13.424,105
13.449,121
13.474,141
13.499,161
13.524,177
13.549,189
13.574,197
13.599,207
13.624,220
13.649,235
13.674,248
13.699,252
13.724,246
13.749,230
13.774,212
13.799,191
13.824,165
13.849,134
13.874,100
13.899,72
13.924,53
13.949,37
13.974,19
13.999,0
14.024,-12
14.049,-4
14.074,26
14.099,72
14.124,120
14.149,164
14.174,199
14.199,227
14.224,249
14.249,267
14.274,284
14.299,300
14.324,308
14.349,298
14.374,270
14.399,234
14.424,208
14.449,202
14.474,208
14.499,211
14.524,201
14.549,180
14.574,160
14.599,145
14.624,130
14.649,109
14.674,78
14.699,43
14.724,11
14.749,-18
14.774,-49
14.799,-80
14.824,-104
14.849,-108
14.874,-86
14.899,-41
14.924,15
14.949,70
14.974,116
14.999,150
15.024,177
15.049,201
15.074,221
15.099,232
15.124,231
15.149,220
15.174,210
15.199,211
15.224,224
15.249,240
15.274,248
15.299,244
15.324,235
15.349,229
15.374,228
15.399,228
15.424,223
15.449,213
15.474,196
15.499,176
15.524,154
15.549,134
15.574,123
15.599,131
15.624,158
15.649,195
15.674,227
15.699,246
15.724,250
15.749,250
15.774,251
15.799,256
15.824,261
15.849,261
15.874,254
15.899,239
15.924,217
15.949,192
15.974,167
15.999,146
16.024,130
16.049,117
16.074,102
16.099,87
16.124,73
16.149,64
16.174,58
16.199,49
16.224,33
16.249,11
16.274,-7
16.299,-14
16.324,-3
16.349,24
16.374,64
16.399,109
16.424,149
16.449,180
16.474,200
16.499,215
16.524,229
16.549,244
16.574,252
16.599,246
16.624,229
16.649,210
16.674,202
16.699,207
16.724,219
16.749,227
16.774,227
16.799,220
16.824,210
16.849,193
16.874,166
16.899,131
16.924,96
16.949,68
16.974,44
16.999,11
17.024,-31
17.049,-68
17.074,-76
17.099,-44
17.124,10
17.149,59
17.174,83
17.199,88
17.224,93
17.249,114
17.274,144
17.299,167
17.324,171
17.349,160
17.374,146
17.399,141
17.424,147
17.449,156
17.474,163
17.499,166
17.524,169
17.549,176
17.574,186
17.599,194
17.624,195
17.649,188
17.674,175
17.699,160
17.724,141
17.749,119
17.774,100
17.799,95
17.824,115
17.849,159
17.874,211
17.899,254
17.924,278
17.949,288
17.974,294
17.999,302
18.024,310
18.049,311
18.074,303
18.099,289
18.124,271
18.149,250
18.174,226
18.199,203
18.224,183
18.249,166
18.274,149
18.299,132
18.324,116
18.349,103
18.374,92
18.399,75
18.424,50
18.449,23
18.474,5
18.499,10
18.524,36
18.549,76
18.574,118
18.599,153
18.624,182
18.649,205
18.674,221
18.699,231
18.724,233
18.749,227
18.774,214
18.799,199
18.824,186
18.849,180
18.874,179
18.899,175
18.924,163
18.949,145
18.974,127
18.999,115
19.024,109
19.049,103
19.074,90
19.099,73
19.124,54
19.149,35
19.174,17
19.199,-1
19.224,-13
19.249,-8
19.274,17
19.299,57
19.324,96
19.349,121
19.374,132
19.399,137
19.424,145
19.449,157
19.474,167
19.499,169
19.524,166
19.549,163
19.574,167
19.599,181
19.624,199
19.649,214
19.674,219
19.699,214
19.724,202
19.749,187
19.774,175
19.799,163
19.824,151
19.849,135
19.874,115
19.899,94
19.924,73
19.949,56
19.974,51
19.999,66
20.024,98
20.049,138
20.074,168
20.099,184
20.124,195
20.149,215
20.174,247
20.199,280
20.224,297
20.249,295
20.274,287
20.299,285
20.324,296
20.349,312
20.374,321
20.399,322
20.424,316
20.449,307
20.474,296
20.499,285
20.524,273
20.549,256
20.574,227
20.599,181
20.624,125
20.649,76
20.674,45
20.699,38
20.724,50
20.749,71
20.774,95
20.799,115
20.824,125
20.849,125
20.874,121
20.899,122
20.924,120
20.949,102
20.974,61
20.999,9
21.024,-32
21.049,-56
21.074,-77
21.099,-110
21.124,-154
21.149,-182
21.174,-179
21.199,-148
21.224,-108
21.249,-62
21.274,4
21.299,101
21.324,213
21.349,318
21.374,415
21.399,525
21.424,649
21.449,731
21.474,683
21.499,463
21.524,131
21.549,-179
21.574,-352
21.599,-364
21.624,-275
21.649,-160
21.674,-60
21.699,29
21.724,119
21.749,207
21.774,281
21.799,337
21.824,374
21.849,390
21.874,386
21.899,365
21.924,338
21.949,313
21.974,292
21.999,275
22.024,266
22.049,273
22.074,290
22.099,299
22.124,280
22.149,239
22.174,201
22.199,187
22.224,195
22.249,204
22.274,196
22.299,177
22.324,158
22.349,141
22.374,121
22.399,90
22.424,55
22.449,27
22.474,11
22.499,0
22.524,-8
22.549,-12
22.574,-5
22.599,10
22.624,25
22.649,31
22.674,33
22.699,38
22.724,49
22.749,56
22.774,54
22.799,41
22.824,24
22.849,10
22.874,4
22.899,11
22.924,36
22.949,79
22.974,129
22.999,176
23.024,214
23.049,244
23.074,271
23.099,293
23.124,302
23.149,298
23.174,290
23.199,285
23.224,283
23.249,275
23.274,253
23.299,222
23.324,194
23.349,170
23.374,146
23.399,114
23.424,81
23.449,56
23.474,48
23.499,50
23.524,53
23.549,59
23.574,82
23.599,142
23.624,239
23.649,353
23.674,457
23.699,529
23.724,562
23.749,561
23.774,538
23.799,504
23.824,467
23.849,425
23.874,378
23.899,325
23.924,272
23.949,229
23.974,203
23.999,188
24.024,172
24.049,144
24.074,107
24.099,69
24.124,36
24.149,9
24.174,-19
24.199,-51
24.224,-85
24.249,-121
24.274,-163
24.299,-211
24.324,-261
24.349,-298
24.374,-306
24.399,-281
24.424,-232
24.449,-174
24.474,-120
24.499,-77
24.524,-44
24.549,-15
24.574,20
24.599,64
24.624,109
24.649,144
24.674,161
24.699,164
24.724,170
24.749,186
24.774,210
24.799,227
24.824,229
24.849,221
24.874,215
24.899,214
24.924,217
24.949,219
24.974,219
24.999,220
25.024,219
25.049,207
25.074,179
25.099,141
25.124,104
25.149,79
25.174,73
25.199,92
25.224,143
25.249,224
25.274,313
25.299,379
25.324,398
25.349,377
25.374,349
25.399,341
25.424,357
25.449,373
25.474,369
25.499,343
25.524,312
25.549,296
25.574,295
25.599,302
25.624,303
25.649,293
25.674,275
25.699,251
25.724,226
25.749,200
25.774,168
25.799,126
25.824,73
25.849,19
25.874,-17
25.899,-25
25.924,-6
25.949,23
25.974,50
25.999,68
26.024,82
26.049,99
26.074,122
26.099,146
26.124,166
26.149,177
26.174,175
26.199,161
26.224,141
26.249,126
26.274,121
26.299,121
26.324,120
26.349,114
26.374,106
26.399,101
26.424,99
26.449,96
26.474,89
26.499,80
26.524,73
26.549,70
26.574,66
26.599,53
26.624,32
26.649,13
26.674,9
26.699,29
26.724,71
26.749,125
26.774,176
26.799,215
26.824,240
26.849,258
26.874,273
26.899,287
26.924,293
26.949,292
26.974,283
26.999,272
27.024,257
27.049,235
27.074,207
27.099,179
27.124,164
27.149,163
27.174,168
27.199,167
27.224,157
27.249,150
27.274,153
27.299,159
27.324,151
27.349,115
27.374,59
27.399,4
27.424,-33
27.449,-54
27.474,-68
27.499,-82
27.524,-88
27.549,-71
27.574,-29
27.599,24
27.624,71
27.649,99
27.674,112
27.699,120
27.724,135
27.749,159
27.774,188
27.799,212
27.824,226
27.849,231
27.874,232
27.899,238
27.924,253
27.949,272
27.974,285
27.999,287
28.024,281
28.049,275
28.074,278
28.099,281
28.124,273
28.149,242
28.174,194
28.199,147
28.224,114
28.249,93
28.274,72
28.299,46
28.324,27
28.349,36
28.374,77
28.399,125
28.424,153
28.449,151
28.474,142
28.499,160
28.524,217
28.549,291
28.574,345
28.599,355
28.624,331
28.649,297
28.674,276
28.699,270
28.724,268
28.749,255
28.774,223
28.799,180
28.824,143
28.849,126
28.874,129
28.899,138
28.924,131
28.949,99
28.974,52
28.999,14
29.024,4
29.049,20
29.074,51
29.099,89
29.124,129
29.149,169
29.174,202
29.199,221
29.224,228
29.249,229
29.274,232
29.299,234
29.324,227
29.349,205
29.374,176
29.399,148
29.424,128
29.449,112
29.474,98
29.499,85
29.524,77
29.549,74
29.574,69
29.599,59
29.624,43
29.649,25
29.674,8
29.699,-5
29.724,-15
29.749,-17
29.774,-14
29.799,-12
29.824,-15
29.849,-17
29.874,-4
29.899,34
29.924,93
29.949,155
29.974,200
29.999,226
30.024,242
30.049,259
30.074,278
30.099,293
30.124,296
30.149,287
30.174,270
30.199,252
30.224,235
30.249,225
30.274,223
30.299,229
30.324,233
30.349,229
30.374,215
30.399,199
30.424,186
30.449,177
30.474,167
30.499,150
30.524,127
30.549,103
30.574,83
30.599,67
30.624,54
30.649,45
30.674,43
30.699,56
30.724,85
30.749,125
30.774,166
30.799,191
30.824,197
30.849,191
30.874,187
30.899,199
30.924,221
30.949,234
30.974,221
30.999,183
31.024,141
31.049,118
31.074,124
31.099,146
31.124,164
31.149,169
31.174,163
31.199,155
31.224,146
31.249,131
31.274,106
31.299,78
31.324,60
31.349,58
31.374,67
31.399,77
31.424,81
31.449,78
31.474,73
31.499,72
31.524,84
31.549,111
31.574,150
31.599,193
31.624,226
31.649,243
31.674,251
31.699,263
31.724,285
31.749,311
31.774,327
31.799,319
31.824,291
31.849,260
31.874,246
31.899,255
31.924,277
31.949,293
31.974,296
31.999,295
32.024,305
32.049,331
32.074,355
32.099,352
32.124,316
32.149,262
32.174,217
32.199,192
32.224,171
32.249,132
32.274,67
32.299,-2
32.324,-46
32.349,-50
32.374,-28
32.399,-4
32.424,3
32.449,-2
32.474,-7
32.499,1
32.524,25
32.549,53
32.574,69
32.599,60
32.624,27
32.649,-14
32.674,-48
32.699,-66
32.724,-77
32.749,-94
32.774,-121
32.799,-147
32.824,-162
32.849,-167
32.874,-175
32.899,-192
32.924,-207
32.949,-207
32.974,-186
32.999,-156
33.024,-126
33.049,-94
33.074,-44
33.099,31
33.124,120
33.149,206
33.174,286
33.199,371
33.224,475
33.249,588
33.274,686
33.299,745
33.324,761
33.349,742
33.374,699
33.399,640
33.424,571
33.449,507
33.474,460
33.499,429
33.524,404
33.549,373
33.574,337
33.599,308
33.624,287
33.649,268
33.674,241
33.699,207
33.724,174
33.749,147
33.774,119
33.799,81
33.824,29
33.849,-25
33.874,-76
33.899,-119
33.924,-159
33.949,-194
33.974,-218
33.999,-225
34.024,-214
34.049,-190
34.074,-159
34.099,-123
34.124,-83
34.149,-42
34.174,5
34.199,71
34.224,161
34.249,272
34.274,384
34.299,474
34.324,539
34.349,593
34.374,655
34.399,729
34.424,798
34.449,838
34.474,826
34.499,745
34.524,587
34.549,368
34.574,134
34.599,-48
34.624,-126
34.649,-92
34.674,7
34.699,106
34.724,159
34.749,156
34.774,114
34.799,51
34.824,-22
34.849,-98
34.874,-163
34.899,-204
34.924,-216
34.949,-211
34.974,-203
34.999,-202
35.024,-207
35.049,-213
35.074,-215
35.099,-215
35.124,-211
35.149,-204
35.174,-191
35.199,-166
35.224,-125
35.249,-68
35.274,3
35.299,81
35.324,159
35.349,230
35.374,289
35.399,328
35.424,338
35.449,316
35.474,274
35.499,234
35.524,214
35.549,218
35.574,230
35.599,237
35.624,233
35.649,228
35.674,234
35.699,250
35.724,263
35.749,263
35.774,254
35.799,252
35.824,269
35.849,306
35.874,345
35.899,372
35.924,385
35.949,391
35.974,399
35.999,410
36.024,416
36.049,410
36.074,388
36.099,354
36.124,317
36.149,285
36.174,262
36.199,246
36.224,229
36.249,202
36.274,162
36.299,117
36.324,75
36.349,40
36.374,7
36.399,-30
36.424,-81
36.449,-143
36.474,-206
36.499,-259
36.524,-291
36.549,-299
36.574,-287
36.599,-262
36.624,-228
36.649,-179
36.674,-113
36.699,-37
36.724,25
36.749,60
36.774,71
36.799,80
36.824,106
36.849,146
36.874,180
36.899,192
36.924,189
36.949,192
36.974,212
36.999,242
37.024,269
37.049,288
37.074,307
37.099,329
37.124,351
37.149,362
37.174,362
37.199,361
37.224,366
37.249,373
37.274,375
37.299,367
37.324,354
37.349,336
37.374,306
37.399,255
37.424,191
37.449,139
37.474,122
37.499,143
37.524,185
37.549,228
37.574,262
37.599,289
37.624,317
37.649,349
37.674,382
37.699,413
37.724,436
37.749,448
37.774,449
37.799,444
37.824,435
37.849,424
37.874,411
37.899,397
37.924,389
37.949,387
37.974,380
37.999,343
38.024,261
38.049,139
38.074,4
38.099,-115
38.124,-208
38.149,-280
38.174,-341
38.199,-392
38.224,-428
38.249,-442
38.274,-440
38.299,-431
38.324,-421
38.349,-412
38.374,-403
38.399,-392
38.424,-378
38.449,-358
38.474,-326
38.499,-276
38.524,-208
38.549,-126
38.574,-41
38.599,41
38.624,121
38.649,207
38.674,298
38.699,389
38.724,465
38.749,520
38.774,560
38.799,603
38.824,659
38.849,720
38.874,769
38.899,796
38.924,807
38.949,814
38.974,815
38.999,799
39.024,758
39.049,701
39.074,644
39.099,599
39.124,561
39.149,521
39.174,485
39.199,465
39.224,459
39.249,438
39.274,366
39.299,227
39.324,44
39.349,-139
39.374,-301
39.399,-448
39.424,-597
39.449,-748
39.474,-879
39.499,-966
39.524,-1001
39.549,-1000
39.574,-974
39.599,-917
39.624,-813
39.649,-653
39.674,-454
39.699,-248
39.724,-65
39.749,77
39.774,184
39.799,263
39.824,322
39.849,364
39.874,390
39.899,405
39.924,419
39.949,445
39.974,487
39.999,539
40.024,586
40.049,615
40.074,625
40.099,624
40.124,618
40.149,605
40.174,579
40.199,539
40.224,495
40.249,461
40.274,442
40.299,430
40.324,408
40.349,362
40.374,290
40.399,201
40.424,109
40.449,31
40.474,-17
40.499,-28
40.524,-2
40.549,52
40.574,119
40.599,179
40.624,228
40.649,273
40.674,328
40.699,395
40.724,460
40.749,499
40.774,503
40.799,483
40.824,455
40.849,420
40.874,365
40.899,290
40.924,224
40.949,214
40.974,270
40.999,344
41.024,346
41.049,222
41.074,1
41.099,-222
41.124,-355
41.149,-367
41.174,-289
41.199,-170
41.224,-42
41.249,78
41.274,173
41.299,217
41.324,210
41.349,183
41.374,183
41.399,225
41.424,280
41.449,302
41.474,274
41.499,229
41.524,216
41.549,261
41.574,344
41.599,418
41.624,447
41.649,416
41.674,330
41.699,217
41.724,122
41.749,95
41.774,153
41.799,257
41.824,314
41.849,246
41.874,57
41.899,-160
41.924,-292
41.949,-294
41.974,-227
41.999,-203
42.024,-298
42.049,-500
42.074,-733
42.099,-913
42.124,-991
42.149,-950
42.174,-798
42.199,-560
42.224,-292
42.249,-63
42.274,82
42.299,153
42.324,201
42.349,270
42.374,357
42.399,425
42.424,442
42.449,415
42.474,383
42.499,378
42.524,404
42.549,444
42.574,476
42.599,483
42.624,451
42.649,376
42.674,274
42.699,190
42.724,170
42.749,227
42.774,327
42.799,420
42.824,482
42.849,527
42.874,578
42.899,630
42.924,656
42.949,636
42.974,585
42.999,536
43.024,495
43.049,437
43.074,330
43.099,185
43.124,55
43.149,-9
43.174,-8
43.199,18
43.224,31
43.249,28
43.274,39
43.299,77
43.324,123
43.349,140
43.374,115
43.399,77
43.424,71
43.449,119
43.474,199
43.499,262
43.524,264
43.549,199
43.574,93
43.599,-6
43.624,-62
43.649,-46
43.674,55
43.699,239
43.724,472
43.749,687
43.774,808
43.799,801
43.824,694
43.849,556
43.874,434
43.899,315
43.924,169
43.949,-2
43.974,-153
43.999,-242
44.024,-283
44.049,-330
44.074,-406
44.099,-481
44.124,-513
44.149,-510
44.174,-512
44.199,-520
44.224,-459
44.249,-247
44.274,94
44.299,442
44.324,675
44.349,782
44.374,820
44.399,793
44.424,605
44.449,182
44.474,-359
44.499,-736
44.524,-704
44.549,-268
44.574,326
44.599,815
44.624,1105
44.649,1273
44.674,1415
44.699,1541
44.724,1601
44.749,1569
44.774,1458
44.799,1275
44.824,999
44.849,634
44.874,242
44.899,-91
44.924,-346
44.949,-569
44.974,-800
44.999,-995
45.024,-1073
45.049,-1011
45.074,-893
45.099,-823
45.124,-813
45.149,-775
45.174,-629
45.199,-397
45.224,-183
45.249,-75
45.274,-84
45.299,-182
45.324,-351
45.349,-597
45.374,-898
45.399,-1196
45.424,-1428
45.449,-1573
45.474,-1637
45.499,-1603
45.524,-1412
45.549,-1017
45.574,-449
45.599,183
45.624,748
45.649,1156
45.674,1384
45.699,1454
45.724,1413
45.749,1328
45.774,1269
45.799,1278
45.824,1350
45.849,1443
45.874,1519
45.899,1567
45.924,1595
45.949,1607
45.974,1597
45.999,1566
46.024,1520
46.049,1459
46.074,1362
46.099,1209
46.124,1009
46.149,805
46.174,644
46.199,537
46.224,453
46.249,349
46.274,212
46.299,61
46.324,-81
46.349,-201
46.374,-293
46.399,-343
46.424,-342
46.449,-299
46.474,-246
46.499,-224
46.524,-244
46.549,-285
46.574,-325
46.599,-360
46.624,-414
46.649,-503
46.674,-618
46.699,-725
46.724,-798
46.749,-827
46.774,-822
46.799,-798
46.824,-765
46.849,-734
46.874,-707
46.899,-673
46.924,-606
46.949,-483
46.974,-310
46.999,-123
47.024,27
47.049,107
47.074,100
47.099,11
47.124,-137
47.149,-297
47.174,-396
47.199,-378
47.224,-241
47.249,-48
47.274,123
47.299,235
47.324,302
47.349,364
47.374,455
47.399,593
47.424,786
47.449,1028
47.474,1263
47.499,1396
47.524,1352
47.549,1144
47.574,881
47.599,682
47.624,592
47.649,562
47.674,523
47.699,461
47.724,422
47.749,444
47.774,507
47.799,549
47.824,527
47.849,459
47.874,400
47.899,394
47.924,440
47.949,498
47.974,521
47.999,477
48.024,369
48.049,231
48.074,112
48.099,42
48.124,9
48.149,-27
48.174,-102
48.199,-202
48.224,-285
48.249,-314
48.274,-295
48.299,-262
48.324,-247
48.349,-251
48.374,-255
48.399,-243
48.424,-211
48.449,-166
48.474,-116
48.499,-73
48.524,-48
48.549,-46
48.574,-56
48.599,-58
48.624,-39
48.649,-4
48.674,28
48.699,50
48.724,66
48.749,83
48.774,103
48.799,121
48.824,131
48.849,135
48.874,139
48.899,148
48.924,159
48.949,175
48.974,197
48.999,225
49.024,252
49.049,270
49.074,279
49.099,286
49.124,297
49.149,309
49.174,318
49.199,322
49.224,326
49.249,337
49.274,353
49.299,363
49.324,356
49.349,326
49.374,280
49.399,233
49.424,195
49.449,173
49.474,165
49.499,162
49.524,148
49.549,117
49.574,75
49.599,43
49.624,48
49.649,104
49.674,197
49.699,297
49.724,370
49.749,402
49.774,397
49.799,376
49.824,352
49.849,327
49.874,296
49.899,256
49.924,215
49.949,182
49.974,158
49.999,139
50.024,113
50.049,75
50.074,30
50.099,-7
50.124,-32
50.149,-47
50.174,-65
50.199,-96
50.224,-141
50.249,-184
50.274,-214
50.299,-225
50.324,-227
50.349,-224
50.374,-206
50.399,-154
50.424,-57
50.449,70
50.474,198
50.499,308
50.524,401
50.549,492
50.574,576
50.599,631
50.624,633
50.649,583
50.674,508
50.699,430
50.724,351
50.749,266
50.774,183
50.799,125
50.824,104
50.849,97
50.874,61
50.899,-19
50.924,-114
50.949,-168
50.974,-159
50.999,-114
51.024,-86
51.049,-99
51.074,-140
51.099,-180
51.124,-207
51.149,-226
51.174,-247
51.199,-265
51.224,-278
51.249,-291
51.274,-306
51.299,-303
51.324,-243
51.349,-99
51.374,121
51.399,373
51.424,599
51.449,765
51.474,861
51.499,901
51.524,910
51.549,920
51.574,950
51.599,987
51.624,994
51.649,941
51.674,837
51.699,722
51.724,615
51.749,487
51.774,290
51.799,17
51.824,-271
51.849,-487
51.874,-595
51.899,-629
51.924,-646
51.949,-651
51.974,-586
51.999,-394
52.024,-78
52.049,287
52.074,615
52.099,849
52.124,975
52.149,997
52.174,928
52.199,793
52.224,628
52.249,461
52.274,285
52.299,70
52.324,-189
52.349,-452
52.374,-655
52.399,-764
52.424,-798
52.449,-803
52.474,-798
52.499,-764
52.524,-675
52.549,-533
52.574,-369
52.599,-211
52.624,-65
52.649,72
52.674,196
52.699,295
52.724,367
52.749,434
52.774,520
52.799,618
52.824,700
52.849,741
52.874,752
52.899,761
52.924,787
52.949,824
52.974,851
52.999,866
53.024,878
53.049,893
53.074,899
53.099,883
53.124,848
53.149,810
53.174,773
53.199,718
53.224,624
53.249,497
53.274,370
53.299,266
53.324,166
53.349,22
53.374,-199
53.399,-487
53.424,-798
53.449,-1090
53.474,-1322
53.499,-1443
53.524,-1397
53.549,-1168
53.574,-818
53.599,-471
53.624,-228
53.649,-101
53.674,-29
53.699,48
53.724,134
53.749,193
53.774,209
53.799,214
53.824,246
53.849,300
53.874,336
53.899,327
53.924,292
53.949,283
53.974,324
53.999,393
54.024,454
54.049,492
54.074,515
54.099,534
54.124,541
54.149,527
54.174,493
54.199,449
54.224,396
54.249,321
54.274,224
54.299,131
54.324,66
54.349,19
54.374,-49
54.399,-152
54.424,-236
54.449,-208
54.474,-29
54.499,236
54.524,460
54.549,546
54.574,493
54.599,371
54.624,249
54.649,155
54.674,89
54.699,60
54.724,74
54.749,111
54.774,126
54.799,88
54.824,19
54.849,-17
54.874,25
54.899,136
54.924,254
54.949,319
54.974,320
54.999,283
55.024,242
55.049,207
55.074,172
55.099,127
55.124,71
55.149,12
55.174,-40
55.199,-73
55.224,-70
55.249,-14
55.274,99
55.299,259
55.324,434
55.349,577
55.374,645
55.399,625
55.424,538
55.449,433
55.474,349
55.499,289
55.524,230
55.549,146
55.574,31
55.599,-100
55.624,-234
55.649,-351
55.674,-429
55.699,-442
55.724,-386
55.749,-302
55.774,-254
55.799,-280
55.824,-353
55.849,-401
55.874,-368
55.899,-261
55.924,-137
55.949,-46
55.974,4
55.999,37
56.024,65
56.049,78
56.074,69
56.099,54
56.124,69
56.149,130
56.174,217
56.199,288
56.224,323
56.249,339
56.274,367
56.299,419
56.324,477
56.349,510
56.374,512
56.399,498
56.424,498
56.449,529
56.474,586
56.499,647
56.524,690
56.549,707
56.574,705
56.599,698
56.624,693
56.649,684
56.674,660
56.699,616
56.724,560
56.749,508
56.774,467
56.799,432
56.824,394
56.849,347
56.874,289
56.899,213
56.924,114
56.949,-2
56.974,-115
56.999,-194
57.024,-227
57.049,-226
57.074,-218
57.099,-223
57.124,-241
57.149,-261
57.174,-275
57.199,-279
57.224,-268
57.249,-235
57.274,-178
57.299,-116
57.324,-77
57.349,-80
57.374,-120
57.399,-173
57.424,-216
57.449,-240
57.474,-248
57.499,-245
57.524,-233
57.549,-218
57.574,-209
57.599,-210
57.624,-215
57.649,-203
57.674,-155
57.699,-67
57.724,49
57.749,173
57.774,286
57.799,379
57.824,452
57.849,512
57.874,564
57.899,605
57.924,628
57.949,627
57.974,613
57.999,607
58.024,623
58.049,650
58.074,658
58.099,618
58.124,538
58.149,454
58.174,403
58.199,388
58.224,376
58.249,325
58.274,220
58.299,80
58.324,-58
58.349,-166
58.374,-232
58.399,-254
58.424,-237
58.449,-191
58.474,-136
58.499,-91
58.524,-57
58.549,-24
58.574,21
58.599,68
58.624,89
58.649,60
58.674,-11
58.699,-84
58.724,-116
58.749,-95
58.774,-37
58.799,30
58.824,91
58.849,143
58.874,193
58.899,238
58.924,274
58.949,300
58.974,319
58.999,338
59.024,365
59.049,404
59.074,451
59.099,488
59.124,496
59.149,468
59.174,422
59.199,387
59.224,379
59.249,389
59.274,393
59.299,382
59.324,363
59.349,347
59.374,325
59.399,282
59.424,214
59.449,134
59.474,54
59.499,-35
59.524,-145
59.549,-250
59.574,-283
59.599,-189
59.624,8
59.649,205
59.674,291
59.699,246
59.724,147
59.749,90
59.774,96
59.799,106
59.824,58
59.849,-44
59.874,-142
59.899,-191
59.924,-218
59.949,-277
59.974,-376
59.999,-444
60.024,-393
60.049,-212
60.074,0
60.099,105
60.124,46
60.149,-109
60.174,-221
60.199,-196
60.224,-55
60.249,91
60.274,154
60.299,136
60.324,119
60.349,175
60.374,300
60.399,418
60.424,463
60.449,431
60.474,377
60.499,355
60.524,370
60.549,392
60.574,397
60.599,396
60.624,409
60.649,430
60.674,431
60.699,386
60.724,311
60.749,251
60.774,250
60.799,309
60.824,393
60.849,457
60.874,472
60.899,441
60.924,381
60.949,312
60.974,247
60.999,186
61.024,120
61.049,37
61.074,-60
61.099,-150
61.124,-201
61.149,-194
61.174,-140
61.199,-73
61.224,-27
61.249,-4
61.274,14
61.299,51
61.324,104
61.349,155
61.374,191
61.399,218
61.424,253
61.449,300
61.474,349
61.499,384
61.524,405
61.549,422
61.574,437
61.599,434
61.624,400
61.649,337
61.674,270
61.699,213
61.724,159
61.749,86
61.774,-6
61.799,-95
61.824,-151
61.849,-175
61.874,-191
61.899,-219
61.924,-254
61.949,-276
61.974,-277
61.999,-269
62.024,-265
62.049,-260
62.074,-244
62.099,-223
62.124,-213
62.149,-211
62.174,-183
62.199,-96
62.224,33
62.249,149
62.274,210
62.299,249
62.324,357
62.349,588
62.374,895
62.399,1152
62.424,1256
62.449,1202
62.474,1066
62.499,925
62.524,797
62.549,658
62.574,499
62.599,341
62.624,214
62.649,124
62.674,50
62.699,-24
62.724,-93
62.749,-141
62.774,-167
62.799,-187
62.824,-221
62.849,-266
62.874,-307
62.899,-329
62.924,-330
62.949,-324
62.974,-325
62.999,-340
63.024,-362
63.049,-377
63.074,-375
63.099,-352
63.124,-312
63.149,-262
63.174,-202
63.199,-121
63.224,-11
63.249,119
63.274,250
63.299,367
63.324,473
63.349,583
63.374,701
63.399,808
63.424,881
63.449,913
63.474,918
63.499,918
63.524,917
63.549,902
63.574,863
63.599,803
63.624,733
63.649,653
63.674,551
63.699,420
63.724,275
63.749,148
63.774,60
63.799,1
63.824,-56
63.849,-140
63.874,-249
63.899,-362
63.924,-456
63.949,-524
63.974,-567
63.999,-589
64.024,-590
64.049,-571
64.074,-538
64.099,-491
64.124,-432
64.149,-366
64.174,-306
64.199,-266
64.224,-250
64.249,-242
64.274,-223
64.299,-187
64.324,-146
64.349,-111
64.374,-72
64.399,3
64.424,142
64.449,329
64.474,517
64.499,649
64.524,705
64.549,703
64.574,678
64.599,652
64.624,626
64.649,588
64.674,531
64.699,460
64.724,387
64.749,325
64.774,282
64.799,263
64.824,264
64.849,275
64.874,284
64.899,288
64.924,291
64.949,303
64.974,331
64.999,370
65.024,403
65.049,408
65.074,379
65.099,326
65.124,275
65.149,249
65.174,248
65.199,251
65.224,236
65.249,199
65.274,151
65.299,109
65.324,78
65.349,51
65.374,22
65.399,-5
65.424,-28
65.449,-48
65.474,-76
65.499,-118
65.524,-158
65.549,-171
65.574,-140
65.599,-78
65.624,-11
65.649,35
65.674,62
65.699,84
65.724,114
65.749,153
65.774,189
65.799,213
65.824,225
65.849,229
65.874,235
65.899,247
65.924,266
65.949,283
65.974,288
65.999,269
66.024,226
66.049,173
66.074,128
66.099,99
66.124,82
66.149,66
66.174,48
66.199,31
66.224,17
66.249,0
66.274,-27
66.299,-65
66.324,-99
66.349,-113
66.374,-99
66.399,-66
66.424,-27
66.449,10
66.474,49
66.499,95
66.524,150
66.549,209
66.574,263
66.599,302
66.624,321
66.649,320
66.674,305
66.699,288
66.724,282
66.749,288
66.774,300
66.799,308
66.824,308
66.849,303
66.874,297
66.899,290
66.924,278
66.949,253
66.974,212
66.999,157
67.024,98
67.049,42
67.074,2
67.099,-15
67.124,-11
67.149,11
67.174,44
67.199,84
67.224,127
67.249,171
67.274,209
67.299,235
67.324,245
67.349,241
67.374,228
67.399,208
67.424,182
67.449,155
67.474,132
67.499,121
67.524,125
67.549,138
67.574,150
67.599,154
67.624,147
67.649,136
67.674,128
67.699,124
67.724,120
67.749,107
67.774,85
67.799,61
67.824,44
67.849,37
67.874,29
67.899,9
67.924,-21
67.949,-43
67.974,-29
67.999,24
68.024,97
68.049,157
68.074,188
68.099,196
68.124,204
68.149,223
68.174,245
68.199,258
68.224,255
68.249,244
68.274,233
68.299,224
68.324,215
68.349,209
68.374,215
68.399,236
68.424,261
68.449,271
68.474,247
68.499,191
68.524,120
68.549,56
68.574,12
68.599,-16
68.624,-40
68.649,-68
68.674,-98
68.699,-119
68.724,-117
68.749,-92
68.774,-57
68.799,-30
68.824,-20
68.849,-15
68.874,3
68.899,44
68.924,96
68.949,141
68.974,170
68.999,192
69.024,225
69.049,279
69.074,350
69.099,427
69.124,496
69.149,548
69.174,575
69.199,576
69.224,560
69.249,542
69.274,533
69.299,535
69.324,538
69.349,534
69.374,521
69.399,499
69.424,467
69.449,422
69.474,364
69.499,298
69.524,231
69.549,167
69.574,105
69.599,52
69.624,16
69.649,-1
69.674,-9
69.699,-17
69.724,-31
69.749,-38
69.774,-28
69.799,0
69.824,30
69.849,49
69.874,50
69.899,40
69.924,22
69.949,0
69.974,-26
69.999,-52
70.024,-67
70.049,-67
70.074,-53
70.099,-28
70.124,2
70.149,32
70.174,47
70.199,35
70.224,-1
70.249,-46
70.274,-82
70.299,-112
70.324,-158
70.349,-239
70.374,-349
70.399,-459
70.424,-535
70.449,-559
70.474,-532
70.499,-464
70.524,-370
70.549,-267
70.574,-177
70.599,-112
70.624,-67
70.649,-19
70.674,54
70.699,158
70.724,282
70.749,411
70.774,535
70.799,642
70.824,716
70.849,741
70.874,716
70.899,663
70.924,610
70.949,571
70.974,539
70.999,496
71.024,438
71.049,380
71.074,346
71.099,348
71.124,380
71.149,425
71.174,465
71.199,491
71.224,501
71.249,496
71.274,482
71.299,462
71.324,442
71.349,424
71.374,408
71.399,392
71.424,378
71.449,364
71.474,346
71.499,320
71.524,285
71.549,244
71.574,202
71.599,165
71.624,135
71.649,108
71.674,76
71.699,29
71.724,-34
71.749,-111
71.774,-186
71.799,-242
71.824,-267
71.849,-263
71.874,-240
71.899,-210
71.924,-179
71.949,-148
71.974,-112
71.999,-71
72.024,-32
72.049,-1
72.074,19
72.099,33
72.124,46
72.149,59
72.174,66
72.199,60
72.224,40
72.249,13
72.274,-8
72.299,-17
72.324,-13
72.349,-2
72.374,7
72.399,15
72.424,21
72.449,26
72.474,32
72.499,38
72.524,49
72.549,68
72.574,96
72.599,128
72.624,157
72.649,179
72.674,197
72.699,217
72.724,244
72.749,276
72.774,307
72.799,332
72.824,349
72.849,358
72.874,361
72.899,363
72.924,365
72.949,371
72.974,378
72.999,383
73.024,381
73.049,375
73.074,369
73.099,368
73.124,369
73.149,364
73.174,345
73.199,313
73.224,280
73.249,255
73.274,236
73.299,214
73.324,181
73.349,142
73.374,115
73.399,116
73.424,140
73.449,171
73.474,189
73.499,190
73.524,189
73.549,201
73.574,226
73.599,251
73.624,257
73.649,238
73.674,202
73.699,161
73.724,123
73.749,90
73.774,58
73.799,25
73.824,-10
73.849,-52
73.874,-99
73.899,-144
73.924,-185
73.949,-225
73.974,-269
73.999,-314
74.024,-350
74.049,-360
74.074,-343
74.099,-310
74.124,-280
74.149,-258
74.174,-229
74.199,-175
74.224,-94
74.249,-4
74.274,70
74.299,121
74.324,155
74.349,186
74.374,220
74.399,254
74.424,280
74.449,304
74.474,331
74.499,369
74.524,415
74.549,458
74.574,485
74.599,489
74.624,470
74.649,435
74.674,396
74.699,363
74.724,339
74.749,320
74.774,298
74.799,267
74.824,226
74.849,183
74.874,149
74.899,132
74.924,137
74.949,161
74.974,194
74.999,225
75.024,247
75.049,258
75.074,263
75.099,263
75.124,258
75.149,249
75.174,238
75.199,229
75.224,223
75.249,218
75.274,208
75.299,191
75.324,166
75.349,134
75.374,103
75.399,78
75.424,64
75.449,59
75.474,58
75.499,54
75.524,45
75.549,34
75.574,24
75.599,16
75.624,4
75.649,-16
75.674,-44
75.699,-66
75.724,-70
75.749,-51
75.774,-14
75.799,28
75.824,66
75.849,94
75.874,116
75.899,141
75.924,171
75.949,204
75.974,234
75.999,254
76.024,263
76.049,262
76.074,255
76.099,246
76.124,238
76.149,233
76.174,232
76.199,239
76.224,251
76.249,266
76.274,275
76.299,270
76.324,249
76.349,210
76.374,159
76.399,105
76.424,54
76.449,6
76.474,-40
76.499,-89
76.524,-136
76.549,-170
76.574,-174
76.599,-142
76.624,-80
76.649,-10
76.674,47
76.699,81
76.724,97
76.749,111
76.774,133
76.799,162
76.824,191
76.849,208
76.874,212
76.899,207
76.924,202
76.949,203
76.974,211
76.999,224
77.024,233
77.049,231
77.074,215
77.099,190
77.124,167
77.149,153
77.174,148
77.199,145
77.224,140
77.249,133
77.274,130
77.299,131
77.324,137
77.349,144
77.374,152
77.399,163
77.424,176
77.449,186
77.474,191
77.499,194
77.524,200
77.549,212
77.574,225
77.599,232
77.624,228
77.649,217
77.674,204
77.699,195
77.724,191
77.749,188
77.774,183
77.799,178
77.824,172
77.849,169
77.874,169
77.899,172
77.924,179
77.949,187
77.974,193
77.999,194
78.024,188
78.049,173
78.074,150
78.099,131
78.124,127
78.149,150
78.174,195
78.199,250
78.224,299
78.249,338
78.274,371
78.299,401
78.324,421
78.349,421
78.374,396
78.399,355
78.424,310
78.449,269
78.474,227
78.499,177
78.524,115
78.549,48
78.574,-17
78.599,-80
78.624,-147
78.649,-226
78.674,-321
78.699,-430
78.724,-538
78.749,-629
78.774,-691
78.799,-719
78.824,-720
78.849,-700
78.874,-663
78.899,-603
78.924,-513
78.949,-390
78.974,-236
78.999,-63
79.024,110
79.049,261
79.074,368
79.099,428
79.124,466
79.149,519
79.174,608
79.199,723
79.224,832
79.249,910
79.274,950
79.299,964
79.324,965
79.349,959
79.374,947
79.399,929
79.424,897
79.449,835
79.474,729
79.499,591
79.524,456
79.549,361
79.574,306
79.599,257
79.624,174
79.649,54
79.674,-72
79.699,-172
79.724,-238
79.749,-284
79.774,-324
79.799,-356
79.824,-372
79.849,-376
79.874,-382
79.899,-390
79.924,-378
79.949,-321
79.974,-218
79.999,-100
80.024,-8
80.049,38
80.074,56
80.099,73
80.124,103
80.149,138
80.174,161
80.199,162
80.224,150
80.249,140
80.274,142
80.299,158
80.324,180
80.349,198
80.374,208
80.399,211
80.424,210
80.449,204
80.474,191
80.499,169
80.524,143
80.549,122
80.574,116
80.599,127
80.624,150
80.649,177
80.674,203
80.699,222
80.724,228
80.749,223
80.774,213
80.799,206
80.824,209
80.849,219
80.874,230
80.899,234
80.924,222
80.949,194
80.974,155
80.999,116
81.024,91
81.049,86
81.074,97
81.099,111
81.124,124
81.149,140
81.174,163
81.199,186
81.224,196
81.249,188
81.274,176
81.299,177
81.324,196
81.349,222
81.374,237
81.399,239
81.424,238
81.449,244
81.474,248
81.499,238
81.524,206
81.549,164
81.574,128
81.599,107
81.624,99
81.649,102
81.674,120
81.699,157
81.724,205
81.749,247
81.774,270
81.799,271
81.824,259
81.849,243
81.874,224
81.899,202
81.924,176
81.949,155
81.974,146
81.999,155
82.024,182
82.049,218
82.074,253
82.099,281
82.124,304
82.149,330
82.174,366
82.199,413
82.224,464
82.249,516
82.274,570
82.299,622
82.324,646
82.349,601
82.374,455
82.399,216
82.424,-64
82.449,-317
82.474,-498
82.499,-602
82.524,-650
82.549,-664
82.574,-655
82.599,-631
82.624,-601
82.649,-577
82.674,-560
82.699,-542
82.724,-509
82.749,-452
82.774,-374
82.799,-280
82.824,-180
82.849,-83
82.874,0
82.899,59
82.924,97
82.949,128
82.974,161
82.999,199
83.024,234
83.049,259
83.074,284
83.099,322
83.124,374
83.149,423
83.174,450
83.199,449
83.224,439
83.249,443
83.274,468
83.299,495
83.324,504
83.349,492
83.374,478
83.399,475
83.424,480
83.449,474
83.474,448
83.499,423
83.524,430
83.549,482
83.574,561
83.599,635
83.624,683
83.649,708
83.674,720
83.699,712
83.724,659
83.749,542
83.774,372
83.799,186
83.824,28
83.849,-74
83.874,-121
83.899,-119
83.924,-78
83.949,-6
83.974,77
83.999,156
84.024,215
84.049,257
84.074,291
84.099,328
84.124,365
84.149,394
84.174,409
84.199,412
84.224,411
84.249,410
84.274,405
84.299,382
84.324,327
84.349,231
84.374,94
84.399,-73
84.424,-253
84.449,-423
84.474,-559
84.499,-646
84.524,-682
84.549,-673
84.574,-636
84.599,-592
84.624,-559
84.649,-542
84.674,-530
84.699,-511
84.724,-478
84.749,-436
84.774,-394
84.799,-354
84.824,-310
84.849,-256
84.874,-199
84.899,-152
84.924,-120
84.949,-92
84.974,-54
84.999,-3
85.024,39
85.049,48
85.074,17
85.099,-34
85.124,-79
85.149,-101
85.174,-106
85.199,-111
85.224,-124
85.249,-139
85.274,-140
85.299,-115
85.324,-62
85.349,9
85.374,89
85.399,171
85.424,261
85.449,364
85.474,479
85.499,596
85.524,701
85.549,793
85.574,885
85.599,990
85.624,1115
85.649,1253
85.674,1399
85.699,1548
85.724,1693
85.749,1819
85.774,1918
85.799,1994
85.824,2064
85.849,2131
85.874,2159
85.899,2093
85.924,1907
85.949,1638
85.974,1375
85.999,1194
86.024,1106
86.049,1046
86.074,924
86.099,683
86.124,324
86.149,-103
86.174,-532
86.199,-913
86.224,-1223
86.249,-1469
86.274,-1665
86.299,-1816
86.324,-1910
86.349,-1933
86.374,-1887
86.399,-1793
86.424,-1673
86.449,-1536
86.474,-1378
86.499,-1203
86.524,-1029
86.549,-877
86.574,-752
86.599,-639
86.624,-522
86.649,-403
86.674,-300
86.699,-226
86.724,-176
86.749,-128
86.774,-64
86.799,19
86.824,111
86.849,194
86.874,255
86.899,288
86.924,299
86.949,304
86.974,320
86.999,353
87.024,399
87.049,447
87.074,495
87.099,543
87.124,587
87.149,615
87.174,619
87.199,597
87.224,564
87.249,535
87.274,515
87.299,497
87.324,469
87.349,435
87.374,408
87.399,407
87.424,436
87.449,476
87.474,498
87.499,485
87.524,449
87.549,426
87.574,440
87.599,478
87.624,499
87.649,469
87.674,394
87.699,312
87.724,253
87.749,212
87.774,161
87.799,89
87.824,21
87.849,-9
87.874,4
87.899,36
87.924,53
87.949,48
87.974,36
87.999,27
88.024,7
88.049,-42
88.074,-120
88.099,-196
88.124,-238
88.149,-240
88.174,-223
88.199,-209
88.224,-202
88.249,-192
88.274,-170
88.299,-132
88.324,-64
88.349,61
88.374,261
88.399,513
88.424,752
88.449,905
88.474,938
88.499,875
88.524,776
88.549,691
88.574,637
88.599,603
88.624,575
88.649,542
88.674,502
88.699,454
88.724,405
88.749,367
88.774,351
88.799,347
88.824,333
88.849,288
88.874,216
88.899,139
88.924,77
88.949,29
88.974,-19
88.999,-72
89.024,-116
89.049,-129
89.074,-118
89.099,-120
89.124,-179
89.149,-314
89.174,-498
89.199,-679
89.224,-806
89.249,-862
89.274,-854
89.299,-806
89.324,-735
89.349,-643
89.374,-525
89.399,-380
89.424,-217
89.449,-49
89.474,109
89.499,253
89.524,374
89.549,466
89.574,532
89.599,588
89.624,654
89.649,735
89.674,816
89.699,872
89.724,891
89.749,882
89.774,858
89.799,818
89.824,757
89.849,678
89.874,611
89.899,588
89.924,617
89.949,664
89.974,664
89.999,558
90.024,328
90.049,21
90.074,-263
90.099,-435
90.124,-476
90.149,-462
90.174,-495
90.199,-603
90.224,-719
90.249,-751
90.274,-699
90.299,-654
90.324,-695
90.349,-779
90.374,-773
90.399,-601
90.424,-326
90.449,-83
90.474,85
90.499,275
90.524,600
90.549,1057
90.574,1533
90.599,1955
90.624,2357
90.649,2775
90.674,3075
90.699,2975
90.724,2287
90.749,1153
90.774,1
90.799,-765
90.824,-1053
90.849,-1067
90.874,-1067
90.899,-1148
90.924,-1223
90.949,-1175
90.974,-975
90.999,-673
91.024,-335
91.049,-11
91.074,263
91.099,473
91.124,646
91.149,832
91.174,1042
91.199,1212
91.224,1255
91.249,1151
91.274,972
91.299,800
91.324,646
91.349,463
91.374,235
91.399,22
91.424,-121
91.449,-235
91.474,-432
91.499,-772
91.524,-1168
91.549,-1455
91.574,-1547
91.599,-1512
91.624,-1482
91.649,-1512
91.674,-1536
91.699,-1470
91.724,-1322
91.749,-1183
91.774,-1116
91.799,-1084
91.824,-980
91.849,-736
91.874,-372
91.899,37
91.924,427
91.949,771
91.974,1059
91.999,1278
92.024,1413
92.049,1472
92.074,1477
92.099,1451
92.124,1405
92.149,1351
92.174,1309
92.199,1296
92.224,1298
92.249,1268
92.274,1158
92.299,958
92.324,704
92.349,456
92.374,252
92.399,104
92.424,0
92.449,-71
92.474,-114
92.499,-133
92.524,-139
92.549,-149
92.574,-167
92.599,-185
92.624,-189
92.649,-172
92.674,-147
92.699,-132
92.724,-140
92.749,-168
92.774,-200
92.799,-218
92.824,-209
92.849,-172
92.874,-113
92.899,-42
92.924,28
92.949,91
92.974,144
92.999,189
93.024,226
93.049,247
93.074,248
93.099,238
93.124,245
93.149,302
93.174,427
93.199,608
93.224,800
93.249,954
93.274,1041
93.299,1064
93.324,1056
93.349,1049
93.374,1055
93.399,1056
93.424,1027
93.449,951
93.474,835
93.499,696
93.524,543
93.549,370
93.574,173
93.599,-41
93.624,-252
93.649,-435
93.674,-568
93.699,-642
93.724,-659
93.749,-643
93.774,-639
93.799,-681
93.824,-764
93.849,-835
93.874,-836
93.899,-750
93.924,-620
93.949,-506
93.974,-426
93.999,-352
94.024,-249
94.049,-120
94.074,0
94.099,84
94.124,153
94.149,244
94.174,375
94.199,521
94.224,645
94.249,732
94.274,791
94.299,832
94.324,845
94.349,822
94.374,775
94.399,737
94.424,730
94.449,743
94.474,744
94.499,707
94.524,641
94.549,577
94.574,544
94.599,549
94.624,572
94.649,575
94.674,519
94.699,384
94.724,190
94.749,-10
94.774,-167
94.799,-259
94.824,-305
94.849,-338
94.874,-377
94.899,-423
94.924,-473
94.949,-537
94.974,-626
94.999,-741
95.024,-859
95.049,-946
95.074,-979
95.099,-956
95.124,-904
95.149,-875
95.174,-916
95.199,-1030
95.224,-1162
95.249,-1232
95.274,-1196
95.299,-1082
95.324,-964
95.349,-880
95.374,-794
95.399,-634
95.424,-360
95.449,-12
95.474,332
95.499,622
95.524,857
95.549,1060
95.574,1231
95.599,1354
95.624,1425
95.649,1472
95.674,1524
95.699,1585
95.724,1622
95.749,1605
95.774,1527
95.799,1407
95.824,1268
95.849,1127
95.874,998
95.899,902
95.924,849
95.949,824
95.974,797
95.999,745
96.024,668
96.049,587
96.074,521
96.099,477
96.124,457
96.149,456
96.174,459
96.199,444
96.224,397
96.249,325
96.274,257
96.299,209
96.324,168
96.349,100
96.374,-5
96.399,-119
96.424,-191
96.449,-200
96.474,-169
96.499,-144
96.524,-152
96.549,-190
96.574,-243
96.599,-302
96.624,-363
96.649,-414
96.674,-436
96.699,-425
96.724,-402
96.749,-399
96.774,-423
96.799,-446
96.824,-432
96.849,-370
96.874,-286
96.899,-216
96.924,-178
96.949,-157
96.974,-133
96.999,-99
97.024,-67
97.049,-48
97.074,-43
97.099,-40
97.124,-29
97.149,-8
97.174,18
97.199,46
97.224,74
97.249,100
97.274,120
97.299,130
97.324,132
97.349,132
97.374,137
97.399,142
97.424,137
97.449,117
97.474,92
97.499,88
97.524,126
97.549,209
97.574,318
97.599,434
97.624,547
97.649,647
97.674,714
97.699,711
97.724,614
97.749,439
97.774,247
97.799,108
97.824,51
97.849,56
97.874,78
97.899,92
97.924,111
97.949,157
97.974,238
97.999,332
98.024,411
98.049,451
98.074,448
98.099,404
98.124,325
98.149,226
98.174,136
98.199,81
98.224,74
98.249,107
98.274,153
98.299,189
98.324,205
98.349,205
98.374,200
98.399,195
98.424,191
98.449,180
98.474,161
98.499,136
98.524,109
98.549,86
98.574,69
98.599,55
98.624,43
98.649,32
98.674,22
98.699,8
98.724,-10
98.749,-33
98.774,-60
98.799,-90
98.824,-127
98.849,-164
98.874,-190
98.899,-190
98.924,-163
98.949,-126
98.974,-99
98.999,-86
99.024,-78
99.049,-63
99.074,-41
99.099,-28
99.124,-27
99.149,-23
99.174,6
99.199,66
99.224,134
99.249,182
99.274,200
99.299,204
99.324,214
99.349,236
99.374,258
99.399,267
99.424,265
99.449,262
99.474,263
99.499,262
99.524,253
99.549,240
99.574,235
99.599,245
99.624,262
99.649,276
99.674,283
99.699,286
99.724,288
99.749,283
99.774,266
99.799,240
99.824,223
99.849,229
99.874,261
99.899,302
99.924,334
99.949,346
99.974,342
99.999,330
100.024,312
100.049,283
100.074,240
100.099,191
100.124,147
100.149,117
100.174,100
100.199,88
100.224,71
100.249,45
100.274,16
100.299,-5
100.324,-13
100.349,-6
100.374,5
100.399,14
100.424,15
100.449,9
100.474,7
100.499,13
100.524,26
100.549,41
100.574,55
100.599,69
100.624,92
100.649,124
100.674,159
100.699,189
100.724,209
100.749,222
100.774,233
100.799,243
100.824,251
100.849,258
100.874,270
100.899,291
100.924,319
100.949,347
100.974,373
100.999,399
101.024,427
101.049,451
101.074,454
101.099,420
101.124,347
101.149,251
101.174,157
101.199,78
101.224,14
101.249,-47
101.274,-118
101.299,-198
101.324,-271
101.349,-315
101.374,-318
101.399,-293
101.424,-263
101.449,-251
101.474,-259
101.499,-269
101.524,-265
101.549,-239
101.574,-193
101.599,-132
101.624,-57
101.649,16
101.674,74
101.699,110
101.724,147
101.749,222
101.774,354
101.799,513
101.824,641
101.849,706
101.874,731
101.899,763
101.924,819
101.949,862
101.974,841
101.999,751
102.024,643
102.049,568
102.074,522
102.099,449
102.124,309
102.149,132
102.174,-1
102.199,-41
102.224,-24
102.249,-41
102.274,-155
102.299,-345
102.324,-532
102.349,-658
102.374,-722
102.399,-760
102.424,-779
102.449,-743
102.474,-612
102.499,-401
102.524,-186
102.549,-46
102.574,-5
102.599,-12
102.624,2
102.649,73
102.674,176
102.699,262
102.724,302
102.749,306
102.774,305
102.799,318
102.824,344
102.849,370
102.874,386
102.899,393
102.924,400
102.949,420
102.974,460
102.999,518
103.024,585
103.049,651
103.074,711
103.099,767
103.124,818
103.149,855
103.174,867
103.199,854
103.224,829
103.249,809
103.274,795
103.299,775
103.324,742
103.349,700
103.374,661
103.399,624
103.424,563
103.449,460
103.474,324
103.499,201
103.524,136
103.549,138
103.574,166
103.599,165
103.624,105
103.649,2
103.674,-99
103.699,-171
103.724,-218
103.749,-269
103.774,-352
103.799,-466
103.824,-586
103.849,-681
103.874,-740
103.899,-775
103.924,-803
103.949,-822
103.974,-817
103.999,-785
104.024,-745
104.049,-734
104.074,-767
104.099,-824
104.124,-869
104.149,-879
104.174,-856
104.199,-809
104.224,-729
104.249,-596
104.274,-411
104.299,-211
104.324,-48
104.349,54
104.374,122
104.399,205
104.424,330
104.449,481
104.474,625
104.499,742
104.524,838
104.549,928
104.574,1018
104.599,1099
104.624,1154
104.649,1174
104.674,1162
104.699,1124
104.724,1069
104.749,1007
104.774,946
104.799,886
104.824,824
104.849,754
104.874,677
104.899,598
104.924,523
104.949,453
104.974,390
104.999,334
105.024,287
105.049,248
105.074,217
105.099,192
105.124,174
105.149,161
105.174,148
105.199,131
105.224,110
105.249,93
105.274,83
105.299,81
105.324,79
105.349,71
105.374,58
105.399,45
105.424,36
105.449,32
105.474,27
105.499,13
105.524,-8
105.549,-34
105.574,-52
105.599,-54
105.624,-38
105.649,-12
105.674,12
105.699,32
105.724,46
105.749,59
105.774,72
105.799,84
105.824,94
105.849,99
105.874,104
105.899,107
105.924,110
105.949,110
105.974,109
105.999,106
106.024,103
106.049,99
106.074,96
106.099,99
106.124,105
106.149,108
106.174,102
106.199,85
106.224,68
106.249,64
106.274,76
106.299,95
106.324,105
106.349,99
106.374,80
106.399,56
106.424,32
106.449,4
106.474,-33
106.499,-82
106.524,-134
106.549,-178
106.574,-211
106.599,-238
106.624,-271
106.649,-318
106.674,-374
106.699,-428
106.724,-466
106.749,-478
106.774,-470
106.799,-455
106.824,-443
106.849,-426
106.874,-376
106.899,-252
106.924,-38
106.949,238
106.974,511
106.999,709
107.024,800
107.049,809
107.074,789
107.099,782
107.124,790
107.149,795
107.174,784
107.199,765
107.224,750
107.249,736
107.274,704
107.299,639
107.324,551
107.349,466
107.374,405
107.399,371
107.424,352
107.449,337
107.474,319
107.499,296
107.524,270
107.549,250
107.574,248
107.599,266
107.624,283
107.649,270
107.674,215
107.699,143
107.724,93
107.749,79
107.774,74
107.799,40
107.824,-27
107.849,-93
107.874,-116
107.899,-92
107.924,-54
107.949,-36
107.974,-39
107.999,-35
108.024,-8
108.049,27
108.074,49
108.099,51
108.124,50
108.149,55
108.174,54
108.199,20
108.224,-49
108.249,-124
108.274,-162
108.299,-146
108.324,-95
108.349,-43
108.374,-12
108.399,4
108.424,21
108.449,52
108.474,96
108.499,146
108.524,193
108.549,223
108.574,229
108.599,213
108.624,195
108.649,193
108.674,213
108.699,241
108.724,258
108.749,258
108.774,252
108.799,254
108.824,267
108.849,282
108.874,290
108.899,289
108.924,282
108.949,271
108.974,255
108.999,234
109.024,217
109.049,211
109.074,215
109.099,217
109.124,209
109.149,190
109.174,168
109.199,147
109.224,120
109.249,81
109.274,33
109.299,-14
109.324,-53
109.349,-88
109.374,-127
109.399,-170
109.424,-210
109.449,-243
109.474,-275
109.499,-317
109.524,-367
109.549,-407
109.574,-424
109.599,-423
109.624,-422
109.649,-426
109.674,-416
109.699,-369
109.724,-279
109.749,-166
109.774,-48
109.799,75
109.824,214
109.849,357
109.874,472
109.899,537
109.924,577
109.949,645
109.974,771
109.999,924
110.024,1036
110.049,1059
110.074,1007
110.099,926
110.124,846
110.149,763
110.174,662
110.199,550
110.224,456
110.249,396
110.274,356
110.299,313
110.324,266
110.349,234
110.374,236
110.399,269
110.424,305
110.449,317
110.474,294
110.499,238
110.524,160
110.549,77
110.574,14
110.599,-14
110.624,-16
110.649,-20
110.674,-51
110.699,-106
110.724,-161
110.749,-193
110.774,-202
110.799,-200
110.824,-194
110.849,-180
110.874,-154
110.899,-125
110.924,-109
110.949,-115
110.974,-132
110.999,-148
111.024,-156
111.049,-158
111.074,-154
111.099,-142
111.124,-116
111.149,-84
111.174,-57
111.199,-41
111.224,-25
111.249,5
111.274,55
111.299,117
111.324,178
111.349,227
111.374,266
111.399,297
111.424,320
111.449,338
111.474,351
111.499,361
111.524,368
111.549,372
111.574,367
111.599,352
111.624,323
111.649,284
111.674,243
111.699,213
111.724,197
111.749,187
111.774,171
111.799,142
111.824,110
111.849,90
111.874,89
111.899,99
111.924,107
111.949,112
111.974,120
111.999,139
112.024,159
112.049,168
112.074,160
112.099,144
112.124,137
112.149,146
112.174,164
112.199,178
112.224,181
112.249,175
112.274,167
112.299,161
112.324,156
112.349,149
112.374,140
112.399,126
112.424,108
112.449,88
112.474,70
112.499,61
112.524,65
112.549,82
112.574,107
112.599,135
112.624,161
112.649,184
112.674,205
112.699,226
112.724,245
112.749,259
112.774,266
112.799,267
112.824,264
112.849,260
112.874,256
112.899,250
112.924,243
112.949,234
112.974,224
112.999,211
113.024,198
113.049,184
113.074,170
113.099,154
113.124,136
113.149,122
113.174,116
113.199,125
113.224,146
113.249,165
113.274,172
113.299,163
113.324,147
113.349,132
113.374,123
113.399,113
113.424,96
113.449,71
113.474,42
113.499,14
113.524,-12
113.549,-39
113.574,-66
113.599,-87
113.624,-97
113.649,-95
113.674,-88
113.699,-87
113.724,-103
113.749,-133
113.774,-161
113.799,-169
113.824,-146
113.849,-102
113.874,-53
113.899,-13
113.924,16
113.949,41
113.974,59
113.999,68
114.024,68
114.049,69
114.074,79
114.099,93
114.124,94
114.149,72
114.174,39
114.199,23
114.224,39
114.249,75
114.274,102
114.299,102
114.324,86
114.349,72
114.374,67
114.399,57
114.424,29
114.449,-9
114.474,-39
114.499,-46
114.524,-33
114.549,-11
114.574,13
114.599,45
114.624,83
114.649,120
114.674,146
114.699,164
114.724,184
114.749,211
114.774,242
114.799,274
114.824,306
114.849,343
114.874,378
114.899,402
114.924,415
114.949,433
114.974,477
114.999,547
115.024,620
115.049,677
115.074,723
115.099,779
115.124,855
115.149,934
115.174,1001
115.199,1061
115.224,1141
115.249,1255
115.274,1386
115.299,1506
115.324,1609
115.349,1708
115.374,1795
115.399,1803
115.424,1644
115.449,1285
115.474,795
115.499,300
115.524,-107
115.549,-427
115.574,-706
115.599,-963
115.624,-1164
115.649,-1262
115.674,-1260
115.699,-1218
115.724,-1194
115.749,-1197
115.774,-1196
115.799,-1164
115.824,-1115
115.849,-1080
115.874,-1075
115.899,-1078
115.924,-1054
115.949,-984
115.974,-868
115.999,-713
116.024,-525
116.049,-319
116.074,-121
116.099,39
116.124,150
116.149,225
116.174,292
116.199,364
116.224,440
116.249,506
116.274,552
116.299,573
116.324,560
116.349,511
116.374,432
116.399,347
116.424,287
116.449,265
116.474,269
116.499,268
116.524,233
116.549,156
116.574,53
116.599,-54
116.624,-151
116.649,-240
116.674,-333
116.699,-424
116.724,-477
116.749,-437
116.774,-266
116.799,21
116.824,353
116.849,641
116.874,831
116.899,928
116.924,975
116.949,1008
116.974,1031
116.999,1024
117.024,972
117.049,881
117.074,775
117.099,666
117.124,557
117.149,443
117.174,328
117.199,224
117.224,134
117.249,52
117.274,-30
117.299,-105
117.324,-146
117.349,-133
117.374,-75
117.399,-14
117.424,8
117.449,-8
117.474,-29
117.499,-18
117.524,29
117.549,82
117.574,103
117.599,91
117.624,76
117.649,86
117.674,120
117.699,148
117.724,151
117.749,131
117.774,111
117.799,106
117.824,112
117.849,111
117.874,97
117.899,76
117.924,59
117.949,53
117.974,54
117.999,54
118.024,47
118.049,35
118.074,29
118.099,44
118.124,90
118.149,160
118.174,232
118.199,279
118.224,292
118.249,285
118.274,276
118.299,275
118.324,272
118.349,260
118.374,241
118.399,225
118.424,221
118.449,223
118.474,222
118.499,211
118.524,194
118.549,178
118.574,165
118.599,153
118.624,140
118.649,126
118.674,108
118.699,85
118.724,61
118.749,50
118.774,62
118.799,97
118.824,141
118.849,177
118.874,201
118.899,217
118.924,231
118.949,243
118.974,241
118.999,225
119.024,198
119.049,175
119.074,165
119.099,172
119.124,192
119.149,220
119.174,243
119.199,249
119.224,234
119.249,204
119.274,173
119.299,148
119.324,126
119.349,99
119.374,66
119.399,40
119.424,30
119.449,37
119.474,50
119.499,59
119.524,61
119.549,63
119.574,69
119.599,77
119.624,81
119.649,80
119.674,78
119.699,76
119.724,72
119.749,66
119.774,57
119.799,50
119.824,44
119.849,37
119.874,26
119.899,16
119.924,12
119.949,15
119.974,16
119.999,10
120.024,-2
120.049,-5
120.074,13
120.099,54
120.124,104
120.149,148
120.174,183
120.199,214
120.224,246
120.249,278
120.274,301
120.299,307
120.324,300
120.349,286
120.374,272
120.399,262
120.424,254
120.449,246
120.474,236
120.499,221
120.524,203
120.549,183
120.574,163
120.599,141
120.624,115
120.649,87
120.674,65
120.699,57
120.724,65
120.749,84
120.774,105
120.799,123
120.824,138
120.849,154
120.874,167
120.899,174
120.924,172
120.949,163
120.974,152
120.999,143
121.024,136
121.049,131
121.074,130
121.099,133
121.124,143
121.149,157
121.174,171
121.199,178
121.224,173
121.249,158
121.274,137
121.299,122
121.324,121
121.349,132
121.374,144
121.399,149
121.424,147
121.449,147
121.474,158
121.499,177
121.524,191
121.549,189
121.574,172
121.599,151
121.624,139
121.649,136
121.674,131
121.699,117
121.724,94
121.749,73
121.774,61
121.799,57
121.824,50
121.849,30
121.874,-1
121.899,-35
121.924,-58
121.949,-60
121.974,-41
121.999,-7
122.024,35
122.049,81
122.074,127
122.099,173
122.124,215
122.149,248
122.174,268
122.199,274
122.224,269
122.249,260
122.274,253
122.299,248
122.324,241
122.349,229
122.374,210
122.399,189
122.424,176
122.449,173
122.474,179
122.499,183
122.524,178
122.549,162
122.574,144
122.599,136
122.624,146
122.649,167
122.674,190
122.699,203
122.724,208
122.749,210
122.774,218
122.799,232
122.824,243
122.849,241
122.874,224
122.899,196
122.924,166
122.949,141
122.974,125
122.999,116
123.024,112
123.049,106
123.074,96
123.099,81
123.124,62
123.149,42
123.174,25
123.199,8
123.224,-9
123.249,-34
123.274,-64
123.299,-94
123.324,-111
123.349,-103
123.374,-62
123.399,3
123.424,77
123.449,143
123.474,196
123.499,240
123.524,277
123.549,306
123.574,321
123.599,322
123.624,316
123.649,316
123.674,324
123.699,331
123.724,324
123.749,297
123.774,255
123.799,209
123.824,168
123.849,138
123.874,118
123.899,107
123.924,102
123.949,96
123.974,86
123.999,68
124.024,44
124.049,19
124.074,-4
124.099,-25
124.124,-37
124.149,-37
124.174,-24
124.199,-5
124.224,11
124.249,21
124.274,30
124.299,46
124.324,73
124.349,106
124.374,135
124.399,155
124.424,168
124.449,180
124.474,195
124.499,211
124.524,221
124.549,222
124.574,219
124.599,219
124.624,227
124.649,238
124.674,242
124.699,234
124.724,217
124.749,204
124.774,200
124.799,202
124.824,199
124.849,185
124.874,160
124.899,136
124.924,122
124.949,125
124.974,143
124.999,165
125.024,185
125.049,196
125.074,201
125.099,209
125.124,222
125.149,236
125.174,241
125.199,233
125.224,219
125.249,210
125.274,212
125.299,219
125.324,222
125.349,219
125.374,213
125.399,206
125.424,195
125.449,179
125.474,160
125.499,144
125.524,129
125.549,109
125.574,74
125.599,31
125.624,-7
125.649,-34
125.674,-51
125.699,-63
125.724,-69
125.749,-66
125.774,-61
125.799,-70
125.824,-104
125.849,-154
125.874,-198
125.899,-220
125.924,-214
125.949,-182
125.974,-115
125.999,-5
126.024,124
126.049,227
126.074,264
126.099,242
126.124,208
126.149,201
126.174,214
126.199,214
126.224,192
126.249,181
126.274,211
126.299,262
126.324,285
126.349,258
126.374,230
126.399,270
126.424,383
126.449,489
126.474,497
126.499,394
126.524,262
126.549,196
126.574,211
126.599,252
126.624,262
126.649,243
126.674,240
126.699,275
126.724,326
126.749,351
126.774,340
126.799,312
126.824,290
126.849,271
126.874,239
126.899,193
126.924,150
126.949,123
126.974,101
126.999,63
127.024,-2
127.049,-84
127.074,-161
127.099,-221
127.124,-253
127.149,-253
127.174,-217
127.199,-156
127.224,-92
127.249,-41
127.274,-7
127.299,21
127.324,57
127.349,99
127.374,143
127.399,190
127.424,243
127.449,295
127.474,332
127.499,343
127.524,336
127.549,327
127.574,326
127.599,325
127.624,309
127.649,273
127.674,224
127.699,171
127.724,111
127.749,40
127.774,-32
127.799,-87
127.824,-102
127.849,-78
127.874,-34
127.899,9
127.924,49
127.949,90
127.974,141
127.999,199
128.024,252
128.049,292
128.074,315
128.099,323
128.124,319
128.149,308
128.174,295
128.199,284
128.224,274
128.249,263
128.274,249
128.299,235
128.324,221
128.349,204
128.374,179
128.399,148
128.424,113
128.449,79
128.474,44
128.499,3
128.524,-43
128.549,-88
128.574,-116
128.599,-118
128.624,-98
128.649,-66
128.674,-35
128.699,-6
128.724,21
128.749,49
128.774,71
128.799,81
128.824,78
128.849,66
128.874,56
128.899,52
128.924,47
128.949,35
128.974,15
128.999,-4
129.024,-14
129.049,-10
129.074,3
129.099,17
129.124,26
129.149,29
129.174,30
129.199,27
129.224,20
129.249,12
129.274,10
129.299,25
129.324,59
129.349,112
129.374,179
129.399,250
129.424,315
129.449,365
129.474,397
129.499,416
129.524,430
129.549,446
129.574,462
129.599,477
129.624,491
129.649,507
129.674,528
129.699,548
129.724,561
129.749,568
129.774,577
129.799,593
129.824,617
129.849,637
129.874,641
129.899,624
129.924,588
129.949,535
129.974,470
129.999,396
130.024,321
130.049,255
130.074,197
130.099,132
130.124,40
130.149,-90
130.174,-242
130.199,-375
130.224,-449
130.249,-453
130.274,-414
130.299,-373
130.324,-352
130.349,-340
130.374,-320
130.399,-288
130.424,-262
130.449,-263
130.474,-286
130.499,-311
130.524,-329
130.549,-352
130.574,-396
130.599,-448
130.624,-470
130.649,-437
130.674,-368
130.699,-304
130.724,-245
130.749,-121
130.774,157
130.799,602
130.824,1093
130.849,1435
130.874,1488
130.899,1269
130.924,929
130.949,642
130.974,493
130.999,448
131.024,418
131.049,343
131.074,228
131.099,110
131.124,14
131.149,-68
131.174,-155
131.199,-237
131.224,-280
131.249,-257
131.274,-180
131.299,-101
131.324,-75
131.349,-116
131.374,-187
131.399,-232
131.424,-214
131.449,-139
131.474,-38
131.499,50
131.524,104
131.549,121
131.574,112
131.599,99
131.624,104
131.649,136
131.674,190
131.699,254
131.724,315
131.749,365
131.774,402
131.799,421
131.824,426
131.849,428
131.874,443
131.899,474
131.924,504
131.949,507
131.974,477
131.999,437
132.024,419
132.049,435
132.074,463
132.099,465
132.124,423
132.149,346
132.174,262
132.199,193
132.224,142
132.249,104
132.274,76
132.299,61
132.324,60
132.349,69
132.374,77
132.399,77
132.424,69
132.449,58
132.474,47
132.499,38
132.524,34
132.549,35
132.574,45
132.599,61
132.624,76
132.649,87
132.674,96
132.699,108
132.724,128
132.749,152
132.774,166
132.799,160
132.824,132
132.849,91
132.874,49
132.899,8
132.924,-33
132.949,-77
132.974,-118
132.999,-149
133.024,-173
133.049,-199
133.074,-231
133.099,-269
133.124,-305
133.149,-337
133.174,-369
133.199,-403
133.224,-430
133.249,-434
133.274,-413
133.299,-385
133.324,-371
133.349,-374
133.374,-376
133.399,-359
133.424,-324
133.449,-292
133.474,-280
133.499,-280
133.524,-270
133.549,-239
133.574,-198
133.599,-165
133.624,-143
133.649,-119
133.674,-83
133.699,-39
133.724,0
133.749,35
133.774,77
133.799,139
133.824,221
133.849,313
133.874,415
133.899,540
133.924,700
133.949,879
133.974,1048
133.999,1189
134.024,1321
134.049,1492
134.074,1732
134.099,2023
134.124,2302
134.149,2492
134.174,2551
134.199,2489
134.224,2365
134.249,2256
134.274,2217
134.299,2259
134.324,2344
134.349,2416
134.374,2441
134.399,2426
134.424,2407
134.449,2396
134.474,2345
134.499,2154
134.524,1723
134.549,1029
134.574,159
134.599,-718
134.624,-1444
134.649,-1940
134.674,-2231
134.699,-2401
134.724,-2528
134.749,-2646
134.774,-2747
134.799,-2809
134.824,-2808
134.849,-2727
134.874,-2569
134.899,-2365
134.924,-2177
134.949,-2060
134.974,-2039
134.999,-2092
135.024,-2183
135.049,-2280
135.074,-2361
135.099,-2399
135.124,-2380
135.149,-2325
135.174,-2281
135.199,-2264
135.224,-2198
135.249,-1949
135.274,-1440
135.299,-749
135.324,-77
135.349,410
135.374,709
135.399,957
135.424,1287
135.449,1698
135.474,2084
135.499,2345
135.524,2477
135.549,2532
135.574,2539
135.599,2472
135.624,2309
135.649,2087
135.674,1883
135.699,1742
135.724,1640
135.749,1524
135.774,1375
135.799,1233
135.824,1146
135.849,1120
135.874,1112
135.899,1073
135.924,983
135.949,854
135.974,712
135.999,576
136.024,455
136.049,349
136.074,256
136.099,165
136.124,72
136.149,-20
136.174,-105
136.199,-175
136.224,-231
136.249,-281
136.274,-333
136.299,-391
136.324,-450
136.349,-493
136.374,-503
136.399,-470
136.424,-406
136.449,-333
136.474,-259
136.499,-169
136.524,-37
136.549,133
136.574,307
136.599,437
136.624,505
136.649,523
136.674,515
136.699,490
136.724,450
136.749,412
136.774,410
136.799,468
136.824,562
136.849,630
136.874,616
136.899,518
136.924,389
136.949,294
136.974,267
136.999,294
137.024,338
137.049,366
137.074,366
137.099,348
137.124,332
137.149,337
137.174,375
137.199,440
137.224,512
137.249,554
137.274,527
137.299,405
137.324,200
137.349,-35
137.374,-236
137.399,-354
137.424,-391
137.449,-379
137.474,-352
137.499,-322
137.524,-288
137.549,-259
137.574,-250
137.599,-271
137.624,-305
137.649,-322
137.674,-313
137.699,-298
137.724,-304
137.749,-342
137.774,-392
137.799,-431
137.824,-451
137.849,-457
137.874,-454
137.899,-448
137.924,-451
137.949,-481
137.974,-532
137.999,-553
138.024,-473
138.049,-256
138.074,53
138.099,352
138.124,550
138.149,624
138.174,610
138.199,557
138.224,487
138.249,403
138.274,318
138.299,255
138.324,234
138.349,246
138.374,264
138.399,269
138.424,262
138.449,256
138.474,256
138.499,250
138.524,228
138.549,187
138.574,139
138.599,93
138.624,55
138.649,23
138.674,-1
138.699,-22
138.724,-41
138.749,-57
138.774,-62
138.799,-39
138.824,25
138.849,130
138.874,257
138.899,383
138.924,491
138.949,575
138.974,636
138.999,682
139.024,713
139.049,732
139.074,737
139.099,726
139.124,703
139.149,673
139.174,642
139.199,608
139.224,564
139.249,507
139.274,444
139.299,389
139.324,350
139.349,322
139.374,294
139.399,256
139.424,214
139.449,174
139.474,140
139.499,102
139.524,55
139.549,2
139.574,-49
139.599,-89
139.624,-122
139.649,-150
139.674,-172
139.699,-179
139.724,-168
139.749,-147
139.774,-135
139.799,-148
139.824,-181
139.849,-217
139.874,-244
139.899,-265
139.924,-294
139.949,-337
139.974,-383
139.999,-407
140.024,-387
140.049,-321
140.074,-229
140.099,-132
140.124,-47
140.149,19
140.174,69
140.199,105
140.224,130
140.249,146
140.274,157
140.299,165
140.324,173
140.349,182
140.374,189
140.399,198
140.424,216
140.449,253
140.474,317
140.499,406
140.524,505
140.549,594
140.574,667
140.599,729
140.624,792
140.649,858
140.674,920
140.699,973
140.724,1010
140.749,1029
140.774,1016
140.799,956
140.824,845
140.849,705
140.874,572
140.899,466
140.924,381
140.949,296
140.974,203
140.999,110
141.024,30
141.049,-42
141.074,-127
141.099,-233
141.124,-349
141.149,-455
141.174,-545
141.199,-630
141.224,-720
141.249,-802
141.274,-852
141.299,-856
141.324,-822
141.349,-771
141.374,-710
141.399,-631
141.424,-525
141.449,-396
141.474,-267
141.499,-163
141.524,-94
141.549,-52
141.574,-10
141.599,54
141.624,143
141.649,232
141.674,287
141.699,294
141.724,269
141.749,245
141.774,239
141.799,248
141.824,259
141.849,274
141.874,296
141.899,313
141.924,299
141.949,244
141.974,176
141.999,130
142.024,104
142.049,48
142.074,-61
142.099,-157
142.124,-97
142.149,209
142.174,699
142.199,1184
142.224,1490
142.249,1584
142.274,1548
142.299,1465
142.324,1340
142.349,1136
142.374,868
142.399,625
142.424,489
142.449,462
142.474,465
142.499,438
142.524,391
142.549,382
142.574,436
142.599,514
142.624,559
142.649,552
142.674,520
142.699,482
142.724,409
142.749,256
142.774,12
142.799,-268
142.824,-498
142.849,-618
142.874,-634
142.899,-603
142.924,-581
142.949,-586
142.974,-596
142.999,-582
143.024,-548
143.049,-526
143.074,-541
143.099,-579
143.124,-585
143.149,-524
143.174,-423
143.199,-355
143.224,-373
143.249,-451
143.274,-509
143.299,-483
143.324,-384
143.349,-277
143.374,-215
143.399,-200
143.424,-202
143.449,-212
143.474,-250
143.499,-326
143.524,-404
143.549,-419
143.574,-336
143.599,-184
143.624,-32
143.649,73
143.674,144
143.699,228
143.724,357
143.749,520
143.774,677
143.799,794
143.824,867
143.849,914
143.874,951
143.899,981
143.924,993
143.949,979
143.974,938
143.999,877
144.024,802
144.049,721
144.074,637
144.099,557
144.124,483
144.149,411
144.174,339
144.199,269
144.224,214
144.249,185
144.274,184
144.299,196
144.324,199
144.349,185
144.374,163
144.399,148
144.424,144
144.449,142
144.474,129
144.499,104
144.524,76
144.549,55
144.574,43
144.599,32
144.624,19
144.649,7
144.674,0
144.699,-5
144.724,-15
144.749,-33
144.774,-52
144.799,-62
144.824,-63
144.849,-59
144.874,-54
144.899,-44
144.924,-20
144.949,22
144.974,77
144.999,135
145.024,190
145.049,239
145.074,280
145.099,310
145.124,326
145.149,333
145.174,340
145.199,352
145.224,368
145.249,383
145.274,396
145.299,402
145.324,397
145.349,371
145.374,327
145.399,276
145.424,236
145.449,209
145.474,183
145.499,146
145.524,101
145.549,54
145.574,1
145.599,-74
145.624,-176
145.649,-263
145.674,-278
145.699,-201
145.724,-90
145.749,-42
145.774,-105
145.799,-227
145.824,-307
145.849,-288
145.874,-206
145.899,-135
145.924,-100
145.949,-54
145.974,50
145.999,192
146.024,287
146.049,286
146.074,235
146.099,231
146.124,325
146.149,460
146.174,540
146.199,531
146.224,498
146.249,525
146.274,616
146.299,689
146.324,656
146.349,510
146.374,329
146.399,199
146.424,142
146.449,123
146.474,98
146.499,58
146.524,14
146.549,-36
146.574,-118
146.599,-245
146.624,-400
146.649,-538
146.674,-616
146.699,-619
146.724,-552
146.749,-423
146.774,-233
146.799,8
146.824,273
146.849,517
146.874,697
146.899,790
146.924,795
146.949,726
146.974,606
146.999,472
147.024,360
147.049,292
147.074,261
147.099,243
147.124,211
147.149,159
147.174,93
147.199,24
147.224,-45
147.249,-109
147.274,-152
147.299,-155
147.324,-116
147.349,-58
147.374,-15
147.399,1
147.424,5
147.449,10
147.474,1
147.499,-51
147.524,-154
147.549,-269
147.574,-339
147.599,-348
147.624,-344
147.649,-389
147.674,-498
147.699,-610
147.724,-649
147.749,-591
147.774,-476
147.799,-350
147.824,-212
147.849,-24
147.874,229
147.899,503
147.924,719
147.949,835
147.974,879
147.999,913
148.024,974
148.049,1053
148.074,1118
148.099,1160
148.124,1189
148.149,1213
148.174,1219
148.199,1187
148.224,1109
148.249,994
148.274,859
148.299,716
148.324,576
148.349,452
148.374,355
148.399,277
148.424,193
148.449,85
148.474,-40
148.499,-152
148.524,-220
148.549,-242
148.574,-243
148.599,-248
148.624,-268
148.649,-298
148.674,-329
148.699,-351
148.724,-357
148.749,-336
148.774,-284
148.799,-212
148.824,-141
148.849,-90
148.874,-63
148.899,-46
148.924,-28
148.949,-4
148.974,22
148.999,42
149.024,54
149.049,58
149.074,56
149.099,53
149.124,52
149.149,52
149.174,52
149.199,45
149.224,31
149.249,15
149.274,3
149.299,-2
149.324,-12
149.349,-36
149.374,-76
149.399,-118
149.424,-146
149.449,-150
149.474,-139
149.499,-126
149.524,-121
149.549,-121
149.574,-113
149.599,-90
149.624,-54
149.649,-12
149.674,26
149.699,56
149.724,78
149.749,95
149.774,116
149.799,146
149.824,188
149.849,231
149.874,266
149.899,286
149.924,292
149.949,292
149.974,289
149.999,282
150.024,270
150.049,259
150.074,253
150.099,249
150.124,243
150.149,239
150.174,258
150.199,320
150.224,426
150.249,550
150.274,658
150.299,734
150.324,788
150.349,831
150.374,857
150.399,843
150.424,780
150.449,689
150.474,606
150.499,552
150.524,516
150.549,475
150.574,421
150.599,367
150.624,328
150.649,302
150.674,271
150.699,227
150.724,171
150.749,111
150.774,42
150.799,-41
150.824,-141
150.849,-239
150.874,-314
150.899,-348
150.924,-333
150.949,-270
150.974,-173
150.999,-71
151.024,-5
151.049,4
151.074,-23
151.099,-46
151.124,-37
151.149,-10
151.174,-4
151.199,-37
151.224,-86
151.249,-104
151.274,-73
151.299,-13
151.324,39
151.349,68
151.374,88
151.399,119
151.424,164
151.449,208
151.474,233
151.499,231
151.524,204
151.549,165
151.574,134
151.599,129
151.624,146
151.649,163
151.674,153
151.699,119
151.724,90
151.749,89
151.774,93
151.799,46
151.824,-81
151.849,-250
151.874,-369
151.899,-370
151.924,-269
151.949,-138
151.974,-41
151.999,16
152.024,68
152.049,134
152.074,197
152.099,232
152.124,233
152.149,215
152.174,190
152.199,151
152.224,90
152.249,24
152.274,-13
152.299,-6
152.324,25
152.349,47
152.374,41
152.399,26
152.424,26
152.449,44
152.474,61
152.499,65
152.524,69
152.549,100
152.574,170
152.599,256
152.624,325
152.649,364
152.674,384
152.699,406
152.724,435
152.749,461
152.774,468
152.799,454
152.824,430
152.849,402
152.874,373
152.899,338
152.924,294
152.949,241
152.974,187
152.999,144
153.024,124
153.049,131
153.074,154
153.099,169
153.124,163
153.149,145
153.174,145
153.199,192
153.224,289
153.249,412
153.274,530
153.299,620
153.324,670
153.349,664
153.374,587
153.399,444
153.424,274
153.449,132
153.474,50
153.499,18
153.524,-6
153.549,-49
153.574,-100
153.599,-130
153.624,-126
153.649,-108
153.674,-104
153.699,-116
153.724,-126
153.749,-114
153.774,-90
153.799,-79
153.824,-90
153.849,-106
153.874,-97
153.899,-57
153.924,-5
153.949,30
153.974,45
153.999,52
154.024,71
154.049,105
154.074,140
154.099,165
154.124,177
154.149,183
154.174,186
154.199,186
154.224,181
154.249,173
154.274,167
154.299,166
154.324,169
154.349,174
154.374,177
154.399,178
154.424,176
154.449,168
154.474,157
154.499,142
154.524,128
154.549,121
154.574,130
154.599,160
154.624,210
154.649,267
154.674,316
154.699,347
154.724,362
154.749,370
154.774,378
154.799,383
154.824,376
154.849,350
154.874,309
154.899,267
154.924,233
154.949,210
154.974,193
154.999,174
155.024,151
155.049,125
155.074,99
155.099,76
155.124,55
155.149,39
155.174,30
155.199,24
155.224,15
155.249,-7
155.274,-43
155.299,-82
155.324,-108
155.349,-109
155.374,-86
155.399,-48
155.424,-7
155.449,30
155.474,66
155.499,99
155.524,129
155.549,154
155.574,169
155.599,170
155.624,157
155.649,134
155.674,110
155.699,93
155.724,83
155.749,75
155.774,63
155.799,43
155.824,18
155.849,-9
155.874,-40
155.899,-74
155.924,-112
155.949,-159
155.974,-221
155.999,-292
156.024,-351
156.049,-363
156.074,-305
156.099,-191
156.124,-68
156.149,7
156.174,15
156.199,-22
156.224,-63
156.249,-80
156.274,-73
156.299,-64
156.324,-63
156.349,-66
156.374,-60
156.399,-41
156.424,-19
156.449,-7
156.474,-10
156.499,-16
156.524,-5
156.549,28
156.574,74
156.599,99
156.624,83
156.649,33
156.674,-13
156.699,-20
156.724,22
156.749,96
156.774,174
156.799,251
156.824,339
156.849,437
156.874,526
156.899,585
156.924,622
156.949,680
156.974,795
156.999,955
157.024,1113
157.049,1225
157.074,1300
157.099,1385
157.124,1513
157.149,1671
157.174,1824
157.199,1952
157.224,2069
157.249,2195
157.274,2317
157.299,2398
157.324,2421
157.349,2406
157.374,2383
157.399,2340
157.424,2201
157.449,1876
157.474,1325
157.499,586
157.524,-241
157.549,-1047
157.574,-1739
157.599,-2256
157.624,-2575
157.649,-2713
157.674,-2727
157.699,-2687
157.724,-2642
157.749,-2615
157.774,-2601
157.799,-2586
157.824,-2551
157.849,-2472
157.874,-2330
157.899,-2127
157.924,-1892
157.949,-1658
157.974,-1451
157.999,-1285
158.024,-1184
158.049,-1170
158.074,-1226
158.099,-1245
158.124,-1052
158.149,-509
158.174,366
158.199,1359
158.224,2167
158.249,2573
158.274,2566
158.299,2307
158.324,1995
158.349,1738
158.374,1542
158.399,1384
158.424,1277
158.449,1249
158.474,1286
158.499,1318
158.524,1279
158.549,1182
158.574,1115
158.599,1152
158.624,1272
158.649,1382
158.674,1418
158.699,1413
158.724,1455
158.749,1576
158.774,1687
158.799,1642
158.824,1353
158.849,846
158.874,230
158.899,-382
158.924,-922
158.949,-1349
158.974,-1658
158.999,-1883
159.024,-2093
159.049,-2348
159.074,-2642
159.099,-2902
159.124,-3048
159.149,-3046
159.174,-2895
159.199,-2577
159.224,-2048
159.249,-1314
159.274,-488
159.299,242
159.324,745
159.349,1034
159.374,1238
159.399,1463
159.424,1703
159.449,1876
159.474,1928
159.499,1889
159.524,1830
159.549,1787
159.574,1739
159.599,1656
159.624,1542
159.649,1429
159.674,1330
159.699,1225
159.724,1084
159.749,906
159.774,718
159.799,548
159.824,402
159.849,270
159.874,148
159.899,41
159.924,-38
159.949,-84
159.974,-98
159.999,-90
160.024,-69
160.049,-53
160.074,-54
160.099,-73
160.124,-100
160.149,-126
160.174,-144
160.199,-159
160.224,-170
160.249,-176
160.274,-178
160.299,-183
160.324,-195
160.349,-213
160.374,-229
160.399,-243
160.424,-260
160.449,-290
160.474,-329
160.499,-362
160.524,-371
160.549,-351
160.574,-310
160.599,-261
160.624,-215
160.649,-178
160.674,-149
160.699,-118
160.724,-77
160.749,-20
160.774,48
160.799,118
160.824,187
160.849,261
160.874,347
160.899,433
160.924,497
160.949,525
160.974,524
160.999,522
161.024,536
161.049,558
161.074,568
161.099,555
161.124,525
161.149,487
161.174,442
161.199,387
161.224,331
161.249,293
161.274,279
161.299,264
161.324,203
161.349,79
161.374,-67
161.399,-158
161.424,-139
161.449,-21
161.474,124
161.499,230
161.524,282
161.549,320
161.574,391
161.599,502
161.624,611
161.649,676
161.674,688
161.699,674
161.724,665
161.749,668
161.774,682
161.799,727
161.824,839
161.849,1017
161.874,1182
161.899,1203
161.924,992
161.949,595
161.974,167
161.999,-138
162.024,-289
162.049,-376
162.074,-503
162.099,-695
162.124,-876
162.149,-955
162.174,-900
162.199,-748
162.224,-566
162.249,-412
162.274,-337
162.299,-370
162.324,-503
162.349,-659
162.374,-723
162.399,-611
162.424,-343
162.449,-55
162.474,76
162.499,-30
162.524,-277
162.549,-407
162.574,-179
162.599,402
162.624,1009
162.649,1179
162.674,697
162.699,-174
162.724,-859
162.749,-938
162.774,-513
162.799,-93
162.824,-114
162.849,-566
162.874,-1092
162.899,-1387
162.924,-1444
162.949,-1364
162.974,-1040
162.999,-162
163.024,1385
163.049,3188
163.074,4494
163.099,4818
163.124,4347
163.149,3692
163.174,3250
163.199,2828
163.224,1924
163.249,327
163.274,-1580
163.299,-3106
163.324,-3776
163.349,-3594
163.374,-2899
163.399,-2067
163.424,-1352
163.449,-903
163.474,-780
163.499,-906
163.524,-1074
163.549,-1090
163.574,-918
163.599,-679
163.624,-481
163.649,-291
163.674,4
163.699,431
163.724,858
163.749,1110
163.774,1135
163.799,1028
163.824,916
163.849,847
163.874,795
163.899,737
163.924,680
163.949,627
163.974,552
163.999,437
164.024,321
164.049,270
164.074,304
164.099,379
164.124,449
164.149,542
164.174,732
164.199,1035
164.224,1353
164.249,1541
164.274,1534
164.299,1399
164.324,1257
164.349,1170
164.374,1116
164.399,1044
164.424,936
164.449,810
164.474,675
164.499,520
164.524,333
164.549,126
164.574,-74
164.599,-251
164.624,-396
164.649,-499
164.674,-545
164.699,-540
164.724,-519
164.749,-526
164.774,-572
164.799,-619
164.824,-621
164.849,-567
164.874,-493
164.899,-441
164.924,-424
164.949,-423
164.974,-420
164.999,-414
165.024,-412
165.049,-411
165.074,-396
165.099,-356
165.124,-300
165.149,-251
165.174,-234
165.199,-255
165.224,-299
165.249,-337
165.274,-337
165.299,-278
165.324,-167
165.349,-32
165.374,89
165.399,179
165.424,233
165.449,260
165.474,263
165.499,239
165.524,181
165.549,94
165.574,-6
165.599,-101
165.624,-180
165.649,-237
165.674,-276
165.699,-301
165.724,-314
165.749,-312
165.774,-276
165.799,-177
165.824,18
165.849,321
165.874,701
165.899,1095
165.924,1437
165.949,1690
165.974,1850
165.999,1945
166.024,2008
166.049,2072
166.074,2167
166.099,2306
166.124,2468
166.149,2596
166.174,2623
166.199,2512
166.224,2270
166.249,1941
166.274,1568
166.299,1188
166.324,832
166.349,537
166.374,331
166.399,210
166.424,129
166.449,12
166.474,-228
166.499,-663
166.524,-1301
166.549,-2055
166.574,-2753
166.599,-3218
166.624,-3382
166.649,-3320
166.674,-3172
166.699,-3004
166.724,-2751
166.749,-2314
166.774,-1702
166.799,-1075
166.824,-626
166.849,-434
166.874,-420
166.899,-452
166.924,-473
166.949,-513
166.974,-598
166.999,-681
167.024,-666
167.049,-507
167.074,-250
167.099,20
167.124,268
167.149,530
167.174,856
167.199,1239
167.224,1602
167.249,1855
167.274,1958
167.299,1936
167.324,1849
167.349,1744
167.374,1631
167.399,1496
167.424,1329
167.449,1135
167.474,927
167.499,708
167.524,464
167.549,191
167.574,-83
167.599,-308
167.624,-436
167.649,-457
167.674,-392
167.699,-264
167.724,-83
167.749,129
167.774,328
167.799,453
167.824,478
167.849,439
167.874,396
167.899,379
167.924,370
167.949,340
167.974,295
167.999,270
168.024,286
168.049,312
168.074,295
168.099,210
168.124,84
168.149,-34
168.174,-118
168.199,-173
168.224,-219
168.249,-265
168.274,-311
168.299,-363
168.324,-417
168.349,-456
168.374,-448
168.399,-375
168.424,-252
168.449,-117
168.474,3
168.499,113
168.524,234
168.549,385
168.574,558
168.599,728
168.624,865
168.649,950
168.674,984
168.699,996
168.724,1022
168.749,1073
168.774,1121
168.799,1116
168.824,1025
168.849,860
168.874,672
168.899,505
168.924,369
168.949,253
168.974,150
168.999,61
169.024,-14
169.049,-96
169.074,-195
169.099,-304
169.124,-394
169.149,-442
169.174,-458
169.199,-470
169.224,-495
169.249,-525
169.274,-547
169.299,-557
169.324,-557
169.349,-539
169.374,-473
169.399,-337
169.424,-148
169.449,44
169.474,199
169.499,308
169.524,391
169.549,457
169.574,488
169.599,458
169.624,376
169.649,284
169.674,231
169.699,224
169.724,232
169.749,222
169.774,190
169.799,166
169.824,174
169.849,213
169.874,260
169.899,297
169.924,323
169.949,350
169.974,380
169.999,401
170.024,402
170.049,385
170.074,357
170.099,322
170.124,279
170.149,227
170.174,173
170.199,127
170.224,90
170.249,57
170.274,20
170.299,-11
170.324,-21
170.349,2
170.374,54
170.399,117
170.424,167
170.449,190
170.474,181
170.499,144
170.524,94
170.549,51
170.574,25
170.599,9
170.624,-14
170.649,-57
170.674,-114
170.699,-170
170.724,-218
170.749,-267
170.774,-327
170.799,-397
170.824,-463
170.849,-515
170.874,-552
170.899,-575
170.924,-572
170.949,-526
170.974,-436
170.999,-324
171.024,-220
171.049,-135
171.074,-55
171.099,34
171.124,129
171.149,214
171.174,284
171.199,356
171.224,453
171.249,570
171.274,681
171.299,758
171.324,800
171.349,827
171.374,855
171.399,882
171.424,895
171.449,889
171.474,867
171.499,837
171.524,799
171.549,756
171.574,716
171.599,687
171.624,667
171.649,642
171.674,598
171.699,539
171.724,472
171.749,401
171.774,318
171.799,218
171.824,108
171.849,7
171.874,-75
171.899,-149
171.924,-228
171.949,-307
171.974,-358
171.999,-358
172.024,-313
172.049,-256
172.074,-216
172.099,-193
172.124,-170
172.149,-133
172.174,-92
172.199,-66
172.224,-66
172.249,-79
172.274,-90
172.299,-88
172.324,-81
172.349,-76
172.374,-73
172.399,-66
172.424,-53
172.449,-39
172.474,-28
172.499,-17
172.524,0
172.549,25
172.574,48
172.599,55
172.624,44
172.649,31
172.674,33
172.699,59
172.724,101
172.749,145
172.774,182
172.799,216
172.824,256
172.849,303
172.874,349
172.899,381
172.924,399
172.949,408
172.974,415
172.999,420
173.024,417
173.049,402
173.074,376
173.099,347
173.124,322
173.149,302
173.174,288
173.199,275
173.224,263
173.249,245
173.274,220
173.299,191
173.324,168
173.349,163
173.374,180
173.399,212
173.424,246
173.449,274
173.474,297
173.499,319
173.524,336
173.549,338
173.574,318
173.599,274
173.624,215
173.649,153
173.674,94
173.699,37
173.724,-20
173.749,-78
173.774,-132
173.799,-181
173.824,-226
173.849,-273
173.874,-324
173.899,-374
173.924,-411
173.949,-426
173.974,-419
173.999,-393
174.024,-354
174.049,-298
174.074,-224
174.099,-129
174.124,-26
174.149,70
174.174,150
174.199,211
174.224,264
174.249,315
174.274,364
174.299,403
174.324,424
174.349,428
174.374,421
174.399,412
174.424,404
174.449,394
174.474,381
174.499,363
174.524,339
174.549,312
174.574,283
174.599,253
174.624,224
174.649,197
174.674,170
174.699,142
174.724,112
174.749,90
174.774,83
174.799,97
174.824,128
174.849,165
174.874,197
174.899,218
174.924,231
174.949,239
174.974,243
174.999,240
175.024,225
175.049,197
175.074,166
175.099,140
175.124,128
175.149,128
175.174,130
175.199,125
175.224,106
175.249,78
175.274,48
175.299,27
175.324,18
175.349,17
175.374,20
175.399,18
175.424,13
175.449,9
175.474,16
175.499,42
175.524,85
175.549,136
175.574,183
175.599,219
175.624,247
175.649,270
175.674,287
175.699,289
175.724,273
175.749,247
175.774,230
175.799,242
175.824,284
175.849,337
175.874,380
175.899,402
175.924,411
175.949,419
175.974,425
175.999,415
176.024,375
176.049,308
176.074,234
176.099,173
176.124,131
176.149,99
176.174,64
176.199,28
176.224,5
176.249,9
176.274,36
176.299,69
176.324,84
176.349,77
176.374,55
176.399,36
176.424,27
176.449,25
176.474,19
176.499,-1
176.524,-41
176.549,-93
176.574,-148
176.599,-193
176.624,-222
176.649,-235
176.674,-234
176.699,-227
176.724,-220
176.749,-219
176.774,-232
176.799,-255
176.824,-277
176.849,-281
176.874,-261
176.899,-225
176.924,-195
176.949,-180
176.974,-177
176.999,-173
177.024,-160
177.049,-144
177.074,-133
177.099,-131
177.124,-140
177.149,-157
177.174,-182
177.199,-209
177.224,-231
177.249,-242
177.274,-251
177.299,-267
177.324,-290
177.349,-310
177.374,-316
177.399,-310
177.424,-303
177.449,-300
177.474,-288
177.499,-257
177.524,-213
177.549,-171
177.574,-133
177.599,-85
177.624,-5
177.649,105
177.674,231
177.699,357
177.724,489
177.749,635
177.774,794
177.799,956
177.824,1125
177.849,1318
177.874,1537
177.899,1753
177.924,1926
177.949,2053
177.974,2181
177.999,2355
178.024,2568
178.049,2764
178.074,2912
178.099,3047
178.124,3229
178.149,3461
178.174,3668
178.199,3753
178.224,3673
178.249,3449
178.274,3115
178.299,2684
178.324,2171
178.349,1610
178.374,1008
178.399,286
178.424,-675
178.449,-1879
178.474,-3097
178.499,-3956
178.524,-4200
178.549,-3885
178.574,-3333
178.599,-2866
178.624,-2601
178.649,-2464
178.674,-2358
178.699,-2272
178.724,-2246
178.749,-2266
178.774,-2255
178.799,-2163
178.824,-2027
178.849,-1927
178.874,-1902
178.899,-1923
178.924,-1955
178.949,-2014
178.974,-2126
178.999,-2270
179.024,-2365
179.049,-2355
179.074,-2261
179.099,-2155
179.124,-2057
179.149,-1891
179.174,-1556
179.199,-1024
179.224,-371
179.249,303
179.274,953
179.299,1585
179.324,2191
179.349,2702
179.374,3031
179.399,3157
179.424,3163
179.449,3180
179.474,3282
179.499,3428
179.524,3489
179.549,3339
179.574,2944
179.599,2386
179.624,1809
179.649,1339
179.674,1025
179.699,843
179.724,745
179.749,706
179.774,728
179.799,808
179.824,914
179.849,986
179.874,971
179.899,840
179.924,601
179.949,292
179.974,-27
179.999,-295
180.024,-468
180.049,-548
180.074,-562
180.099,-531
180.124,-448
180.149,-296
180.174,-93
180.199,97
180.224,201
180.249,194
180.274,112
180.299,5
180.324,-104
180.349,-222
180.374,-333
180.399,-379
180.424,-312
180.449,-155
180.474,-11
180.499,21
180.524,-62
180.549,-169
180.574,-196
180.599,-122
180.624,-15
180.649,42
180.674,36
180.699,13
180.724,29
180.749,90
180.774,161
180.799,203
180.824,201
180.849,162
180.874,103
180.899,51
180.924,35
180.949,71
180.974,145
180.999,208
181.024,209
181.049,127
181.074,-22
181.099,-207
181.124,-390
181.149,-539
181.174,-626
181.199,-643
181.224,-610
181.249,-571
181.274,-556
181.299,-556
181.324,-531
181.349,-449
181.374,-313
181.399,-153
181.424,3
181.449,145
181.474,270
181.499,374
181.524,454
181.549,514
181.574,566
181.599,611
181.624,634
181.649,627
181.674,598
181.699,577
181.724,580
181.749,601
181.774,613
181.799,599
181.824,571
181.849,547
181.874,532
181.899,516
181.924,487
181.949,448
181.974,408
181.999,371
182.024,332
182.049,289
182.074,247
182.099,213
182.124,189
182.149,163
182.174,128
182.199,88
182.224,50
182.249,18
182.274,-12
182.299,-46
182.324,-78
182.349,-96
182.374,-93
182.399,-79
182.424,-67
182.449,-62
182.474,-57
182.499,-43
182.524,-18
182.549,8
182.574,27
182.599,34
182.624,35
182.649,39
182.674,52
182.699,73
182.724,92
182.749,101
182.774,98
182.799,87
182.824,76
182.849,67
182.874,59
182.899,53
182.924,52
182.949,66
182.974,106
182.999,167
183.024,240
183.049,312
183.074,377
183.099,438
183.124,498
183.149,554
183.174,597
183.199,624
183.224,637
183.249,648
183.274,660
183.299,664
183.324,640
183.349,576
183.374,479
183.399,372
183.424,279
183.449,209
183.474,149
183.499,80
183.524,-2
183.549,-92
183.574,-170
183.599,-219
183.624,-235
183.649,-224
183.674,-194
183.699,-158
183.724,-125
183.749,-103
183.774,-93
183.799,-92
183.824,-93
183.849,-92
183.874,-91
183.899,-95
183.924,-104
183.949,-116
183.974,-127
183.999,-137
184.024,-144
184.049,-151
184.074,-155
184.099,-158
184.124,-161
184.149,-171
184.174,-190
184.199,-212
184.224,-224
184.249,-212
184.274,-174
184.299,-117
184.324,-50
184.349,15
184.374,81
184.399,147
184.424,210
184.449,262
184.474,301
184.499,331
184.524,364
184.549,410
184.574,469
184.599,529
184.624,578
184.649,609
184.674,621
184.699,624
184.724,624
184.749,621
184.774,615
184.799,601
184.824,580
184.849,550
184.874,516
184.899,482
184.924,454
184.949,433
184.974,416
184.999,396
185.024,368
185.049,334
185.074,298
185.099,265
185.124,236
185.149,206
185.174,172
185.199,133
185.224,93
185.249,57
185.274,29
185.299,8
185.324,-13
185.349,-43
185.374,-85
185.399,-137
185.424,-193
185.449,-244
185.474,-291
185.499,-338
185.524,-391
185.549,-448
185.574,-500
185.599,-534
185.624,-538
185.649,-506
185.674,-440
185.699,-348
185.724,-245
185.749,-149
185.774,-71
185.799,-17
185.824,13
185.849,26
185.874,25
185.899,23
185.924,38
185.949,88
185.974,178
185.999,293
186.024,409
186.049,508
186.074,588
186.099,659
186.124,730
186.149,792
186.174,829
186.199,831
186.224,797
186.249,738
186.274,666
186.299,589
186.324,513
186.349,445
186.374,389
186.399,346
186.424,314
186.449,284
186.474,254
186.499,224
186.524,198
186.549,174
186.574,151
186.599,124
186.624,94
186.649,68
186.674,51
186.699,45
186.724,41
186.749,33
186.774,25
186.799,22
186.824,28
186.849,36
186.874,35
186.899,23
186.924,8
186.949,-1
186.974,-8
186.999,-27
187.024,-67
187.049,-116
187.074,-144
187.099,-130
187.124,-76
187.149,-9
187.174,43
187.199,74
187.224,93
187.249,115
187.274,150
187.299,198
187.324,259
187.349,325
187.374,384
187.399,426
187.424,448
187.449,461
187.474,476
187.499,486
187.524,470
187.549,406
187.574,297
187.599,172
187.624,64
187.649,-11
187.674,-60
187.699,-101
187.724,-142
187.749,-182
187.774,-211
187.799,-218
187.824,-197
187.849,-154
187.874,-102
187.899,-55
187.924,-20
187.949,10
187.974,44
187.999,80
188.024,101
188.049,96
188.074,78
188.099,78
188.124,123
188.149,202
188.174,280
188.199,323
188.224,332
188.249,326
188.274,316
188.299,279
188.324,186
188.349,38
188.374,-102
188.399,-155
188.424,-82
188.449,63
188.474,173
188.499,164
188.524,47
188.549,-80
188.574,-123
188.599,-64
188.624,28
188.649,78
188.674,71
188.699,66
188.724,122
188.749,239
188.774,360
188.799,432
188.824,452
188.849,456
188.874,467
188.899,469
188.924,439
188.949,381
188.974,329
188.999,307
189.024,306
189.049,298
189.074,276
189.099,250
189.124,229
189.149,202
189.174,162
189.199,137
189.224,172
189.249,267
189.274,350
189.299,333
189.324,203
189.349,56
189.374,15
189.399,114
189.424,273
189.449,375
189.474,383
189.499,352
189.524,351
189.549,389
189.574,420
189.599,415
189.624,397
189.649,403
189.674,420
189.699,386
189.724,259
189.749,72
189.774,-86
189.799,-160
189.824,-169
189.849,-189
189.874,-271
189.899,-401
189.924,-519
189.949,-567
189.974,-518
189.999,-386
190.024,-205
190.049,-19
190.074,125
190.099,208
190.124,239
190.149,246
190.174,250
190.199,246
190.224,217
190.249,162
190.274,101
190.299,60
190.324,50
190.349,65
190.374,92
190.399,124
190.424,154
190.449,173
190.474,178
190.499,176
190.524,180
190.549,194
190.574,206
190.599,202
190.624,179
190.649,149
190.674,122
190.699,88
190.724,35
190.749,-33
190.774,-94
190.799,-118
190.824,-103
190.849,-69
190.874,-42
190.899,-26
190.924,-10
190.949,14
190.974,47
190.999,82
191.024,123
191.049,177
191.074,241
191.099,296
191.124,324
191.149,325
191.174,316
191.199,315
191.224,324
191.249,337
191.274,348
191.299,358
191.324,368
191.349,376
191.374,376
191.399,363
191.424,341
191.449,320
191.474,312
191.499,327
191.524,367
191.549,417
191.574,448
191.599,435
191.624,379
191.649,313
191.674,273
191.699,271
191.724,284
191.749,280
191.774,246
191.799,195
191.824,145
191.849,99
191.874,53
191.899,2
191.924,-46
191.949,-84
191.974,-114
191.999,-143
192.024,-173
192.049,-194
192.074,-197
192.099,-186
192.124,-173
192.149,-167
192.174,-167
192.199,-158
192.224,-131
192.249,-86
192.274,-29
192.299,31
192.324,85
192.349,126
192.374,152
192.399,171
192.424,196
192.449,228
192.474,258
192.499,274
192.524,274
192.549,270
192.574,278
192.599,302
192.624,331
192.649,352
192.674,360
192.699,357
192.724,343
192.749,316
192.774,273
192.799,224
192.824,178
192.849,142
192.874,111
192.899,83
192.924,66
192.949,70
192.974,98
192.999,137
193.024,166
193.049,176
193.074,176
193.099,180
193.124,191
193.149,203
193.174,201
193.199,186
193.224,166
193.249,153
193.274,150
193.299,153
193.324,157
193.349,160
193.374,163
193.399,162
193.424,155
193.449,145
193.474,136
193.499,131
193.524,123
193.549,101
193.574,64
193.599,23
193.624,-3
193.649,-3
193.674,15
193.699,38
193.724,53
193.749,61
193.774,70
193.799,85
193.824,102
193.849,112
193.874,110
193.899,100
193.924,91
193.949,82
193.974,70
193.999,52
194.024,27
194.049,-2
194.074,-34
194.099,-67
194.124,-100
194.149,-126
194.174,-140
194.199,-145
194.224,-147
194.249,-150
194.274,-146
194.299,-124
194.324,-78
194.349,-14
194.374,54
194.399,118
194.424,179
194.449,244
194.474,314
194.499,381
194.524,434
194.549,470
194.574,490
194.599,503
194.624,510
194.649,509
194.674,498
194.699,473
194.724,433
194.749,378
194.774,311
194.799,243
194.824,181
194.849,134
194.874,104
194.899,86
194.924,77
194.949,71
194.974,67
194.999,66
195.024,74
195.049,96
195.074,136
195.099,184
195.124,230
195.149,262
195.174,280
195.199,290
195.224,300
195.249,312
195.274,319
195.299,314
195.324,297
195.349,275
195.374,259
195.399,257
195.424,266
195.449,277
195.474,275
195.499,256
195.524,224
195.549,194
195.574,172
195.599,153
195.624,127
195.649,84
195.674,32
195.699,-14
195.724,-46
195.749,-66
195.774,-90
195.799,-125
195.824,-169
195.849,-211
195.874,-242
195.899,-254
195.924,-248
195.949,-222
195.974,-180
195.999,-130
196.024,-80
196.049,-31
196.074,23
196.099,90
196.124,163
196.149,228
196.174,276
196.199,313
196.224,352
196.249,400
196.274,445
196.299,465
196.324,447
196.349,402
196.374,348
196.399,298
196.424,250
196.449,197
196.474,139
196.499,88
196.524,53
196.549,35
196.574,21
196.599,0
196.624,-24
196.649,-40
196.674,-35
196.699,-9
196.724,26
196.749,58
196.774,80
196.799,96
196.824,110
196.849,124
196.874,134
196.899,136
196.924,131
196.949,127
196.974,132
196.999,144
197.024,159
197.049,169
197.074,173
197.099,173
197.124,175
197.149,177
197.174,177
197.199,176
197.224,174
197.249,175
197.274,174
197.299,165
197.324,144
197.349,117
197.374,95
197.399,88
197.424,98
197.449,122
197.474,149
197.499,175
197.524,196
197.549,213
197.574,227
197.599,238
197.624,247
197.649,253
197.674,251
197.699,239
197.724,220
197.749,201
197.774,191
197.799,191
197.824,195
197.849,194
197.874,186
197.899,174
197.924,161
197.949,147
197.974,133
197.999,116
198.024,100
198.049,86
198.074,70
198.099,49
198.124,23
198.149,1
198.174,-4
198.199,9
198.224,37
198.249,67
198.274,92
198.299,112
198.324,134
198.349,160
198.374,184
198.399,203
198.424,214
198.449,219
198.474,219
198.499,214
198.524,203
198.549,189
198.574,177
198.599,171
198.624,170
198.649,168
198.674,161
198.699,149
198.724,137
198.749,127
198.774,117
198.799,104
198.824,89
198.849,75
198.874,64
198.899,55
198.924,43
198.949,25
198.974,6
198.999,-6
199.024,-2
199.049,24
199.074,70
199.099,124
199.124,175
199.149,214
199.174,244
199.199,272
199.224,301
199.249,328
199.274,344
199.299,346
199.324,338
199.349,328
199.374,323
199.399,318
199.424,305
199.449,280
199.474,248
199.499,217
199.524,186
199.549,150
199.574,101
199.599,40
199.624,-23
199.649,-77
199.674,-113
199.699,-132
199.724,-140
199.749,-144
199.774,-154
199.799,-173
199.824,-196
199.849,-212
199.874,-211
199.899,-187
199.924,-147
199.949,-103
199.974,-67
199.999,-42
200.024,-21
200.049,1
200.074,29
200.099,57
200.124,75
200.149,80
200.174,76
200.199,71
200.224,74
200.249,81
200.274,86
200.299,86
200.324,81
200.349,77
200.374,76
200.399,80
200.424,83
200.449,87
200.474,91
200.499,93
200.524,91
200.549,87
200.574,85
200.599,94
200.624,114
200.649,146
200.674,190
200.699,250
200.724,326
200.749,412
200.774,497
200.799,574
200.824,645
200.849,712
200.874,767
200.899,801
200.924,817
200.949,833
200.974,865
200.999,914
201.024,965
201.049,1007
201.074,1045
201.099,1081
201.124,1092
201.149,1043
201.174,922
201.199,769
201.224,644
201.249,561
201.274,458
201.299,251
201.324,-92
201.349,-507
201.374,-879
201.399,-1117
201.424,-1195
201.449,-1145
201.474,-1019
201.499,-868
201.524,-734
201.549,-642
201.574,-582
201.599,-530
201.624,-469
201.649,-404
201.674,-346
201.699,-283
201.724,-190
201.749,-56
201.774,85
201.799,192
201.824,249
201.849,261
201.874,230
201.899,144
201.924,29
201.949,-16
201.974,123
201.999,458
202.024,840
202.049,1064
202.074,1056
202.099,936
202.124,890
202.149,981
202.174,1108
202.199,1146
202.224,1103
202.249,1091
202.274,1168
202.299,1238
202.324,1160
202.349,919
202.374,659
202.399,527
202.424,502
202.449,416
202.474,145
202.499,-257
202.524,-627
202.549,-859
202.574,-1002
202.599,-1164
202.624,-1385
202.649,-1603
202.674,-1752
202.699,-1826
202.724,-1855
202.749,-1836
202.774,-1732
202.799,-1550
202.824,-1373
202.849,-1292
202.874,-1294
202.899,-1261
202.924,-1084
202.949,-790
202.974,-519
202.999,-381
203.024,-339
203.049,-245
203.074,15
203.099,425
203.124,864
203.149,1218
203.174,1458
203.199,1616
203.224,1722
203.249,1776
203.274,1765
203.299,1695
203.324,1591
203.349,1475
203.374,1353
203.399,1225
203.424,1101
203.449,991
203.474,900
203.499,815
203.524,729
203.549,646
203.574,583
203.599,549
203.624,536
203.649,526
203.674,507
203.699,481
203.724,460
203.749,446
203.774,432
203.799,411
203.824,382
203.849,354
203.874,332
203.899,314
203.924,290
203.949,257
203.974,216
203.999,168
204.024,106
204.049,20
204.074,-85
204.099,-187
204.124,-256
204.149,-281
204.174,-286
204.199,-306
204.224,-353
204.249,-405
204.274,-426
204.299,-406
204.324,-371
204.349,-352
204.374,-352
204.399,-338
204.424,-281
204.449,-184
204.474,-87
204.499,-27
204.524,-6
204.549,6
204.574,38
204.599,92
204.624,152
204.649,202
204.674,242
204.699,281
204.724,318
204.749,349
204.774,364
204.799,361
204.824,333
204.849,276
204.874,191
204.899,95
204.924,14
204.949,-30
204.974,-42
204.999,-37
205.024,-31
205.049,-26
205.074,-16
205.099,1
205.124,21
205.149,38
205.174,53
205.199,73
205.224,98
205.249,119
205.274,127
205.299,125
205.324,126
205.349,138
205.374,155
205.399,166
205.424,162
205.449,149
205.474,141
205.499,142
205.524,146
205.549,144
205.574,133
205.599,117
205.624,101
205.649,85
205.674,69
205.699,59
205.724,63
205.749,91
205.774,138
205.799,191
205.824,230
205.849,249
205.874,256
205.899,264
205.924,282
205.949,303
205.974,316
205.999,313
206.024,296
206.049,276
206.074,258
206.099,242
206.124,225
206.149,206
206.174,184
206.199,162
206.224,136
206.249,106
206.274,75
206.299,48
206.324,25
206.349,2
206.374,-27
206.399,-62
206.424,-92
206.449,-100
206.474,-80
206.499,-35
206.524,22
206.549,78
206.574,124
206.599,159
206.624,188
206.649,215
206.674,241
206.699,262
206.724,271
206.749,268
206.774,260
206.799,256
206.824,257
206.849,260
206.874,259
206.899,256
206.924,254
206.949,253
206.974,249
206.999,243
207.024,238
207.049,237
207.074,234
207.099,212
207.124,166
207.149,108
207.174,66
207.199,58
207.224,74
207.249,85
207.274,76
207.299,56
207.324,52
207.349,76
207.374,115
207.399,143
207.424,148
207.449,137
207.474,128
207.499,130
207.524,136
207.549,138
207.574,135
207.599,130
207.624,128
207.649,127
207.674,125
207.699,123
207.724,121
207.749,116
207.774,106
207.799,93
207.824,78
207.849,65
207.874,49
207.899,28
207.924,8
207.949,5
207.974,32
207.999,86
208.024,145
208.049,185
208.074,196
208.099,189
208.124,185
208.149,197
208.174,221
208.199,242
208.224,248
208.249,239
208.274,227
208.299,222
208.324,224
208.349,226
208.374,222
208.399,211
208.424,200
208.449,192
208.474,182
208.499,166
208.524,145
208.549,125
208.574,109
208.599,91
208.624,62
208.649,23
208.674,-8
208.699,-17
208.724,5
208.749,45
208.774,84
208.799,112
208.824,134
208.849,157
208.874,180
208.899,195
208.924,196
208.949,184
208.974,165
208.999,146
209.024,128
209.049,108
209.074,87
209.099,69
209.124,55
209.149,45
209.174,43
209.199,50
209.224,66
209.249,86
209.274,102
209.299,108
209.324,106
209.349,99
209.374,88
209.399,70
209.424,46
209.449,25
209.474,23
209.499,50
209.524,100
209.549,159
209.574,208
209.599,240
209.624,260
209.649,274
209.674,285
209.699,288
209.724,281
209.749,268
209.774,256
209.799,251
209.824,252
209.849,252
209.874,245
209.899,231
209.924,216
209.949,203
209.974,191
209.999,174
210.024,152
210.049,128
210.074,106
210.099,85
210.124,60
210.149,34
210.174,14
210.199,15
210.224,39
210.249,77
210.274,115
210.299,142
210.324,160
210.349,177
210.374,193
210.399,203
210.424,203
210.449,193
210.474,183
210.499,178
210.524,179
210.549,183
210.574,183
210.599,180
210.624,173
210.649,166
210.674,157
210.699,148
210.724,139
210.749,129
210.774,115
210.799,96
210.824,69
210.849,40
210.874,19
210.899,15
210.924,32
210.949,67
210.974,107
210.999,143
211.024,171
211.049,197
211.074,228
211.099,263
211.124,291
211.149,301
211.174,289
211.199,268
211.224,250
211.249,245
211.274,246
211.299,243
211.324,229
211.349,208
211.374,186
211.399,166
211.424,151
211.449,140
211.474,130
211.499,119
211.524,100
211.549,68
211.574,30
211.599,2
211.624,2
211.649,33
211.674,84
211.699,133
211.724,166
211.749,181
211.774,186
211.799,188
211.824,190
211.849,187
211.874,178
211.899,164
211.924,149
211.949,133
211.974,115
211.999,95
212.024,73
212.049,52
212.074,33
212.099,17
212.124,0
212.149,-16
212.174,-32
212.199,-42
212.224,-48
212.249,-54
212.274,-66
212.299,-89
212.324,-118
212.349,-139
212.374,-139
212.399,-114
212.424,-73
212.449,-31
212.474,-1
212.499,15
212.524,26
212.549,35
212.574,42
212.599,39
212.624,22
212.649,-4
212.674,-35
212.699,-62
212.724,-84
212.749,-106
212.774,-128
212.799,-150
212.824,-171
212.849,-191
212.874,-207
212.899,-221
212.924,-229
212.949,-235
212.974,-242
212.999,-252
213.024,-260
213.049,-254
213.074,-227
213.099,-176
213.124,-106
213.149,-27
213.174,56
213.199,138
213.224,212
213.249,276
213.274,335
213.299,400
213.324,478
213.349,570
213.374,672
213.399,774
213.424,874
213.449,976
213.474,1084
213.499,1200
213.524,1327
213.549,1464
213.574,1607
213.599,1749
213.624,1888
213.649,2022
213.674,2142
213.699,2222
213.724,2231
213.749,2160
213.774,2043
213.799,1938
213.824,1869
213.849,1782
213.874,1573
213.899,1162
213.924,571
213.949,-82
213.974,-660
213.999,-1085
214.024,-1361
214.049,-1536
214.074,-1652
214.099,-1726
214.124,-1760
214.149,-1749
214.174,-1688
214.199,-1583
214.224,-1464
214.249,-1370
214.274,-1319
214.299,-1272
214.324,-1170
214.349,-992
214.374,-789
214.399,-639
214.424,-572
214.449,-549
214.474,-519
214.499,-481
214.524,-476
214.549,-513
214.574,-534
214.599,-471
214.624,-326
214.649,-174
214.674,-67
214.699,24
214.724,172
214.749,385
214.774,575
214.799,655
214.824,638
214.849,628
214.874,705
214.899,858
214.924,1039
214.949,1243
214.974,1490
214.999,1700
215.024,1662
215.049,1190
215.074,345
215.099,-539
215.124,-1100
215.149,-1233
215.174,-1144
215.199,-1107
215.224,-1203
215.249,-1294
215.274,-1226
215.299,-996
215.324,-714
215.349,-434
215.374,-95
215.399,370
215.424,902
215.449,1314
215.474,1458
215.499,1348
215.524,1123
215.549,918
215.574,781
215.599,693
215.624,640
215.649,627
215.674,644
215.699,651
215.724,616
215.749,547
215.774,485
215.799,453
215.824,440
215.849,424
215.874,406
215.899,403
215.924,415
215.949,417
215.974,389
215.999,343
216.024,313
216.049,320
216.074,355
216.099,386
216.124,396
216.149,385
216.174,360
216.199,322
216.224,272
216.249,219
216.274,173
216.299,134
216.324,93
216.349,44
216.374,-6
216.399,-48
216.424,-80
216.449,-115
216.474,-159
216.499,-201
216.524,-218
216.549,-199
216.574,-159
216.599,-117
216.624,-80
216.649,-42
216.674,3
216.699,53
216.724,97
216.749,128
216.774,151
216.799,170
216.824,187
216.849,199
216.874,208
216.899,217
216.924,225
216.949,229
216.974,221
216.999,205
217.024,188
217.049,174
217.074,157
217.099,133
217.124,105
217.149,90
217.174,99
217.199,132
217.224,174
217.249,211
217.274,239
217.299,264
217.324,288
217.349,310
217.374,322
217.399,320
217.424,308
217.449,294
217.474,282
217.499,270
217.524,257
217.549,240
217.574,220
217.599,199
217.624,178
217.649,153
217.674,117
217.699,68
217.724,13
217.749,-31
217.774,-51
217.799,-42
217.824,-13
217.849,18
217.874,42
217.899,57
217.924,64
217.949,65
217.974,57
217.999,35
218.024,-1
218.049,-49
218.074,-103
218.099,-154
218.124,-194
218.149,-217
218.174,-224
218.199,-227
218.224,-238
218.249,-261
218.274,-285
218.299,-296
218.324,-294
218.349,-289
218.374,-291
218.399,-294
218.424,-282
218.449,-251
218.474,-217
218.499,-197
218.524,-191
218.549,-169
218.574,-99
218.599,21
218.624,157
218.649,259
218.674,307
218.699,315
218.724,318
218.749,341
218.774,381
218.799,425
218.824,465
218.849,508
218.874,563
218.899,627
218.924,689
218.949,732
218.974,749
218.999,749
219.024,753
219.049,782
219.074,840
219.099,912
219.124,969
219.149,991
219.174,980
219.199,959
219.224,948
219.249,945
219.274,933
219.299,898
219.324,845
219.349,792
219.374,747
219.399,701
219.424,630
219.449,525
219.474,395
219.499,260
219.524,138
219.549,33
219.574,-55
219.599,-137
219.624,-224
219.649,-326
219.674,-448
219.699,-577
219.724,-690
219.749,-765
219.774,-797
219.799,-798
219.824,-787
219.849,-779
219.874,-773
219.899,-757
219.924,-717
219.949,-646
219.974,-555
219.999,-473
220.024,-422
220.049,-404
220.074,-396
220.099,-367
220.124,-299
220.149,-194
220.174,-62
220.199,86
220.224,244
220.249,392
220.274,500
220.299,546
220.324,530
220.349,477
220.374,417
220.399,363
220.424,316
220.449,271
220.474,226
220.499,182
220.524,136
220.549,88
220.574,41
220.599,2
220.624,-23
220.649,-35
220.674,-32
220.699,-3
220.724,59
220.749,151
220.774,245
220.799,308
220.824,322
220.849,298
220.874,260
220.899,225
220.924,201
220.949,186
220.974,182
220.999,189
221.024,205
221.049,224
221.074,248
221.099,281
221.124,326
221.149,374
221.174,415
221.199,446
221.224,470
221.249,489
221.274,498
221.299,492
221.324,478
221.349,474
221.374,486
221.399,505
221.424,509
221.449,490
221.474,457
221.499,434
221.524,425
221.549,422
221.574,408
221.599,375
221.624,325
221.649,261
221.674,185
221.699,109
221.724,54
221.749,31
221.774,25
221.799,-3
221.824,-78
221.849,-187
221.874,-282
221.899,-324
221.924,-315
221.949,-289
221.974,-279
221.999,-283
222.024,-280
222.049,-248
222.074,-194
222.099,-140
222.124,-101
222.149,-74
222.174,-42
222.199,0
222.224,46
222.249,81
222.274,94
222.299,90
222.324,85
222.349,91
222.374,113
222.399,147
222.424,182
222.449,215
222.474,244
222.499,270
222.524,294
222.549,313
222.574,322
222.599,323
222.624,319
222.649,311
222.674,301
222.699,291
222.724,282
222.749,276
222.774,267
222.799,250
222.824,224
222.849,193
222.874,164
222.899,139
222.924,113
222.949,83
222.974,53
222.999,34
223.024,34
223.049,52
223.074,79
223.099,109
223.124,136
223.149,161
223.174,179
223.199,189
223.224,189
223.249,185
223.274,182
223.299,180
223.324,174
223.349,162
223.374,147
223.399,133
223.424,121
223.449,107
223.474,86
223.499,58
223.524,26
223.549,-4
223.574,-34
223.599,-65
223.624,-93
223.649,-111
223.674,-111
223.699,-90
223.724,-54
223.749,-12
223.774,26
223.799,61
223.824,94
223.849,126
223.874,152
223.899,166
223.924,168
223.949,165
223.974,163
223.999,168
224.024,177
224.049,187
224.074,197
224.099,209
224.124,226
224.149,241
224.174,251
224.199,252
224.224,249
224.249,244
224.274,236
224.299,223
224.324,209
224.349,211
224.374,243
224.399,306
224.424,380
224.449,439
224.474,471
224.499,481
224.524,483
224.549,479
224.574,465
224.599,435
224.624,392
224.649,342
224.674,289
224.699,234
224.724,178
224.749,128
224.774,88
224.799,57
224.824,26
224.849,-11
224.874,-51
224.899,-85
224.924,-108
224.949,-129
224.974,-155
224.999,-179
225.024,-184
225.049,-157
225.074,-101
225.099,-38
225.124,13
225.149,47
225.174,71
225.199,95
225.224,120
225.249,140
225.274,152
225.299,156
225.324,156
225.349,158
225.374,161
225.399,166
225.424,171
225.449,176
225.474,178
225.499,177
225.524,176
225.549,179
225.574,182
225.599,176
225.624,148
225.649,97
225.674,35
225.699,-15
225.724,-38
225.749,-31
225.774,-10
225.799,8
225.824,16
225.849,19
225.874,27
225.899,39
225.924,45
225.949,34
225.974,8
225.999,-21
226.024,-39
226.049,-40
226.074,-26
226.099,-4
226.124,19
226.149,38
226.174,46
226.199,38
226.224,19
226.249,6
226.274,9
226.299,23
226.324,35
226.349,39
226.374,53
226.399,102
226.424,198
226.449,320
226.474,430
226.499,501
226.524,534
226.549,548
226.574,557
226.599,559
226.624,545
226.649,511
226.674,468
226.699,429
226.724,396
226.749,365
226.774,330
226.799,292
226.824,255
226.849,223
226.874,194
226.899,169
226.924,148
226.949,130
226.974,111
226.999,86
227.024,61
227.049,49
227.074,66
227.099,110
227.124,164
227.149,208
227.174,235
227.199,253
227.224,274
227.249,298
227.274,312
227.299,307
227.324,285
227.349,257
227.374,234
227.399,212
227.424,182
227.449,141
227.474,98
227.499,64
227.524,41
227.549,18
227.574,-11
227.599,-48
227.624,-79
227.649,-92
227.674,-87
227.699,-73
227.724,-60
227.749,-50
227.774,-42
227.799,-32
227.824,-19
227.849,-5
227.874,8
227.899,24
227.924,39
227.949,52
227.974,59
227.999,59
228.024,55
228.049,51
228.074,53
228.099,65
228.124,83
228.149,98
228.174,100
228.199,85
228.224,58
228.249,29
228.274,4
228.299,-13
228.324,-25
228.349,-25
228.374,-3
228.399,42
228.424,103
228.449,164
228.474,212
228.499,248
228.524,280
228.549,311
228.574,338
228.599,353
228.624,354
228.649,346
228.674,335
228.699,327
228.724,321
228.749,315
228.774,307
228.799,294
228.824,277
228.849,257
228.874,235
228.899,214
228.924,191
228.949,164
228.974,129
228.999,95
229.024,72
229.049,68
229.074,81
229.099,102
229.124,118
229.149,127
229.174,132
229.199,138
229.224,145
229.249,149
229.274,144
229.299,128
229.324,104
229.349,79
229.374,58
229.399,40
229.424,24
229.449,8
229.474,-8
229.499,-24
229.524,-39
229.549,-56
229.574,-76
229.599,-97
229.624,-119
229.649,-142
229.674,-165
229.699,-184
229.724,-191
229.749,-178
229.774,-148
229.799,-112
229.824,-80
229.849,-55
229.874,-30
229.899,2
229.924,40
229.949,70
229.974,85
229.999,93
230.024,104
230.049,124
230.074,149
230.099,170
230.124,191
230.149,220
230.174,259
230.199,297
230.224,321
230.249,334
230.274,346
230.299,364
230.324,380
230.349,391
230.374,415
230.399,484
230.424,611
230.449,765
230.474,898
230.499,987
230.524,1056
230.549,1140
230.574,1236
230.599,1299
230.624,1294
230.649,1245
230.674,1201
230.699,1167
230.724,1067
230.749,811
230.774,411
230.799,11
230.824,-215
230.849,-222
230.874,-137
230.899,-161
230.924,-385
230.949,-722
230.974,-999
230.999,-1106
231.024,-1075
231.049,-1021
231.074,-1013
231.099,-1028
231.124,-989
231.149,-858
231.174,-674
231.199,-514
231.224,-428
231.249,-402
231.274,-383
231.299,-327
231.324,-236
231.349,-147
231.374,-86
231.399,-39
231.424,37
231.449,179
231.474,371
231.499,549
231.524,649
231.549,660
231.574,623
231.599,593
231.624,598
231.649,624
231.674,643
231.699,638
231.724,611
231.749,564
231.774,499
231.799,419
231.824,333
231.849,256
231.874,196
231.899,164
231.924,163
231.949,189
231.974,213
231.999,196
232.024,121
232.049,19
232.074,-45
232.099,-38
232.124,6
232.149,1
232.174,-125
232.199,-377
232.224,-693
232.249,-993
232.274,-1218
232.299,-1332
232.324,-1301
232.349,-1095
232.374,-707
232.399,-172
232.424,435
232.449,1013
232.474,1453
232.499,1681
232.524,1696
232.549,1588
232.574,1483
232.599,1462
232.624,1500
232.649,1501
232.674,1391
232.699,1184
232.724,952
232.749,751
232.774,580
232.799,421
232.824,283
232.849,204
232.874,191
232.899,188
232.924,120
232.949,-36
232.974,-231
232.999,-393
233.024,-500
233.049,-583
233.074,-668
233.099,-734
233.124,-734
233.149,-651
233.174,-521
233.199,-395
233.224,-293
233.249,-196
233.274,-85
233.299,26
233.324,103
233.349,123
233.374,94
233.399,45
233.424,8
233.449,-4
233.474,8
233.499,35
233.524,59
233.549,65
233.574,43
233.599,0
233.624,-49
233.649,-101
233.674,-153
233.699,-200
233.724,-222
233.749,-205
233.774,-153
233.799,-94
233.824,-54
233.849,-30
233.874,0
233.899,53
233.924,117
233.949,161
233.974,173
233.999,164
234.024,157
234.049,155
234.074,139
234.099,98
234.124,50
234.149,26
234.174,40
234.199,66
234.224,72
234.249,56
234.274,49
234.299,69
234.324,90
234.349,59
234.374,-46
234.399,-183
234.424,-279
234.449,-298
234.474,-269
234.499,-229
234.524,-158
234.549,23
234.574,378
234.599,864
234.624,1349
234.649,1703
234.674,1889
234.699,1971
234.724,2023
234.749,2059
234.774,2029
234.799,1883
234.824,1622
234.849,1300
234.874,976
234.899,688
234.924,450
234.949,276
234.974,174
234.999,133
235.024,119
235.049,93
235.074,42
235.099,-4
235.124,-1
235.149,82
235.174,235
235.199,398
235.224,492
235.249,454
235.274,262
235.299,-58
235.324,-446
235.349,-822
235.374,-1115
235.399,-1280
235.424,-1308
235.449,-1231
235.474,-1097
235.499,-950
235.524,-809
235.549,-671
235.574,-538
235.599,-426
235.624,-366
235.649,-372
235.674,-420
235.699,-456
235.724,-436
235.749,-351
235.774,-232
235.799,-125
235.824,-51
235.849,-8
235.874,23
235.899,51
235.924,76
235.949,93
235.974,105
235.999,114
236.024,113
236.049,94
236.074,73
236.099,94
236.124,200
236.149,390
236.174,594
236.199,723
236.224,736
236.249,675
236.274,626
236.299,645
236.324,714
236.349,781
236.374,812
236.399,817
236.424,813
236.449,795
236.474,738
236.499,645
236.524,551
236.549,490
236.574,455
236.599,404
236.624,325
236.649,257
236.674,255
236.699,316
236.724,362
236.749,315
236.774,171
236.799,11
236.824,-80
236.849,-92
236.874,-85
236.899,-118
236.924,-195
236.949,-277
236.974,-326
236.999,-330
237.024,-287
237.049,-184
237.074,-14
237.099,191
237.124,369
237.149,459
237.174,455
237.199,397
237.224,336
237.249,299
237.274,288
237.299,292
237.324,301
237.349,297
237.374,261
237.399,180
237.424,52
237.449,-120
237.474,-346
237.499,-624
237.524,-919
237.549,-1156
237.574,-1263
237.599,-1211
237.624,-1032
237.649,-791
237.674,-544
237.699,-327
237.724,-160
237.749,-52
237.774,18
237.799,101
237.824,245
237.849,458
237.874,693
237.899,884
237.924,996
237.949,1042
237.974,1058
237.999,1071
238.024,1087
238.049,1095
238.074,1073
238.099,998
238.124,852
238.149,649
238.174,442
238.199,303
238.224,273
238.249,331
238.274,408
238.299,432
238.324,373
238.349,247
238.374,99
238.399,-32
238.424,-122
238.449,-157
238.474,-133
238.499,-61
238.524,22
238.549,68
238.574,47
238.599,-25
238.624,-99
238.649,-132
238.674,-132
238.699,-152
238.724,-227
238.749,-339
238.774,-430
238.799,-481
238.824,-536
238.849,-654
238.874,-825
238.899,-951
238.924,-927
238.949,-726
238.974,-404
238.999,-17
239.024,405
239.049,804
239.074,1024
239.099,897
239.124,437
239.149,-58
239.174,-178
239.199,261
239.224,1029
239.249,1651
239.274,1801
239.299,1542
239.324,1200
239.349,1026
239.374,1011
239.399,993
239.424,887
239.449,768
239.474,746
239.499,811
239.524,848
239.549,782
239.574,668
239.599,629
239.624,732
239.649,953
239.674,1252
239.699,1620
239.724,2026
239.749,2328
239.774,2309
239.799,1839
239.824,1028
239.849,186
239.874,-397
239.899,-667
239.924,-806
239.949,-1047
239.974,-1453
239.999,-1879
240.024,-2119
240.049,-2105
240.074,-1969
240.099,-1916
240.124,-2036
240.149,-2211
240.174,-2212
240.199,-1888
240.224,-1306
240.249,-702
240.274,-310
240.299,-207
240.324,-285
240.349,-365
240.374,-333
240.399,-195
240.424,-17
240.449,156
240.474,335
240.499,544
240.524,761
240.549,901
240.574,877
240.599,670
240.624,354
240.649,47
240.674,-173
240.699,-306
240.724,-389
240.749,-430
240.774,-391
240.799,-236
240.824,-10
240.849,166
240.874,181
240.899,19
240.924,-216
240.949,-392
240.974,-436
240.999,-360
241.024,-205
241.049,16
241.074,315
241.099,679
241.124,1049
241.149,1344
241.174,1522
241.199,1594
241.224,1599
241.249,1562
241.274,1489
241.299,1380
241.324,1251
241.349,1122
241.374,1002
241.399,888
241.424,779
241.449,686
241.474,625
241.499,601
241.524,601
241.549,602
241.574,583
241.599,532
241.624,448
241.649,339
241.674,219
241.699,106
241.724,13
241.749,-59
241.774,-119
241.799,-173
241.824,-217
241.849,-248
241.874,-266
241.899,-283
241.924,-311
241.949,-352
241.974,-387
241.999,-394
242.024,-367
242.049,-330
242.074,-325
242.099,-373
242.124,-452
242.149,-515
242.174,-521
242.199,-474
242.224,-405
242.249,-336
242.274,-259
242.299,-154
242.324,-21
242.349,107
242.374,197
242.399,247
242.424,285
242.449,338
242.474,400
242.499,445
242.524,456
242.549,450
242.574,454
242.599,479
242.624,504
242.649,504
242.674,474
242.699,429
242.724,392
242.749,369
242.774,356
242.799,354
242.824,371
242.849,406
242.874,444
242.899,454
242.924,410
242.949,307
242.974,173
242.999,55
243.024,2
243.049,31
243.074,116
243.099,198
243.124,222
243.149,181
243.174,108
243.199,41
243.224,-9
243.249,-66
243.274,-146
243.299,-236
243.324,-304
243.349,-333
243.374,-337
243.399,-347
243.424,-370
243.449,-386
243.474,-365
243.499,-293
243.524,-187
243.549,-72
243.574,33
243.599,120
243.624,187
243.649,234
243.674,266
243.699,285
243.724,290
243.749,279
243.774,257
243.799,246
243.824,272
243.849,341
243.874,430
243.899,501
243.924,535
243.949,539
243.974,529
243.999,515
244.024,493
244.049,460
244.074,422
244.099,393
244.124,373
244.149,354
244.174,326
244.199,292
244.224,259
244.249,231
244.274,199
244.299,154
244.324,91
244.349,21
244.374,-41
244.399,-84
244.424,-101
244.449,-101
244.474,-98
244.499,-105
244.524,-123
244.549,-137
244.574,-125
244.599,-87
244.624,-43
244.649,-19
244.674,-26
244.699,-48
244.724,-62
244.749,-52
244.774,-24
244.799,12
244.824,52
244.849,96
244.874,142
244.899,181
244.924,209
244.949,224
244.974,232
244.999,232
245.024,219
245.049,190
245.074,149
245.099,110
245.124,85
245.149,78
245.174,89
245.199,118
245.224,164
245.249,216
245.274,261
245.299,285
245.324,290
245.349,282
245.374,270
245.399,253
245.424,230
245.449,200
245.474,175
245.499,165
245.524,170
245.549,180
245.574,185
245.599,178
245.624,160
245.649,134
245.674,104
245.699,75
245.724,48
245.749,22
245.774,-7
245.799,-42
245.824,-74
245.849,-88
245.874,-73
245.899,-33
245.924,12
245.949,51
245.974,83
245.999,115
246.024,149
246.049,179
246.074,197
246.099,203
246.124,209
246.149,221
246.174,234
246.199,239
246.224,237
246.249,230
246.274,224
246.299,217
246.324,206
246.349,194
246.374,184
246.399,174
246.424,157
246.449,125
246.474,78
246.499,21
246.524,-51
246.549,-146
246.574,-254
246.599,-336
246.624,-353
246.649,-300
246.674,-220
246.699,-162
246.724,-132
246.749,-90
246.774,8
246.799,154
246.824,295
246.849,383
246.874,424
246.899,463
246.924,529
246.949,611
246.974,671
246.999,694
247.024,696
247.049,698
247.074,698
247.099,682
247.124,648
247.149,615
247.174,597
247.199,581
247.224,535
247.249,451
247.274,362
247.299,311
247.324,311
247.349,331
247.374,328
247.399,291
247.424,249
247.449,243
247.474,285
247.499,351
247.524,399
247.549,403
247.574,366
247.599,310
247.624,247
247.649,159
247.674,4
247.699,-249
247.724,-577
247.749,-893
247.774,-1100
247.799,-1163
247.824,-1126
247.849,-1069
247.874,-1029
247.899,-987
247.924,-908
247.949,-794
247.974,-686
247.999,-615
248.024,-573
248.049,-532
248.074,-485
248.099,-450
248.124,-419
248.149,-334
248.174,-131
248.199,199
248.224,587
248.249,934
248.274,1185
248.299,1331
248.324,1379
248.349,1324
248.374,1181
248.399,1010
248.424,890
248.449,848
248.474,838
248.499,802
248.524,747
248.549,755
248.574,898
248.599,1156
248.624,1416
248.649,1563
248.674,1555
248.699,1429
248.724,1240
248.749,1018
248.774,767
248.799,496
248.824,242
248.849,40
248.874,-107
248.899,-247
248.924,-420
248.949,-587
248.974,-626
248.999,-470
249.024,-290
249.049,-501
249.074,-1464
249.099,-3063
249.124,-4582
249.149,-5127
249.174,-4311
249.199,-2605
249.224,-967
249.249,-85
249.274,59
249.299,-39
249.324,-14
249.349,92
249.374,82
249.399,-6
249.424,137
249.449,743
249.474,1672
249.499,2542
249.524,3077
249.549,3281
249.574,3284
249.599,3137
249.624,2822
249.649,2395
249.674,1980
249.699,1593
249.724,1088
249.749,390
249.774,-254
249.799,-390
249.824,174
249.849,1062
249.874,1607
249.899,1477
249.924,964
249.949,605
249.974,575
249.999,540
250.024,108
250.049,-676
250.074,-1374
250.099,-1626
250.124,-1478
250.149,-1214
250.174,-972
250.199,-637
250.224,-120
250.249,400
250.274,601
250.299,353
250.324,-148
250.349,-613
250.374,-942
250.399,-1242
250.424,-1593
250.449,-1897
250.474,-1994
250.499,-1866
250.524,-1650
250.549,-1452
250.574,-1224
250.599,-851
250.624,-327
250.649,205
250.674,605
250.699,862
250.724,1070
250.749,1289
250.774,1491
250.799,1619
250.824,1667
250.849,1657
250.874,1575
250.899,1380
250.924,1083
250.949,783
250.974,596
250.999,550
251.024,576
251.049,599
251.074,613
251.099,654
251.124,720
251.149,760
251.174,737
251.199,677
251.224,632
251.249,596
251.274,503
251.299,307
251.324,43
251.349,-197
251.374,-370
251.399,-512
251.424,-685
251.449,-896
251.474,-1081
251.499,-1177
251.524,-1174
251.549,-1099
251.574,-976
251.599,-819
251.624,-661
251.649,-568
251.674,-585
251.699,-675
251.724,-732
251.749,-668
251.774,-497
251.799,-320
251.824,-234
251.849,-240
251.874,-253
251.899,-193
251.924,-62
251.949,66
251.974,136
251.999,171
252.024,260
252.049,469
252.074,777
252.099,1097
252.124,1365
252.149,1596
252.174,1863
252.199,2201
252.224,2553
252.249,2794
252.274,2819
252.299,2608
252.324,2213
252.349,1713
252.374,1181
252.399,704
252.424,374
252.449,245
252.474,283
252.499,376
252.524,419
252.549,400
252.574,400
252.599,493
252.624,653
252.649,771
252.674,766
252.699,666
252.724,542
252.749,326
252.774,-269
252.799,-1592
252.824,-3688
252.849,-6027
252.874,-7650
252.899,-7714
252.924,-6092
252.949,-3523
252.974,-1142
252.999,266
253.024,701
253.049,731
253.074,898
253.099,1296
253.124,1686
253.149,1920
253.174,2177
253.199,2744
253.224,3600
253.249,4306
253.274,4355
253.299,3641
253.324,2558
253.349,1634
253.374,1091
253.399,771
253.424,449
253.449,131
253.474,17
253.499,198
253.524,497
253.549,662
253.574,677
253.599,811
253.624,1304
253.649,2029
253.674,2532
253.699,2414
253.724,1687
253.749,736
253.774,-37
253.799,-526
253.824,-892
253.849,-1318
253.874,-1837
253.899,-2362
253.924,-2821
253.949,-3195
253.974,-3463
253.999,-3577
254.024,-3514
254.049,-3325
254.074,-3085
254.099,-2804
254.124,-2453
254.149,-2085
254.174,-1867
254.199,-1925
254.224,-2107
254.249,-1997
254.274,-1239
254.299,100
254.324,1511
254.349,2425
254.374,2654
254.399,2465
254.424,2263
254.449,2234
254.474,2284
254.499,2263
254.524,2156
254.549,2063
254.574,2039
254.599,2026
254.624,1941
254.649,1789
254.674,1656
254.699,1596
254.724,1567
254.749,1492
254.774,1347
254.799,1177
254.824,1026
254.849,893
254.874,747
254.899,588
254.924,457
254.949,385
254.974,354
254.999,316
255.024,239
255.049,132
255.074,28
255.099,-50
255.124,-99
255.149,-128
255.174,-156
255.199,-201
255.224,-269
255.249,-341
255.274,-380
255.299,-369
255.324,-332
255.349,-312
255.374,-336
255.399,-387
255.424,-434
255.449,-458
255.474,-465
255.499,-469
255.524,-479
255.549,-504
255.574,-553
255.599,-625
255.624,-693
255.649,-721
255.674,-703
255.699,-672
255.724,-664
255.749,-668
255.774,-626
255.799,-484
255.824,-245
255.849,29
255.874,273
255.899,442
255.924,529
255.949,549
255.974,542
255.999,558
256.024,620
256.049,703
256.074,744
256.099,714
256.124,649
256.149,610
256.174,601
256.199,551
256.224,389
256.249,135
256.274,-114
256.299,-278
256.324,-365
256.349,-438
256.374,-521
256.399,-583
256.424,-594
256.449,-571
256.474,-553
256.499,-541
256.524,-502
256.549,-437
256.574,-397
256.599,-422
256.624,-469
256.649,-456
256.674,-366
256.699,-282
256.724,-271
256.749,-264
256.774,-98
256.799,303
256.824,836
256.849,1324
256.874,1708
256.899,2069
256.924,2483
256.949,2890
256.974,3167
256.999,3294
257.024,3365
257.049,3453
257.074,3507
257.099,3458
257.124,3367
257.149,3383
257.174,3533
257.199,3640
257.224,3527
257.249,3275
257.274,3157
257.299,3289
257.324,3413
257.349,3124
257.374,2256
257.399,925
257.424,-826
257.449,-3237
257.474,-6449
257.499,-9953
257.524,-12630
257.549,-13615
257.574,-13113
257.599,-12192
257.624,-11637
257.649,-11094
257.674,-9496
257.699,-6350
257.724,-2449
257.749,776
257.774,2556
257.799,3303
257.824,3902
257.849,4667
257.874,5163
257.899,4961
257.924,4336
257.949,4050
257.974,4531
257.999,5404
258.024,5911
258.049,5691
258.074,5110
258.099,4841
258.124,5192
258.149,5837
258.174,6088
258.199,5418
258.224,3813
258.249,1781
258.274,70
258.299,-752
258.324,-626
258.349,-8
258.374,468
258.399,432
258.424,1
258.449,-370
258.474,-270
258.499,355
258.524,1108
258.549,1307
258.574,366
258.599,-1781
258.624,-4489
258.649,-6702
258.674,-7634
258.699,-7307
258.724,-6428
258.749,-5690
258.774,-5152
258.799,-4327
258.824,-2858
258.849,-1023
258.874,470
258.899,1158
258.924,1218
258.949,1200
258.974,1432
258.999,1778
259.024,1923
259.049,1787
259.074,1585
259.099,1542
259.124,1656
259.149,1773
259.174,1801
259.199,1800
259.224,1852
259.249,1938
