df_hash,22ZHK4.E4K1RV
device,HZ2X61
project_hash,29R7
project_name,istanbul_aydin_university
person_hash,29R7.2N0T
person_label,V14
date_time_start,2025-05-22_11-28-58.854000_+03
date_time_start_unix,1747902538.854
date_time_end,2025-05-22_11-34-10.018000_+03
length_difference_noticed,no

time,ppg_med
5.214,477
5.239,548
5.264,661
5.289,722
5.314,698
5.339,673
5.364,738
5.389,858
5.414,904
5.439,830
5.464,751
5.489,792
5.514,903
5.539,910
5.564,751
5.589,584
5.614,574
5.639,657
5.664,597
5.689,315
5.714,20
5.739,-63
5.764,-24
5.789,-173
5.814,-612
5.839,-1064
5.864,-1235
5.889,-1241
5.914,-1485
5.939,-2096
5.964,-2714
5.989,-2959
6.014,-2981
6.039,-3296
6.064,-4065
6.089,-4827
6.114,-5098
6.139,-5068
6.164,-5390
6.189,-6267
6.214,-7113
6.239,-7317
6.264,-7123
6.289,-7347
6.314,-8244
6.339,-9077
6.364,-9083
6.389,-8567
6.414,-8550
6.439,-9351
6.464,-10049
6.489,-9694
6.514,-8668
6.539,-8245
6.564,-8825
6.589,-9262
6.614,-8370
6.639,-6627
6.664,-5631
6.689,-5884
6.714,-5958
6.739,-4363
6.764,-1697
6.789,19
6.814,138
6.839,465
6.864,2902
6.889,6690
6.914,9233
6.939,9666
6.964,10323
6.989,13701
7.014,18831
7.039,22254
7.064,22764
7.089,23489
7.114,27898
7.139,32767
7.164,32767
7.189,32767
7.214,32767
7.239,32767
7.264,32767
7.289,32767
7.314,32767
7.339,32767
7.364,32767
7.389,32767
7.414,32767
7.439,32767
7.464,12553
7.489,-32768
7.514,-32768
7.539,-32768
7.564,-32768
7.589,-32768
7.614,-32768
7.639,-32768
7.664,-32768
7.689,-32768
7.714,-32768
7.739,-32768
7.764,-32768
7.789,-32768
7.814,-30219
7.839,-24366
7.864,-22411
7.889,-22378
7.914,-20258
7.939,-15416
7.964,-10992
7.989,-9394
8.014,-9263
8.039,-7668
8.064,-4102
8.089,-890
8.114,145
8.139,28
8.164,1014
8.189,3510
8.214,5716
8.239,6206
8.264,5778
8.289,6211
8.314,7838
8.339,9243
8.364,9294
8.389,8621
8.414,8633
8.439,9590
8.464,10356
8.489,10029
8.514,9124
8.539,8780
8.564,9211
8.589,9504
8.614,8937
8.639,7930
8.664,7408
8.689,7546
8.714,7605
8.739,6987
8.764,6005
8.789,5393
8.814,5303
8.839,5177
8.864,4559
8.889,3701
8.914,3170
8.939,3070
8.964,2953
8.989,2466
9.014,1813
9.039,1430
9.064,1385
9.089,1316
9.114,949
9.139,452
9.164,170
9.189,158
9.214,134
9.239,-111
9.264,-449
9.289,-611
9.314,-560
9.339,-515
9.364,-641
9.389,-838
9.414,-902
9.439,-805
9.464,-713
9.489,-757
9.514,-863
9.539,-870
9.564,-743
9.589,-597
9.614,-535
9.639,-524
9.664,-466
9.689,-340
9.714,-220
9.739,-169
9.764,-158
9.789,-114
9.814,-24
9.839,54
9.864,82
9.889,89
9.914,131
9.939,212
9.964,278
9.989,294
10.014,289
10.039,299
10.064,293
10.089,277
10.114,252
10.139,229
10.164,218
10.189,222
10.214,235
10.239,252
10.264,267
10.289,280
10.314,290
10.339,302
10.364,318
10.389,343
10.414,370
10.439,381
10.464,358
10.489,301
10.514,226
10.539,159
10.564,114
10.589,83
10.614,51
10.639,12
10.664,-27
10.689,-64
10.714,-97
10.739,-134
10.764,-168
10.789,-185
10.814,-167
10.839,-116
10.864,-52
10.889,2
10.914,38
10.939,62
10.964,83
10.989,101
11.014,111
11.039,113
11.064,117
11.089,131
11.114,152
11.139,169
11.164,176
11.189,177
11.214,177
11.239,178
11.264,173
11.289,160
11.314,144
11.339,131
11.364,118
11.389,99
11.414,69
11.439,44
11.464,43
11.489,73
11.514,122
11.539,164
11.564,191
11.589,210
11.614,236
11.639,268
11.664,296
11.689,312
11.714,323
11.739,340
11.764,366
11.789,391
11.814,408
11.839,421
11.864,436
11.889,447
11.914,445
11.939,426
11.964,404
11.989,395
12.014,388
12.039,354
12.064,275
12.089,176
12.114,105
12.139,89
12.164,101
12.189,89
12.214,24
12.239,-66
12.264,-127
12.289,-128
12.314,-79
12.339,-15
12.364,43
12.389,102
12.414,174
12.439,260
12.464,355
12.489,452
12.514,546
12.539,629
12.564,691
12.589,726
12.614,740
12.639,742
12.664,739
12.689,732
12.714,731
12.739,749
12.764,785
12.789,805
12.814,751
12.839,582
12.864,304
12.889,-23
12.914,-321
12.939,-520
12.964,-578
12.989,-487
13.014,-276
13.039,-3
13.064,263
13.089,466
13.114,574
13.139,576
13.164,478
13.189,303
13.214,89
13.239,-122
13.264,-315
13.289,-508
13.314,-715
13.339,-911
13.364,-1022
13.389,-984
13.414,-807
13.439,-582
13.464,-410
13.489,-328
13.514,-299
13.539,-261
13.564,-193
13.589,-114
13.614,-52
13.639,-7
13.664,36
13.689,87
13.714,137
13.739,181
13.764,227
13.789,288
13.814,366
13.839,450
13.864,532
13.889,608
13.914,674
13.939,712
13.964,704
13.989,649
14.014,577
14.039,527
14.064,515
14.089,527
14.114,539
14.139,532
14.164,506
14.189,467
14.214,419
14.239,371
14.264,337
14.289,324
14.314,324
14.339,320
14.364,297
14.389,259
14.414,220
14.439,190
14.464,169
14.489,155
14.514,151
14.539,162
14.564,186
14.589,210
14.614,221
14.639,219
14.664,216
14.689,222
14.714,234
14.739,241
14.764,235
14.789,220
14.814,204
14.839,191
14.864,180
14.889,168
14.914,154
14.939,140
14.964,127
14.989,115
15.014,103
15.039,87
15.064,68
15.089,48
15.114,38
15.139,47
15.164,78
15.189,122
15.214,164
15.239,192
15.264,211
15.289,227
15.314,245
15.339,262
15.364,273
15.389,278
15.414,285
15.439,296
15.464,303
15.489,298
15.514,276
15.539,243
15.564,212
15.589,186
15.614,163
15.639,142
15.664,125
15.689,119
15.714,125
15.739,132
15.764,125
15.789,98
15.814,63
15.839,41
15.864,46
15.889,76
15.914,118
15.939,157
15.964,185
15.989,203
16.014,215
16.039,224
16.064,231
16.089,240
16.114,250
16.139,261
16.164,269
16.189,272
16.214,270
16.239,266
16.264,261
16.289,257
16.314,253
16.339,246
16.364,237
16.389,222
16.414,205
16.439,191
16.464,184
16.489,180
16.514,168
16.539,141
16.564,105
16.589,79
16.614,79
16.639,102
16.664,133
16.689,156
16.714,166
16.739,170
16.764,170
16.789,167
16.814,156
16.839,141
16.864,128
16.889,119
16.914,114
16.939,111
16.964,109
16.989,110
17.014,113
17.039,113
17.064,109
17.089,106
17.114,108
17.139,110
17.164,107
17.189,101
17.214,98
17.239,103
17.264,110
17.289,108
17.314,97
17.339,96
17.364,119
17.389,167
17.414,218
17.439,253
17.464,268
17.489,272
17.514,273
17.539,269
17.564,264
17.589,267
17.614,287
17.639,313
17.664,321
17.689,302
17.714,274
17.739,265
17.764,285
17.789,311
17.814,317
17.839,303
17.864,290
17.889,291
17.914,300
17.939,304
17.964,306
17.989,326
18.014,367
18.039,400
18.064,386
18.089,318
18.114,236
18.139,188
18.164,187
18.189,203
18.214,203
18.239,188
18.264,184
18.289,213
18.314,263
18.339,302
18.364,313
18.389,300
18.414,278
18.439,252
18.464,219
18.489,177
18.514,133
18.539,98
18.564,74
18.589,53
18.614,28
18.639,-3
18.664,-34
18.689,-62
18.714,-94
18.739,-137
18.764,-191
18.789,-240
18.814,-266
18.839,-262
18.864,-243
18.889,-242
18.914,-285
18.939,-372
18.964,-478
18.989,-560
19.014,-581
19.039,-517
19.064,-362
19.089,-127
19.114,155
19.139,440
19.164,681
19.189,848
19.214,928
19.239,925
19.264,862
19.289,776
19.314,709
19.339,687
19.364,692
19.389,677
19.414,607
19.439,500
19.464,415
19.489,402
19.514,453
19.539,508
19.564,511
19.589,452
19.614,366
19.639,291
19.664,236
19.689,192
19.714,155
19.739,135
19.764,134
19.789,139
19.814,135
19.839,124
19.864,127
19.889,157
19.914,199
19.939,220
19.964,199
19.989,149
20.014,104
20.039,89
20.064,101
20.089,117
20.114,116
20.139,92
20.164,55
20.189,16
20.214,-12
20.239,-26
20.264,-25
20.289,-13
20.314,5
20.339,30
20.364,59
20.389,94
20.414,132
20.439,174
20.464,215
20.489,250
20.514,270
20.539,275
20.564,271
20.589,266
20.614,264
20.639,262
20.664,257
20.689,250
20.714,244
20.739,233
20.764,204
20.789,151
20.814,81
20.839,19
20.864,-17
20.889,-29
20.914,-30
20.939,-26
20.964,-14
20.989,15
21.014,61
21.039,111
21.064,154
21.089,193
21.114,236
21.139,281
21.164,313
21.189,316
21.214,291
21.239,256
21.264,224
21.289,201
21.314,179
21.339,156
21.364,133
21.389,114
21.414,97
21.439,80
21.464,70
21.489,76
21.514,102
21.539,136
21.564,160
21.589,170
21.614,175
21.639,187
21.664,207
21.689,225
21.714,231
21.739,228
21.764,228
21.789,238
21.814,254
21.839,267
21.864,273
21.889,278
21.914,285
21.939,290
21.964,286
21.989,273
22.014,258
22.039,247
22.064,232
22.089,203
22.114,156
22.139,107
22.164,80
22.189,86
22.214,112
22.239,135
22.264,144
22.289,145
22.314,153
22.339,170
22.364,187
22.389,195
22.414,195
22.439,200
22.464,217
22.489,242
22.514,262
22.539,271
22.564,276
22.589,286
22.614,301
22.639,313
22.664,313
22.689,300
22.714,281
22.739,257
22.764,229
22.789,191
22.814,148
22.839,109
22.864,77
22.889,50
22.914,22
22.939,-3
22.964,-16
22.989,-3
23.014,31
23.039,74
23.064,109
23.089,132
23.114,153
23.139,177
23.164,202
23.189,219
23.214,224
23.239,225
23.264,235
23.289,254
23.314,271
23.339,276
23.364,268
23.389,256
23.414,247
23.439,241
23.464,231
23.489,218
23.514,206
23.539,199
23.564,192
23.589,180
23.614,163
23.639,149
23.664,143
23.689,136
23.714,119
23.739,89
23.764,61
23.789,54
23.814,78
23.839,120
23.864,162
23.889,189
23.914,205
23.939,218
23.964,230
23.989,237
24.014,238
24.039,234
24.064,232
24.089,235
24.114,243
24.139,250
24.164,256
24.189,261
24.214,265
24.239,262
24.264,248
24.289,223
24.314,192
24.339,164
24.364,147
24.389,140
24.414,139
24.439,135
24.464,124
24.489,109
24.514,92
24.539,75
24.564,55
24.589,34
24.614,20
24.639,27
24.664,60
24.689,110
24.714,156
24.739,186
24.764,202
24.789,218
24.814,240
24.839,262
24.864,273
24.889,272
24.914,267
24.939,269
24.964,281
24.989,293
25.014,299
25.039,296
25.064,289
25.089,279
25.114,266
25.139,249
25.164,230
25.189,214
25.214,197
25.239,180
25.264,163
25.289,151
25.314,144
25.339,135
25.364,112
25.389,76
25.414,43
25.439,37
25.464,65
25.489,115
25.514,162
25.539,192
25.564,209
25.589,222
25.614,236
25.639,245
25.664,246
25.689,240
25.714,233
25.739,228
25.764,224
25.789,218
25.814,212
25.839,210
25.864,212
25.889,211
25.914,205
25.939,194
25.964,183
25.989,174
26.014,165
26.039,154
26.064,140
26.089,127
26.114,115
26.139,100
26.164,79
26.189,60
26.214,56
26.239,75
26.264,114
26.289,156
26.314,188
26.339,205
26.364,214
26.389,221
26.414,229
26.439,238
26.464,244
26.489,248
26.514,250
26.539,252
26.564,253
26.589,253
26.614,251
26.639,245
26.664,235
26.689,223
26.714,209
26.739,193
26.764,174
26.789,156
26.814,140
26.839,131
26.864,123
26.889,109
26.914,86
26.939,63
26.964,56
26.989,75
27.014,117
27.039,164
27.064,199
27.089,219
27.114,231
27.139,241
27.164,249
27.189,253
27.214,253
27.239,254
27.264,260
27.289,267
27.314,268
27.339,261
27.364,249
27.389,239
27.414,231
27.439,222
27.464,207
27.489,187
27.514,167
27.539,152
27.564,140
27.589,122
27.614,96
27.639,65
27.664,43
27.689,43
27.714,72
27.739,119
27.764,166
27.789,197
27.814,211
27.839,218
27.864,228
27.889,242
27.914,251
27.939,248
27.964,237
27.989,228
28.014,230
28.039,237
28.064,238
28.089,230
28.114,218
28.139,205
28.164,192
28.189,173
28.214,150
28.239,130
28.264,118
28.289,110
28.314,94
28.339,65
28.364,38
28.389,35
28.414,64
28.439,113
28.464,155
28.489,178
28.514,187
28.539,198
28.564,217
28.589,238
28.614,252
28.639,255
28.664,255
28.689,259
28.714,266
28.739,272
28.764,271
28.789,263
28.814,251
28.839,238
28.864,226
28.889,214
28.914,201
28.939,187
28.964,173
28.989,158
29.014,144
29.039,127
29.064,103
29.089,78
29.114,60
29.139,63
29.164,89
29.189,127
29.214,161
29.239,182
29.264,193
29.289,203
29.314,216
29.339,229
29.364,236
29.389,237
29.414,238
29.439,241
29.464,244
29.489,244
29.514,241
29.539,236
29.564,231
29.589,226
29.614,218
29.639,208
29.664,198
29.689,188
29.714,178
29.739,167
29.764,157
29.789,149
29.814,138
29.839,122
29.864,100
29.889,85
29.914,91
29.939,120
29.964,159
29.989,188
30.014,198
30.039,197
30.064,200
30.089,211
30.114,222
30.139,226
30.164,224
30.189,225
30.214,234
30.239,244
30.264,249
30.289,245
30.314,240
30.339,240
30.364,242
30.389,236
30.414,220
30.439,198
30.464,180
30.489,169
30.514,160
30.539,147
30.564,133
30.589,123
30.614,116
30.639,104
30.664,78
30.689,49
30.714,36
30.739,53
30.764,94
30.789,138
30.814,165
30.839,177
30.864,184
30.889,196
30.914,209
30.939,215
30.964,214
30.989,212
31.014,216
31.039,224
31.064,230
31.089,230
31.114,228
31.139,226
31.164,223
31.189,215
31.214,201
31.239,187
31.264,176
31.289,169
31.314,160
31.339,148
31.364,136
31.389,124
31.414,106
31.439,81
31.464,56
31.489,46
31.514,66
31.539,112
31.564,167
31.589,214
31.614,250
31.639,279
31.664,303
31.689,318
31.714,319
31.739,309
31.764,298
31.789,291
31.814,288
31.839,281
31.864,267
31.889,247
31.914,225
31.939,207
31.964,193
31.989,180
32.014,168
32.039,156
32.064,144
32.089,136
32.114,129
32.139,122
32.164,108
32.189,87
32.214,67
32.239,62
32.264,81
32.289,117
32.314,154
32.339,179
32.364,192
32.389,202
32.414,215
32.439,229
32.464,235
32.489,232
32.514,229
32.539,234
32.564,246
32.589,258
32.614,260
32.639,253
32.664,241
32.689,227
32.714,210
32.739,193
32.764,178
32.789,169
32.814,164
32.839,156
32.864,143
32.889,129
32.914,118
32.939,109
32.964,93
32.989,68
33.014,47
33.039,45
33.064,70
33.089,112
33.114,151
33.139,173
33.164,183
33.189,194
33.214,213
33.239,234
33.264,248
33.289,251
33.314,249
33.339,249
33.364,252
33.389,255
33.414,255
33.439,253
33.464,250
33.489,245
33.514,234
33.539,220
33.564,205
33.589,193
33.614,181
33.639,167
33.664,153
33.689,143
33.714,134
33.739,117
33.764,90
33.789,61
33.814,51
33.839,72
33.864,115
33.889,158
33.914,184
33.939,197
33.964,210
33.989,230
34.014,250
34.039,256
34.064,247
34.089,238
34.114,239
34.139,250
34.164,258
34.189,255
34.214,244
34.239,233
34.264,227
34.289,221
34.314,210
34.339,197
34.364,186
34.389,177
34.414,167
34.439,154
34.464,140
34.489,130
34.514,118
34.539,99
34.564,71
34.589,49
34.614,52
34.639,84
34.664,128
34.689,165
34.714,183
34.739,193
34.764,208
34.789,230
34.814,250
34.839,258
34.864,255
34.889,248
34.914,245
34.939,244
34.964,241
34.989,234
35.014,226
35.039,218
35.064,208
35.089,195
35.114,183
35.139,176
35.164,174
35.189,172
35.214,164
35.239,151
35.264,139
35.289,130
35.314,118
35.339,96
35.364,71
35.389,57
35.414,70
35.439,105
35.464,145
35.489,173
35.514,186
35.539,196
35.564,213
35.589,236
35.614,254
35.639,259
35.664,255
35.689,251
35.714,253
35.739,258
35.764,261
35.789,258
35.814,252
35.839,246
35.864,240
35.889,231
35.914,217
35.939,203
35.964,192
35.989,184
36.014,175
36.039,162
36.064,148
36.089,135
36.114,122
36.139,102
36.164,75
36.189,49
36.214,41
36.239,58
36.264,95
36.289,133
36.314,161
36.339,178
36.364,193
36.389,214
36.414,236
36.439,247
36.464,246
36.489,240
36.514,240
36.539,249
36.564,258
36.589,261
36.614,254
36.639,243
36.664,233
36.689,224
36.714,215
36.739,206
36.764,199
36.789,195
36.814,189
36.839,176
36.864,160
36.889,145
36.914,134
36.939,122
36.964,104
36.989,79
37.014,61
37.039,66
37.064,95
37.089,136
37.114,169
37.139,185
37.164,191
37.189,199
37.214,216
37.239,235
37.264,245
37.289,245
37.314,240
37.339,237
37.364,236
37.389,233
37.414,228
37.439,221
37.464,213
37.489,199
37.514,176
37.539,148
37.564,125
37.589,116
37.614,116
37.639,115
37.664,106
37.689,93
37.714,81
37.739,65
37.764,40
37.789,7
37.814,-15
37.839,-9
37.864,27
37.889,75
37.914,110
37.939,127
37.964,135
37.989,148
38.014,165
38.039,179
38.064,188
38.089,196
38.114,210
38.139,224
38.164,232
38.189,233
38.214,234
38.239,239
38.264,246
38.289,249
38.314,249
38.339,252
38.364,259
38.389,265
38.414,268
38.439,274
38.464,288
38.489,300
38.514,298
38.539,281
38.564,274
38.589,306
38.614,376
38.639,451
38.664,499
38.689,532
38.714,593
38.739,705
38.764,826
38.789,877
38.814,807
38.839,638
38.864,436
38.889,254
38.914,99
38.939,-44
38.964,-170
38.989,-252
39.014,-270
39.039,-240
39.064,-199
39.089,-170
39.114,-150
39.139,-126
39.164,-94
39.189,-65
39.214,-44
39.239,-25
39.264,-5
39.289,10
39.314,10
39.339,-5
39.364,-27
39.389,-40
39.414,-38
39.439,-25
39.464,-3
39.489,31
39.514,77
39.539,124
39.564,156
39.589,174
39.614,190
39.639,220
39.664,264
39.689,310
39.714,339
39.739,346
39.764,330
39.789,294
39.814,245
39.839,197
39.864,166
39.889,161
39.914,172
39.939,178
39.964,167
39.989,146
40.014,134
40.039,146
40.064,179
40.089,220
40.114,252
40.139,271
40.164,278
40.189,283
40.214,287
40.239,292
40.264,292
40.289,287
40.314,280
40.339,278
40.364,284
40.389,297
40.414,311
40.439,321
40.464,325
40.489,323
40.514,310
40.539,282
40.564,243
40.589,200
40.614,166
40.639,143
40.664,123
40.689,95
40.714,57
40.739,21
40.764,5
40.789,19
40.814,59
40.839,107
40.864,143
40.889,162
40.914,174
40.939,190
40.964,215
40.989,235
41.014,239
41.039,230
41.064,222
41.089,228
41.114,240
41.139,241
41.164,224
41.189,199
41.214,179
41.239,158
41.264,119
41.289,58
41.314,3
41.339,-9
41.364,26
41.389,78
41.414,99
41.439,83
41.464,65
41.489,86
41.514,141
41.539,194
41.564,214
41.589,216
41.614,241
41.639,307
41.664,386
41.689,431
41.714,425
41.739,393
41.764,370
41.789,367
41.814,370
41.839,358
41.864,332
41.889,303
41.914,278
41.939,249
41.964,213
41.989,177
42.014,149
42.039,128
42.064,102
42.089,65
42.114,29
42.139,14
42.164,29
42.189,62
42.214,95
42.239,114
42.264,122
42.289,124
42.314,124
42.339,123
42.364,123
42.389,126
42.414,133
42.439,139
42.464,143
42.489,147
42.514,153
42.539,160
42.564,166
42.589,169
42.614,171
42.639,172
42.664,168
42.689,152
42.714,127
42.739,104
42.764,103
42.789,130
42.814,177
42.839,223
42.864,254
42.889,269
42.914,277
42.939,283
42.964,286
42.989,283
43.014,273
43.039,264
43.064,261
43.089,263
43.114,262
43.139,253
43.164,236
43.189,218
43.214,202
43.239,187
43.264,165
43.289,133
43.314,98
43.339,76
43.364,77
43.389,101
43.414,134
43.439,164
43.464,184
43.489,197
43.514,207
43.539,213
43.564,216
43.589,215
43.614,215
43.639,216
43.664,219
43.689,221
43.714,220
43.739,213
43.764,200
43.789,185
43.814,173
43.839,163
43.864,150
43.889,128
43.914,99
43.939,74
43.964,71
43.989,95
44.014,135
44.039,170
44.064,192
44.089,206
44.114,222
44.139,241
44.164,254
44.189,254
44.214,245
44.239,237
44.264,235
44.289,235
44.314,230
44.339,217
44.364,199
44.389,181
44.414,164
44.439,148
44.464,131
44.489,115
44.514,93
44.539,66
44.564,39
44.589,29
44.614,47
44.639,88
44.664,133
44.689,163
44.714,176
44.739,184
44.764,200
44.789,219
44.814,230
44.839,227
44.864,217
44.889,212
44.914,217
44.939,222
44.964,218
44.989,204
45.014,188
45.039,177
45.064,169
45.089,159
45.114,142
45.139,121
45.164,106
45.189,101
45.214,99
45.239,88
45.264,63
45.289,33
45.314,22
45.339,44
45.364,93
45.389,147
45.414,182
45.439,199
45.464,212
45.489,237
45.514,270
45.539,297
45.564,307
45.589,307
45.614,311
45.639,324
45.664,341
45.689,351
45.714,351
45.739,346
45.764,342
45.789,342
45.814,342
45.839,340
45.864,334
45.889,318
45.914,290
45.939,252
45.964,211
45.989,172
46.014,131
46.039,83
46.064,37
46.089,16
46.114,36
46.139,93
46.164,158
46.189,203
46.214,218
46.239,219
46.264,221
46.289,228
46.314,232
46.339,229
46.364,224
46.389,224
46.414,227
46.439,226
46.464,220
46.489,215
46.514,219
46.539,231
46.564,237
46.589,232
46.614,221
46.639,218
46.664,225
46.689,229
46.714,213
46.739,173
46.764,127
46.789,99
46.814,98
46.839,113
46.864,125
46.889,121
46.914,106
46.939,93
46.964,91
46.989,100
47.014,107
47.039,104
47.064,92
47.089,80
47.114,76
47.139,80
47.164,85
47.189,85
47.214,82
47.239,82
47.264,92
47.289,112
47.314,134
47.339,153
47.364,168
47.389,178
47.414,183
47.439,181
47.464,177
47.489,177
47.514,189
47.539,212
47.564,235
47.589,250
47.614,255
47.639,256
47.664,254
47.689,247
47.714,231
47.739,208
47.764,183
47.789,160
47.814,134
47.839,100
47.864,61
47.889,26
47.914,1
47.939,-10
47.964,-12
47.989,-1
48.014,24
48.039,65
48.064,110
48.089,143
48.114,165
48.139,189
48.164,228
48.189,276
48.214,317
48.239,341
48.264,355
48.289,377
48.314,407
48.339,432
48.364,435
48.389,418
48.414,397
48.439,389
48.464,389
48.489,383
48.514,362
48.539,335
48.564,311
48.589,291
48.614,271
48.639,248
48.664,227
48.689,209
48.714,185
48.739,147
48.764,100
48.789,67
48.814,69
48.839,103
48.864,144
48.889,169
48.914,174
48.939,175
48.964,183
48.989,196
49.014,203
49.039,198
49.064,187
49.089,182
49.114,185
49.139,189
49.164,186
49.189,172
49.214,150
49.239,128
49.264,111
49.289,100
49.314,88
49.339,66
49.364,32
49.389,-1
49.414,-15
49.439,0
49.464,39
49.489,79
49.514,104
49.539,116
49.564,125
49.589,135
49.614,141
49.639,134
49.664,118
49.689,105
49.714,108
49.739,128
49.764,158
49.789,187
49.814,213
49.839,234
49.864,249
49.889,258
49.914,265
49.939,273
49.964,282
49.989,287
50.014,284
50.039,279
50.064,285
50.089,310
50.114,348
50.139,383
50.164,404
50.189,410
50.214,408
50.239,401
50.264,387
50.289,368
50.314,345
50.339,322
50.364,302
50.389,282
50.414,261
50.439,244
50.464,232
50.489,221
50.514,204
50.539,179
50.564,151
50.589,125
50.614,103
50.639,79
50.664,49
50.689,18
50.714,-3
50.739,-9
50.764,-2
50.789,14
50.814,35
50.839,60
50.864,87
50.889,108
50.914,115
50.939,109
50.964,90
50.989,65
51.014,33
51.039,-2
51.064,-38
51.089,-67
51.114,-89
51.139,-110
51.164,-137
51.189,-163
51.214,-176
51.239,-166
51.264,-136
51.289,-95
51.314,-47
51.339,18
51.364,108
51.389,217
51.414,319
51.439,394
51.464,439
51.489,469
51.514,501
51.539,532
51.564,546
51.589,536
51.614,508
51.639,485
51.664,477
51.689,475
51.714,464
51.739,435
51.764,398
51.789,369
51.814,351
51.839,334
51.864,307
51.889,269
51.914,231
51.939,207
51.964,201
51.989,207
52.014,217
52.039,226
52.064,234
52.089,235
52.114,229
52.139,214
52.164,196
52.189,181
52.214,169
52.239,160
52.264,153
52.289,148
52.314,144
52.339,137
52.364,124
52.389,106
52.414,87
52.439,72
52.464,56
52.489,33
52.514,0
52.539,-28
52.564,-35
52.589,-10
52.614,35
52.639,81
52.664,110
52.689,120
52.714,121
52.739,125
52.764,134
52.789,142
52.814,141
52.839,135
52.864,131
52.889,135
52.914,144
52.939,146
52.964,135
52.989,114
53.014,97
53.039,90
53.064,91
53.089,88
53.114,73
53.139,58
53.164,62
53.189,95
53.214,153
53.239,217
53.264,269
53.289,305
53.314,327
53.339,343
53.364,355
53.389,366
53.414,378
53.439,390
53.464,399
53.489,404
53.514,405
53.539,409
53.564,414
53.589,413
53.614,392
53.639,344
53.664,271
53.689,186
53.714,104
53.739,40
53.764,8
53.789,13
53.814,51
53.839,102
53.864,147
53.889,179
53.914,202
53.939,223
53.964,244
53.989,261
54.014,266
54.039,260
54.064,242
54.089,211
54.114,166
54.139,113
54.164,63
54.189,30
54.214,16
54.239,20
54.264,36
54.289,55
54.314,68
54.339,61
54.364,34
54.389,6
54.414,1
54.439,33
54.464,90
54.489,144
54.514,180
54.539,200
54.564,217
54.589,235
54.614,247
54.639,243
54.664,230
54.689,217
54.714,211
54.739,209
54.764,205
54.789,198
54.814,191
54.839,187
54.864,182
54.889,181
54.914,187
54.939,202
54.964,212
54.989,198
55.014,155
55.039,104
55.064,80
55.089,100
55.114,152
55.139,204
55.164,238
55.189,255
55.214,268
55.239,285
55.264,299
55.289,304
55.314,299
55.339,292
55.364,289
55.389,286
55.414,280
55.439,267
55.464,248
55.489,225
55.514,202
55.539,182
55.564,165
55.589,146
55.614,115
55.639,71
55.664,30
55.689,13
55.714,36
55.739,90
55.764,149
55.789,190
55.814,209
55.839,218
55.864,228
55.889,238
55.914,240
55.939,229
55.964,211
55.989,197
56.014,194
56.039,195
56.064,191
56.089,178
56.114,160
56.139,147
56.164,141
56.189,138
56.214,128
56.239,106
56.264,79
56.289,64
56.314,76
56.339,116
56.364,170
56.389,219
56.414,250
56.439,265
56.464,274
56.489,281
56.514,286
56.539,285
56.564,276
56.589,267
56.614,262
56.639,262
56.664,258
56.689,247
56.714,230
56.739,211
56.764,192
56.789,171
56.814,143
56.839,111
56.864,83
56.889,72
56.914,85
56.939,117
56.964,157
56.989,189
57.014,208
57.039,215
57.064,217
57.089,218
57.114,213
57.139,200
57.164,182
57.189,168
57.214,164
57.239,165
57.264,158
57.289,138
57.314,114
57.339,95
57.364,83
57.389,67
57.414,39
57.439,6
57.464,-12
57.489,-6
57.514,18
57.539,42
57.564,50
57.589,46
57.614,42
57.639,52
57.664,78
57.689,117
57.714,162
57.739,208
57.764,252
57.789,295
57.814,335
57.839,368
57.864,387
57.889,390
57.914,385
57.939,388
57.964,404
57.989,421
58.014,417
58.039,376
58.064,309
58.089,245
58.114,209
58.139,208
58.164,227
58.189,250
58.214,266
58.239,273
58.264,275
58.289,279
58.314,285
58.339,288
58.364,282
58.389,271
58.414,267
58.439,284
58.464,313
58.489,327
58.514,300
58.539,237
58.564,167
58.589,114
58.614,66
58.639,-5
58.664,-104
58.689,-189
58.714,-200
58.739,-125
58.764,-8
58.789,84
58.814,128
58.839,145
58.864,171
58.889,213
58.914,248
58.939,259
58.964,256
58.989,258
59.014,266
59.039,256
59.064,209
59.089,134
59.114,63
59.139,20
59.164,12
59.189,21
59.214,32
59.239,31
59.264,15
59.289,-11
59.314,-33
59.339,-32
59.364,2
59.389,57
59.414,110
59.439,144
59.464,163
59.489,180
59.514,200
59.539,219
59.564,234
59.589,246
59.614,262
59.639,281
59.664,295
59.689,297
59.714,294
59.739,296
59.764,306
59.789,317
59.814,320
59.839,312
59.864,299
59.889,286
59.914,274
59.939,266
59.964,267
59.989,285
60.014,316
60.039,348
60.064,368
60.089,372
60.114,368
60.139,360
60.164,347
60.189,318
60.214,272
60.239,219
60.264,175
60.289,148
60.314,133
60.339,118
60.364,100
60.389,82
60.414,70
60.439,63
60.464,51
60.489,27
60.514,1
60.539,-9
60.564,6
60.589,48
60.614,99
60.639,140
60.664,165
60.689,179
60.714,191
60.739,205
60.764,218
60.789,222
60.814,218
60.839,212
60.864,210
60.889,216
60.914,222
60.939,220
60.964,207
60.989,189
61.014,173
61.039,162
61.064,149
61.089,131
61.114,111
61.139,101
61.164,110
61.189,136
61.214,168
61.239,194
61.264,210
61.289,224
61.314,237
61.339,247
61.364,248
61.389,237
61.414,220
61.439,206
61.464,197
61.489,192
61.514,184
61.539,173
61.564,157
61.589,139
61.614,123
61.639,109
61.664,93
61.689,71
61.714,41
61.739,15
61.764,11
61.789,38
61.814,90
61.839,147
61.864,187
61.889,208
61.914,222
61.939,237
61.964,253
61.989,262
62.014,260
62.039,255
62.064,256
62.089,261
62.114,263
62.139,254
62.164,238
62.189,220
62.214,204
62.239,189
62.264,173
62.289,156
62.314,139
62.339,119
62.364,93
62.389,69
62.414,65
62.439,93
62.464,147
62.489,202
62.514,239
62.539,255
62.564,264
62.589,280
62.614,301
62.639,314
62.664,314
62.689,308
62.714,310
62.739,322
62.764,332
62.789,329
62.814,315
62.839,299
62.864,287
62.889,269
62.914,234
62.939,180
62.964,123
62.989,81
63.014,56
63.039,35
63.064,9
63.089,-14
63.114,-14
63.139,23
63.164,89
63.189,157
63.214,205
63.239,232
63.264,251
63.289,274
63.314,298
63.339,312
63.364,305
63.389,281
63.414,248
63.439,215
63.464,187
63.489,164
63.514,145
63.539,131
63.564,119
63.589,106
63.614,92
63.639,81
63.664,75
63.689,75
63.714,73
63.739,64
63.764,50
63.789,43
63.814,56
63.839,96
63.864,154
63.889,212
63.914,254
63.939,279
63.964,295
63.989,308
64.014,318
64.039,319
64.064,307
64.089,288
64.114,271
64.139,258
64.164,243
64.189,223
64.214,198
64.239,175
64.264,158
64.289,142
64.314,122
64.339,101
64.364,83
64.389,71
64.414,57
64.439,35
64.464,11
64.489,3
64.514,27
64.539,77
64.564,132
64.589,176
64.614,204
64.639,225
64.664,245
64.689,260
64.714,264
64.739,262
64.764,262
64.789,270
64.814,280
64.839,281
64.864,270
64.889,255
64.914,243
64.939,234
64.964,218
64.989,194
65.014,170
65.039,151
65.064,137
65.089,115
65.114,83
65.139,49
65.164,35
65.189,50
65.214,89
65.239,136
65.264,176
65.289,204
65.314,223
65.339,235
65.364,243
65.389,247
65.414,247
65.439,245
65.464,244
65.489,249
65.514,264
65.539,282
65.564,287
65.589,264
65.614,215
65.639,158
65.664,119
65.689,103
65.714,98
65.739,88
65.764,73
65.789,68
65.814,90
65.839,140
65.864,202
65.889,258
65.914,300
65.939,328
65.964,347
65.989,355
66.014,353
66.039,343
66.064,333
66.089,321
66.114,305
66.139,283
66.164,257
66.189,233
66.214,209
66.239,183
66.264,154
66.289,127
66.314,110
66.339,96
66.364,73
66.389,38
66.414,6
66.439,0
66.464,27
66.489,75
66.514,117
66.539,139
66.564,151
66.589,167
66.614,188
66.639,201
66.664,197
66.689,184
66.714,180
66.739,191
66.764,208
66.789,219
66.814,227
66.839,241
66.864,266
66.889,290
66.914,289
66.939,249
66.964,170
66.989,69
67.014,-35
67.039,-121
67.064,-167
67.089,-159
67.114,-101
67.139,-13
67.164,72
67.189,135
67.214,167
67.239,177
67.264,179
67.289,189
67.314,216
67.339,261
67.364,318
67.389,373
67.414,412
67.439,418
67.464,381
67.489,306
67.514,220
67.539,160
67.564,146
67.589,167
67.614,186
67.639,179
67.664,160
67.689,167
67.714,224
67.739,311
67.764,385
67.789,417
67.814,416
67.839,398
67.864,371
67.889,322
67.914,255
67.939,197
67.964,182
67.989,211
68.014,248
68.039,247
68.064,197
68.089,122
68.114,60
68.139,25
68.164,8
68.189,-6
68.214,-28
68.239,-47
68.264,-51
68.289,-31
68.314,6
68.339,51
68.364,91
68.389,127
68.414,172
68.439,235
68.464,308
68.489,362
68.514,378
68.539,365
68.564,347
68.589,341
68.614,338
68.639,318
68.664,280
68.689,244
68.714,223
68.739,203
68.764,157
68.789,81
68.814,2
68.839,-42
68.864,-49
68.889,-37
68.914,-24
68.939,2
68.964,61
68.989,144
69.014,214
69.039,235
69.064,217
69.089,200
69.114,219
69.139,268
69.164,317
69.189,347
69.214,363
69.239,382
69.264,405
69.289,418
69.314,403
69.339,357
69.364,284
69.389,195
69.414,107
69.439,42
69.464,18
69.489,28
69.514,43
69.539,36
69.564,10
69.589,-4
69.614,21
69.639,81
69.664,145
69.689,183
69.714,194
69.739,198
69.764,211
69.789,235
69.814,254
69.839,262
69.864,260
69.889,255
69.914,247
69.939,233
69.964,212
69.989,190
70.014,172
70.039,159
70.064,145
70.089,127
70.114,108
70.139,91
70.164,78
70.189,67
70.214,52
70.239,38
70.264,38
70.289,62
70.314,112
70.339,171
70.364,219
70.389,245
70.414,251
70.439,252
70.464,256
70.489,263
70.514,267
70.539,268
70.564,267
70.589,270
70.614,271
70.639,266
70.664,254
70.689,242
70.714,237
70.739,239
70.764,240
70.789,232
70.814,217
70.839,198
70.864,177
70.889,153
70.914,128
70.939,116
70.964,129
70.989,167
71.014,216
71.039,261
71.064,294
71.089,318
71.114,332
71.139,331
71.164,309
71.189,272
71.214,237
71.239,224
71.264,239
71.289,270
71.314,299
71.339,308
71.364,285
71.389,232
71.414,168
71.439,117
71.464,95
71.489,90
71.514,71
71.539,17
71.564,-55
71.589,-109
71.614,-114
71.639,-75
71.664,-22
71.689,19
71.714,49
71.739,79
71.764,111
71.789,137
71.814,156
71.839,180
71.864,216
71.889,257
71.914,277
71.939,269
71.964,251
71.989,247
72.014,260
72.039,263
72.064,233
72.089,175
72.114,112
72.139,55
72.164,-3
72.189,-68
72.214,-108
72.239,-76
72.264,39
72.289,190
72.314,302
72.339,341
72.364,332
72.389,323
72.414,329
72.439,322
72.464,280
72.489,219
72.514,190
72.539,222
72.564,289
72.589,337
72.614,330
72.639,278
72.664,219
72.689,180
72.714,163
72.739,156
72.764,150
72.789,142
72.814,130
72.839,118
72.864,111
72.889,122
72.914,155
72.939,205
72.964,255
72.989,295
73.014,325
73.039,351
73.064,375
73.089,392
73.114,397
73.139,393
73.164,388
73.189,387
73.214,386
73.239,377
73.264,352
73.289,318
73.314,286
73.339,263
73.364,246
73.389,223
73.414,183
73.439,125
73.464,58
73.489,2
73.514,-28
73.539,-27
73.564,-2
73.589,21
73.614,17
73.639,-29
73.664,-108
73.689,-190
73.714,-248
73.739,-275
73.764,-281
73.789,-270
73.814,-235
73.839,-163
73.864,-63
73.889,34
73.914,102
73.939,140
73.964,162
73.989,182
74.014,193
74.039,191
74.064,193
74.089,230
74.114,310
74.139,401
74.164,453
74.189,455
74.214,447
74.239,487
74.264,587
74.289,714
74.314,820
74.339,882
74.364,895
74.389,832
74.414,659
74.439,387
74.464,113
74.489,-20
74.514,56
74.539,259
74.564,393
74.589,308
74.614,21
74.639,-287
74.664,-420
74.689,-309
74.714,-53
74.739,163
74.764,216
74.789,110
74.814,-46
74.839,-131
74.864,-85
74.889,62
74.914,225
74.939,312
74.964,273
74.989,128
75.014,-45
75.039,-151
75.064,-124
75.089,23
75.114,203
75.139,307
75.164,280
75.189,156
75.214,33
75.239,-4
75.264,52
75.289,140
75.314,182
75.339,148
75.364,66
75.389,-9
75.414,-41
75.439,-26
75.464,23
75.489,94
75.514,174
75.539,252
75.564,313
75.589,347
75.614,357
75.639,358
75.664,362
75.689,371
75.714,383
75.739,390
75.764,386
75.789,371
75.814,350
75.839,331
75.864,323
75.889,323
75.914,319
75.939,304
75.964,280
75.989,256
76.014,239
76.039,221
76.064,189
76.089,142
76.114,96
76.139,76
76.164,90
76.189,126
76.214,162
76.239,185
76.264,199
76.289,209
76.314,218
76.339,221
76.364,217
76.389,213
76.414,215
76.439,223
76.464,227
76.489,224
76.514,216
76.539,208
76.564,200
76.589,187
76.614,166
76.639,139
76.664,115
76.689,93
76.714,70
76.739,45
76.764,28
76.789,32
76.814,62
76.839,103
76.864,136
76.889,151
76.914,156
76.939,163
76.964,178
76.989,192
77.014,199
77.039,201
77.064,204
77.089,210
77.114,216
77.139,216
77.164,209
77.189,202
77.214,195
77.239,185
77.264,168
77.289,146
77.314,127
77.339,113
77.364,97
77.389,71
77.414,42
77.439,28
77.464,43
77.489,83
77.514,129
77.539,165
77.564,187
77.589,206
77.614,230
77.639,256
77.664,276
77.689,283
77.714,281
77.739,280
77.764,283
77.789,289
77.814,291
77.839,288
77.864,283
77.889,276
77.914,266
77.939,249
77.964,222
77.989,193
78.014,168
78.039,152
78.064,140
78.089,120
78.114,88
78.139,51
78.164,26
78.189,27
78.214,54
78.239,91
78.264,123
78.289,145
78.314,164
78.339,190
78.364,221
78.389,246
78.414,256
78.439,254
78.464,250
78.489,254
78.514,262
78.539,266
78.564,262
78.589,252
78.614,244
78.639,239
78.664,235
78.689,225
78.714,211
78.739,197
78.764,185
78.789,173
78.814,158
78.839,141
78.864,128
78.889,119
78.914,108
78.939,88
78.964,59
78.989,35
79.014,34
79.039,60
79.064,103
79.089,144
79.114,171
79.139,191
79.164,213
79.189,241
79.214,264
79.239,275
79.264,274
79.289,269
79.314,269
79.339,272
79.364,273
79.389,268
79.414,263
79.439,261
79.464,263
79.489,261
79.514,251
79.539,237
79.564,224
79.589,215
79.614,205
79.639,187
79.664,163
79.689,141
79.714,124
79.739,107
79.764,80
79.789,46
79.814,17
79.839,12
79.864,37
79.889,80
79.914,122
79.939,151
79.964,170
79.989,189
80.014,213
80.039,238
80.064,252
80.089,252
80.114,243
80.139,238
80.164,243
80.189,251
80.214,254
80.239,246
80.264,232
80.289,219
80.314,210
80.339,203
80.364,193
80.389,180
80.414,168
80.439,157
80.464,144
80.489,128
80.514,112
80.539,98
80.564,84
80.589,63
80.614,33
80.639,4
80.664,-3
80.689,18
80.714,61
80.739,104
80.764,134
80.789,153
80.814,174
80.839,205
80.864,239
80.889,262
80.914,270
80.939,271
80.964,276
80.989,286
81.014,298
81.039,305
81.064,307
81.089,307
81.114,307
81.139,304
81.164,298
81.189,290
81.214,282
81.239,278
81.264,275
81.289,270
81.314,261
81.339,247
81.364,231
81.389,217
81.414,207
81.439,196
81.464,179
81.489,150
81.514,118
81.539,99
81.564,108
81.589,143
81.614,188
81.639,222
81.664,238
81.689,243
81.714,247
81.739,254
81.764,254
81.789,240
81.814,212
81.839,182
81.864,157
81.889,139
81.914,124
81.939,105
81.964,84
81.989,68
82.014,58
82.039,53
82.064,43
82.089,26
82.114,7
82.139,-1
82.164,11
82.189,42
82.214,80
82.239,108
82.264,119
82.289,113
82.314,92
82.339,59
82.364,25
82.389,5
82.414,20
82.439,76
82.464,155
82.489,230
82.514,280
82.539,309
82.564,333
82.589,363
82.614,392
82.639,409
82.664,407
82.689,397
82.714,390
82.739,387
82.764,381
82.789,365
82.814,343
82.839,326
82.864,316
82.889,306
82.914,287
82.939,259
82.964,231
82.989,207
83.014,186
83.039,160
83.064,126
83.089,94
83.114,71
83.139,52
83.164,26
83.189,-9
83.214,-42
83.239,-49
83.264,-17
83.289,41
83.314,101
83.339,142
83.364,163
83.389,178
83.414,195
83.439,212
83.464,224
83.489,229
83.514,233
83.539,243
83.564,260
83.589,279
83.614,294
83.639,301
83.664,296
83.689,280
83.714,259
83.739,238
83.764,220
83.789,202
83.814,181
83.839,158
83.864,137
83.889,117
83.914,90
83.939,50
83.964,6
83.989,-15
84.014,2
84.039,53
84.064,106
84.089,134
84.114,139
84.139,136
84.164,132
84.189,115
84.214,75
84.239,33
84.264,35
84.289,114
84.314,247
84.339,366
84.364,402
84.389,336
84.414,199
84.439,48
84.464,-62
84.489,-96
84.514,-38
84.539,95
84.564,250
84.589,354
84.614,364
84.639,303
84.664,248
84.689,264
84.714,349
84.739,444
84.764,487
84.789,472
84.814,446
84.839,454
84.864,493
84.889,522
84.914,508
84.939,461
84.964,418
84.989,402
85.014,392
85.039,354
85.064,287
85.089,230
85.114,232
85.139,288
85.164,335
85.189,295
85.214,147
85.239,-58
85.264,-237
85.289,-342
85.314,-382
85.339,-394
85.364,-397
85.389,-375
85.414,-315
85.439,-227
85.464,-137
85.489,-61
85.514,12
85.539,101
85.564,193
85.589,251
85.614,247
85.639,197
85.664,154
85.689,157
85.714,203
85.739,255
85.764,276
85.789,263
85.814,236
85.839,220
85.864,227
85.889,255
85.914,293
85.939,322
85.964,324
85.989,298
86.014,261
86.039,239
86.064,240
86.089,245
86.114,222
86.139,161
86.164,85
86.189,27
86.214,-2
86.239,-23
86.264,-57
86.289,-100
86.314,-125
86.339,-110
86.364,-59
86.389,10
86.414,86
86.439,166
86.464,245
86.489,304
86.514,320
86.539,292
86.564,252
86.589,237
86.614,267
86.639,330
86.664,402
86.689,470
86.714,537
86.739,602
86.764,662
86.789,714
86.814,762
86.839,814
86.864,863
86.889,892
86.914,892
86.939,876
86.964,870
86.989,883
87.014,891
87.039,861
87.064,781
87.089,673
87.114,559
87.139,430
87.164,249
87.189,-12
87.214,-338
87.239,-664
87.264,-919
87.289,-1063
87.314,-1098
87.339,-1048
87.364,-943
87.389,-810
87.414,-669
87.439,-533
87.464,-403
87.489,-281
87.514,-176
87.539,-97
87.564,-42
87.589,2
87.614,57
87.639,120
87.664,176
87.689,206
87.714,211
87.739,202
87.764,185
87.789,150
87.814,95
87.839,44
87.864,35
87.889,89
87.914,190
87.939,293
87.964,368
87.989,412
88.014,442
88.039,461
88.064,463
88.089,443
88.114,417
88.139,407
88.164,422
88.189,445
88.214,452
88.239,434
88.264,401
88.289,372
88.314,354
88.339,341
88.364,328
88.389,308
88.414,284
88.439,259
88.464,242
88.489,241
88.514,254
88.539,269
88.564,274
88.589,264
88.614,246
88.639,235
88.664,235
88.689,240
88.714,241
88.739,235
88.764,226
88.789,218
88.814,212
88.839,206
88.864,199
88.889,192
88.914,183
88.939,169
88.964,152
88.989,138
89.014,127
89.039,119
89.064,111
89.089,105
89.114,108
89.139,119
89.164,127
89.189,115
89.214,81
89.239,46
89.264,36
89.289,61
89.314,108
89.339,151
89.364,176
89.389,185
89.414,188
89.439,190
89.464,189
89.489,184
89.514,180
89.539,182
89.564,191
89.589,200
89.614,206
89.639,208
89.664,210
89.689,213
89.714,215
89.739,213
89.764,205
89.789,195
89.814,179
89.839,159
89.864,142
89.889,142
89.914,171
89.939,224
89.964,280
89.989,315
90.014,321
90.039,310
90.064,296
90.089,287
90.114,274
90.139,245
90.164,196
90.189,136
90.214,80
90.239,34
90.264,-7
90.289,-54
90.314,-109
90.339,-154
90.364,-158
90.389,-103
90.414,0
90.439,109
90.464,182
90.489,208
90.514,205
90.539,204
90.564,212
90.589,216
90.614,210
90.639,210
90.664,243
90.689,310
90.714,375
90.739,391
90.764,342
90.789,260
90.814,198
90.839,184
90.864,205
90.889,228
90.914,228
90.939,206
90.964,178
90.989,155
91.014,138
91.039,127
91.064,118
91.089,108
91.114,96
91.139,89
91.164,98
91.189,130
91.214,177
91.239,218
91.264,240
91.289,251
91.314,269
91.339,299
91.364,328
91.389,336
91.414,321
91.439,299
91.464,292
91.489,301
91.514,311
91.539,312
91.564,305
91.589,300
91.614,298
91.639,291
91.664,271
91.689,244
91.714,222
91.739,211
91.764,202
91.789,181
91.814,147
91.839,110
91.864,81
91.889,59
91.914,30
91.939,-9
91.964,-49
91.989,-65
92.014,-44
92.039,7
92.064,68
92.089,116
92.114,145
92.139,162
92.164,180
92.189,202
92.214,225
92.239,240
92.264,245
92.289,243
92.314,243
92.339,252
92.364,269
92.389,288
92.414,299
92.439,303
92.464,299
92.489,289
92.514,272
92.539,247
92.564,219
92.589,199
92.614,187
92.639,175
92.664,145
92.689,92
92.714,29
92.739,-21
92.764,-50
92.789,-67
92.814,-86
92.839,-106
92.864,-105
92.889,-62
92.914,14
92.939,82
92.964,96
92.989,49
93.014,-18
93.039,-40
93.064,28
93.089,179
93.114,353
93.139,479
93.164,519
93.189,480
93.214,411
93.239,366
93.264,371
93.289,414
93.314,458
93.339,470
93.364,441
93.389,382
93.414,316
93.439,259
93.464,221
93.489,205
93.514,204
93.539,207
93.564,196
93.589,164
93.614,119
93.639,83
93.664,67
93.689,61
93.714,50
93.739,27
93.764,8
93.789,15
93.814,49
93.839,91
93.864,115
93.889,116
93.914,113
93.939,123
93.964,148
93.989,168
94.014,172
94.039,164
94.064,165
94.089,187
94.114,226
94.139,262
94.164,287
94.189,299
94.214,308
94.239,313
94.264,312
94.289,299
94.314,277
94.339,255
94.364,237
94.389,225
94.414,215
94.439,201
94.464,181
94.489,155
94.514,129
94.539,106
94.564,84
94.589,55
94.614,15
94.639,-24
94.664,-43
94.689,-23
94.714,31
94.739,97
94.764,145
94.789,166
94.814,173
94.839,185
94.864,208
94.889,231
94.914,243
94.939,244
94.964,247
94.989,257
95.014,272
95.039,281
95.064,281
95.089,278
95.114,278
95.139,282
95.164,283
95.189,276
95.214,264
95.239,252
95.264,242
95.289,234
95.314,224
95.339,211
95.364,190
95.389,164
95.414,133
95.439,99
95.464,64
95.489,22
95.514,-25
95.539,-70
95.564,-90
95.589,-68
95.614,-4
95.639,77
95.664,149
95.689,194
95.714,219
95.739,240
95.764,264
95.789,286
95.814,300
95.839,302
95.864,299
95.889,295
95.914,292
95.939,288
95.964,286
95.989,289
96.014,299
96.039,310
96.064,314
96.089,307
96.114,295
96.139,286
96.164,282
96.189,279
96.214,270
96.239,255
96.264,241
96.289,240
96.314,256
96.339,280
96.364,298
96.389,301
96.414,289
96.439,271
96.464,252
96.489,230
96.514,201
96.539,163
96.564,119
96.589,69
96.614,9
96.639,-69
96.664,-165
96.689,-257
96.714,-314
96.739,-314
96.764,-259
96.789,-174
96.814,-90
96.839,-23
96.864,25
96.889,70
96.914,120
96.939,172
96.964,221
96.989,258
97.014,286
97.039,307
97.064,324
97.089,335
97.114,339
97.139,338
97.164,332
97.189,318
97.214,285
97.239,233
97.264,175
97.289,138
97.314,139
97.339,171
97.364,207
97.389,226
97.414,226
97.439,220
97.464,216
97.489,208
97.514,188
97.539,163
97.564,158
97.589,195
97.614,266
97.639,345
97.664,399
97.689,418
97.714,408
97.739,382
97.764,348
97.789,309
97.814,270
97.839,235
97.864,201
97.889,165
97.914,127
97.939,94
97.964,68
97.989,42
98.014,9
98.039,-23
98.064,-35
98.089,-2
98.114,70
98.139,150
98.164,201
98.189,215
98.214,211
98.239,215
98.264,230
98.289,242
98.314,238
98.339,224
98.364,218
98.389,226
98.414,238
98.439,240
98.464,231
98.489,220
98.514,214
98.539,206
98.564,187
98.589,161
98.614,137
98.639,123
98.664,110
98.689,83
98.714,43
98.739,12
98.764,18
98.789,67
98.814,135
98.839,191
98.864,221
98.889,233
98.914,243
98.939,257
98.964,265
98.989,262
99.014,252
99.039,245
99.064,245
99.089,247
99.114,244
99.139,236
99.164,226
99.189,216
99.214,202
99.239,181
99.264,158
99.289,142
99.314,132
99.339,120
99.364,96
99.389,64
99.414,43
99.439,55
99.464,100
99.489,161
99.514,215
99.539,248
99.564,265
99.589,276
99.614,287
99.639,292
99.664,287
99.689,276
99.714,266
99.739,262
99.764,262
99.789,257
99.814,243
99.839,226
99.864,211
99.889,200
99.914,186
99.939,162
99.964,134
99.989,110
100.014,93
100.039,76
100.064,50
100.089,18
100.114,0
100.139,15
100.164,65
100.189,128
100.214,177
100.239,201
100.264,209
100.289,216
100.314,226
100.339,232
100.364,229
100.389,222
100.414,220
100.439,226
100.464,236
100.489,238
100.514,230
100.539,216
100.564,200
100.589,185
100.614,169
100.639,155
100.664,143
100.689,134
100.714,125
100.739,118
100.764,113
100.789,108
100.814,96
100.839,71
100.864,41
100.889,28
100.914,53
100.939,113
100.964,182
100.989,231
101.014,253
101.039,261
101.064,275
101.089,295
101.114,310
101.139,310
101.164,301
101.189,294
101.214,296
101.239,300
101.264,297
101.289,286
101.314,274
101.339,264
101.364,251
101.389,231
101.414,205
101.439,184
101.464,170
101.489,159
101.514,143
101.539,121
101.564,100
101.589,85
101.614,69
101.639,43
101.664,7
101.689,-19
101.714,-18
101.739,19
101.764,80
101.789,140
101.814,182
101.839,207
101.864,223
101.889,235
101.914,245
101.939,251
101.964,256
101.989,260
102.014,266
102.039,272
102.064,275
102.089,274
102.114,270
102.139,262
102.164,252
102.189,241
102.214,230
102.239,218
102.264,207
102.289,196
102.314,186
102.339,173
102.364,157
102.389,137
102.414,120
102.439,108
102.464,95
102.489,74
102.514,40
102.539,7
102.564,-3
102.589,23
102.614,81
102.639,146
102.664,194
102.689,218
102.714,231
102.739,248
102.764,267
102.789,281
102.814,281
102.839,275
102.864,272
102.889,279
102.914,290
102.939,295
102.964,292
102.989,284
103.014,278
103.039,272
103.064,263
103.089,250
103.114,234
103.139,220
103.164,209
103.189,197
103.214,182
103.239,165
103.264,152
103.289,143
103.314,133
103.339,116
103.364,86
103.389,50
103.414,26
103.439,30
103.464,67
103.489,123
103.514,176
103.539,207
103.564,219
103.589,223
103.614,230
103.639,238
103.664,239
103.689,233
103.714,238
103.739,270
103.764,326
103.789,382
103.814,409
103.839,397
103.864,361
103.889,328
103.914,307
103.939,290
103.964,261
103.989,212
104.014,152
104.039,93
104.064,46
104.089,14
104.114,-4
104.139,-22
104.164,-57
104.189,-121
104.214,-213
104.239,-303
104.264,-356
104.289,-350
104.314,-293
104.339,-218
104.364,-149
104.389,-98
104.414,-59
104.439,-24
104.464,8
104.489,45
104.514,89
104.539,146
104.564,213
104.589,280
104.614,338
104.639,386
104.664,426
104.689,462
104.714,490
104.739,509
104.764,522
104.789,533
104.814,542
104.839,543
104.864,535
104.889,520
104.914,499
104.939,471
104.964,434
104.989,398
105.014,383
105.039,396
105.064,426
105.089,448
105.114,441
105.139,409
105.164,366
105.189,318
105.214,250
105.239,148
105.264,20
105.289,-99
105.314,-170
105.339,-177
105.364,-131
105.389,-60
105.414,10
105.439,69
105.464,113
105.489,144
105.514,162
105.539,165
105.564,151
105.589,121
105.614,87
105.639,69
105.664,80
105.689,113
105.714,142
105.739,144
105.764,121
105.789,93
105.814,83
105.839,93
105.864,110
105.889,121
105.914,131
105.939,150
105.964,180
105.989,210
106.014,222
106.039,212
106.064,192
106.089,177
106.114,172
106.139,166
106.164,151
106.189,122
106.214,85
106.239,54
106.264,39
106.289,50
106.314,92
106.339,156
106.364,224
106.389,275
106.414,296
106.439,290
106.464,272
106.489,255
106.514,245
106.539,238
106.564,233
106.589,236
106.614,250
106.639,277
106.664,304
106.689,318
106.714,312
106.739,289
106.764,262
106.789,242
106.814,238
106.839,246
106.864,256
106.889,252
106.914,225
106.939,183
106.964,145
106.989,129
107.014,136
107.039,146
107.064,140
107.089,116
107.114,94
107.139,98
107.164,135
107.189,191
107.214,244
107.239,286
107.264,317
107.289,341
107.314,352
107.339,344
107.364,316
107.389,278
107.414,242
107.439,213
107.464,187
107.489,156
107.514,117
107.539,73
107.564,30
107.589,-5
107.614,-27
107.639,-28
107.664,-11
107.689,8
107.714,15
107.739,4
107.764,-18
107.789,-39
107.814,-52
107.839,-68
107.864,-95
107.889,-129
107.914,-148
107.939,-127
107.964,-64
107.989,18
108.014,96
108.039,155
108.064,203
108.089,254
108.114,308
108.139,353
108.164,377
108.189,384
108.214,384
108.239,388
108.264,396
108.289,401
108.314,402
108.339,402
108.364,402
108.389,399
108.414,388
108.439,371
108.464,351
108.489,333
108.514,316
108.539,297
108.564,276
108.589,256
108.614,238
108.639,217
108.664,193
108.689,165
108.714,139
108.739,113
108.764,79
108.789,37
108.814,3
108.839,-1
108.864,35
108.889,94
108.914,145
108.939,170
108.964,175
108.989,182
109.014,202
109.039,227
109.064,241
109.089,241
109.114,238
109.139,242
109.164,251
109.189,254
109.214,247
109.239,235
109.264,228
109.289,227
109.314,226
109.339,220
109.364,208
109.389,195
109.414,182
109.439,172
109.464,163
109.489,153
109.514,139
109.539,122
109.564,103
109.589,88
109.614,77
109.639,63
109.664,40
109.689,10
109.714,-6
109.739,6
109.764,53
109.789,115
109.814,167
109.839,195
109.864,208
109.889,220
109.914,237
109.939,252
109.964,259
109.989,258
110.014,259
110.039,265
110.064,273
110.089,275
110.114,270
110.139,261
110.164,251
110.189,242
110.214,231
110.239,218
110.264,203
110.289,188
110.314,175
110.339,162
110.364,147
110.389,130
110.414,111
110.439,92
110.464,75
110.489,60
110.514,44
110.539,21
110.564,-7
110.589,-26
110.614,-17
110.639,25
110.664,92
110.689,156
110.714,201
110.739,226
110.764,241
110.789,257
110.814,272
110.839,282
110.864,285
110.889,288
110.914,295
110.939,304
110.964,309
110.989,306
111.014,298
111.039,290
111.064,283
111.089,273
111.114,261
111.139,248
111.164,237
111.189,226
111.214,212
111.239,194
111.264,175
111.289,155
111.314,135
111.339,116
111.364,98
111.389,81
111.414,63
111.439,38
111.464,9
111.489,-7
111.514,4
111.539,48
111.564,112
111.589,172
111.614,211
111.639,233
111.664,249
111.689,267
111.714,283
111.739,290
111.764,288
111.789,281
111.814,276
111.839,275
111.864,275
111.889,275
111.914,275
111.939,275
111.964,273
111.989,264
112.014,247
112.039,226
112.064,205
112.089,190
112.114,179
112.139,167
112.164,153
112.189,135
112.214,118
112.239,102
112.264,85
112.289,57
112.314,16
112.339,-30
112.364,-61
112.389,-58
112.414,-19
112.439,40
112.464,96
112.489,136
112.514,161
112.539,183
112.564,204
112.589,223
112.614,234
112.639,240
112.664,247
112.689,260
112.714,276
112.739,289
112.764,294
112.789,294
112.814,292
112.839,287
112.864,276
112.889,258
112.914,238
112.939,222
112.964,210
112.989,198
113.014,184
113.039,168
113.064,154
113.089,139
113.114,119
113.139,88
113.164,51
113.189,21
113.214,12
113.239,31
113.264,72
113.289,119
113.314,158
113.339,183
113.364,195
113.389,203
113.414,210
113.439,218
113.464,227
113.489,234
113.514,242
113.539,251
113.564,263
113.589,275
113.614,281
113.639,280
113.664,270
113.689,255
113.714,238
113.739,225
113.764,219
113.789,217
113.814,213
113.839,201
113.864,184
113.889,170
113.914,164
113.939,163
113.964,154
113.989,129
114.014,98
114.039,86
114.064,109
114.089,164
114.114,226
114.139,271
114.164,293
114.189,306
114.214,321
114.239,338
114.264,344
114.289,336
114.314,319
114.339,308
114.364,304
114.389,297
114.414,279
114.439,250
114.464,220
114.489,192
114.514,164
114.539,126
114.564,79
114.589,34
114.614,1
114.639,-20
114.664,-39
114.689,-62
114.714,-82
114.739,-94
114.764,-99
114.789,-105
114.814,-114
114.839,-116
114.864,-90
114.889,-30
114.914,45
114.939,113
114.964,160
114.989,193
115.014,227
115.039,266
115.064,299
115.089,318
115.114,322
115.139,323
115.164,326
115.189,327
115.214,321
115.239,311
115.264,308
115.289,314
115.314,319
115.339,312
115.364,290
115.389,265
115.414,248
115.439,237
115.464,222
115.489,197
115.514,169
115.539,146
115.564,123
115.589,93
115.614,57
115.639,34
115.664,45
115.689,93
115.714,156
115.739,206
115.764,234
115.789,250
115.814,268
115.839,288
115.864,301
115.889,299
115.914,288
115.939,281
115.964,283
115.989,291
116.014,294
116.039,291
116.064,281
116.089,269
116.114,254
116.139,235
116.164,212
116.189,190
116.214,172
116.239,158
116.264,145
116.289,128
116.314,108
116.339,89
116.364,73
116.389,61
116.414,45
116.439,18
116.464,-16
116.489,-45
116.514,-46
116.539,-12
116.564,47
116.589,106
116.614,148
116.639,172
116.664,193
116.689,217
116.714,243
116.739,259
116.764,264
116.789,264
116.814,269
116.839,279
116.864,286
116.889,286
116.914,280
116.939,272
116.964,265
116.989,257
117.014,245
117.039,230
117.064,216
117.089,204
117.114,192
117.139,179
117.164,163
117.189,147
117.214,131
117.239,117
117.264,103
117.289,87
117.314,64
117.339,36
117.364,14
117.389,14
117.414,45
117.439,99
117.464,154
117.489,193
117.514,216
117.539,233
117.564,252
117.589,270
117.614,282
117.639,282
117.664,279
117.689,282
117.714,291
117.739,298
117.764,298
117.789,290
117.814,280
117.839,271
117.864,262
117.889,249
117.914,233
117.939,218
117.964,205
117.989,193
118.014,179
118.039,160
118.064,139
118.089,119
118.114,103
118.139,91
118.164,75
118.189,50
118.214,18
118.239,-7
118.264,-11
118.289,15
118.314,67
118.339,122
118.364,165
118.389,190
118.414,206
118.439,220
118.464,235
118.489,245
118.514,249
118.539,248
118.564,250
118.589,255
118.614,259
118.639,259
118.664,256
118.689,253
118.714,251
118.739,248
118.764,242
118.789,230
118.814,215
118.839,200
118.864,187
118.889,176
118.914,164
118.939,150
118.964,135
118.989,121
119.014,107
119.039,90
119.064,66
119.089,36
119.114,10
119.139,6
119.164,34
119.189,86
119.214,142
119.239,184
119.264,207
119.289,221
119.314,236
119.339,253
119.364,265
119.389,268
119.414,266
119.439,265
119.464,270
119.489,274
119.514,272
119.539,262
119.564,252
119.589,244
119.614,238
119.639,230
119.664,217
119.689,203
119.714,192
119.739,184
119.764,176
119.789,166
119.814,152
119.839,138
119.864,126
119.889,113
119.914,92
119.939,65
119.964,44
119.989,45
120.014,75
120.039,127
120.064,179
120.089,215
120.114,233
120.139,241
120.164,250
120.189,260
120.214,266
120.239,264
120.264,259
120.289,260
120.314,265
120.339,269
120.364,265
120.389,254
120.414,241
120.439,232
120.464,224
120.489,211
120.514,192
120.539,174
120.564,161
120.589,151
120.614,137
120.639,119
120.664,100
120.689,84
120.714,68
120.739,45
120.764,15
120.789,-4
120.814,4
120.839,47
120.864,109
120.889,165
120.914,200
120.939,219
120.964,234
120.989,249
121.014,261
121.039,265
121.064,264
121.089,265
121.114,273
121.139,280
121.164,280
121.189,272
121.214,262
121.239,254
121.264,247
121.289,235
121.314,217
121.339,196
121.364,179
121.389,163
121.414,146
121.439,128
121.464,112
121.489,101
121.514,88
121.539,67
121.564,38
121.589,15
121.614,19
121.639,56
121.664,114
121.689,170
121.714,207
121.739,227
121.764,240
121.789,253
121.814,265
121.839,270
121.864,270
121.889,268
121.914,270
121.939,276
121.964,279
121.989,277
122.014,270
122.039,260
122.064,247
122.089,230
122.114,211
122.139,194
122.164,180
122.189,167
122.214,152
122.239,132
122.264,113
122.289,98
122.314,84
122.339,63
122.364,35
122.389,11
122.414,11
122.439,44
122.464,100
122.489,155
122.514,192
122.539,211
122.564,226
122.589,244
122.614,261
122.639,268
122.664,264
122.689,259
122.714,262
122.739,273
122.764,281
122.789,279
122.814,271
122.839,261
122.864,250
122.889,236
122.914,217
122.939,197
122.964,182
122.989,170
123.014,154
123.039,133
123.064,111
123.089,95
123.114,82
123.139,61
123.164,29
123.189,1
123.214,0
123.239,36
123.264,97
123.289,154
123.314,191
123.339,211
123.364,229
123.389,252
123.414,272
123.439,279
123.464,276
123.489,271
123.514,274
123.539,283
123.564,290
123.589,289
123.614,281
123.639,269
123.664,255
123.689,238
123.714,221
123.739,203
123.764,187
123.789,169
123.814,151
123.839,135
123.864,121
123.889,106
123.914,80
123.939,46
123.964,21
123.989,25
124.014,65
124.039,123
124.064,173
124.089,200
124.114,208
124.139,214
124.164,225
124.189,237
124.214,241
124.239,237
124.264,233
124.289,235
124.314,239
124.339,239
124.364,231
124.389,221
124.414,213
124.439,205
124.464,192
124.489,172
124.514,150
124.539,133
124.564,124
124.589,114
124.614,92
124.639,60
124.664,36
124.689,39
124.714,73
124.739,126
124.764,175
124.789,206
124.814,222
124.839,234
124.864,250
124.889,267
124.914,275
124.939,271
124.964,262
124.989,257
125.014,261
125.039,269
125.064,271
125.089,263
125.114,247
125.139,229
125.164,211
125.189,193
125.214,175
125.239,155
125.264,136
125.289,121
125.314,110
125.339,99
125.364,80
125.389,49
125.414,17
125.439,4
125.464,25
125.489,77
125.514,137
125.539,183
125.564,206
125.589,218
125.614,234
125.639,256
125.664,273
125.689,276
125.714,271
125.739,270
125.764,277
125.789,285
125.814,284
125.839,272
125.864,258
125.889,249
125.914,244
125.939,232
125.964,210
125.989,186
126.014,168
126.039,157
126.064,144
126.089,127
126.114,108
126.139,92
126.164,75
126.189,48
126.214,13
126.239,-13
126.264,-8
126.289,33
126.314,94
126.339,148
126.364,181
126.389,199
126.414,220
126.439,248
126.464,273
126.489,286
126.514,285
126.539,282
126.564,283
126.589,289
126.614,291
126.639,288
126.664,282
126.689,274
126.714,266
126.739,255
126.764,241
126.789,225
126.814,210
126.839,196
126.864,182
126.889,167
126.914,150
126.939,131
126.964,111
126.989,93
127.014,78
127.039,62
127.064,38
127.089,7
127.114,-17
127.139,-15
127.164,21
127.189,82
127.214,142
127.239,180
127.264,199
127.289,213
127.314,232
127.339,254
127.364,267
127.389,270
127.414,268
127.439,271
127.464,280
127.489,287
127.514,287
127.539,281
127.564,274
127.589,268
127.614,258
127.639,243
127.664,224
127.689,208
127.714,195
127.739,185
127.764,174
127.789,158
127.814,140
127.839,122
127.864,108
127.889,98
127.914,87
127.939,70
127.964,43
127.989,16
128.014,5
128.039,23
128.064,69
128.089,125
128.114,168
128.139,191
128.164,205
128.189,223
128.214,245
128.239,263
128.264,266
128.289,259
128.314,253
128.339,257
128.364,269
128.389,278
128.414,278
128.439,269
128.464,259
128.489,250
128.514,244
128.539,235
128.564,224
128.589,214
128.614,207
128.639,202
128.664,195
128.689,184
128.714,168
128.739,153
128.764,141
128.789,129
128.814,111
128.839,87
128.864,65
128.889,61
128.914,86
128.939,135
128.964,190
128.989,232
129.014,258
129.039,276
129.064,295
129.089,314
129.114,324
129.139,321
129.164,310
129.189,299
129.214,290
129.239,277
129.264,256
129.289,228
129.314,202
129.339,182
129.364,166
129.389,148
129.414,124
129.439,100
129.464,79
129.489,64
129.514,50
129.539,37
129.564,25
129.589,14
129.614,-1
129.639,-22
129.664,-42
129.689,-48
129.714,-25
129.739,23
129.764,80
129.789,128
129.814,161
129.839,184
129.864,205
129.889,227
129.914,243
129.939,248
129.964,247
129.989,245
130.014,248
130.039,252
130.064,252
130.089,247
130.114,243
130.139,241
130.164,237
130.189,228
130.214,213
130.239,201
130.264,200
130.289,206
130.314,208
130.339,196
130.364,173
130.389,156
130.414,163
130.439,196
130.464,241
130.489,278
130.514,300
130.539,311
130.564,318
130.589,324
130.614,323
130.639,312
130.664,295
130.689,281
130.714,274
130.739,270
130.764,263
130.789,250
130.814,232
130.839,214
130.864,196
130.889,176
130.914,153
130.939,130
130.964,111
130.989,95
131.014,74
131.039,46
131.064,17
131.089,2
131.114,13
131.139,46
131.164,85
131.189,115
131.214,133
131.239,147
131.264,164
131.289,184
131.314,198
131.339,203
131.364,201
131.389,200
131.414,204
131.439,209
131.464,210
131.489,204
131.514,196
131.539,185
131.564,169
131.589,147
131.614,124
131.639,107
131.664,96
131.689,83
131.714,61
131.739,34
131.764,22
131.789,40
131.814,89
131.839,151
131.864,203
131.889,238
131.914,259
131.939,277
131.964,294
131.989,304
132.014,305
132.039,301
132.064,299
132.089,302
132.114,307
132.139,306
132.164,299
132.189,286
132.214,270
132.239,253
132.264,235
132.289,215
132.314,196
132.339,177
132.364,161
132.389,149
132.414,136
132.439,115
132.464,85
132.489,52
132.514,34
132.539,48
132.564,91
132.589,145
132.614,188
132.639,211
132.664,224
132.689,243
132.714,268
132.739,289
132.764,295
132.789,286
132.814,274
132.839,268
132.864,270
132.889,271
132.914,265
132.939,252
132.964,238
132.989,225
133.014,211
133.039,194
133.064,176
133.089,160
133.114,147
133.139,133
133.164,118
133.189,101
133.214,87
133.239,75
133.264,58
133.289,33
133.314,6
133.339,-5
133.364,10
133.389,53
133.414,100
133.439,132
133.464,144
133.489,148
133.514,159
133.539,175
133.564,185
133.589,179
133.614,163
133.639,155
133.664,165
133.689,187
133.714,212
133.739,234
133.764,256
133.789,280
133.814,299
133.839,302
133.864,284
133.889,252
133.914,221
133.939,196
133.964,177
133.989,161
134.014,146
134.039,131
134.064,108
134.089,74
134.114,39
134.139,24
134.164,47
134.189,105
134.214,172
134.239,219
134.264,241
134.289,254
134.314,276
134.339,306
134.364,330
134.389,335
134.414,327
134.439,319
134.464,321
134.489,323
134.514,311
134.539,282
134.564,246
134.589,220
134.614,207
134.639,201
134.664,190
134.689,170
134.714,146
134.739,123
134.764,99
134.789,69
134.814,36
134.839,14
134.864,15
134.889,43
134.914,84
134.939,120
134.964,143
134.989,159
135.014,179
135.039,206
135.064,231
135.089,245
135.114,248
135.139,249
135.164,259
135.189,273
135.214,279
135.239,271
135.264,252
135.289,235
135.314,225
135.339,215
135.364,198
135.389,175
135.414,150
135.439,127
135.464,100
135.489,62
135.514,20
135.539,-7
135.564,-2
135.589,34
135.614,79
135.639,111
135.664,123
135.689,130
135.714,146
135.739,171
135.764,189
135.789,190
135.814,178
135.839,168
135.864,168
135.889,176
135.914,179
135.939,173
135.964,161
135.989,152
136.014,146
136.039,141
136.064,133
136.089,122
136.114,111
136.139,103
136.164,98
136.189,94
136.214,91
136.239,83
136.264,68
136.289,55
136.314,62
136.339,103
136.364,174
136.389,250
136.414,305
136.439,338
136.464,369
136.489,416
136.514,474
136.539,522
136.564,549
136.589,572
136.614,622
136.639,702
136.664,778
136.689,797
136.714,730
136.739,592
136.764,427
136.789,270
136.814,133
136.839,14
136.864,-82
136.889,-147
136.914,-169
136.939,-149
136.964,-98
136.989,-30
137.014,39
137.039,102
137.064,151
137.089,188
137.114,216
137.139,236
137.164,231
137.189,184
137.214,92
137.239,-15
137.264,-94
137.289,-114
137.314,-83
137.339,-34
137.364,-2
137.389,6
137.414,9
137.439,24
137.464,51
137.489,71
137.514,69
137.539,45
137.564,14
137.589,-4
137.614,2
137.639,39
137.664,106
137.689,197
137.714,290
137.739,356
137.764,368
137.789,322
137.814,244
137.839,176
137.864,148
137.889,165
137.914,207
137.939,246
137.964,269
137.989,276
138.014,277
138.039,280
138.064,287
138.089,296
138.114,303
138.139,302
138.164,292
138.189,271
138.214,249
138.239,231
138.264,220
138.289,212
138.314,201
138.339,186
138.364,171
138.389,160
138.414,149
138.439,131
138.464,101
138.489,67
138.514,44
138.539,44
138.564,70
138.589,113
138.614,161
138.639,202
138.664,233
138.689,253
138.714,262
138.739,264
138.764,263
138.789,262
138.814,262
138.839,262
138.864,259
138.889,254
138.914,251
138.939,250
138.964,247
138.989,236
139.014,214
139.039,186
139.064,163
139.089,153
139.114,151
139.139,144
139.164,120
139.189,85
139.214,57
139.239,57
139.264,90
139.289,141
139.314,188
139.339,219
139.364,235
139.389,244
139.414,252
139.439,256
139.464,252
139.489,243
139.514,235
139.539,234
139.564,239
139.589,244
139.614,243
139.639,236
139.664,226
139.689,214
139.714,200
139.739,183
139.764,167
139.789,155
139.814,146
139.839,134
139.864,112
139.889,84
139.914,67
139.939,77
139.964,117
139.989,173
140.014,224
140.039,255
140.064,267
140.089,271
140.114,274
140.139,276
140.164,273
140.189,265
140.214,257
140.239,255
140.264,258
140.289,258
140.314,252
140.339,240
140.364,227
140.389,212
140.414,194
140.439,169
140.464,141
140.489,115
140.514,90
140.539,62
140.564,25
140.589,-12
140.614,-34
140.639,-24
140.664,16
140.689,66
140.714,101
140.739,112
140.764,111
140.789,112
140.814,117
140.839,114
140.864,92
140.889,56
140.914,28
140.939,20
140.964,23
140.989,14
141.014,-18
141.039,-54
141.064,-54
141.089,12
141.114,140
141.139,294
141.164,427
141.189,508
141.214,527
141.239,498
141.264,445
141.289,397
141.314,370
141.339,363
141.364,363
141.389,357
141.414,346
141.439,339
141.464,341
141.489,348
141.514,346
141.539,329
141.564,303
141.589,279
141.614,264
141.639,257
141.664,251
141.689,240
141.714,222
141.739,204
141.764,187
141.789,173
141.814,155
141.839,128
141.864,89
141.889,52
141.914,35
141.939,50
141.964,90
141.989,132
142.014,156
142.039,162
142.064,159
142.089,154
142.114,141
142.139,114
142.164,79
142.189,56
142.214,57
142.239,75
142.264,93
142.289,98
142.314,94
142.339,90
142.364,88
142.389,82
142.414,70
142.439,61
142.464,62
142.489,69
142.514,73
142.539,76
142.564,96
142.589,149
142.614,225
142.639,291
142.664,320
142.689,314
142.714,301
142.739,306
142.764,327
142.789,345
142.814,347
142.839,336
142.864,325
142.889,315
142.914,298
142.939,268
142.964,233
142.989,202
143.014,181
143.039,161
143.064,138
143.089,117
143.114,101
143.139,87
143.164,66
143.189,34
143.214,10
143.239,19
143.264,68
143.289,135
143.314,186
143.339,202
143.364,197
143.389,199
143.414,224
143.439,260
143.464,289
143.489,301
143.514,303
143.539,302
143.564,298
143.589,284
143.614,262
143.639,242
143.664,226
143.689,209
143.714,185
143.739,156
143.764,135
143.789,127
143.814,121
143.839,101
143.864,59
143.889,9
143.914,-29
143.939,-49
143.964,-45
143.989,-15
144.014,36
144.039,97
144.064,143
144.089,160
144.114,158
144.139,159
144.164,173
144.189,181
144.214,166
144.239,133
144.264,111
144.289,109
144.314,112
144.339,98
144.364,72
144.389,57
144.414,61
144.439,64
144.464,46
144.489,19
144.514,16
144.539,40
144.564,59
144.589,42
144.614,6
144.639,-3
144.664,21
144.689,39
144.714,13
144.739,-24
144.764,-10
144.789,74
144.814,169
144.839,204
144.864,189
144.889,199
144.914,268
144.939,348
144.964,379
144.989,378
145.014,427
145.039,553
145.064,686
145.089,745
145.114,756
145.139,816
145.164,959
145.189,1092
145.214,1114
145.239,1068
145.264,1097
145.289,1255
145.314,1416
145.339,1436
145.364,1360
145.389,1384
145.414,1585
145.439,1781
145.464,1749
145.489,1559
145.514,1564
145.539,1955
145.564,2394
145.589,2241
145.614,1235
145.639,-107
145.664,-904
145.689,-771
145.714,-251
145.739,-321
145.764,-1416
145.789,-2959
145.814,-3845
145.839,-3486
145.864,-2475
145.889,-2298
145.914,-4269
145.939,-8413
145.964,-13110
145.989,-15836
146.014,-14658
146.039,-9580
146.064,-2729
146.089,2918
146.114,5450
146.139,5201
146.164,4257
146.189,4704
146.214,7042
146.239,10008
146.264,11807
146.289,11584
146.314,9884
146.339,7879
146.364,6225
146.389,4680
146.414,2747
146.439,602
146.464,-736
146.489,-241
146.514,2068
146.539,4956
146.564,6924
146.589,7378
146.614,6843
146.639,6017
146.664,4747
146.689,2135
146.714,-2235
146.739,-7276
146.764,-10809
146.789,-11230
146.814,-8852
146.839,-5630
146.864,-3562
146.889,-3285
146.914,-4034
146.939,-4702
146.964,-4788
146.989,-4464
147.014,-4049
147.039,-3659
147.064,-3292
147.089,-3014
147.114,-2881
147.139,-2747
147.164,-2324
147.189,-1497
147.214,-504
147.239,284
147.264,752
147.289,1118
147.314,1638
147.339,2277
147.364,2751
147.389,2863
147.414,2712
147.439,2559
147.464,2546
147.489,2594
147.514,2565
147.539,2443
147.564,2318
147.589,2238
147.614,2154
147.639,1994
147.664,1776
147.689,1581
147.714,1459
147.739,1377
147.764,1282
147.789,1164
147.814,1052
147.839,960
147.864,863
147.889,743
147.914,615
147.939,510
147.964,426
147.989,335
148.014,222
148.039,114
148.064,43
148.089,8
148.114,-26
148.139,-84
148.164,-147
148.189,-180
148.214,-180
148.239,-175
148.264,-190
148.289,-223
148.314,-254
148.339,-278
148.364,-306
148.389,-339
148.414,-355
148.439,-327
148.464,-256
148.489,-174
148.514,-109
148.539,-67
148.564,-30
148.589,12
148.614,54
148.639,82
148.664,93
148.689,99
148.714,112
148.739,132
148.764,147
148.789,149
148.814,142
148.839,133
148.864,126
148.889,119
148.914,106
148.939,86
148.964,65
148.989,51
149.014,45
149.039,39
149.064,20
149.089,-9
149.114,-30
149.139,-18
149.164,32
149.189,105
149.214,168
149.239,207
149.264,227
149.289,244
149.314,262
149.339,274
149.364,276
149.389,273
149.414,276
149.439,287
149.464,298
149.489,298
149.514,287
149.539,271
149.564,259
149.589,246
149.614,229
149.639,208
149.664,189
149.689,177
149.714,166
149.739,146
149.764,118
149.789,92
149.814,85
149.839,104
149.864,139
149.889,165
149.914,162
149.939,131
149.964,97
149.989,98
150.014,149
150.039,229
150.064,289
150.089,296
150.114,266
150.139,255
150.164,307
150.189,407
150.214,477
150.239,440
150.264,274
150.289,31
150.314,-198
150.339,-341
150.364,-367
150.389,-291
150.414,-167
150.439,-67
150.464,-38
150.489,-67
150.514,-76
150.539,16
150.564,218
150.589,430
150.614,515
150.639,409
150.664,177
150.689,-32
150.714,-108
150.739,-47
150.764,67
150.789,144
150.814,151
150.839,119
150.864,93
150.889,102
150.914,140
150.939,182
150.964,207
150.989,216
151.014,234
151.039,291
151.064,382
151.089,456
151.114,453
151.139,355
151.164,207
151.189,87
151.214,37
151.239,37
151.264,42
151.289,32
151.314,29
151.339,60
151.364,116
151.389,169
151.414,205
151.439,246
151.464,319
151.489,414
151.514,485
151.539,493
151.564,451
151.589,406
151.614,390
151.639,393
151.664,374
151.689,317
151.714,239
151.739,173
151.764,126
151.789,84
151.814,33
151.839,-16
151.864,-40
151.889,-20
151.914,30
151.939,91
151.964,144
151.989,185
152.014,215
152.039,232
152.064,234
152.089,221
152.114,202
152.139,183
152.164,164
152.189,146
152.214,131
152.239,118
152.264,105
152.289,87
152.314,67
152.339,57
152.364,67
152.389,91
152.414,105
152.439,93
152.464,65
152.489,47
152.514,59
152.539,89
152.564,108
152.589,97
152.614,72
152.639,66
152.664,98
152.689,156
152.714,211
152.739,244
152.764,260
152.789,271
152.814,279
152.839,280
152.864,273
152.889,270
152.914,281
152.939,301
152.964,312
152.989,294
153.014,251
153.039,205
153.064,174
153.089,161
153.114,154
153.139,142
153.164,125
153.189,110
153.214,105
153.239,107
153.264,106
153.289,95
153.314,72
153.339,46
153.364,29
153.389,33
153.414,61
153.439,104
153.464,145
153.489,172
153.514,182
153.539,184
153.564,185
153.589,189
153.614,196
153.639,206
153.664,219
153.689,233
153.714,242
153.739,242
153.764,233
153.789,222
153.814,213
153.839,208
153.864,201
153.889,192
153.914,180
153.939,169
153.964,160
153.989,145
154.014,122
154.039,94
154.064,79
154.089,91
154.114,133
154.139,191
154.164,243
154.189,274
154.214,285
154.239,283
154.264,276
154.289,263
154.314,247
154.339,234
154.364,230
154.389,236
154.414,245
154.439,250
154.464,248
154.489,240
154.514,228
154.539,211
154.564,195
154.589,186
154.614,189
154.639,191
154.664,163
154.689,88
154.714,-20
154.739,-124
154.764,-180
154.789,-174
154.814,-122
154.839,-51
154.864,20
154.889,84
154.914,136
154.939,169
154.964,180
154.989,182
155.014,194
155.039,225
155.064,265
155.089,294
155.114,300
155.139,293
155.164,286
155.189,282
155.214,274
155.239,252
155.264,222
155.289,197
155.314,182
155.339,170
155.364,152
155.389,131
155.414,123
155.439,144
155.464,186
155.489,228
155.514,250
155.539,251
155.564,245
155.589,244
155.614,249
155.639,250
155.664,240
155.689,225
155.714,212
155.739,204
155.764,196
155.789,183
155.814,165
155.839,149
155.864,136
155.889,127
155.914,122
155.939,118
155.964,114
155.989,101
156.014,77
156.039,49
156.064,36
156.089,53
156.114,100
156.139,155
156.164,195
156.189,210
156.214,210
156.239,208
156.264,209
156.289,208
156.314,202
156.339,194
156.364,191
156.389,192
156.414,192
156.439,187
156.464,178
156.489,168
156.514,158
156.539,145
156.564,129
156.589,114
156.614,104
156.639,92
156.664,72
156.689,47
156.714,33
156.739,46
156.764,88
156.789,139
156.814,178
156.839,199
156.864,208
156.889,215
156.914,221
156.939,224
156.964,222
156.989,221
157.014,226
157.039,234
157.064,239
157.089,236
157.114,232
157.139,229
157.164,225
157.189,217
157.214,203
157.239,189
157.264,177
157.289,163
157.314,140
157.339,113
157.364,97
157.389,109
157.414,146
157.439,188
157.464,217
157.489,228
157.514,230
157.539,233
157.564,237
157.589,237
157.614,227
157.639,215
157.664,205
157.689,202
157.714,202
157.739,203
157.764,203
157.789,199
157.814,191
157.839,179
157.864,165
157.889,150
157.914,130
157.939,101
157.964,64
157.989,31
158.014,18
158.039,31
158.064,59
158.089,88
158.114,107
158.139,120
158.164,136
158.189,159
158.214,181
158.239,191
158.264,186
158.289,174
158.314,169
158.339,172
158.364,180
158.389,183
158.414,178
158.439,169
158.464,162
158.489,156
158.514,148
158.539,140
158.564,133
158.589,131
158.614,127
158.639,112
158.664,84
158.689,60
158.714,61
158.739,99
158.764,159
158.789,212
158.814,242
158.839,254
158.864,268
158.889,294
158.914,325
158.939,341
158.964,336
158.989,320
159.014,307
159.039,302
159.064,300
159.089,292
159.114,278
159.139,262
159.164,249
159.189,236
159.214,221
159.239,204
159.264,187
159.289,170
159.314,152
159.339,133
159.364,113
159.389,89
159.414,55
159.439,12
159.464,-25
159.489,-39
159.514,-18
159.539,25
159.564,69
159.589,94
159.614,105
159.639,117
159.664,142
159.689,174
159.714,197
159.739,202
159.764,199
159.789,198
159.814,208
159.839,220
159.864,224
159.889,217
159.914,204
159.939,195
159.964,191
159.989,186
160.014,177
160.039,163
160.064,152
160.089,149
160.114,150
160.139,150
160.164,144
160.189,137
160.214,131
160.239,125
160.264,111
160.289,83
160.314,51
160.339,37
160.364,56
160.389,103
160.414,157
160.439,197
160.464,220
160.489,235
160.514,256
160.539,280
160.564,299
160.589,304
160.614,299
160.639,293
160.664,291
160.689,288
160.714,278
160.739,259
160.764,235
160.789,211
160.814,191
160.839,174
160.864,160
160.889,150
160.914,144
160.939,140
160.964,135
160.989,125
161.014,111
161.039,96
161.064,83
161.089,70
161.114,52
161.139,26
161.164,-2
161.189,-18
161.214,-4
161.239,37
161.264,92
161.289,138
161.314,165
161.339,179
161.364,195
161.389,216
161.414,234
161.439,240
161.464,235
161.489,231
161.514,236
161.539,248
161.564,256
161.589,254
161.614,247
161.639,242
161.664,239
161.689,234
161.714,223
161.739,210
161.764,198
161.789,189
161.814,178
161.839,162
161.864,145
161.889,130
161.914,118
161.939,101
161.964,74
161.989,44
162.014,31
162.039,50
162.064,95
162.089,145
162.114,179
162.139,194
162.164,200
162.189,212
162.214,232
162.239,251
162.264,260
162.289,258
162.314,257
162.339,262
162.364,272
162.389,280
162.414,279
162.439,271
162.464,262
162.489,254
162.514,244
162.539,232
162.564,220
162.589,210
162.614,201
162.639,189
162.664,174
162.689,161
162.714,154
162.739,148
162.764,137
162.789,118
162.814,102
162.839,105
162.864,135
162.889,180
162.914,223
162.939,246
162.964,247
162.989,228
163.014,196
163.039,163
163.064,141
163.089,140
163.114,156
163.139,175
163.164,184
163.189,180
163.214,169
163.239,154
163.264,127
163.289,83
163.314,30
163.339,-12
163.364,-30
163.389,-26
163.414,-16
163.439,-13
163.464,-17
163.489,-25
163.514,-44
163.539,-84
163.564,-140
163.589,-182
163.614,-178
163.639,-122
163.664,-42
163.689,25
163.714,62
163.739,83
163.764,112
163.789,159
163.814,211
163.839,256
163.864,290
163.889,319
163.914,350
163.939,383
163.964,412
163.989,431
164.014,442
164.039,449
164.064,454
164.089,458
164.114,456
164.139,444
164.164,424
164.189,402
164.214,381
164.239,358
164.264,328
164.289,289
164.314,255
164.339,245
164.364,264
164.389,301
164.414,336
164.439,352
164.464,352
164.489,345
164.514,336
164.539,321
164.564,302
164.589,284
164.614,276
164.639,274
164.664,269
164.689,254
164.714,234
164.739,214
164.764,196
164.789,174
164.814,147
164.839,118
164.864,90
164.889,55
164.914,10
164.939,-37
164.964,-63
164.989,-58
165.014,-35
165.039,-22
165.064,-33
165.089,-58
165.114,-83
165.139,-109
165.164,-154
165.189,-221
165.214,-300
165.239,-373
165.264,-438
165.289,-506
165.314,-583
165.339,-659
165.364,-726
165.389,-795
165.414,-877
165.439,-970
165.464,-1054
165.489,-1119
165.514,-1181
165.539,-1259
165.564,-1341
165.589,-1385
165.614,-1365
165.639,-1308
165.664,-1263
165.689,-1246
165.714,-1226
165.739,-1169
165.764,-1089
165.789,-1020
165.814,-967
165.839,-893
165.864,-768
165.889,-615
165.914,-472
165.939,-339
165.964,-171
165.989,61
166.014,320
166.039,553
166.064,773
166.089,1049
166.114,1409
166.139,1788
166.164,2114
166.189,2426
166.214,2839
166.239,3385
166.264,3944
166.289,4410
166.314,4862
166.339,5481
166.364,6227
166.389,6731
166.414,6661
166.439,6210
166.464,6055
166.489,6620
166.514,7412
166.539,7298
166.564,5617
166.589,2980
166.614,809
166.639,30
166.664,342
166.689,856
166.714,1273
166.739,2106
166.764,3618
166.789,4801
166.814,3859
166.839,-14
166.864,-5467
166.889,-9847
166.914,-11403
166.939,-10623
166.964,-9411
166.989,-9049
167.014,-9106
167.039,-8261
167.064,-5960
167.089,-3090
167.114,-1109
167.139,-743
167.164,-1583
167.189,-2752
167.214,-3714
167.239,-4409
167.264,-4869
167.289,-4992
167.314,-4732
167.339,-4329
167.364,-4171
167.389,-4373
167.414,-4565
167.439,-4131
167.464,-2684
167.489,-383
167.514,2120
167.539,4001
167.564,4713
167.589,4363
167.614,3756
167.639,3948
167.664,5494
167.689,8011
167.714,10471
167.739,12032
167.764,12583
167.789,12548
167.814,12249
167.839,11640
167.864,10666
167.889,9653
167.914,9070
167.939,8844
167.964,8160
167.989,6198
168.014,3084
168.039,-95
168.064,-2391
168.089,-4004
168.114,-6041
168.139,-9227
168.164,-13029
168.189,-16192
168.214,-18043
168.239,-19059
168.264,-20120
168.289,-21403
168.314,-22183
168.339,-21613
168.364,-19439
168.389,-15916
168.414,-11375
168.439,-6260
168.464,-1543
168.489,1350
168.514,1496
168.539,-584
168.564,-3161
168.589,-4633
168.614,-4633
168.639,-3858
168.664,-3054
168.689,-2436
168.714,-1977
168.739,-1786
168.764,-1853
168.789,-1610
168.814,-236
168.839,2390
168.864,5353
168.889,7726
168.914,9898
168.939,13441
168.964,19349
168.989,26624
169.014,32767
169.039,32767
169.064,32767
169.089,32767
169.114,32767
169.139,32767
169.164,32767
169.189,31205
169.214,15101
169.239,229
169.264,-9727
169.289,-13517
169.314,-11996
169.339,-7422
169.364,-2942
169.389,-1709
169.414,-5344
169.439,-12815
169.464,-21076
169.489,-27195
169.514,-30085
169.539,-30279
169.564,-28324
169.589,-23745
169.614,-15610
169.639,-3908
169.664,9723
169.689,22334
169.714,30469
169.739,31067
169.764,22752
169.789,7340
169.814,-9852
169.839,-22272
169.864,-26127
169.889,-22903
169.914,-17809
169.939,-15162
169.964,-14935
169.989,-13722
170.014,-9027
170.039,-2446
170.064,1445
170.089,-755
170.114,-8288
170.139,-17082
170.164,-23102
170.189,-24696
170.214,-22164
170.239,-16035
170.264,-6511
170.289,5417
170.314,17049
170.339,24923
170.364,27040
170.389,24088
170.414,18441
170.439,12087
170.464,5646
170.489,-810
170.514,-6558
170.539,-10272
170.564,-11300
170.589,-10499
170.614,-9484
170.639,-9042
170.664,-8489
170.689,-6679
170.714,-3501
170.739,-171
170.764,1964
170.789,2753
170.814,3249
170.839,4501
170.864,6492
170.889,8283
170.914,9044
170.939,8788
170.964,8156
170.989,7693
171.014,7443
171.039,7164
171.064,6727
171.089,6226
171.114,5779
171.139,5367
171.164,4906
171.189,4385
171.214,3881
171.239,3444
171.264,3043
171.289,2627
171.314,2201
171.339,1814
171.364,1483
171.389,1171
171.414,841
171.439,505
171.464,208
171.489,-31
171.514,-237
171.539,-436
171.564,-626
171.589,-785
171.614,-903
171.639,-983
171.664,-1019
171.689,-1002
171.714,-943
171.739,-883
171.764,-867
171.789,-892
171.814,-909
171.839,-879
171.864,-812
171.889,-747
171.914,-709
171.939,-688
171.964,-661
171.989,-619
172.014,-581
172.039,-557
172.064,-544
172.089,-528
172.114,-503
172.139,-471
172.164,-436
172.189,-401
172.214,-370
172.239,-349
172.264,-339
172.289,-331
172.314,-311
172.339,-285
172.364,-270
172.389,-276
172.414,-286
172.439,-270
172.464,-209
172.489,-117
172.514,-21
172.539,57
172.564,117
172.589,166
172.614,205
172.639,230
172.664,238
172.689,236
172.714,227
172.739,213
172.764,192
172.789,166
172.814,148
172.839,146
172.864,152
172.889,142
172.914,101
172.939,29
172.964,-51
172.989,-117
173.014,-157
173.039,-183
173.064,-214
173.089,-261
173.114,-317
173.139,-359
173.164,-362
173.189,-318
173.214,-241
173.239,-152
173.264,-65
173.289,17
173.314,94
173.339,158
173.364,199
173.389,223
173.414,251
173.439,301
173.464,369
173.489,429
173.514,467
173.539,490
173.564,516
173.589,546
173.614,566
173.639,570
173.664,575
173.689,604
173.714,650
173.739,677
173.764,671
173.789,664
173.814,698
173.839,759
173.864,756
173.889,602
173.914,315
173.939,37
173.964,-84
173.989,-19
174.014,119
174.039,196
174.064,170
174.089,115
174.114,117
174.139,176
174.164,216
174.189,181
174.214,96
174.239,37
174.264,39
174.289,59
174.314,27
174.339,-83
174.364,-228
174.389,-347
174.414,-414
174.439,-445
174.464,-458
174.489,-445
174.514,-390
174.539,-294
174.564,-188
174.589,-101
174.614,-40
174.639,8
174.664,55
174.689,98
174.714,135
174.739,163
174.764,184
174.789,187
174.814,170
174.839,161
174.864,202
174.889,299
174.914,382
174.939,342
174.964,131
174.989,-161
175.014,-362
175.039,-350
175.064,-160
175.089,44
175.114,126
175.139,77
175.164,3
175.189,8
175.214,102
175.239,220
175.264,301
175.289,338
175.314,367
175.339,415
175.364,477
175.389,527
175.414,549
175.439,539
175.464,505
175.489,467
175.514,445
175.539,445
175.564,449
175.589,429
175.614,387
175.639,361
175.664,402
175.689,514
175.714,645
175.739,720
175.764,694
175.789,563
175.814,339
175.839,42
175.864,-291
175.889,-588
175.914,-772
175.939,-818
175.964,-767
175.989,-688
176.014,-609
176.039,-496
176.064,-318
176.089,-93
176.114,105
176.139,222
176.164,262
176.189,275
176.214,299
176.239,333
176.264,352
176.289,349
176.314,339
176.339,338
176.364,342
176.389,338
176.414,325
176.439,311
176.464,302
176.489,288
176.514,259
176.539,223
176.564,202
176.589,210
176.614,237
176.639,266
176.664,287
176.689,305
176.714,323
176.739,334
176.764,329
176.789,311
176.814,298
176.839,302
176.864,311
176.889,300
176.914,259
176.939,211
176.964,190
176.989,211
177.014,249
177.039,259
177.064,213
177.089,125
177.114,41
177.139,0
177.164,1
177.189,18
177.214,16
177.239,-11
177.264,-40
177.289,-39
177.314,-1
177.339,52
177.364,94
177.389,112
177.414,116
177.439,124
177.464,141
177.489,159
177.514,168
177.539,170
177.564,172
177.589,181
177.614,188
177.639,184
177.664,165
177.689,140
177.714,120
177.739,110
177.764,104
177.789,93
177.814,74
177.839,52
177.864,36
177.889,37
177.914,59
177.939,94
177.964,135
177.989,171
178.014,200
178.039,223
178.064,243
178.089,256
178.114,259
178.139,253
178.164,244
178.189,239
178.214,239
178.239,237
178.264,229
178.289,216
178.314,201
178.339,188
178.364,176
178.389,163
178.414,149
178.439,134
178.464,115
178.489,88
178.514,56
178.539,34
178.564,38
178.589,75
178.614,129
178.639,173
178.664,194
178.689,195
178.714,197
178.739,210
178.764,226
178.789,233
178.814,224
178.839,209
178.864,198
178.889,195
178.914,193
178.939,187
178.964,175
178.989,161
179.014,146
179.039,127
179.064,108
179.089,94
179.114,90
179.139,90
179.164,83
179.189,61
179.214,35
179.239,27
179.264,52
179.289,103
179.314,155
179.339,188
179.364,199
179.389,205
179.414,219
179.439,241
179.464,260
179.489,266
179.514,263
179.539,259
179.564,262
179.589,267
179.614,268
179.639,260
179.664,247
179.689,235
179.714,224
179.739,208
179.764,186
179.789,163
179.814,146
179.839,140
179.864,140
179.889,137
179.914,124
179.939,102
179.964,73
179.989,41
180.014,11
180.039,-8
180.064,-6
180.089,22
180.114,67
180.139,111
180.164,140
180.189,158
180.214,176
180.239,199
180.264,224
180.289,238
180.314,236
180.339,225
180.364,219
180.389,222
180.414,228
180.439,230
180.464,225
180.489,219
180.514,212
180.539,204
180.564,192
180.589,176
180.614,161
180.639,149
180.664,137
180.689,120
180.714,100
180.739,83
180.764,70
180.789,54
180.814,28
180.839,-3
180.864,-22
180.889,-10
180.914,32
180.939,88
180.964,133
180.989,160
181.014,176
181.039,195
181.064,219
181.089,236
181.114,241
181.139,236
181.164,232
181.189,234
181.214,238
181.239,236
181.264,227
181.289,217
181.314,209
181.339,201
181.364,188
181.389,172
181.414,160
181.439,157
181.464,160
181.489,160
181.514,153
181.539,144
181.564,137
181.589,129
181.614,113
181.639,87
181.664,65
181.689,63
181.714,87
181.739,124
181.764,154
181.789,168
181.814,171
181.839,178
181.864,195
181.889,214
181.914,224
181.939,222
181.964,216
181.989,213
182.014,215
182.039,218
182.064,216
182.089,211
182.114,207
182.139,202
182.164,194
182.189,181
182.214,165
182.239,150
182.264,138
182.289,127
182.314,116
182.339,104
182.364,96
182.389,89
182.414,77
182.439,56
182.464,28
182.489,9
182.514,15
182.539,48
182.564,96
182.589,141
182.614,172
182.639,192
182.664,207
182.689,223
182.714,235
182.739,241
182.764,243
182.789,244
182.814,249
182.839,253
182.864,252
182.889,247
182.914,241
182.939,235
182.964,225
182.989,210
183.014,191
183.039,175
183.064,166
183.089,160
183.114,149
183.139,131
183.164,111
183.189,95
183.214,80
183.239,59
183.264,31
183.289,9
183.314,12
183.339,45
183.364,94
183.389,137
183.414,164
183.439,178
183.464,189
183.489,202
183.514,212
183.539,217
183.564,217
183.589,218
183.614,222
183.639,226
183.664,227
183.689,225
183.714,221
183.739,216
183.764,206
183.789,191
183.814,178
183.839,170
183.864,166
183.889,160
183.914,145
183.939,123
183.964,101
183.989,79
184.014,54
184.039,25
184.064,1
184.089,-1
184.114,24
184.139,72
184.164,125
184.189,166
184.214,193
184.239,209
184.264,222
184.289,231
184.314,236
184.339,238
184.364,241
184.389,245
184.414,249
184.439,250
184.464,247
184.489,240
184.514,230
184.539,217
184.564,202
184.589,187
184.614,172
184.639,156
184.664,141
184.689,128
184.714,115
184.739,99
184.764,74
184.789,41
184.814,17
184.839,17
184.864,48
184.889,95
184.914,137
184.939,161
184.964,172
184.989,184
185.014,201
185.039,215
185.064,219
185.089,213
185.114,208
185.139,213
185.164,225
185.189,233
185.214,230
185.239,216
185.264,200
185.289,185
185.314,171
185.339,153
185.364,133
185.389,114
185.414,97
185.439,79
185.464,54
185.489,24
185.514,1
185.539,1
185.564,29
185.589,73
185.614,113
185.639,139
185.664,152
185.689,162
185.714,174
185.739,181
185.764,177
185.789,166
185.814,159
185.839,163
185.864,172
185.889,179
185.914,183
185.939,193
185.964,207
185.989,210
186.014,190
186.039,157
186.064,145
186.089,180
186.114,248
186.139,300
186.164,298
186.189,246
186.214,186
186.239,154
186.264,148
186.289,144
186.314,126
186.339,111
186.364,123
186.389,170
186.414,228
186.439,265
186.464,269
186.489,246
186.514,217
186.539,197
186.564,191
186.589,195
186.614,191
186.639,163
186.664,103
186.689,31
186.714,-14
186.739,-2
186.764,68
186.789,169
186.814,259
186.839,308
186.864,309
186.889,273
186.914,221
186.939,175
186.964,152
186.989,154
187.014,169
187.039,176
187.064,170
187.089,157
187.114,147
187.139,142
187.164,136
187.189,127
187.214,122
187.239,125
187.264,135
187.289,142
187.314,138
187.339,128
187.364,120
187.389,117
187.414,112
187.439,102
187.464,92
187.489,87
187.514,85
187.539,75
187.564,53
187.589,31
187.614,30
187.639,56
187.664,95
187.689,126
187.714,141
187.739,147
187.764,158
187.789,175
187.814,189
187.839,194
187.864,193
187.889,196
187.914,208
187.939,221
187.964,226
187.989,218
188.014,202
188.039,187
188.064,179
188.089,174
188.114,170
188.139,161
188.164,144
188.189,122
188.214,104
188.239,100
188.264,117
188.289,150
188.314,184
188.339,210
188.364,224
188.389,233
188.414,243
188.439,253
188.464,256
188.489,250
188.514,239
188.539,230
188.564,227
188.589,225
188.614,219
188.639,207
188.664,192
188.689,180
188.714,166
188.739,150
188.764,131
188.789,113
188.814,99
188.839,84
188.864,64
188.889,42
188.914,33
188.939,49
188.964,86
188.989,130
189.014,160
189.039,175
189.064,183
189.089,194
189.114,206
189.139,213
189.164,210
189.189,204
189.214,203
189.239,207
189.264,209
189.289,202
189.314,189
189.339,177
189.364,167
189.389,156
189.414,139
189.439,122
189.464,111
189.489,108
189.514,100
189.539,78
189.564,46
189.589,23
189.614,29
189.639,62
189.664,107
189.689,142
189.714,161
189.739,172
189.764,185
189.789,204
189.814,221
189.839,228
189.864,225
189.889,217
189.914,211
189.939,210
189.964,210
189.989,207
190.014,198
190.039,186
190.064,175
190.089,165
190.114,153
190.139,137
190.164,120
190.189,108
190.214,100
190.239,87
190.264,60
190.289,23
190.314,-4
190.339,-3
190.364,31
190.389,82
190.414,126
190.439,151
190.464,165
190.489,180
190.514,201
190.539,220
190.564,231
190.589,235
190.614,240
190.639,251
190.664,263
190.689,271
190.714,272
190.739,270
190.764,267
190.789,265
190.814,263
190.839,260
190.864,253
190.889,241
190.914,221
190.939,197
190.964,170
190.989,142
191.014,115
191.039,89
191.064,72
191.089,72
191.114,93
191.139,128
191.164,164
191.189,192
191.214,208
191.239,221
191.264,233
191.289,243
191.314,246
191.339,242
191.364,235
191.389,228
191.414,220
191.439,202
191.464,170
191.489,131
191.514,96
191.539,74
191.564,67
191.589,67
191.614,65
191.639,59
191.664,51
191.689,46
191.714,42
191.739,35
191.764,17
191.789,-7
191.814,-28
191.839,-32
191.864,-9
191.889,35
191.914,86
191.939,131
191.964,162
191.989,184
192.014,204
192.039,225
192.064,245
192.089,259
192.114,263
192.139,261
192.164,255
192.189,250
192.214,244
192.239,237
192.264,228
192.289,219
192.314,211
192.339,204
192.364,193
192.389,178
192.414,161
192.439,146
192.464,132
192.489,115
192.514,88
192.539,57
192.564,38
192.589,43
192.614,76
192.639,122
192.664,162
192.689,187
192.714,203
192.739,217
192.764,231
192.789,240
192.814,240
192.839,234
192.864,230
192.889,233
192.914,237
192.939,234
192.964,224
192.989,212
193.014,205
193.039,200
193.064,189
193.089,169
193.114,145
193.139,126
193.164,114
193.189,103
193.214,81
193.239,49
193.264,19
193.289,9
193.314,26
193.339,65
193.364,111
193.389,150
193.414,178
193.439,198
193.464,213
193.489,224
193.514,230
193.539,230
193.564,229
193.589,230
193.614,235
193.639,240
193.664,239
193.689,231
193.714,219
193.739,206
193.764,196
193.789,185
193.814,168
193.839,147
193.864,128
193.889,115
193.914,105
193.939,89
193.964,60
193.989,24
194.014,1
194.039,7
194.064,45
194.089,99
194.114,149
194.139,180
194.164,195
194.189,205
194.214,218
194.239,232
194.264,239
194.289,235
194.314,223
194.339,212
194.364,208
194.389,210
194.414,210
194.439,204
194.464,191
194.489,177
194.514,157
194.539,124
194.564,67
194.589,-5
194.614,-77
194.639,-124
194.664,-141
194.689,-132
194.714,-107
194.739,-62
194.764,13
194.789,119
194.814,235
194.839,331
194.864,386
194.889,403
194.914,396
194.939,379
194.964,354
194.989,321
195.014,289
195.039,270
195.064,269
195.089,278
195.114,283
195.139,281
195.164,279
195.189,281
195.214,285
195.239,279
195.264,259
195.289,229
195.314,197
195.339,164
195.364,124
195.389,75
195.414,30
195.439,10
195.464,26
195.489,68
195.514,113
195.539,144
195.564,158
195.589,163
195.614,169
195.639,177
195.664,183
195.689,186
195.714,191
195.739,201
195.764,214
195.789,225
195.814,228
195.839,222
195.864,205
195.889,178
195.914,144
195.939,110
195.964,83
195.989,64
196.014,46
196.039,20
196.064,-12
196.089,-37
196.114,-36
196.139,-6
196.164,39
196.189,81
196.214,107
196.239,118
196.264,123
196.289,125
196.314,125
196.339,120
196.364,112
196.389,106
196.414,107
196.439,112
196.464,118
196.489,117
196.514,109
196.539,100
196.564,95
196.589,99
196.614,110
196.639,120
196.664,120
196.689,114
196.714,111
196.739,125
196.764,161
196.789,209
196.814,254
196.839,284
196.864,299
196.889,305
196.914,307
196.939,307
196.964,304
196.989,300
197.014,301
197.039,308
197.064,317
197.089,319
197.114,308
197.139,286
197.164,262
197.189,243
197.214,228
197.239,209
197.264,183
197.289,152
197.314,130
197.339,127
197.364,146
197.389,180
197.414,215
197.439,238
197.464,244
197.489,234
197.514,213
197.539,188
197.564,164
197.589,147
197.614,136
197.639,130
197.664,125
197.689,118
197.714,107
197.739,92
197.764,76
197.789,63
197.814,52
197.839,40
197.864,22
197.889,0
197.914,-15
197.939,-13
197.964,13
197.989,56
198.014,101
198.039,137
198.064,161
198.089,179
198.114,193
198.139,202
198.164,204
198.189,203
198.214,201
198.239,203
198.264,206
198.289,205
198.314,197
198.339,182
198.364,164
198.389,147
198.414,133
198.439,119
198.464,98
198.489,72
198.514,46
198.539,38
198.564,57
198.589,98
198.614,145
198.639,181
198.664,200
198.689,212
198.714,224
198.739,235
198.764,236
198.789,227
198.814,215
198.839,211
198.864,216
198.889,220
198.914,217
198.939,207
198.964,196
198.989,187
199.014,175
199.039,156
199.064,134
199.089,117
199.114,102
199.139,83
199.164,56
199.189,35
199.214,38
199.239,74
199.264,131
199.289,183
199.314,214
199.339,230
199.364,243
199.389,260
199.414,275
199.439,284
199.464,286
199.489,287
199.514,289
199.539,290
199.564,286
199.589,276
199.614,265
199.639,253
199.664,237
199.689,215
199.714,191
199.739,169
199.764,151
199.789,134
199.814,115
199.839,98
199.864,85
199.889,71
199.914,48
199.939,18
199.964,-6
199.989,-7
200.014,24
200.039,75
200.064,125
200.089,158
200.114,177
200.139,186
200.164,188
200.189,181
200.214,166
200.239,153
200.264,151
200.289,162
200.314,176
200.339,185
200.364,186
200.389,183
200.414,181
200.439,177
200.464,170
200.489,159
200.514,148
200.539,139
200.564,130
200.589,121
200.614,111
200.639,100
200.664,86
200.689,62
200.714,32
200.739,11
200.764,18
200.789,58
200.814,116
200.839,169
200.864,201
200.889,217
200.914,229
200.939,244
200.964,257
200.989,265
201.014,267
201.039,269
201.064,274
201.089,277
201.114,273
201.139,263
201.164,252
201.189,244
201.214,237
201.239,227
201.264,213
201.289,199
201.314,188
201.339,178
201.364,165
201.389,152
201.414,140
201.439,127
201.464,110
201.489,87
201.514,69
201.539,76
201.564,114
201.589,172
201.614,225
201.639,257
201.664,268
201.689,272
201.714,273
201.739,267
201.764,249
201.789,223
201.814,203
201.839,194
201.864,191
201.889,181
201.914,159
201.939,131
201.964,107
201.989,85
202.014,59
202.039,25
202.064,-15
202.089,-53
202.114,-88
202.139,-119
202.164,-143
202.189,-158
202.214,-165
202.239,-175
202.264,-197
202.289,-221
202.314,-221
202.339,-167
202.364,-60
202.389,65
202.414,170
202.439,236
202.464,277
202.489,319
202.514,370
202.539,421
202.564,456
202.589,472
202.614,479
202.639,487
202.664,494
202.689,494
202.714,484
202.739,466
202.764,443
202.789,417
202.814,386
202.839,349
202.864,310
202.889,271
202.914,232
202.939,192
202.964,148
202.989,101
203.014,48
203.039,-11
203.064,-72
203.089,-117
203.114,-131
203.139,-114
203.164,-80
203.189,-42
203.214,0
203.239,54
203.264,126
203.289,199
203.314,250
203.339,269
203.364,267
203.389,265
203.414,274
203.439,284
203.464,279
203.489,257
203.514,228
203.539,203
203.564,182
203.589,158
203.614,127
203.639,95
203.664,72
203.689,56
203.714,39
203.739,23
203.764,17
203.789,36
203.814,80
203.839,132
203.864,174
203.889,199
203.914,211
203.939,218
203.964,223
203.989,224
204.014,223
204.039,223
204.064,224
204.089,223
204.114,217
204.139,209
204.164,202
204.189,196
204.214,185
204.239,168
204.264,149
204.289,133
204.314,120
204.339,100
204.364,69
204.389,38
204.414,26
204.439,45
204.464,86
204.489,131
204.514,165
204.539,186
204.564,198
204.589,204
204.614,201
204.639,188
204.664,172
204.689,161
204.714,157
204.739,156
204.764,156
204.789,155
204.814,151
204.839,145
204.864,135
204.889,123
204.914,112
204.939,99
204.964,80
204.989,55
205.014,35
205.039,39
205.064,74
205.089,128
205.114,178
205.139,206
205.164,215
205.189,217
205.214,220
205.239,222
205.264,217
205.289,207
205.314,201
205.339,202
205.364,206
205.389,203
205.414,192
205.439,178
205.464,168
205.489,161
205.514,152
205.539,135
205.564,112
205.589,87
205.614,67
205.639,59
205.664,69
205.689,96
205.714,137
205.739,179
205.764,209
205.789,221
205.814,221
205.839,214
205.864,209
205.889,205
205.914,200
205.939,194
205.964,191
205.989,192
206.014,192
206.039,186
206.064,173
206.089,157
206.114,143
206.139,134
206.164,121
206.189,99
206.214,71
206.239,51
206.264,52
206.289,78
206.314,120
206.339,163
206.364,195
206.389,214
206.414,221
206.439,220
206.464,213
206.489,206
206.514,201
206.539,201
206.564,204
206.589,204
206.614,200
206.639,189
206.664,175
206.689,161
206.714,149
206.739,138
206.764,123
206.789,102
206.814,74
206.839,50
206.864,44
206.889,61
206.914,95
206.939,131
206.964,159
206.989,175
207.014,183
207.039,187
207.064,188
207.089,185
207.114,180
207.139,176
207.164,176
207.189,177
207.214,174
207.239,163
207.264,144
207.289,121
207.314,102
207.339,93
207.364,93
207.389,92
207.414,83
207.439,67
207.464,59
207.489,73
207.514,110
207.539,158
207.564,199
207.589,225
207.614,242
207.639,255
207.664,262
207.689,259
207.714,248
207.739,237
207.764,235
207.789,236
207.814,234
207.839,222
207.864,206
207.889,191
207.914,177
207.939,162
207.964,143
207.989,125
208.014,112
208.039,97
208.064,72
208.089,40
208.114,18
208.139,26
208.164,66
208.189,117
208.214,156
208.239,173
208.264,179
208.289,189
208.314,204
208.339,213
208.364,209
208.389,200
208.414,196
208.439,202
208.464,208
208.489,205
208.514,191
208.539,176
208.564,167
208.589,163
208.614,157
208.639,149
208.664,139
208.689,130
208.714,117
208.739,93
208.764,64
208.789,44
208.814,49
208.839,80
208.864,123
208.889,158
208.914,175
208.939,181
208.964,186
208.989,195
209.014,202
209.039,203
209.064,197
209.089,193
209.114,196
209.139,203
209.164,207
209.189,201
209.214,190
209.239,179
209.264,171
209.289,162
209.314,149
209.339,134
209.364,123
209.389,119
209.414,117
209.439,105
209.464,80
209.489,53
209.514,41
209.539,54
209.564,87
209.589,126
209.614,158
209.639,180
209.664,196
209.689,208
209.714,217
209.739,219
209.764,218
209.789,216
209.814,217
209.839,219
209.864,221
209.889,221
209.914,217
209.939,210
209.964,202
209.989,192
210.014,183
210.039,172
210.064,158
210.089,140
210.114,124
210.139,114
210.164,107
210.189,94
210.214,69
210.239,39
210.264,22
210.289,33
210.314,70
210.339,115
210.364,150
210.389,170
210.414,183
210.439,196
210.464,208
210.489,213
210.514,212
210.539,208
210.564,208
210.589,211
210.614,213
210.639,209
210.664,203
210.689,197
210.714,191
210.739,182
210.764,170
210.789,156
210.814,146
210.839,140
210.864,134
210.889,124
210.914,110
210.939,91
210.964,69
210.989,49
211.014,41
211.039,56
211.064,93
211.089,140
211.114,179
211.139,199
211.164,202
211.189,198
211.214,196
211.239,198
211.264,202
211.289,204
211.314,205
211.339,206
211.364,207
211.389,207
211.414,204
211.439,198
211.464,190
211.489,179
211.514,167
211.539,155
211.564,144
211.589,135
211.614,127
211.639,118
211.664,104
211.689,81
211.714,54
211.739,35
211.764,37
211.789,62
211.814,101
211.839,138
211.864,165
211.889,183
211.914,198
211.939,211
211.964,219
211.989,220
212.014,216
212.039,215
212.064,219
212.089,224
212.114,224
212.139,220
212.164,213
212.189,208
212.214,200
212.239,188
212.264,173
212.289,158
212.314,145
212.339,136
212.364,126
212.389,116
212.414,102
212.439,82
212.464,57
212.489,33
212.514,25
212.539,41
212.564,80
212.589,126
212.614,161
212.639,183
212.664,199
212.689,215
212.714,231
212.739,239
212.764,235
212.789,227
212.814,223
212.839,224
212.864,226
212.889,223
212.914,216
212.939,207
212.964,200
212.989,191
213.014,177
213.039,158
213.064,141
213.089,129
213.114,121
213.139,111
213.164,93
213.189,69
213.214,46
213.239,34
213.264,41
213.289,66
213.314,101
213.339,136
213.364,160
213.389,173
213.414,182
213.439,190
213.464,199
213.489,203
213.514,200
213.539,194
213.564,193
213.589,201
213.614,210
213.639,210
213.664,200
213.689,187
213.714,182
213.739,185
213.764,187
213.789,179
213.814,165
213.839,152
213.864,142
213.889,130
213.914,107
213.939,81
213.964,68
213.989,81
214.014,115
214.039,152
214.064,176
214.089,186
214.114,192
214.139,198
214.164,200
214.189,195
214.214,184
214.239,176
214.264,176
214.289,181
214.314,184
214.339,184
214.364,183
214.389,177
214.414,164
214.439,143
214.464,120
214.489,103
214.514,89
214.539,69
214.564,39
214.589,9
214.614,-2
214.639,10
214.664,41
214.689,72
214.714,96
214.739,113
214.764,127
214.789,133
214.814,131
214.839,123
214.864,120
214.889,121
214.914,118
214.939,109
214.964,108
214.989,133
215.014,187
215.039,245
215.064,275
215.089,271
215.114,252
215.139,239
215.164,231
215.189,212
215.214,176
215.239,143
215.264,137
215.289,159
215.314,191
215.339,216
215.364,238
215.389,271
215.414,317
215.439,362
215.464,397
215.489,429
215.514,472
215.539,515
215.564,525
215.589,473
215.614,368
215.639,245
215.664,144
215.689,76
215.714,35
215.739,14
215.764,10
215.789,15
215.814,5
215.839,-37
215.864,-103
215.889,-151
215.914,-149
215.939,-100
215.964,-37
215.989,8
216.014,37
216.039,68
216.064,114
216.089,169
216.114,219
216.139,265
216.164,312
216.189,358
216.214,383
216.239,363
216.264,293
216.289,194
216.314,99
216.339,29
216.364,-9
216.389,-20
216.414,-10
216.439,8
216.464,25
216.489,33
216.514,32
216.539,36
216.564,56
216.589,90
216.614,129
216.639,158
216.664,174
216.689,180
216.714,184
216.739,188
216.764,190
216.789,188
216.814,181
216.839,174
216.864,169
216.889,166
216.914,163
216.939,156
216.964,145
216.989,131
217.014,115
217.039,100
217.064,86
217.089,77
217.114,75
217.139,80
217.164,88
217.189,97
217.214,107
217.239,126
217.264,161
217.289,210
217.314,264
217.339,308
217.364,335
217.389,348
217.414,353
217.439,354
217.464,350
217.489,339
217.514,323
217.539,309
217.564,299
217.589,292
217.614,283
217.639,270
217.664,254
217.689,236
217.714,218
217.739,200
217.764,184
217.789,167
217.814,152
217.839,136
217.864,117
217.889,94
217.914,65
217.939,37
217.964,15
217.989,8
218.014,19
218.039,45
218.064,73
218.089,91
218.114,97
218.139,93
218.164,85
218.189,73
218.214,53
218.239,21
218.264,-15
218.289,-40
218.314,-43
218.339,-23
218.364,8
218.389,41
218.414,76
218.439,116
218.464,163
218.489,207
218.514,234
218.539,241
218.564,233
218.589,221
218.614,213
218.639,209
218.664,206
218.689,198
218.714,186
218.739,167
218.764,147
218.789,135
218.814,140
218.839,164
218.864,197
218.889,224
218.914,239
218.939,248
218.964,259
218.989,275
219.014,290
219.039,294
219.064,286
219.089,273
219.114,262
219.139,255
219.164,247
219.189,235
219.214,222
219.239,210
219.264,197
219.289,182
219.314,165
219.339,150
219.364,138
219.389,127
219.414,115
219.439,101
219.464,86
219.489,69
219.514,48
219.539,20
219.564,-8
219.589,-25
219.614,-17
219.639,14
219.664,57
219.689,95
219.714,122
219.739,142
219.764,163
219.789,186
219.814,207
219.839,221
219.864,228
219.889,230
219.914,232
219.939,233
219.964,233
219.989,229
220.014,224
220.039,219
220.064,213
220.089,206
220.114,196
220.139,184
220.164,172
220.189,160
220.214,144
220.239,127
220.264,110
220.289,97
220.314,85
220.339,68
220.364,45
220.389,24
220.414,17
220.439,34
220.464,69
220.489,108
220.514,136
220.539,154
220.564,169
220.589,188
220.614,206
220.639,218
220.664,220
220.689,217
220.714,218
220.739,223
220.764,229
220.789,230
220.814,223
220.839,211
220.864,199
220.889,188
220.914,178
220.939,167
220.964,155
220.989,142
221.014,130
221.039,122
221.064,115
221.089,102
221.114,78
221.139,51
221.164,35
221.189,43
221.214,76
221.239,117
221.264,149
221.289,167
221.314,176
221.339,186
221.364,199
221.389,207
221.414,207
221.439,206
221.464,210
221.489,221
221.514,232
221.539,233
221.564,222
221.589,206
221.614,193
221.639,181
221.664,165
221.689,146
221.714,127
221.739,116
221.764,111
221.789,104
221.814,87
221.839,63
221.864,45
221.889,47
221.914,75
221.939,117
221.964,157
221.989,184
222.014,198
222.039,207
222.064,217
222.089,226
222.114,230
222.139,227
222.164,223
222.189,223
222.214,227
222.239,229
222.264,223
222.289,209
222.314,194
222.339,182
222.364,173
222.389,163
222.414,149
222.439,132
222.464,117
222.489,106
222.514,91
222.539,68
222.564,37
222.589,12
222.614,9
222.639,35
222.664,81
222.689,127
222.714,157
222.739,168
222.764,172
222.789,180
222.814,194
222.839,204
222.864,207
222.889,205
222.914,205
222.939,210
222.964,214
222.989,212
223.014,202
223.039,190
223.064,179
223.089,168
223.114,153
223.139,135
223.164,120
223.189,110
223.214,101
223.239,83
223.264,57
223.289,37
223.314,41
223.339,74
223.364,122
223.389,165
223.414,189
223.439,201
223.464,209
223.489,219
223.514,227
223.539,227
223.564,224
223.589,223
223.614,228
223.639,234
223.664,235
223.689,230
223.714,222
223.739,213
223.764,203
223.789,189
223.814,172
223.839,157
223.864,146
223.889,132
223.914,108
223.939,78
223.964,55
223.989,58
224.014,89
224.039,134
224.064,173
224.089,197
224.114,211
224.139,224
224.164,234
224.189,238
224.214,231
224.239,217
224.264,202
224.289,189
224.314,174
224.339,155
224.364,131
224.389,105
224.414,80
224.439,57
224.464,37
224.489,25
224.514,20
224.539,17
224.564,10
224.589,1
224.614,1
224.639,23
224.664,66
224.689,116
224.714,159
224.739,185
224.764,200
224.789,209
224.814,215
224.839,217
224.864,215
224.889,215
224.914,221
224.939,230
224.964,236
224.989,237
225.014,230
225.039,219
225.064,204
225.089,188
225.114,174
225.139,164
225.164,153
225.189,135
225.214,111
225.239,92
225.264,93
225.289,118
225.314,157
225.339,191
225.364,209
225.389,216
225.414,218
225.439,219
225.464,217
225.489,211
225.514,207
225.539,210
225.564,217
225.589,219
225.614,211
225.639,196
225.664,182
225.689,171
225.714,160
225.739,143
225.764,124
225.789,105
225.814,88
225.839,68
225.864,43
225.889,20
225.914,15
225.939,36
225.964,74
225.989,112
226.014,138
226.039,153
226.064,168
226.089,187
226.114,205
226.139,211
226.164,203
226.189,190
226.214,181
226.239,177
226.264,171
226.289,161
226.314,151
226.339,151
226.364,167
226.389,189
226.414,202
226.439,199
226.464,184
226.489,168
226.514,157
226.539,148
226.564,135
226.589,123
226.614,125
226.639,153
226.664,200
226.689,245
226.714,268
226.739,265
226.764,248
226.789,233
226.814,224
226.839,215
226.864,198
226.889,175
226.914,156
226.939,144
226.964,129
226.989,105
227.014,70
227.039,35
227.064,7
227.089,-15
227.114,-40
227.139,-69
227.164,-87
227.189,-80
227.214,-46
227.239,0
227.264,45
227.289,87
227.314,131
227.339,181
227.364,227
227.389,258
227.414,270
227.439,273
227.464,279
227.489,287
227.514,290
227.539,282
227.564,271
227.589,265
227.614,268
227.639,272
227.664,267
227.689,253
227.714,236
227.739,221
227.764,206
227.789,189
227.814,173
227.839,159
227.864,147
227.889,128
227.914,102
227.939,77
227.964,70
227.989,87
228.014,115
228.039,138
228.064,149
228.089,155
228.114,164
228.139,174
228.164,176
228.189,169
228.214,159
228.239,155
228.264,159
228.289,164
228.314,163
228.339,155
228.364,146
228.389,142
228.414,138
228.439,133
228.464,125
228.489,114
228.514,98
228.539,79
228.564,62
228.589,59
228.614,78
228.639,115
228.664,152
228.689,178
228.714,190
228.739,197
228.764,205
228.789,212
228.814,213
228.839,207
228.864,203
228.889,205
228.914,208
228.939,208
228.964,200
228.989,190
229.014,182
229.039,174
229.064,163
229.089,148
229.114,135
229.139,127
229.164,121
229.189,107
229.214,82
229.239,60
229.264,54
229.289,74
229.314,110
229.339,144
229.364,167
229.389,177
229.414,185
229.439,193
229.464,201
229.489,203
229.514,200
229.539,196
229.564,195
229.589,199
229.614,203
229.639,203
229.664,199
229.689,193
229.714,187
229.739,178
229.764,165
229.789,150
229.814,136
229.839,128
229.864,124
229.889,115
229.914,95
229.939,67
229.964,46
229.989,48
230.014,76
230.039,118
230.064,154
230.089,174
230.114,181
230.139,187
230.164,195
230.189,204
230.214,206
230.239,202
230.264,199
230.289,202
230.314,208
230.339,210
230.364,206
230.389,196
230.414,188
230.439,180
230.464,171
230.489,158
230.514,142
230.539,129
230.564,119
230.589,107
230.614,89
230.639,68
230.664,57
230.689,67
230.714,96
230.739,133
230.764,166
230.789,188
230.814,200
230.839,205
230.864,206
230.889,201
230.914,195
230.939,191
230.964,194
230.989,201
231.014,205
231.039,201
231.064,192
231.089,182
231.114,174
231.139,164
231.164,150
231.189,135
231.214,123
231.239,114
231.264,101
231.289,79
231.314,52
231.339,34
231.364,39
231.389,70
231.414,113
231.439,151
231.464,176
231.489,190
231.514,202
231.539,213
231.564,221
231.589,224
231.614,221
231.639,219
231.664,219
231.689,219
231.714,217
231.739,211
231.764,201
231.789,190
231.814,175
231.839,157
231.864,136
231.889,119
231.914,109
231.939,103
231.964,89
231.989,63
232.014,30
232.039,8
232.064,14
232.089,51
232.114,101
232.139,143
232.164,167
232.189,176
232.214,180
232.239,187
232.264,194
232.289,194
232.314,188
232.339,183
232.364,182
232.389,184
232.414,182
232.439,171
232.464,155
232.489,140
232.514,130
232.539,120
232.564,106
232.589,89
232.614,72
232.639,60
232.664,51
232.689,40
232.714,23
232.739,6
232.764,0
232.789,12
232.814,46
232.839,92
232.864,136
232.889,168
232.914,188
232.939,204
232.964,223
232.989,242
233.014,257
233.039,265
233.064,276
233.089,302
233.114,346
233.139,395
233.164,429
233.189,440
233.214,436
233.239,428
233.264,419
233.289,401
233.314,366
233.339,318
233.364,264
233.389,207
233.414,141
233.439,69
233.464,15
233.489,9
233.514,63
233.539,150
233.564,224
233.589,252
233.614,234
233.639,189
233.664,136
233.689,81
233.714,30
233.739,-4
233.764,-11
233.789,3
233.814,23
233.839,31
233.864,31
233.889,36
233.914,51
233.939,63
233.964,61
233.989,47
234.014,44
234.039,62
234.064,91
234.089,109
234.114,108
234.139,106
234.164,123
234.189,165
234.214,210
234.239,237
234.264,243
234.289,242
234.314,246
234.339,249
234.364,242
234.389,222
234.414,202
234.439,190
234.464,187
234.489,181
234.514,165
234.539,143
234.564,125
234.589,114
234.614,105
234.639,93
234.664,78
234.689,66
234.714,60
234.739,55
234.764,46
234.789,33
234.814,26
234.839,38
234.864,73
234.889,122
234.914,167
234.939,197
234.964,211
234.989,217
235.014,226
235.039,238
235.064,249
235.089,255
235.114,255
235.139,253
235.164,252
235.189,250
235.214,244
235.239,233
235.264,218
235.289,202
235.314,185
235.339,169
235.364,152
235.389,136
235.414,116
235.439,90
235.464,60
235.489,38
235.514,38
235.539,64
235.564,104
235.589,140
235.614,160
235.639,165
235.664,169
235.689,179
235.714,193
235.739,201
235.764,201
235.789,197
235.814,196
235.839,195
235.864,190
235.889,177
235.914,162
235.939,152
235.964,147
235.989,143
236.014,134
236.039,122
236.064,113
236.089,106
236.114,98
236.139,83
236.164,64
236.189,53
236.214,65
236.239,101
236.264,150
236.289,194
236.314,221
236.339,232
236.364,236
236.389,242
236.414,252
236.439,260
236.464,262
236.489,261
236.514,260
236.539,262
236.564,265
236.589,264
236.614,255
236.639,242
236.664,227
236.689,212
236.714,196
236.739,181
236.764,168
236.789,159
236.814,147
236.839,125
236.864,95
236.889,70
236.914,65
236.939,85
236.964,116
236.989,141
237.014,150
237.039,152
237.064,156
237.089,164
237.114,168
237.139,161
237.164,147
237.189,137
237.214,139
237.239,145
237.264,148
237.289,142
237.314,130
237.339,118
237.364,108
237.389,98
237.414,88
237.439,80
237.464,72
237.489,62
237.514,47
237.539,35
237.564,38
237.589,66
237.614,112
237.639,158
237.664,189
237.689,203
237.714,210
237.739,216
237.764,222
237.789,225
237.814,223
237.839,223
237.864,228
237.889,236
237.914,239
237.939,232
237.964,218
237.989,203
238.014,189
238.039,174
238.064,155
238.089,136
238.114,120
238.139,104
238.164,83
238.189,56
238.214,34
238.239,35
238.264,67
238.289,117
238.314,162
238.339,186
238.364,194
238.389,200
238.414,212
238.439,224
238.464,228
238.489,222
238.514,216
238.539,218
238.564,224
238.589,226
238.614,218
238.639,205
238.664,193
238.689,184
238.714,172
238.739,156
238.764,140
238.789,126
238.814,111
238.839,88
238.864,60
238.889,43
238.914,54
238.939,94
238.964,145
238.989,184
239.014,201
239.039,206
239.064,212
239.089,224
239.114,232
239.139,231
239.164,224
239.189,219
239.214,220
239.239,222
239.264,219
239.289,210
239.314,199
239.339,189
239.364,180
239.389,169
239.414,157
239.439,143
239.464,126
239.489,105
239.514,83
239.539,71
239.564,80
239.589,111
239.614,154
239.639,192
239.664,216
239.689,226
239.714,231
239.739,235
239.764,239
239.789,237
239.814,230
239.839,221
239.864,215
239.889,211
239.914,201
239.939,182
239.964,154
239.989,127
240.014,108
240.039,91
240.064,62
240.089,13
240.114,-51
240.139,-112
240.164,-147
240.189,-148
240.214,-121
240.239,-80
240.264,-31
240.289,23
240.314,80
240.339,135
240.364,180
240.389,215
240.414,243
240.439,268
240.464,284
240.489,284
240.514,263
240.539,226
240.564,184
240.589,147
240.614,119
240.639,97
240.664,75
240.689,49
240.714,17
240.739,-11
240.764,-28
240.789,-22
240.814,7
240.839,49
240.864,91
240.889,121
240.914,141
240.939,158
240.964,175
240.989,191
241.014,201
241.039,207
241.064,215
241.089,230
241.114,248
241.139,260
241.164,259
241.189,249
241.214,238
241.239,232
241.264,227
241.289,216
241.314,196
241.339,180
241.364,186
241.389,220
241.414,275
241.439,330
241.464,371
241.489,392
241.514,404
241.539,416
241.564,427
241.589,434
241.614,429
241.639,412
241.664,391
241.689,373
241.714,360
241.739,347
241.764,326
241.789,297
241.814,268
241.839,245
241.864,230
241.889,211
241.914,177
241.939,131
241.964,87
241.989,66
242.014,73
242.039,96
242.064,118
242.089,130
242.114,137
242.139,147
242.164,162
242.189,175
242.214,177
242.239,170
242.264,160
242.289,154
242.314,157
242.339,165
242.364,172
242.389,168
242.414,137
242.439,70
242.464,-30
242.489,-151
242.514,-272
242.539,-370
242.564,-433
242.589,-454
242.614,-435
242.639,-387
242.664,-328
242.689,-271
242.714,-221
242.739,-176
242.764,-130
242.789,-85
242.814,-45
242.839,-14
242.864,16
242.889,52
242.914,92
242.939,123
242.964,134
242.989,133
243.014,138
243.039,168
243.064,223
243.089,288
243.114,345
243.139,387
243.164,415
243.189,428
243.214,425
243.239,408
243.264,391
243.289,393
243.314,421
243.339,461
243.364,492
243.389,503
243.414,501
243.439,498
243.464,502
243.489,505
243.514,499
243.539,488
243.564,480
243.589,480
243.614,477
243.639,458
243.664,417
243.689,366
243.714,315
243.739,268
243.764,221
243.789,176
243.814,142
243.839,125
243.864,118
243.889,106
243.914,87
243.939,78
243.964,89
243.989,106
244.014,91
244.039,27
244.064,-59
244.089,-115
244.114,-104
244.139,-47
244.164,2
244.189,7
244.214,-20
244.239,-47
244.264,-58
244.289,-70
244.314,-105
244.339,-158
244.364,-197
244.389,-198
244.414,-166
244.439,-129
244.464,-102
244.489,-82
244.514,-59
244.539,-29
244.564,-1
244.589,25
244.614,63
244.639,121
244.664,191
244.689,251
244.714,288
244.739,302
244.764,303
244.789,297
244.814,282
244.839,262
244.864,252
244.889,263
244.914,293
244.939,324
244.964,340
244.989,343
245.014,345
245.039,351
245.064,359
245.089,358
245.114,351
245.139,342
245.164,336
245.189,329
245.214,316
245.239,296
245.264,273
245.289,250
245.314,228
245.339,205
245.364,184
245.389,168
245.414,157
245.439,150
245.464,143
245.489,135
245.514,121
245.539,93
245.564,50
245.589,0
245.614,-34
245.639,-37
245.664,-7
245.689,39
245.714,83
245.739,118
245.764,145
245.789,170
245.814,191
245.839,204
245.864,210
245.889,215
245.914,223
245.939,232
245.964,236
245.989,231
246.014,219
246.039,204
246.064,186
246.089,165
246.114,142
246.139,121
246.164,104
246.189,97
246.214,96
246.239,101
246.264,104
246.289,99
246.314,87
246.339,75
246.364,76
246.389,100
246.414,141
246.439,185
246.464,220
246.489,239
246.514,248
246.539,250
246.564,245
246.589,236
246.614,224
246.639,214
246.664,205
246.689,194
246.714,175
246.739,146
246.764,112
246.789,75
246.814,38
246.839,3
246.864,-26
246.889,-45
246.914,-50
246.939,-41
246.964,-24
246.989,-3
247.014,22
247.039,56
247.064,102
247.089,153
247.114,202
247.139,239
247.164,261
247.189,272
247.214,276
247.239,274
247.264,268
247.289,258
247.314,247
247.339,240
247.364,238
247.389,239
247.414,239
247.439,237
247.464,231
247.489,221
247.514,207
247.539,192
247.564,177
247.589,164
247.614,147
247.639,121
247.664,89
247.689,62
247.714,58
247.739,81
247.764,122
247.789,160
247.814,185
247.839,198
247.864,207
247.889,216
247.914,220
247.939,216
247.964,206
247.989,197
248.014,192
248.039,190
248.064,186
248.089,180
248.114,171
248.139,159
248.164,148
248.189,137
248.214,127
248.239,116
248.264,96
248.289,68
248.314,40
248.339,31
248.364,51
248.389,93
248.414,136
248.439,165
248.464,178
248.489,184
248.514,192
248.539,200
248.564,202
248.589,196
248.614,189
248.639,186
248.664,188
248.689,189
248.714,184
248.739,174
248.764,162
248.789,151
248.814,142
248.839,135
248.864,126
248.889,109
248.914,84
248.939,63
248.964,58
248.989,79
249.014,118
249.039,159
249.064,189
249.089,206
249.114,215
249.139,223
249.164,226
249.189,223
249.214,216
249.239,209
249.264,207
249.289,205
249.314,201
249.339,192
249.364,183
249.389,175
249.414,165
249.439,153
249.464,138
249.489,123
249.514,104
249.539,81
249.564,55
249.589,39
249.614,48
249.639,84
249.664,129
249.689,166
249.714,184
249.739,190
249.764,196
249.789,202
249.814,205
249.839,202
249.864,198
249.889,197
249.914,201
249.939,202
249.964,198
249.989,191
250.014,185
250.039,179
250.064,168
250.089,150
250.114,132
250.139,118
250.164,106
250.189,89
250.214,65
250.239,48
250.264,52
250.289,83
250.314,127
250.339,166
250.364,190
250.389,204
250.414,216
250.439,226
250.464,228
250.489,223
250.514,217
250.539,215
250.564,216
250.589,216
250.614,211
250.639,204
250.664,197
250.689,189
250.714,176
250.739,160
250.764,144
250.789,128
250.814,104
250.839,69
250.864,32
250.889,17
250.914,39
250.939,94
250.964,157
250.989,206
251.014,235
251.039,253
251.064,266
251.089,276
251.114,279
251.139,276
251.164,271
251.189,269
251.214,266
251.239,258
251.264,242
251.289,221
251.314,198
251.339,171
251.364,141
251.389,107
251.414,68
251.439,24
251.464,-23
251.489,-66
251.514,-90
251.539,-88
251.564,-64
251.589,-34
251.614,-13
251.639,1
251.664,19
251.689,48
251.714,83
251.739,114
251.764,135
251.789,151
251.814,170
251.839,195
251.864,220
251.889,235
251.914,239
251.939,237
251.964,232
251.989,227
252.014,218
252.039,202
252.064,182
252.089,166
252.114,168
252.139,193
252.164,233
252.189,270
252.214,288
252.239,286
252.264,274
252.289,264
252.314,258
252.339,250
252.364,237
252.389,224
252.414,216
252.439,215
252.464,211
252.489,199
252.514,181
252.539,164
252.564,151
252.589,135
252.614,110
252.639,80
252.664,62
252.689,68
252.714,96
252.739,132
252.764,160
252.789,174
252.814,180
252.839,183
252.864,184
252.889,180
252.914,172
252.939,162
252.964,155
252.989,152
253.014,148
253.039,142
253.064,131
253.089,118
253.114,105
253.139,95
253.164,85
253.189,70
253.214,48
253.239,28
253.264,23
253.289,43
253.314,84
253.339,126
253.364,154
253.389,167
253.414,176
253.439,190
253.464,207
253.489,216
253.514,215
253.539,210
253.564,210
253.589,215
253.614,216
253.639,208
253.664,196
253.689,189
253.714,187
253.739,183
253.764,170
253.789,151
253.814,135
253.839,124
253.864,110
253.889,85
253.914,54
253.939,39
253.964,55
253.989,99
254.014,147
254.039,178
254.064,188
254.089,191
254.114,199
254.139,212
254.164,222
254.189,224
254.214,218
254.239,212
254.264,211
254.289,214
254.314,217
254.339,214
254.364,205
254.389,191
254.414,177
254.439,163
254.464,151
254.489,140
254.514,129
254.539,119
254.564,111
254.589,101
254.614,84
254.639,58
254.664,34
254.689,30
254.714,54
254.739,99
254.764,144
254.789,173
254.814,186
254.839,194
254.864,206
254.889,220
254.914,228
254.939,227
254.964,221
254.989,221
255.014,226
255.039,231
255.064,230
255.089,223
255.114,214
255.139,205
255.164,194
255.189,178
255.214,162
255.239,150
255.264,144
255.289,140
255.314,130
255.339,112
255.364,94
255.389,83
255.414,78
255.439,70
255.464,49
255.489,23
255.514,9
255.539,23
255.564,66
255.589,117
255.614,156
255.639,175
255.664,182
255.689,192
255.714,208
255.739,223
255.764,230
255.789,228
255.814,225
255.839,225
255.864,228
255.889,229
255.914,227
255.939,222
255.964,216
255.989,208
256.014,195
256.039,181
256.064,171
256.089,165
256.114,157
256.139,141
256.164,121
256.189,105
256.214,101
256.239,100
256.264,87
256.289,58
256.314,25
256.339,12
256.364,34
256.389,80
256.414,127
256.439,158
256.464,173
256.489,184
256.514,196
256.539,207
256.564,210
256.589,207
256.614,205
256.639,209
256.664,217
256.689,220
256.714,219
256.739,215
256.764,211
256.789,203
256.814,189
256.839,171
256.864,154
256.889,144
256.914,138
256.939,129
256.964,117
256.989,105
257.014,97
257.039,87
257.064,70
257.089,48
257.114,36
257.139,50
257.164,90
257.189,139
257.214,176
257.239,193
257.264,198
257.289,202
257.314,209
257.339,215
257.364,217
257.389,216
257.414,218
257.439,223
257.464,226
257.489,225
257.514,218
257.539,210
257.564,200
257.589,189
257.614,179
257.639,168
257.664,156
257.689,143
257.714,127
257.739,114
257.764,104
257.789,94
257.814,78
257.839,53
257.864,30
257.889,28
257.914,54
257.939,101
257.964,148
257.989,179
258.014,192
258.039,198
258.064,204
258.089,210
258.114,215
258.139,216
258.164,218
258.189,221
258.214,223
258.239,223
258.264,220
258.289,215
258.314,208
258.339,199
258.364,187
258.389,172
258.414,157
258.439,143
258.464,129
258.489,115
258.514,100
258.539,84
258.564,62
258.589,36
258.614,16
258.639,14
258.664,40
258.689,89
258.714,142
258.739,182
258.764,204
258.789,214
258.814,221
258.839,226
258.864,224
258.889,218
258.914,212
258.939,212
258.964,218
258.989,222
259.014,217
259.039,206
259.064,194
259.089,185
259.114,177
259.139,165
259.164,148
259.189,130
259.214,117
259.239,109
259.264,99
259.289,80
259.314,54
259.339,33
259.364,33
259.389,61
259.414,110
259.439,159
259.464,194
259.489,209
259.514,212
259.539,212
259.564,212
259.589,211
259.614,208
259.639,206
259.664,208
259.689,212
259.714,212
259.739,205
259.764,194
259.789,183
259.814,173
259.839,160
259.864,143
259.889,127
259.914,114
259.939,103
259.964,86
259.989,58
260.014,33
260.039,31
260.064,61
260.089,115
260.114,166
260.139,197
260.164,207
260.189,207
260.214,208
260.239,208
260.264,205
260.289,200
260.314,199
260.339,203
260.364,205
260.389,199
260.414,187
260.439,176
260.464,171
260.489,167
260.514,156
260.539,138
260.564,122
260.589,112
260.614,99
260.639,77
260.664,48
260.689,31
260.714,46
260.739,92
260.764,146
260.789,185
260.814,203
260.839,208
260.864,215
260.889,222
260.914,222
260.939,213
260.964,204
260.989,203
261.014,208
261.039,211
261.064,206
261.089,196
261.114,186
261.139,176
261.164,161
261.189,141
261.214,123
261.239,111
261.264,101
261.289,82
261.314,55
261.339,37
261.364,45
261.389,83
261.414,133
261.439,173
261.464,193
261.489,201
261.514,208
261.539,216
261.564,217
261.589,212
261.614,207
261.639,208
261.664,214
261.689,217
261.714,211
261.739,202
261.764,195
261.789,189
261.814,178
261.839,161
261.864,143
261.889,129
261.914,116
261.939,96
261.964,68
261.989,47
262.014,51
262.039,83
262.064,128
262.089,165
262.114,184
262.139,190
262.164,193
262.189,194
262.214,190
262.239,180
262.264,167
262.289,160
262.314,159
262.339,160
262.364,159
262.389,157
262.414,154
262.439,149
262.464,141
262.489,133
262.514,125
262.539,117
262.564,102
262.589,80
262.614,62
262.639,65
262.664,95
262.689,141
262.714,181
262.739,201
262.764,208
262.789,213
262.814,222
262.839,229
262.864,226
262.889,217
262.914,210
262.939,211
262.964,213
262.989,209
263.014,199
263.039,187
263.064,177
263.089,167
263.114,154
263.139,140
263.164,131
263.189,125
263.214,113
263.239,85
263.264,52
263.289,35
263.314,53
263.339,99
263.364,149
263.389,177
263.414,181
263.439,175
263.464,175
263.489,180
263.514,185
263.539,185
263.564,185
263.589,191
263.614,201
263.639,204
263.664,197
263.689,184
263.714,174
263.739,168
263.764,159
263.789,144
263.814,125
263.839,112
263.864,104
263.889,92
263.914,69
263.939,43
263.964,32
263.989,48
264.014,89
264.039,135
264.064,169
264.089,188
264.114,198
264.139,207
264.164,216
264.189,220
264.214,219
264.239,219
264.264,221
264.289,225
264.314,227
264.339,224
264.364,218
264.389,212
264.414,206
264.439,199
264.464,187
264.489,171
264.514,152
