df_hash,22ZHK4.FCVC8X
device,HZ2X61
project_hash,29R7
project_name,istanbul_aydin_university
person_hash,29R7.KMKG
person_label,V83
date_time_start,2025-11-03_17-01-15.271000_+03
date_time_start_unix,1762174875.271
date_time_end,2025-11-03_17-09-33.051000_+03
length_difference_noticed,no

time,ppg_med
5.544,601
5.569,691
5.594,834
5.619,911
5.644,880
5.669,849
5.694,932
5.719,1083
5.744,1140
5.769,1047
5.794,948
5.819,1000
5.844,1140
5.869,1149
5.894,949
5.919,737
5.944,726
5.969,831
5.994,755
6.019,400
6.044,28
6.069,-77
6.094,-28
6.119,-216
6.144,-769
6.169,-1339
6.194,-1555
6.219,-1562
6.244,-1870
6.269,-2641
6.294,-3420
6.319,-3729
6.344,-3758
6.369,-4154
6.394,-5125
6.419,-6087
6.444,-6428
6.469,-6391
6.494,-6797
6.519,-7904
6.544,-8972
6.569,-9231
6.594,-8986
6.619,-9268
6.644,-10401
6.669,-11453
6.694,-11463
6.719,-10813
6.744,-10792
6.769,-11803
6.794,-12686
6.819,-12241
6.844,-10947
6.869,-10414
6.894,-11147
6.919,-11700
6.944,-10578
6.969,-8380
6.994,-7124
7.019,-7446
7.044,-7542
7.069,-5532
7.094,-2170
7.119,-4
7.144,144
7.169,554
7.194,3626
7.219,8405
7.244,11613
7.269,12159
7.294,12985
7.319,17245
7.344,23719
7.369,28039
7.394,28684
7.419,29596
7.444,32767
7.469,32767
7.494,32767
7.519,32767
7.544,32767
7.569,32767
7.594,32767
7.619,32767
7.644,32767
7.669,32767
7.694,32767
7.719,32767
7.744,32767
7.769,32767
7.794,15846
7.819,-32768
7.844,-32768
7.869,-32768
7.894,-32768
7.919,-32768
7.944,-32768
7.969,-32768
7.994,-32768
8.019,-32768
8.044,-32768
8.069,-32768
8.094,-32768
8.119,-32768
8.144,-32768
8.169,-30799
8.194,-28313
8.219,-28248
8.244,-25563
8.269,-19464
8.294,-13913
8.319,-11934
8.344,-11801
8.369,-9805
8.394,-5308
8.419,-1253
8.444,52
8.469,-100
8.494,1127
8.519,4248
8.544,6998
8.569,7600
8.594,7087
8.619,7708
8.644,9853
8.669,11691
8.694,11767
8.719,10894
8.744,10886
8.769,12095
8.794,13078
8.819,12673
8.844,11519
8.869,11069
8.894,11610
8.919,11997
8.944,11302
8.969,10037
8.994,9361
9.019,9498
9.044,9530
9.069,8719
9.094,7474
9.119,6723
9.144,6648
9.169,6516
9.194,5737
9.219,4639
9.244,3955
9.269,3824
9.294,3664
9.319,3005
9.344,2107
9.369,1560
9.394,1500
9.419,1483
9.444,1130
9.469,599
9.494,305
9.519,330
9.544,348
9.569,99
9.594,-271
9.619,-449
9.644,-382
9.669,-323
9.694,-464
9.719,-690
9.744,-763
9.769,-653
9.794,-558
9.819,-624
9.844,-763
9.869,-792
9.894,-686
9.919,-587
9.944,-605
9.969,-679
9.994,-679
10.019,-582
10.044,-491
10.069,-488
10.094,-533
10.119,-533
10.144,-462
10.169,-376
10.194,-318
10.219,-255
10.244,-133
10.269,33
10.294,172
10.319,240
10.344,275
10.369,321
10.394,339
10.419,343
10.444,341
10.469,344
10.494,351
10.519,349
10.544,334
10.569,312
10.594,293
10.619,280
10.644,267
10.669,249
10.694,224
10.719,196
10.744,169
10.769,142
10.794,117
10.819,96
10.844,75
10.869,47
10.894,14
10.919,-8
10.944,0
10.969,54
10.994,135
11.019,214
11.044,268
11.069,300
11.094,329
11.119,365
11.144,399
11.169,417
11.194,414
11.219,404
11.244,402
11.269,410
11.294,418
11.319,417
11.344,406
11.369,388
11.394,367
11.419,340
11.444,311
11.469,282
11.494,253
11.519,220
11.544,175
11.569,122
11.594,74
11.619,41
11.644,18
11.669,-12
11.694,-56
11.719,-96
11.744,-101
11.769,-55
11.794,27
11.819,116
11.844,185
11.869,231
11.894,268
11.919,310
11.944,353
11.969,385
11.994,400
12.019,403
12.044,405
12.069,413
12.094,424
12.119,432
12.144,432
12.169,423
12.194,408
12.219,389
12.244,368
12.269,344
12.294,320
12.319,298
12.344,277
12.369,254
12.394,224
12.419,190
12.444,157
12.469,133
12.494,112
12.519,81
12.544,30
12.569,-31
12.594,-74
12.619,-69
12.644,-10
12.669,76
12.694,156
12.719,207
12.744,239
12.769,270
12.794,307
12.819,341
12.844,357
12.869,353
12.894,342
12.919,338
12.944,343
12.969,348
12.994,346
13.019,337
13.044,325
13.069,311
13.094,293
13.119,269
13.144,244
13.169,218
13.194,194
13.219,168
13.244,140
13.269,115
13.294,90
13.319,63
13.344,27
13.369,-8
13.394,-21
13.419,7
13.444,79
13.469,168
13.494,243
13.519,290
13.544,315
13.569,335
13.594,357
13.619,374
13.644,380
13.669,378
13.694,377
13.719,380
13.744,383
13.769,380
13.794,371
13.819,359
13.844,347
13.869,330
13.894,305
13.919,274
13.944,244
13.969,219
13.994,192
14.019,160
14.044,124
14.069,91
14.094,60
14.119,20
14.144,-28
14.169,-70
14.194,-72
14.219,-18
14.244,74
14.269,165
14.294,226
14.319,259
14.344,289
14.369,333
14.394,377
14.419,400
14.444,393
14.469,376
14.494,375
14.519,395
14.544,420
14.569,428
14.594,414
14.619,390
14.644,371
14.669,357
14.694,339
14.719,310
14.744,275
14.769,244
14.794,221
14.819,200
14.844,171
14.869,134
14.894,98
14.919,69
14.944,44
14.969,12
14.994,-33
15.019,-80
15.044,-102
15.069,-75
15.094,-1
15.119,91
15.144,170
15.169,223
15.194,262
15.219,303
15.244,349
15.269,386
15.294,405
15.319,407
15.344,406
15.369,412
15.394,422
15.419,429
15.444,430
15.469,430
15.494,431
15.519,428
15.544,412
15.569,381
15.594,340
15.619,301
15.644,270
15.669,250
15.694,233
15.719,212
15.744,182
15.769,145
15.794,109
15.819,79
15.844,49
15.869,9
15.894,-40
15.919,-80
15.944,-79
15.969,-25
15.994,64
16.019,152
16.044,211
16.069,244
16.094,272
16.119,307
16.144,343
16.169,362
16.194,363
16.219,357
16.244,357
16.269,363
16.294,366
16.319,360
16.344,348
16.369,333
16.394,317
16.419,296
16.444,272
16.469,248
16.494,229
16.519,208
16.544,182
16.569,151
16.594,120
16.619,89
16.644,53
16.669,11
16.694,-19
16.719,-13
16.744,40
16.769,125
16.794,205
16.819,259
16.844,290
16.869,316
16.894,346
16.919,371
16.944,378
16.969,369
16.994,357
17.019,357
17.044,366
17.069,374
17.094,373
17.119,362
17.144,347
17.169,328
17.194,308
17.219,284
17.244,256
17.269,225
17.294,189
17.319,153
17.344,122
17.369,95
17.394,62
17.419,17
17.444,-28
17.469,-46
17.494,-16
17.519,57
17.544,141
17.569,202
17.594,234
17.619,255
17.644,284
17.669,320
17.694,347
17.719,352
17.744,343
17.769,337
17.794,343
17.819,356
17.844,367
17.869,370
17.894,367
17.919,357
17.944,338
17.969,309
17.994,271
18.019,230
18.044,194
18.069,164
18.094,138
18.119,111
18.144,74
18.169,25
18.194,-23
18.219,-47
18.244,-21
18.269,50
18.294,142
18.319,218
18.344,266
18.369,300
18.394,339
18.419,383
18.444,417
18.469,430
18.494,428
18.519,431
18.544,440
18.569,444
18.594,427
18.619,393
18.644,360
18.669,340
18.694,326
18.719,307
18.744,277
18.769,245
18.794,220
18.819,197
18.844,166
18.869,129
18.894,93
18.919,64
18.944,33
18.969,-6
18.994,-46
19.019,-58
19.044,-21
19.069,55
19.094,136
19.119,190
19.144,219
19.169,242
19.194,277
19.219,317
19.244,344
19.269,351
19.294,346
19.319,344
19.344,351
19.369,357
19.394,358
19.419,352
19.444,343
19.469,332
19.494,316
19.519,294
19.544,270
19.569,249
19.594,227
19.619,198
19.644,163
19.669,128
19.694,98
19.719,70
19.744,38
19.769,6
19.794,-8
19.819,12
19.844,67
19.869,136
19.894,192
19.919,229
19.944,257
19.969,288
19.994,319
20.019,337
20.044,337
20.069,325
20.094,316
20.119,317
20.144,320
20.169,319
20.194,313
20.219,310
20.244,314
20.269,320
20.294,319
20.319,309
20.344,295
20.369,281
20.394,260
20.419,228
20.444,187
20.469,148
20.494,120
20.519,96
20.544,61
20.569,14
20.594,-24
20.619,-27
20.644,16
20.669,89
20.694,160
20.719,211
20.744,247
20.769,286
20.794,333
20.819,376
20.844,402
20.869,408
20.894,406
20.919,407
20.944,416
20.969,426
20.994,431
21.019,429
21.044,419
21.069,401
21.094,376
21.119,347
21.144,319
21.169,292
21.194,266
21.219,240
21.244,213
21.269,189
21.294,165
21.319,139
21.344,111
21.369,83
21.394,54
21.419,20
21.444,-23
21.469,-65
21.494,-84
21.519,-58
21.544,5
21.569,82
21.594,144
21.619,182
21.644,210
21.669,246
21.694,292
21.719,335
21.744,363
21.769,375
21.794,378
21.819,381
21.844,386
21.869,392
21.894,396
21.919,392
21.944,379
21.969,359
21.994,339
22.019,324
22.044,311
22.069,293
22.094,269
22.119,243
22.144,220
22.169,201
22.194,181
22.219,155
22.244,126
22.269,98
22.294,68
22.319,31
22.344,-2
22.369,-11
22.394,19
22.419,80
22.444,144
22.469,189
22.494,220
22.519,258
22.544,309
22.569,351
22.594,356
22.619,327
22.644,297
22.669,297
22.694,326
22.719,354
22.744,358
22.769,340
22.794,320
22.819,309
22.844,301
22.869,284
22.894,257
22.919,229
22.944,206
22.969,185
22.994,162
23.019,139
23.044,118
23.069,93
23.094,54
23.119,11
23.144,-11
23.169,12
23.194,79
23.219,159
23.244,219
23.269,253
23.294,280
23.319,318
23.344,361
23.369,390
23.394,394
23.419,383
23.444,378
23.469,385
23.494,398
23.519,405
23.544,402
23.569,392
23.594,378
23.619,357
23.644,326
23.669,290
23.694,255
23.719,228
23.744,205
23.769,180
23.794,150
23.819,117
23.844,86
23.869,60
23.894,31
23.919,-4
23.944,-49
23.969,-86
23.994,-94
24.019,-56
24.044,19
24.069,106
24.094,177
24.119,223
24.144,258
24.169,300
24.194,351
24.219,396
24.244,422
24.269,428
24.294,427
24.319,431
24.344,441
24.369,451
24.394,454
24.419,448
24.444,435
24.469,416
24.494,394
24.519,376
24.544,365
24.569,354
24.594,335
24.619,302
24.644,260
24.669,219
24.694,184
24.719,153
24.744,122
24.769,93
24.794,69
24.819,46
24.844,11
24.869,-38
24.894,-88
24.919,-105
24.944,-70
24.969,5
24.994,88
25.019,149
25.044,187
25.069,222
25.094,264
25.119,309
25.144,340
25.169,349
25.194,346
25.219,343
25.244,348
25.269,356
25.294,361
25.319,361
25.344,359
25.369,352
25.394,338
25.419,316
25.444,293
25.469,273
25.494,254
25.519,233
25.544,209
25.569,186
25.594,168
25.619,149
25.644,117
25.669,68
25.694,21
25.719,6
25.744,40
25.769,110
25.794,186
25.819,240
25.844,270
25.869,293
25.894,322
25.919,350
25.944,366
25.969,364
25.994,354
26.019,349
26.044,352
26.069,355
26.094,349
26.119,335
26.144,319
26.169,304
26.194,290
26.219,270
26.244,246
26.269,221
26.294,198
26.319,174
26.344,148
26.369,124
26.394,102
26.419,78
26.444,41
26.469,-6
26.494,-46
26.519,-50
26.544,-1
26.569,84
26.594,171
26.619,227
26.644,252
26.669,267
26.694,293
26.719,332
26.744,368
26.769,385
26.794,384
26.819,378
26.844,378
26.869,385
26.894,391
26.919,390
26.944,382
26.969,368
26.994,351
27.019,331
27.044,311
27.069,292
27.094,272
27.119,246
27.144,213
27.169,178
27.194,149
27.219,127
27.244,103
27.269,67
27.294,20
27.319,-20
27.344,-27
27.369,11
27.394,83
27.419,159
27.444,216
27.469,251
27.494,280
27.519,318
27.544,362
27.569,398
27.594,413
27.619,409
27.644,395
27.669,383
27.694,376
27.719,371
27.744,364
27.769,351
27.794,332
27.819,306
27.844,277
27.869,249
27.894,223
27.919,197
27.944,168
27.969,138
27.994,111
28.019,87
28.044,60
28.069,21
28.094,-21
28.119,-47
28.144,-33
28.169,24
28.194,103
28.219,172
28.244,218
28.269,250
28.294,284
28.319,323
28.344,353
28.369,363
28.394,358
28.419,351
28.444,354
28.469,363
28.494,365
28.519,357
28.544,344
28.569,333
28.594,326
28.619,314
28.644,289
28.669,252
28.694,207
28.719,166
28.744,134
28.769,111
28.794,86
28.819,50
28.844,6
28.869,-30
28.894,-33
28.919,8
28.944,82
28.969,157
28.994,212
29.019,248
29.044,282
29.069,322
29.094,362
29.119,387
29.144,393
29.169,389
29.194,389
29.219,393
29.244,394
29.269,389
29.294,381
29.319,374
29.344,366
29.369,350
29.394,325
29.419,297
29.444,272
29.469,245
29.494,207
29.519,162
29.544,120
29.569,89
29.594,62
29.619,25
29.644,-19
29.669,-44
29.694,-23
29.719,44
29.744,128
29.769,192
29.794,226
29.819,250
29.844,283
29.869,325
29.894,359
29.919,372
29.944,371
29.969,371
29.994,376
30.019,379
30.044,372
30.069,358
30.094,343
30.119,328
30.144,310
30.169,286
30.194,258
30.219,233
30.244,210
30.269,183
30.294,153
30.319,125
30.344,100
30.369,71
30.394,31
30.419,-15
30.444,-44
30.469,-31
30.494,24
30.519,99
30.544,165
30.569,213
30.594,254
30.619,296
30.644,335
30.669,358
30.694,359
30.719,347
30.744,337
30.769,337
30.794,342
30.819,346
30.844,349
30.869,347
30.894,340
30.919,325
30.944,302
30.969,278
30.994,256
31.019,234
31.044,209
31.069,183
31.094,160
31.119,138
31.144,108
31.169,66
31.194,21
31.219,0
31.244,21
31.269,83
31.294,158
31.319,221
31.344,263
31.369,295
31.394,327
31.419,363
31.444,390
31.469,402
31.494,399
31.519,392
31.544,389
31.569,394
31.594,402
31.619,407
31.644,403
31.669,387
31.694,363
31.719,337
31.744,313
31.769,293
31.794,275
31.819,255
31.844,233
31.869,208
31.894,183
31.919,160
31.944,137
31.969,111
31.994,79
32.019,45
32.044,16
32.069,-7
32.094,-29
32.119,-61
32.144,-106
32.169,-147
32.194,-158
32.219,-118
32.244,-31
32.269,71
32.294,159
32.319,218
32.344,259
32.369,300
32.394,348
32.419,392
32.444,421
32.469,433
32.494,438
32.519,446
32.544,459
32.569,471
32.594,478
32.619,478
32.644,473
32.669,464
32.694,449
32.719,427
32.744,400
32.769,373
32.794,348
32.819,325
32.844,301
32.869,274
32.894,246
32.919,217
32.944,187
32.969,155
32.994,121
33.019,88
33.044,58
33.069,27
33.094,-9
33.119,-55
33.144,-98
33.169,-114
33.194,-86
33.219,-16
33.244,73
33.269,152
33.294,206
33.319,241
33.344,273
33.369,309
33.394,345
33.419,370
33.444,381
33.469,385
33.494,388
33.519,393
33.544,398
33.569,400
33.594,399
33.619,397
33.644,393
33.669,382
33.694,361
33.719,329
33.744,293
33.769,262
33.794,238
33.819,220
33.844,199
33.869,171
33.894,136
33.919,103
33.944,76
33.969,51
33.994,20
34.019,-18
34.044,-48
34.069,-45
34.094,3
34.119,87
34.144,174
34.169,238
34.194,276
34.219,303
34.244,333
34.269,363
34.294,383
34.319,384
34.344,377
34.369,376
34.394,384
34.419,396
34.444,399
34.469,391
34.494,376
34.519,359
34.544,338
34.569,313
34.594,285
34.619,261
34.644,243
34.669,221
34.694,187
34.719,144
34.744,103
34.769,74
34.794,52
34.819,20
34.844,-27
34.869,-75
34.894,-89
34.919,-51
34.944,30
34.969,121
34.994,190
35.019,233
35.044,265
35.069,303
35.094,347
35.119,383
35.144,401
35.169,403
35.194,401
35.219,406
35.244,414
35.269,419
35.294,414
35.319,403
35.344,389
35.369,375
35.394,357
35.419,333
35.444,304
35.469,273
35.494,241
35.519,205
35.544,169
35.569,135
35.594,108
35.619,84
35.644,51
35.669,4
35.694,-49
35.719,-83
35.744,-71
35.769,-9
35.794,82
35.819,169
35.844,232
35.869,271
35.894,305
35.919,344
35.944,381
35.969,403
35.994,404
36.019,395
36.044,390
36.069,396
36.094,404
36.119,404
36.144,395
36.169,381
36.194,367
36.219,350
36.244,326
36.269,297
36.294,267
36.319,238
36.344,208
36.369,172
36.394,134
36.419,101
36.444,73
36.469,43
36.494,2
36.519,-39
36.544,-56
36.569,-27
36.594,46
36.619,139
36.644,217
36.669,267
36.694,295
36.719,315
36.744,334
36.769,348
36.794,352
36.819,349
36.844,346
36.869,348
36.894,352
36.919,353
36.944,348
36.969,336
36.994,319
37.019,298
37.044,274
37.069,247
37.094,218
37.119,186
37.144,156
37.169,132
37.194,110
37.219,83
37.244,43
37.269,0
37.294,-22
37.319,0
37.344,62
37.369,143
37.394,208
37.419,250
37.444,280
37.469,314
37.494,351
37.519,376
37.544,380
37.569,372
37.594,371
37.619,384
37.644,400
37.669,403
37.694,389
37.719,362
37.744,331
37.769,300
37.794,266
37.819,231
37.844,196
37.869,161
37.894,124
37.919,86
37.944,55
37.969,32
37.994,8
38.019,-28
38.044,-75
38.069,-104
38.094,-86
38.119,-16
38.144,77
38.169,157
38.194,208
38.219,242
38.244,285
38.269,339
38.294,388
38.319,414
38.344,420
38.369,423
38.394,433
38.419,446
38.444,454
38.469,454
38.494,453
38.519,452
38.544,447
38.569,431
38.594,407
38.619,386
38.644,372
38.669,359
38.694,336
38.719,301
38.744,261
38.769,225
38.794,192
38.819,159
38.844,124
38.869,93
38.894,65
38.919,33
38.944,-11
38.969,-63
38.994,-96
39.019,-83
39.044,-21
39.069,65
39.094,142
39.119,193
39.144,225
39.169,253
39.194,287
39.219,321
39.244,344
39.269,354
39.294,356
39.319,357
39.344,360
39.369,364
39.394,366
39.419,364
39.444,358
39.469,348
39.494,333
39.519,314
39.544,293
39.569,273
39.594,255
39.619,239
39.644,221
39.669,202
39.694,178
39.719,151
39.744,120
39.769,85
39.794,43
39.819,-3
39.844,-41
39.869,-53
39.894,-25
39.919,34
39.944,107
39.969,170
39.994,213
40.019,247
40.044,281
40.069,316
40.094,343
40.119,355
40.144,356
40.169,360
40.194,371
40.219,386
40.244,391
40.269,383
40.294,369
40.319,355
40.344,343
40.369,328
40.394,304
40.419,276
40.444,244
40.469,209
40.494,169
40.519,126
40.544,87
40.569,57
40.594,28
40.619,-7
40.644,-49
40.669,-77
40.694,-65
40.719,-8
40.744,73
40.769,148
40.794,202
40.819,243
40.844,288
40.869,343
40.894,393
40.919,424
40.944,437
40.969,446
40.994,460
41.019,479
41.044,491
41.069,488
41.094,472
41.119,449
41.144,425
41.169,401
41.194,375
41.219,347
41.244,316
41.269,284
41.294,252
41.319,221
41.344,192
41.369,162
41.394,129
41.419,94
41.444,58
41.469,21
41.494,-23
41.519,-76
41.544,-124
41.569,-140
41.594,-104
41.619,-22
41.644,74
41.669,154
41.694,203
41.719,232
41.744,262
41.769,300
41.794,338
41.819,367
41.844,385
41.869,400
41.894,416
41.919,430
41.944,437
41.969,434
41.994,422
42.019,405
42.044,388
42.069,370
42.094,350
42.119,326
42.144,297
42.169,264
42.194,233
42.219,204
42.244,177
42.269,148
42.294,114
42.319,80
42.344,50
42.369,19
42.394,-18
42.419,-62
42.444,-97
42.469,-98
42.494,-49
42.519,38
42.544,133
42.569,206
42.594,253
42.619,290
42.644,333
42.669,381
42.694,418
42.719,431
42.744,425
42.769,417
42.794,417
42.819,423
42.844,427
42.869,422
42.894,411
42.919,402
42.944,392
42.969,378
42.994,354
43.019,323
43.044,290
43.069,258
43.094,224
43.119,188
43.144,152
43.169,120
43.194,87
43.219,45
43.244,-9
43.269,-66
43.294,-98
43.319,-82
43.344,-22
43.369,58
43.394,130
43.419,182
43.444,221
43.469,258
43.494,296
43.519,327
43.544,346
43.569,353
43.594,358
43.619,367
43.644,380
43.669,391
43.694,397
43.719,395
43.744,385
43.769,365
43.794,335
43.819,301
43.844,271
43.869,245
43.894,220
43.919,189
43.944,153
43.969,119
43.994,92
44.019,65
44.044,29
44.069,-20
44.094,-66
44.119,-79
44.144,-40
44.169,42
44.194,138
44.219,213
44.244,260
44.269,292
44.294,328
44.319,370
44.344,404
44.369,418
44.394,416
44.419,413
44.444,421
44.469,433
44.494,437
44.519,427
44.544,409
44.569,393
44.594,378
44.619,356
44.644,324
44.669,290
44.694,263
44.719,243
44.744,218
44.769,178
44.794,129
44.819,87
44.844,57
44.869,28
44.894,-11
44.919,-59
44.944,-86
44.969,-66
44.994,4
45.019,95
45.044,173
45.069,222
45.094,256
45.119,291
45.144,330
45.169,361
45.194,372
45.219,368
45.244,363
45.269,364
45.294,370
45.319,372
45.344,365
45.369,354
45.394,339
45.419,322
45.444,299
45.469,274
45.494,247
45.519,221
45.544,193
45.569,161
45.594,129
45.619,98
45.644,64
45.669,27
45.694,-5
45.719,-17
45.744,8
45.769,72
45.794,152
45.819,219
45.844,264
45.869,297
45.894,331
45.919,366
45.944,390
45.969,393
45.994,384
46.019,379
46.044,385
46.069,394
46.094,394
46.119,381
46.144,364
46.169,349
46.194,333
46.219,307
46.244,270
46.269,234
46.294,204
46.319,178
46.344,145
46.369,105
46.394,66
46.419,34
46.444,1
46.469,-42
46.494,-87
46.519,-103
46.544,-63
46.569,28
46.594,132
46.619,209
46.644,253
46.669,291
46.694,346
46.719,405
46.744,436
46.769,419
46.794,376
46.819,348
46.844,360
46.869,395
46.894,419
46.919,412
46.944,384
46.969,358
46.994,343
47.019,330
47.044,306
47.069,272
47.094,236
47.119,204
47.144,175
47.169,142
47.194,106
47.219,74
47.244,48
47.269,20
47.294,-19
47.319,-66
47.344,-96
47.369,-81
47.394,-13
47.419,87
47.444,184
47.469,253
47.494,296
47.519,332
47.544,375
47.569,421
47.594,453
47.619,461
47.644,452
47.669,445
47.694,449
47.719,458
47.744,458
47.769,440
47.794,410
47.819,378
47.844,349
47.869,319
47.894,287
47.919,256
47.944,229
47.969,203
47.994,173
48.019,139
48.044,108
48.069,81
48.094,51
48.119,8
48.144,-40
48.169,-70
48.194,-56
48.219,6
48.244,91
48.269,166
48.294,217
48.319,251
48.344,282
48.369,314
48.394,337
48.419,343
48.444,339
48.469,334
48.494,334
48.519,336
48.544,336
48.569,334
48.594,331
48.619,324
48.644,309
48.669,285
48.694,257
48.719,232
48.744,209
48.769,183
48.794,152
48.819,119
48.844,87
48.869,53
48.894,14
48.919,-21
48.944,-29
48.969,9
48.994,91
49.019,183
49.044,253
49.069,291
49.094,315
49.119,341
49.144,372
49.169,394
49.194,398
49.219,392
49.244,389
49.269,393
49.294,399
49.319,397
49.344,384
49.369,365
49.394,344
49.419,322
49.444,298
49.469,271
49.494,242
49.519,210
49.544,173
49.569,134
49.594,102
49.619,74
49.644,41
49.669,-5
49.694,-59
49.719,-90
49.744,-70
49.769,0
49.794,93
49.819,170
49.844,216
49.869,243
49.894,275
49.919,320
49.944,365
49.969,391
49.994,395
50.019,388
50.044,386
50.069,392
50.094,401
50.119,402
50.144,393
50.169,381
50.194,366
50.219,349
50.244,325
50.269,295
50.294,263
50.319,232
50.344,203
50.369,172
50.394,139
50.419,109
50.444,85
50.469,59
50.494,20
50.519,-33
50.544,-82
50.569,-95
50.594,-53
50.619,31
50.644,124
50.669,196
50.694,243
50.719,282
50.744,328
50.769,376
50.794,409
50.819,416
50.844,407
50.869,401
50.894,407
50.919,420
50.944,428
50.969,424
50.994,412
51.019,397
51.044,382
51.069,365
51.094,347
51.119,328
51.144,307
51.169,283
51.194,256
51.219,227
51.244,197
51.269,164
51.294,128
51.319,93
51.344,60
51.369,28
51.394,-9
51.419,-53
51.444,-90
51.469,-94
51.494,-49
51.519,35
51.544,127
51.569,197
51.594,239
51.619,267
51.644,298
51.669,332
51.694,358
51.719,373
51.744,381
51.769,391
51.794,400
51.819,399
51.844,384
51.869,361
51.894,345
51.919,338
51.944,331
51.969,313
51.994,285
52.019,255
52.044,229
52.069,204
52.094,176
52.119,144
52.144,115
52.169,89
52.194,59
52.219,17
52.244,-25
52.269,-43
52.294,-12
52.319,62
52.344,152
52.369,223
52.394,267
52.419,297
52.444,329
52.469,364
52.494,387
52.519,390
52.544,379
52.569,370
52.594,375
52.619,386
52.644,391
52.669,385
52.694,371
52.719,356
52.744,341
52.769,322
52.794,294
52.819,258
52.844,218
52.869,178
52.894,141
52.919,109
52.944,83
52.969,57
52.994,22
53.019,-24
53.044,-66
53.069,-77
53.094,-38
53.119,42
53.144,134
53.169,206
53.194,248
53.219,276
53.244,308
53.269,346
53.294,379
53.319,394
53.344,395
53.369,394
53.394,398
53.419,405
53.444,406
53.469,399
53.494,388
53.519,376
53.544,358
53.569,334
53.594,304
53.619,273
53.644,244
53.669,213
53.694,179
53.719,146
53.744,121
53.769,99
53.794,66
53.819,13
53.844,-44
53.869,-75
53.894,-49
53.919,26
53.944,118
53.969,192
53.994,236
54.019,267
54.044,303
54.069,342
54.094,371
54.119,378
54.144,372
54.169,366
54.194,369
54.219,376
54.244,378
54.269,371
54.294,358
54.319,342
54.344,325
54.369,302
54.394,274
54.419,242
54.444,209
54.469,179
54.494,151
54.519,123
54.544,88
54.569,44
54.594,0
54.619,-27
54.644,-18
54.669,30
54.694,103
54.719,176
54.744,233
54.769,274
54.794,307
54.819,333
54.844,349
54.869,350
54.894,341
54.919,334
54.944,337
54.969,346
54.994,352
55.019,348
55.044,336
55.069,320
55.094,301
55.119,281
55.144,257
55.169,227
55.194,194
55.219,160
55.244,129
55.269,100
55.294,67
55.319,25
55.344,-16
55.369,-38
55.394,-18
55.419,46
55.444,135
55.469,215
55.494,267
55.519,296
55.544,325
55.569,362
55.594,398
55.619,414
55.644,407
55.669,391
55.694,385
55.719,394
55.744,406
55.769,407
55.794,395
55.819,376
55.844,357
55.869,334
55.894,303
55.919,267
55.944,234
55.969,208
55.994,183
56.019,151
56.044,114
56.069,81
56.094,57
56.119,33
56.144,-5
56.169,-58
56.194,-100
56.219,-101
56.244,-46
56.269,45
56.294,138
56.319,205
56.344,246
56.369,280
56.394,319
56.419,360
56.444,391
56.469,404
56.494,404
56.519,403
56.544,407
56.569,414
56.594,415
56.619,408
56.644,394
56.669,379
56.694,364
56.719,345
56.744,321
56.769,294
56.794,271
56.819,254
56.844,237
56.869,208
56.894,166
56.919,121
56.944,86
56.969,61
56.994,35
57.019,-3
57.044,-50
57.069,-77
57.094,-58
57.119,11
57.144,103
57.169,184
57.194,235
57.219,266
57.244,294
57.269,329
57.294,361
57.319,377
57.344,378
57.369,372
57.394,371
57.419,376
57.444,380
57.469,378
57.494,370
57.519,360
57.544,347
57.569,328
57.594,302
57.619,275
57.644,252
57.669,231
57.694,205
57.719,174
57.744,145
57.769,124
57.794,107
57.819,80
57.844,36
57.869,-11
57.894,-33
57.919,-7
57.944,60
57.969,142
57.994,211
58.019,256
58.044,288
58.069,317
58.094,343
58.119,358
58.144,360
58.169,355
58.194,354
58.219,357
58.244,361
58.269,359
58.294,353
58.319,345
58.344,335
58.369,321
58.394,299
58.419,271
58.444,239
58.469,204
58.494,167
58.519,133
58.544,106
58.569,84
58.594,58
58.619,18
58.644,-29
58.669,-60
58.694,-46
58.719,19
58.744,113
58.769,201
58.794,261
58.819,298
58.844,325
58.869,352
58.894,374
58.919,382
58.944,380
58.969,377
58.994,384
59.019,396
59.044,404
59.069,398
59.094,382
59.119,362
59.144,343
59.169,323
59.194,300
59.219,272
59.244,244
59.269,215
59.294,185
59.319,154
59.344,124
59.369,98
59.394,72
59.419,38
59.444,-9
59.469,-61
59.494,-94
59.519,-83
59.544,-20
59.569,73
59.594,165
59.619,232
59.644,273
59.669,307
59.694,346
59.719,386
59.744,412
59.769,416
59.794,410
59.819,414
59.844,435
59.869,460
59.894,467
59.919,447
59.944,410
59.969,376
59.994,354
60.019,337
60.044,315
60.069,284
60.094,251
60.119,222
60.144,194
60.169,161
60.194,124
60.219,88
60.244,52
60.269,11
60.294,-38
60.319,-83
60.344,-94
60.369,-53
60.394,28
60.419,119
60.444,186
60.469,227
60.494,259
60.519,296
60.544,336
60.569,361
60.594,365
60.619,358
60.644,355
60.669,361
60.694,366
60.719,365
60.744,357
60.769,351
60.794,346
60.819,335
60.844,312
60.869,280
60.894,247
60.919,216
60.944,188
60.969,162
60.994,138
61.019,116
61.044,86
61.069,44
61.094,0
61.119,-22
61.144,2
61.169,72
61.194,158
61.219,226
61.244,267
61.269,293
61.294,320
61.319,347
61.344,365
61.369,366
61.394,359
61.419,356
61.444,361
61.469,366
61.494,364
61.519,356
61.544,345
61.569,333
61.594,315
61.619,289
61.644,260
61.669,234
61.694,208
61.719,178
61.744,142
61.769,108
61.794,83
61.819,58
61.844,21
61.869,-27
61.894,-63
61.919,-53
61.944,12
61.969,109
61.994,193
62.019,242
62.044,269
62.069,299
62.094,342
62.119,383
62.144,401
62.169,394
62.194,381
62.219,379
62.244,387
62.269,392
62.294,383
62.319,367
62.344,354
62.369,344
62.394,328
62.419,299
62.444,265
62.469,236
62.494,216
62.519,193
62.544,158
62.569,118
62.594,85
62.619,62
62.644,35
62.669,-9
62.694,-61
62.719,-88
62.744,-61
62.769,15
62.794,110
62.819,190
62.844,246
62.869,294
62.894,345
62.919,391
62.944,415
62.969,411
62.994,395
63.019,388
63.044,397
63.069,412
63.094,419
63.119,413
63.144,400
63.169,389
63.194,378
63.219,363
63.244,342
63.269,314
63.294,284
63.319,255
63.344,227
63.369,198
63.394,166
63.419,132
63.444,100
63.469,71
63.494,43
63.519,7
63.544,-39
63.569,-86
63.594,-106
63.619,-76
63.644,1
63.669,100
63.694,184
63.719,236
63.744,265
63.769,296
63.794,337
63.819,377
63.844,398
63.869,395
63.894,382
63.919,376
63.944,381
63.969,389
63.994,387
64.019,374
64.044,359
64.069,349
64.094,341
64.119,326
64.144,299
64.169,265
64.194,233
64.219,208
64.244,185
64.269,159
64.294,129
64.319,101
64.344,75
64.369,42
64.394,-3
64.419,-51
64.444,-72
64.469,-41
64.494,38
64.519,140
64.544,226
64.569,280
64.594,310
64.619,335
64.644,363
64.669,386
64.694,392
64.719,384
64.744,376
64.769,382
64.794,399
64.819,415
64.844,417
64.869,405
64.894,384
64.919,360
64.944,333
64.969,302
64.994,270
65.019,241
65.044,215
65.069,188
65.094,153
65.119,112
65.144,75
65.169,48
65.194,25
65.219,-10
65.244,-60
65.269,-108
65.294,-119
65.319,-73
65.344,18
65.369,122
65.394,204
65.419,256
65.444,290
65.469,323
65.494,359
65.519,391
65.544,410
65.569,415
65.594,415
65.619,417
65.644,424
65.669,430
65.694,430
65.719,421
65.744,405
65.769,388
65.794,372
65.819,354
65.844,330
65.869,298
65.894,260
65.919,223
65.944,188
65.969,154
65.994,118
66.019,82
66.044,51
66.069,20
66.094,-19
66.119,-69
66.144,-111
66.169,-111
66.194,-52
66.219,51
66.244,158
66.269,232
66.294,271
66.319,299
66.344,335
66.369,377
66.394,405
66.419,410
66.444,401
66.469,396
66.494,400
66.519,408
66.544,409
66.569,402
66.594,392
66.619,380
66.644,361
66.669,336
66.694,307
66.719,277
66.744,247
66.769,210
66.794,172
66.819,140
66.844,121
66.869,102
66.894,64
66.919,4
66.944,-55
66.969,-75
66.994,-33
67.019,55
67.044,151
67.069,223
67.094,264
67.119,290
67.144,315
67.169,340
67.194,352
67.219,347
67.244,332
67.269,322
67.294,325
67.319,337
67.344,344
67.369,337
67.394,318
67.419,297
67.444,279
67.469,260
67.494,235
67.519,201
67.544,167
67.569,138
67.594,112
67.619,74
67.644,22
67.669,-25
67.694,-37
67.719,6
67.744,94
67.769,191
67.794,268
67.819,315
67.844,345
67.869,373
67.894,397
67.919,406
67.944,395
67.969,377
67.994,366
68.019,368
68.044,374
68.069,370
68.094,354
68.119,331
68.144,308
68.169,287
68.194,260
68.219,224
68.244,182
68.269,145
68.294,116
68.319,88
68.344,49
68.369,-5
68.394,-61
68.419,-86
68.444,-60
68.469,16
68.494,112
68.519,194
68.544,246
68.569,281
68.594,315
68.619,354
68.644,386
68.669,399
68.694,393
68.719,382
68.744,379
68.769,382
68.794,383
68.819,375
68.844,362
68.869,350
68.894,335
68.919,308
68.944,264
68.969,214
68.994,172
69.019,144
69.044,117
69.069,75
69.094,17
69.119,-33
69.144,-45
69.169,-2
69.194,75
69.219,157
69.244,217
69.269,256
69.294,290
69.319,328
69.344,365
69.369,386
69.394,385
69.419,372
69.444,362
69.469,361
69.494,362
69.519,355
69.544,340
69.569,322
69.594,307
69.619,291
69.644,266
69.669,231
69.694,194
69.719,165
69.744,142
69.769,109
69.794,59
69.819,3
69.844,-28
69.869,-11
69.894,53
69.919,137
69.944,206
69.969,245
69.994,264
70.019,282
70.044,307
70.069,329
70.094,336
70.119,328
70.144,316
70.169,313
70.194,316
70.219,316
70.244,305
70.269,287
70.294,270
70.319,256
70.344,238
70.369,211
70.394,180
70.419,153
70.444,134
70.469,109
70.494,68
70.519,19
70.544,-6
70.569,16
70.594,87
70.619,172
70.644,240
70.669,280
70.694,308
70.719,339
70.744,374
70.769,396
70.794,397
70.819,387
70.844,382
70.869,389
70.894,398
70.919,398
70.944,384
70.969,362
70.994,339
71.019,313
71.044,283
71.069,252
71.094,222
71.119,192
71.144,159
71.169,123
71.194,88
71.219,59
71.244,28
71.269,-14
71.294,-64
71.319,-100
71.344,-90
71.369,-26
71.394,70
71.419,159
71.444,218
71.469,254
71.494,288
71.519,331
71.544,374
71.569,399
71.594,403
71.619,395
71.644,392
71.669,397
71.694,404
71.719,404
71.744,395
71.769,380
71.794,362
71.819,341
71.844,317
71.869,295
71.894,274
71.919,252
71.944,222
71.969,182
71.994,141
72.019,109
72.044,85
72.069,59
72.094,17
72.119,-36
72.144,-77
72.169,-75
72.194,-20
72.219,67
72.244,153
72.269,213
72.294,250
72.319,284
72.344,326
72.369,367
72.394,392
72.419,395
72.444,388
72.469,389
72.494,401
72.519,412
72.544,411
72.569,400
72.594,388
72.619,379
72.644,367
72.669,344
72.694,311
72.719,275
72.744,242
72.769,212
72.794,179
72.819,147
72.844,121
72.869,100
72.894,71
72.919,21
72.944,-40
72.969,-83
72.994,-76
73.019,-12
73.044,80
73.069,162
73.094,213
73.119,242
73.144,268
73.169,301
73.194,330
73.219,344
73.244,342
73.269,336
73.294,338
73.319,347
73.344,355
73.369,354
73.394,343
73.419,329
73.444,312
73.469,294
73.494,274
73.519,252
73.544,227
73.569,199
73.594,168
73.619,138
73.644,112
73.669,88
73.694,56
73.719,11
73.744,-36
73.769,-59
73.794,-31
73.819,47
73.844,150
73.869,240
73.894,295
73.919,325
73.944,348
73.969,377
73.994,404
74.019,418
74.044,418
74.069,414
74.094,414
74.119,420
74.144,425
74.169,423
74.194,415
74.219,405
74.244,392
74.269,375
74.294,350
74.319,322
74.344,293
74.369,265
74.394,234
74.419,201
74.444,169
74.469,137
74.494,106
74.519,70
74.544,33
74.569,0
74.594,-31
74.619,-67
74.644,-114
74.669,-157
74.694,-163
74.719,-103
74.744,12
74.769,139
74.794,228
74.819,265
74.844,278
74.869,306
74.894,359
74.919,415
74.944,446
74.969,444
74.994,429
75.019,425
75.044,437
75.069,453
75.094,458
75.119,449
75.144,432
75.169,413
75.194,395
75.219,376
75.244,354
75.269,328
75.294,299
75.319,267
75.344,234
75.369,200
75.394,167
75.419,133
75.444,102
75.469,72
75.494,41
75.519,0
75.544,-55
75.569,-104
75.594,-116
75.619,-68
75.644,29
75.669,138
75.694,220
75.719,263
75.744,286
75.769,313
75.794,345
75.819,368
75.844,369
75.869,358
75.894,353
75.919,363
75.944,378
75.969,381
75.994,368
76.019,347
76.044,326
76.069,308
76.094,288
76.119,259
76.144,224
76.169,186
76.194,147
76.219,110
76.244,78
76.269,50
76.294,21
76.319,-17
76.344,-63
76.369,-97
76.394,-87
76.419,-23
76.444,79
76.469,182
76.494,254
76.519,292
76.544,310
76.569,324
76.594,339
76.619,350
76.644,352
76.669,349
76.694,346
76.719,345
76.744,345
76.769,341
76.794,333
76.819,318
76.844,296
76.869,273
76.894,254
76.919,239
76.944,219
76.969,188
76.994,147
77.019,111
77.044,90
77.069,77
77.094,52
77.119,10
77.144,-27
77.169,-21
77.194,49
77.219,167
77.244,287
77.269,377
77.294,435
77.319,485
77.344,544
77.369,606
77.394,654
77.419,683
77.444,702
77.469,722
77.494,745
77.519,759
77.544,751
77.569,723
77.594,678
77.619,616
77.644,529
77.669,413
77.694,279
77.719,147
77.744,30
77.769,-73
77.794,-173
77.819,-269
77.844,-350
77.869,-404
77.894,-432
77.919,-447
77.944,-458
77.969,-457
77.994,-424
78.019,-348
78.044,-237
78.069,-115
78.094,0
78.119,103
78.144,198
78.169,282
78.194,345
78.219,381
78.244,397
78.269,414
78.294,451
78.319,506
78.344,563
78.369,599
78.394,605
78.419,586
78.444,557
78.469,534
78.494,519
78.519,507
78.544,485
78.569,445
78.594,387
78.619,316
78.644,243
78.669,173
78.694,112
78.719,62
78.744,22
78.769,-16
78.794,-56
78.819,-88
78.844,-89
78.869,-42
78.894,44
78.919,142
78.944,216
78.969,255
78.994,274
79.019,292
79.044,315
79.069,333
79.094,337
79.119,332
79.144,330
79.169,337
79.194,347
79.219,351
79.244,351
79.269,348
79.294,344
79.319,332
79.344,311
79.369,286
79.394,262
79.419,242
79.444,222
79.469,199
79.494,175
79.519,144
79.544,91
79.569,8
79.594,-88
79.619,-152
79.644,-140
79.669,-46
79.694,87
79.719,209
79.744,291
79.769,337
79.794,366
79.819,382
79.844,385
79.869,379
79.894,383
79.919,407
79.944,439
79.969,453
79.994,433
80.019,388
80.044,343
80.069,310
80.094,285
80.119,251
80.144,202
80.169,145
80.194,93
80.219,54
80.244,25
80.269,0
80.294,-29
80.319,-65
80.344,-95
80.369,-97
80.394,-52
80.419,34
80.444,135
80.469,219
80.494,274
80.519,317
80.544,366
80.569,421
80.594,464
80.619,485
80.644,489
80.669,493
80.694,499
80.719,496
80.744,482
80.769,471
80.794,489
80.819,534
80.844,575
80.869,578
80.894,539
80.919,486
80.944,445
80.969,409
80.994,347
81.019,250
81.044,151
81.069,103
81.094,131
81.119,206
81.144,274
81.169,304
81.194,304
81.219,297
81.244,291
81.269,267
81.294,207
81.319,115
81.344,17
81.369,-56
81.394,-98
81.419,-113
81.444,-113
81.469,-109
81.494,-104
81.519,-106
81.544,-114
81.569,-122
81.594,-121
81.619,-109
81.644,-96
81.669,-100
81.694,-128
81.719,-162
81.744,-171
81.769,-130
81.794,-38
81.819,80
81.844,192
81.869,282
81.894,352
81.919,412
81.944,465
81.969,503
81.994,516
82.019,513
82.044,510
82.069,523
82.094,546
82.119,561
82.144,553
82.169,525
82.194,489
82.219,453
82.244,419
82.269,383
82.294,348
82.319,316
82.344,280
82.369,233
82.394,175
82.419,127
82.444,116
82.469,155
82.494,224
82.519,287
82.544,322
82.569,333
82.594,340
82.619,353
82.644,364
82.669,357
82.694,335
82.719,311
82.744,299
82.769,299
82.794,294
82.819,275
82.844,247
82.869,222
82.894,208
82.919,197
82.944,179
82.969,152
82.994,122
83.019,94
83.044,62
83.069,18
83.094,-33
83.119,-72
83.144,-72
83.169,-21
83.194,64
83.219,153
83.244,218
83.269,257
83.294,285
83.319,319
83.344,356
83.369,383
83.394,388
83.419,377
83.444,368
83.469,371
83.494,384
83.519,389
83.544,378
83.569,353
83.594,327
83.619,306
83.644,285
83.669,259
83.694,229
83.719,200
83.744,178
83.769,158
83.794,134
83.819,103
83.844,73
83.869,49
83.894,26
83.919,-8
83.944,-52
83.969,-82
83.994,-71
84.019,-6
84.044,87
84.069,176
84.094,235
84.119,271
84.144,304
84.169,346
84.194,386
84.219,411
84.244,417
84.269,413
84.294,415
84.319,423
84.344,431
84.369,431
84.394,423
84.419,410
84.444,393
84.469,373
84.494,349
84.519,325
84.544,301
84.569,277
84.594,251
84.619,224
84.644,199
84.669,176
84.694,152
84.719,125
84.744,98
84.769,72
84.794,41
84.819,0
84.844,-48
84.869,-79
84.894,-62
84.919,7
84.944,105
84.969,189
84.994,236
85.019,253
85.044,269
85.069,300
85.094,335
85.119,355
85.144,353
85.169,344
85.194,344
85.219,357
85.244,370
85.269,372
85.294,364
85.319,354
85.344,345
85.369,333
85.394,314
85.419,290
85.444,266
85.469,242
85.494,217
85.519,189
85.544,165
85.569,146
85.594,126
85.619,92
85.644,42
85.669,-4
85.694,-18
85.719,15
85.744,86
85.769,163
85.794,222
85.819,261
85.844,289
85.869,315
85.894,335
85.919,346
85.944,348
85.969,347
85.994,346
86.019,346
86.044,343
86.069,336
86.094,328
86.119,319
86.144,305
86.169,287
86.194,263
86.219,238
86.244,213
86.269,186
86.294,160
86.319,136
86.344,113
86.369,82
86.394,39
86.419,-5
86.444,-27
86.469,-4
86.494,63
86.519,149
86.544,222
86.569,270
86.594,304
86.619,340
86.644,380
86.669,410
86.694,417
86.719,406
86.744,393
86.769,390
86.794,394
86.819,395
86.844,386
86.869,369
86.894,352
86.919,335
86.944,316
86.969,292
86.994,265
87.019,239
87.044,209
87.069,173
87.094,133
87.119,98
87.144,75
87.169,60
87.194,34
87.219,-11
87.244,-62
87.269,-87
87.294,-57
87.319,23
87.344,120
87.369,196
87.394,239
87.419,265
87.444,296
87.469,334
87.494,365
87.519,373
87.544,364
87.569,357
87.594,364
87.619,378
87.644,384
87.669,375
87.694,357
87.719,338
87.744,319
87.769,292
87.794,257
87.819,220
87.844,189
87.869,163
87.894,135
87.919,107
87.944,87
87.969,81
87.994,79
88.019,63
88.044,29
88.069,0
88.094,8
88.119,67
88.144,158
88.169,243
88.194,299
88.219,330
88.244,356
88.269,386
88.294,415
88.319,432
88.344,433
88.369,424
88.394,417
88.419,413
88.444,408
88.469,398
88.494,382
88.519,361
88.544,338
88.569,311
88.594,279
88.619,244
88.644,207
88.669,173
88.694,144
88.719,115
88.744,79
88.769,36
88.794,-1
88.819,-13
88.844,12
88.869,69
88.894,135
88.919,188
88.944,226
88.969,258
88.994,288
89.019,311
89.044,313
89.069,294
89.094,270
89.119,262
89.144,273
89.169,289
89.194,293
89.219,282
89.244,265
89.269,254
89.294,247
89.319,234
89.344,209
89.369,180
89.394,156
89.419,135
89.444,109
89.469,71
89.494,35
89.519,23
89.544,51
89.569,112
89.594,180
89.619,233
89.644,269
89.669,299
89.694,332
89.719,363
89.744,380
89.769,378
89.794,368
89.819,360
89.844,361
89.869,365
89.894,362
89.919,351
89.944,337
89.969,322
89.994,308
90.019,289
90.044,263
90.069,230
90.094,193
90.119,156
90.144,126
90.169,105
90.194,87
90.219,59
90.244,16
90.269,-28
90.294,-46
90.319,-16
90.344,54
90.369,137
90.394,200
90.419,237
90.444,265
90.469,301
90.494,343
90.519,375
90.544,386
90.569,381
90.594,375
90.619,379
90.644,388
90.669,394
90.694,389
90.719,378
90.744,364
90.769,351
90.794,336
90.819,318
90.844,296
90.869,269
90.894,242
90.919,217
90.944,199
90.969,186
90.994,170
91.019,144
91.044,111
91.069,77
91.094,46
91.119,12
91.144,-27
91.169,-64
91.194,-71
91.219,-32
91.244,47
91.269,136
91.294,203
91.319,242
91.344,269
91.369,302
91.394,341
91.419,370
91.444,380
91.469,377
91.494,375
91.519,384
91.544,398
91.569,408
91.594,407
91.619,398
91.644,387
91.669,375
91.694,360
91.719,342
91.744,322
91.769,301
91.794,279
91.819,257
91.844,236
91.869,217
91.894,195
91.919,167
91.944,135
91.969,107
91.994,86
92.019,65
92.044,31
92.069,-15
92.094,-53
92.119,-52
92.144,1
92.169,87
92.194,169
92.219,222
92.244,248
92.269,269
92.294,297
92.319,324
92.344,338
92.369,336
92.394,330
92.419,335
92.444,351
92.469,364
92.494,364
92.519,350
92.544,334
92.569,321
92.594,309
92.619,294
92.644,274
92.669,250
92.694,226
92.719,201
92.744,176
92.769,151
92.794,129
92.819,105
92.844,73
92.869,34
92.894,5
92.919,10
92.944,60
92.969,140
92.994,222
93.019,280
93.044,310
93.069,328
93.094,345
93.119,362
93.144,370
93.169,365
93.194,356
93.219,352
93.244,355
93.269,360
93.294,359
93.319,351
93.344,340
93.369,326
93.394,308
93.419,285
93.444,257
93.469,228
93.494,200
93.519,171
93.544,141
93.569,114
93.594,92
93.619,67
93.644,29
93.669,-20
93.694,-61
93.719,-63
93.744,-13
93.769,72
93.794,157
93.819,215
93.844,247
93.869,273
93.894,306
93.919,342
93.944,367
93.969,375
93.994,377
94.019,384
94.044,398
94.069,405
94.094,397
94.119,379
94.144,362
94.169,350
94.194,339
94.219,319
94.244,289
94.269,258
94.294,231
94.319,203
94.344,172
94.369,138
94.394,109
94.419,85
94.444,57
94.469,15
94.494,-32
94.519,-60
94.544,-39
94.569,31
94.594,126
94.619,205
94.644,253
94.669,278
94.694,304
94.719,340
94.744,377
94.769,395
94.794,393
94.819,381
94.844,378
94.869,387
94.894,398
94.919,398
94.944,387
94.969,370
94.994,358
95.019,350
95.044,336
95.069,311
95.094,277
95.119,242
95.144,212
95.169,186
95.194,160
95.219,133
95.244,107
95.269,84
95.294,57
95.319,18
95.344,-26
95.369,-56
95.394,-44
95.419,13
95.444,97
95.469,175
95.494,227
95.519,256
95.544,281
95.569,311
95.594,340
95.619,356
95.644,354
95.669,345
95.694,342
95.719,349
95.744,358
95.769,360
95.794,353
95.819,339
95.844,323
95.869,306
95.894,288
95.919,269
95.944,247
95.969,224
95.994,200
96.019,177
96.044,156
96.069,136
96.094,108
96.119,69
96.144,24
96.169,-4
96.194,4
96.219,55
96.244,132
96.269,204
96.294,253
96.319,282
96.344,305
96.369,332
96.394,355
96.419,363
96.444,352
96.469,337
96.494,333
96.519,341
96.544,352
96.569,353
96.594,342
96.619,329
96.644,320
96.669,313
96.694,299
96.719,276
96.744,249
96.769,225
96.794,204
96.819,184
96.844,162
96.869,140
96.894,115
96.919,81
96.944,33
96.969,-14
96.994,-36
97.019,-10
97.044,59
97.069,146
97.094,213
97.119,249
97.144,266
97.169,287
97.194,320
97.219,351
97.244,366
97.269,362
97.294,351
97.319,347
97.344,355
97.369,365
97.394,367
97.419,358
97.444,343
97.469,326
97.494,309
97.519,291
97.544,268
97.569,242
97.594,215
97.619,188
97.644,163
97.669,136
97.694,108
97.719,74
97.744,34
97.769,-3
97.794,-25
97.819,-11
97.844,45
97.869,128
97.894,205
97.919,253
97.944,273
97.969,291
97.994,323
98.019,366
98.044,392
98.069,383
98.094,347
98.119,314
98.144,307
98.169,325
98.194,347
98.219,353
98.244,340
98.269,320
98.294,301
98.319,285
98.344,266
98.369,239
98.394,208
98.419,178
98.444,154
98.469,132
98.494,106
98.519,71
98.544,31
98.569,0
98.594,0
98.619,39
98.644,106
98.669,177
98.694,230
98.719,263
98.744,287
98.769,313
98.794,337
98.819,350
98.844,348
98.869,342
98.894,340
98.919,346
98.944,351
98.969,351
98.994,344
99.019,337
99.044,328
99.069,314
99.094,290
99.119,258
99.144,224
99.169,192
99.194,164
99.219,141
99.244,118
99.269,90
99.294,53
99.319,16
99.344,-1
99.369,19
99.394,80
99.419,157
99.444,222
99.469,262
99.494,287
99.519,314
99.544,344
99.569,364
99.594,367
99.619,355
99.644,345
99.669,345
99.694,350
99.719,350
99.744,340
99.769,325
99.794,311
99.819,296
99.844,279
99.869,257
99.894,231
99.919,201
99.944,169
99.969,139
99.994,117
100.019,102
100.044,80
100.069,41
100.094,-4
100.119,-28
100.144,-3
100.169,68
100.194,154
100.219,217
100.244,250
100.269,274
100.294,307
100.319,347
100.344,375
100.369,379
100.394,370
100.419,367
100.444,374
100.469,383
100.494,382
100.519,371
100.544,359
100.569,347
100.594,331
100.619,306
100.644,277
100.669,252
100.694,230
100.719,203
100.744,168
100.769,133
100.794,107
100.819,86
100.844,56
100.869,12
100.894,-24
100.919,-25
100.944,21
100.969,100
100.994,175
101.019,227
101.044,262
101.069,295
101.094,329
101.119,354
101.144,359
101.169,348
101.194,337
101.219,336
101.244,343
101.269,348
101.294,346
101.319,339
101.344,328
101.369,312
101.394,291
101.419,265
101.444,237
101.469,210
101.494,185
101.519,162
101.544,140
101.569,113
101.594,79
101.619,43
101.644,19
101.669,28
101.694,75
101.719,143
101.744,205
101.769,245
101.794,269
101.819,293
101.844,322
101.869,345
101.894,350
101.919,337
101.944,321
101.969,318
101.994,325
102.019,330
102.044,324
102.069,311
102.094,303
102.119,300
102.144,292
102.169,265
102.194,220
102.219,172
102.244,139
102.269,121
102.294,106
102.319,75
102.344,30
102.369,-9
102.394,-14
102.419,27
102.444,101
102.469,178
102.494,234
102.519,268
102.544,294
102.569,322
102.594,350
102.619,368
102.644,370
102.669,364
102.694,361
102.719,366
102.744,370
102.769,366
102.794,356
102.819,342
102.844,327
102.869,309
102.894,284
102.919,258
102.944,234
102.969,211
102.994,185
103.019,155
103.044,129
103.069,110
103.094,93
103.119,64
103.144,17
103.169,-29
103.194,-43
103.219,-6
103.244,71
103.269,155
103.294,215
103.319,249
103.344,274
103.369,305
103.394,341
103.419,368
103.444,376
103.469,369
103.494,363
103.519,366
103.544,375
103.569,382
103.594,380
103.619,371
103.644,358
103.669,344
103.694,328
103.719,308
103.744,285
103.769,261
103.794,239
103.819,216
103.844,193
103.869,172
103.894,153
103.919,136
103.944,111
103.969,72
103.994,27
104.019,0
104.044,14
104.069,71
104.094,147
104.119,210
104.144,244
104.169,258
104.194,272
104.219,295
104.244,318
104.269,326
104.294,319
104.319,311
104.344,312
104.369,320
104.394,325
104.419,321
104.444,310
104.469,299
104.494,290
104.519,277
104.544,257
104.569,232
104.594,207
104.619,183
104.644,159
104.669,137
104.694,116
104.719,95
104.744,69
104.769,34
104.794,1
104.819,-12
104.844,10
104.869,69
104.894,146
104.919,215
104.944,264
104.969,298
104.994,327
105.019,355
105.044,380
105.069,394
105.094,396
105.119,392
105.144,389
105.169,386
105.194,383
105.219,377
105.244,368
105.269,358
105.294,347
105.319,330
105.344,304
105.369,274
105.394,245
105.419,220
105.444,196
105.469,168
105.494,135
105.519,103
105.544,76
105.569,49
105.594,14
105.619,-25
105.644,-51
105.669,-36
105.694,24
105.719,111
105.744,190
105.769,242
105.794,271
105.819,297
105.844,328
105.869,358
105.894,377
105.919,381
105.944,379
105.969,378
105.994,381
106.019,385
106.044,391
106.069,399
106.094,399
106.119,380
106.144,337
106.169,285
106.194,248
106.219,235
106.244,233
106.269,222
106.294,190
106.319,151
106.344,121
106.369,100
106.394,74
106.419,29
106.444,-23
106.469,-54
106.494,-40
106.519,18
106.544,98
106.569,173
106.594,229
106.619,268
106.644,300
106.669,328
106.694,349
106.719,359
106.744,356
106.769,348
106.794,345
106.819,352
106.844,363
106.869,369
106.894,360
106.919,343
106.944,324
106.969,310
106.994,293
107.019,264
107.044,223
107.069,185
107.094,161
107.119,149
107.144,133
107.169,95
107.194,43
107.219,3
107.244,5
107.269,55
107.294,131
107.319,201
107.344,248
107.369,277
107.394,304
107.419,331
107.444,351
107.469,352
107.494,335
107.519,316
107.544,311
107.569,319
107.594,328
107.619,324
107.644,307
107.669,286
107.694,268
107.719,252
107.744,231
107.769,203
107.794,174
107.819,150
107.844,125
107.869,90
107.894,47
107.919,13
107.944,15
107.969,60
107.994,132
108.019,203
108.044,254
108.069,289
108.094,322
108.119,355
108.144,378
108.169,376
108.194,354
108.219,330
108.244,323
108.269,333
108.294,343
108.319,338
108.344,316
108.369,292
108.394,275
108.419,262
108.444,241
108.469,208
108.494,173
108.519,145
108.544,125
108.569,98
108.594,55
108.619,8
108.644,-14
108.669,7
108.694,73
108.719,153
108.744,218
108.769,257
108.794,281
108.819,306
108.844,334
108.869,354
108.894,358
108.919,349
108.944,341
108.969,341
108.994,348
109.019,350
109.044,343
109.069,330
109.094,318
109.119,305
109.144,286
109.169,254
109.194,215
109.219,182
109.244,162
109.269,145
109.294,117
109.319,70
109.344,20
109.369,-1
109.394,22
109.419,86
109.444,161
109.469,218
109.494,250
109.519,271
109.544,298
109.569,330
109.594,354
109.619,358
109.644,345
109.669,329
109.694,323
109.719,326
109.744,327
109.769,320
109.794,306
109.819,291
109.844,277
109.869,258
109.894,232
109.919,204
109.944,181
109.969,161
109.994,135
110.019,97
110.044,57
110.069,35
110.094,49
110.119,97
110.144,159
110.169,213
110.194,248
110.219,271
110.244,292
110.269,314
110.294,330
110.319,334
110.344,327
110.369,318
110.394,317
110.419,322
110.444,325
110.469,318
110.494,302
110.519,281
110.544,263
110.569,245
110.594,221
110.619,190
110.644,159
110.669,135
110.694,119
110.719,98
110.744,62
110.769,20
110.794,-2
110.819,18
110.844,82
110.869,162
110.894,227
110.919,263
110.944,284
110.969,306
110.994,332
111.019,352
111.044,356
111.069,351
111.094,350
111.119,357
111.144,364
111.169,362
111.194,348
111.219,330
111.244,313
111.269,298
111.294,280
111.319,260
111.344,237
111.369,214
111.394,189
111.419,166
111.444,145
111.469,123
111.494,92
111.519,49
111.544,7
111.569,-6
111.594,24
111.619,92
111.644,168
111.669,225
111.694,260
111.719,288
111.744,322
111.769,356
111.794,375
111.819,373
111.844,362
111.869,354
111.894,353
111.919,353
111.944,350
111.969,344
111.994,337
112.019,326
112.044,309
112.069,285
112.094,265
112.119,250
112.144,234
112.169,209
112.194,174
112.219,142
112.244,119
112.269,100
112.294,73
112.319,39
112.344,16
112.369,25
112.394,72
112.419,136
112.444,194
112.469,233
112.494,258
112.519,280
112.544,302
112.569,315
112.594,316
112.619,307
112.644,299
112.669,300
112.694,308
112.719,316
112.744,315
112.769,303
112.794,285
112.819,268
112.844,253
112.869,237
112.894,216
112.919,192
112.944,170
112.969,151
112.994,127
113.019,89
113.044,45
113.069,20
113.094,38
113.119,101
113.144,180
113.169,242
113.194,274
113.219,287
113.244,301
113.269,325
113.294,347
113.319,356
113.344,349
113.369,340
113.394,336
113.419,338
113.444,339
113.469,334
113.494,324
113.519,310
113.544,293
113.569,272
113.594,246
113.619,218
113.644,190
113.669,164
113.694,142
113.719,118
113.744,85
113.769,41
113.794,0
113.819,-12
113.844,19
113.869,91
113.894,170
113.919,230
113.944,263
113.969,287
113.994,319
114.019,355
114.044,379
114.069,383
114.094,374
114.119,370
114.144,376
114.169,384
114.194,380
114.219,363
114.244,342
114.269,324
114.294,309
114.319,292
114.344,269
114.369,240
114.394,209
114.419,179
114.444,151
114.469,127
114.494,104
114.519,74
114.544,34
114.569,-4
114.594,-20
114.619,5
114.644,68
114.669,144
114.694,205
114.719,244
114.744,269
114.769,294
114.794,320
114.819,338
114.844,338
114.869,327
114.894,318
114.919,320
114.944,328
114.969,331
114.994,323
115.019,307
115.044,290
115.069,274
115.094,257
115.119,233
115.144,208
115.169,191
115.194,182
115.219,173
115.244,145
115.269,94
115.294,38
115.319,11
115.344,33
115.369,97
115.394,171
115.419,228
115.444,262
115.469,285
115.494,311
115.519,337
115.544,352
115.569,352
115.594,343
115.619,337
115.644,336
115.669,338
115.694,335
115.719,327
115.744,315
115.769,300
115.794,282
115.819,261
115.844,239
115.869,216
115.894,192
115.919,164
115.944,138
115.969,115
115.994,92
116.019,60
116.044,20
116.069,-9
116.094,-1
116.119,54
116.144,141
116.169,219
116.194,265
116.219,282
116.244,295
116.269,318
116.294,346
116.319,362
116.344,361
116.369,354
116.394,354
116.419,362
116.444,366
116.469,360
116.494,349
116.519,339
116.544,334
116.569,328
116.594,315
116.619,297
116.644,276
116.669,254
116.694,228
116.719,201
116.744,176
116.769,157
116.794,141
116.819,121
116.844,94
116.869,62
116.894,27
116.919,-4
116.944,-24
116.969,-12
116.994,40
117.019,126
117.044,209
117.069,257
117.094,267
117.119,267
117.144,289
117.169,335
117.194,377
117.219,387
117.244,368
117.269,348
117.294,348
117.319,363
117.344,371
117.369,361
117.394,344
117.419,333
117.444,329
117.469,320
117.494,297
117.519,267
117.544,245
117.569,230
117.594,213
117.619,185
117.644,150
117.669,120
117.694,93
117.719,62
117.744,25
117.769,0
117.794,7
117.819,57
117.844,127
117.869,187
117.894,223
117.919,244
117.944,265
117.969,290
117.994,310
118.019,314
118.044,306
118.069,298
118.094,297
118.119,304
118.144,313
118.169,320
118.194,319
118.219,309
118.244,289
118.269,263
118.294,240
118.319,222
118.344,205
118.369,185
118.394,162
118.419,141
118.444,122
118.469,97
118.494,62
118.519,29
118.544,24
118.569,63
118.594,136
118.619,213
118.644,268
118.669,297
118.694,319
118.719,347
118.744,376
118.769,392
118.794,391
118.819,382
118.844,381
118.869,388
118.894,398
118.919,401
118.944,396
118.969,388
118.994,379
119.019,365
119.044,342
119.069,311
119.094,272
119.119,229
119.144,185
119.169,150
119.194,124
119.219,99
119.244,59
119.269,0
119.294,-58
119.319,-83
119.344,-53
119.369,18
119.394,97
119.419,157
119.444,195
119.469,229
119.494,268
119.519,306
119.544,327
119.569,330
119.594,324
119.619,323
119.644,330
119.669,336
119.694,337
119.719,332
119.744,325
119.769,315
119.794,301
119.819,282
119.844,262
119.869,242
119.894,217
119.919,187
119.944,158
119.969,132
119.994,108
120.019,76
120.044,33
120.069,-1
120.094,-2
120.119,44
120.144,124
120.169,203
120.194,256
120.219,281
120.244,297
120.269,317
120.294,335
120.319,340
120.344,329
120.369,312
120.394,304
120.419,308
120.444,314
120.469,312
120.494,301
120.519,287
120.544,274
120.569,261
120.594,243
120.619,221
120.644,201
120.669,186
120.694,175
120.719,162
120.744,140
120.769,113
120.794,93
120.819,95
120.844,128
120.869,188
120.894,257
120.919,310
120.944,328
120.969,313
120.994,281
121.019,255
121.044,242
121.069,235
121.094,230
121.119,233
121.144,262
121.169,316
121.194,371
121.219,389
121.244,353
121.269,287
121.294,232
121.319,205
121.344,188
121.369,152
121.394,98
121.419,57
121.444,64
121.469,113
121.494,163
121.519,185
121.544,189
121.569,212
121.594,276
121.619,361
121.644,425
121.669,447
121.694,443
121.719,441
121.744,449
121.769,450
121.794,429
121.819,389
121.844,350
121.869,321
121.894,297
121.919,279
121.944,283
121.969,328
121.994,408
122.019,478
122.044,482
122.069,395
122.094,235
122.119,46
122.144,-133
122.169,-283
122.194,-389
122.219,-442
122.244,-441
122.269,-405
122.294,-358
122.319,-307
122.344,-229
122.369,-98
122.394,76
122.419,246
122.444,358
122.469,395
122.494,389
122.519,383
122.544,388
122.569,385
122.594,357
122.619,320
122.644,307
122.669,328
122.694,365
122.719,391
122.744,413
122.769,470
122.794,589
122.819,748
122.844,885
122.869,946
122.894,921
122.919,841
122.944,740
122.969,633
122.994,524
123.019,417
123.044,326
123.069,252
123.094,186
123.119,119
123.144,60
123.169,28
123.194,29
123.219,47
123.244,57
123.269,49
123.294,34
123.319,24
123.344,18
123.369,2
123.394,-28
123.419,-59
123.444,-71
123.469,-60
123.494,-37
123.519,-18
123.544,-3
123.569,14
123.594,34
123.619,43
123.644,22
123.669,-28
123.694,-95
123.719,-166
123.744,-232
123.769,-285
123.794,-305
123.819,-256
123.844,-118
123.869,94
123.894,329
123.919,528
123.944,659
123.969,728
123.994,761
124.019,781
124.044,789
124.069,781
124.094,753
124.119,712
124.144,670
124.169,631
124.194,592
124.219,548
124.244,496
124.269,438
124.294,374
124.319,303
124.344,221
124.369,136
124.394,62
124.419,20
124.444,18
124.469,49
124.494,87
124.519,102
124.544,80
124.569,37
124.594,6
124.619,17
124.644,70
124.669,139
124.694,190
124.719,209
124.744,211
124.769,219
124.794,242
124.819,270
124.844,286
124.869,291
124.894,295
124.919,306
124.944,322
124.969,331
124.994,327
125.019,317
125.044,307
125.069,296
125.094,279
125.119,256
125.144,235
125.169,218
125.194,199
125.219,172
125.244,134
125.269,96
125.294,65
125.319,37
125.344,0
125.369,-41
125.394,-65
125.419,-41
125.444,35
125.469,139
125.494,232
125.519,293
125.544,327
125.569,356
125.594,390
125.619,423
125.644,444
125.669,448
125.694,445
125.719,443
125.744,444
125.769,443
125.794,437
125.819,423
125.844,405
125.869,384
125.894,359
125.919,329
125.944,294
125.969,261
125.994,233
126.019,209
126.044,181
126.069,148
126.094,113
126.119,89
126.144,80
126.169,76
126.194,57
126.219,14
126.244,-35
126.269,-61
126.294,-38
126.319,29
126.344,113
126.369,182
126.394,228
126.419,263
126.444,301
126.469,341
126.494,370
126.519,379
126.544,375
126.569,372
126.594,380
126.619,394
126.644,402
126.669,398
126.694,385
126.719,370
126.744,356
126.769,338
126.794,311
126.819,278
126.844,246
126.869,222
126.894,203
126.919,182
126.944,158
126.969,135
126.994,115
127.019,89
127.044,47
127.069,-8
127.094,-52
127.119,-55
127.144,-2
127.169,88
127.194,181
127.219,249
127.244,288
127.269,310
127.294,324
127.319,329
127.344,322
127.369,310
127.394,303
127.419,309
127.444,321
127.469,327
127.494,323
127.519,312
127.544,300
127.569,289
127.594,277
127.619,257
127.644,231
127.669,199
127.694,168
127.719,144
127.744,128
127.769,113
127.794,86
127.819,45
127.844,9
127.869,6
127.894,54
127.919,135
127.944,213
127.969,258
127.994,275
128.019,287
128.044,309
128.069,333
128.094,340
128.119,330
128.144,324
128.169,347
128.194,399
128.219,455
128.244,484
128.269,476
128.294,445
128.319,408
128.344,378
128.369,349
128.394,316
128.419,278
128.444,240
128.469,209
128.494,183
128.519,153
128.544,111
128.569,62
128.594,24
128.619,21
128.644,61
128.669,132
128.694,209
128.719,268
128.744,305
128.769,325
128.794,334
128.819,332
128.844,315
128.869,288
128.894,260
128.919,240
128.944,231
128.969,227
128.994,222
129.019,213
129.044,201
129.069,188
129.094,175
129.119,162
129.144,147
129.169,127
129.194,106
129.219,92
129.244,87
129.269,81
129.294,60
129.319,22
129.344,-9
129.369,-6
129.394,47
129.419,135
129.444,223
129.469,286
129.494,323
129.519,350
129.544,377
129.569,400
129.594,406
129.619,397
129.644,384
129.669,376
129.694,377
129.719,381
129.744,380
129.769,374
129.794,362
129.819,345
129.844,325
129.869,305
129.894,288
129.919,271
129.944,249
129.969,224
129.994,199
130.019,172
130.044,137
130.069,89
130.094,38
130.119,11
130.144,28
130.169,90
130.194,167
130.219,228
130.244,261
130.269,277
130.294,291
130.319,308
130.344,322
130.369,326
130.394,324
130.419,325
130.444,331
130.469,335
130.494,331
130.519,315
130.544,295
130.569,276
130.594,262
130.619,246
130.644,223
130.669,191
130.694,158
130.719,134
130.744,120
130.769,109
130.794,88
130.819,56
130.844,31
130.869,37
130.894,86
130.919,164
130.944,241
130.969,292
130.994,315
131.019,325
131.044,334
131.069,342
131.094,343
131.119,334
131.144,325
131.169,323
131.194,330
131.219,339
131.244,339
131.269,327
131.294,307
131.319,287
131.344,265
131.369,239
131.394,206
131.419,173
131.444,146
131.469,129
131.494,111
131.519,79
131.544,33
131.569,-3
131.594,-1
131.619,50
131.644,131
131.669,206
131.694,251
131.719,270
131.744,285
131.769,307
131.794,330
131.819,341
131.844,336
131.869,328
131.894,328
131.919,337
131.944,347
131.969,348
131.994,338
132.019,320
132.044,298
132.069,277
132.094,259
132.119,242
132.144,221
132.169,196
132.194,169
132.219,150
132.244,136
132.269,116
132.294,76
132.319,25
132.344,-5
132.369,15
132.394,87
132.419,178
132.444,249
132.469,289
132.494,314
132.519,342
132.544,371
132.569,384
132.594,372
132.619,348
132.644,334
132.669,339
132.694,350
132.719,350
132.744,337
132.769,316
132.794,299
132.819,286
132.844,273
132.869,256
132.894,241
132.919,231
132.944,225
132.969,218
132.994,205
133.019,184
133.044,160
133.069,138
133.094,119
133.119,98
133.144,67
133.169,24
133.194,-11
133.219,-17
133.244,23
133.269,101
133.294,184
133.319,240
133.344,265
133.369,278
133.394,298
133.419,327
133.444,348
133.469,353
133.494,348
133.519,348
133.544,358
133.569,367
133.594,365
133.619,353
133.644,340
133.669,331
133.694,320
133.719,302
133.744,278
133.769,258
133.794,245
133.819,234
133.844,213
133.869,185
133.894,161
133.919,146
133.944,135
133.969,112
133.994,74
134.019,38
134.044,30
134.069,62
134.094,124
134.119,191
134.144,245
134.169,280
134.194,303
134.219,319
134.244,326
134.269,324
134.294,315
134.319,306
134.344,306
134.369,314
134.394,327
134.419,335
134.444,334
134.469,327
134.494,317
134.519,306
134.544,292
134.569,274
134.594,252
134.619,232
134.644,213
134.669,193
134.694,167
134.719,139
134.744,115
134.769,96
134.794,74
134.819,37
134.844,-10
134.869,-42
134.894,-30
134.919,29
134.944,113
134.969,185
134.994,226
135.019,246
135.044,266
135.069,298
135.094,332
135.119,354
135.144,361
135.169,364
135.194,370
135.219,380
135.244,389
135.269,394
135.294,396
135.319,395
135.344,385
135.369,364
135.394,337
135.419,312
135.444,295
135.469,280
135.494,261
135.519,236
135.544,211
135.569,189
135.594,167
135.619,142
135.644,115
135.669,90
135.694,68
135.719,39
135.744,3
135.769,-24
135.794,-21
135.819,29
135.844,113
135.869,196
135.894,249
135.919,273
135.944,288
135.969,312
135.994,344
136.019,368
136.044,374
136.069,370
136.094,368
136.119,373
136.144,382
136.169,386
136.194,381
136.219,370
136.244,357
136.269,347
136.294,338
136.319,327
136.344,307
136.369,276
136.394,240
136.419,209
136.444,187
136.469,169
136.494,145
136.519,110
136.544,75
136.569,47
136.594,27
136.619,0
136.644,-40
136.669,-82
136.694,-93
136.719,-50
136.744,36
136.769,133
136.794,205
136.819,244
136.844,267
136.869,290
136.894,314
136.919,332
136.944,340
136.969,344
136.994,353
137.019,370
137.044,389
137.069,405
137.094,424
137.119,447
137.144,469
137.169,480
137.194,475
137.219,457
137.244,434
137.269,406
137.294,361
137.319,290
137.344,201
137.369,118
137.394,62
137.419,32
137.444,9
137.469,-23
137.494,-59
137.519,-70
137.544,-34
137.569,49
137.594,149
137.619,228
137.644,273
137.669,292
137.694,306
137.719,322
137.744,332
137.769,325
137.794,306
137.819,290
137.844,288
137.869,298
137.894,309
137.919,315
137.944,317
137.969,317
137.994,313
138.019,297
138.044,271
138.069,243
138.094,222
138.119,205
138.144,182
138.169,148
138.194,114
138.219,88
138.244,70
138.269,47
138.294,9
138.319,-30
138.344,-41
138.369,-4
138.394,76
138.419,167
138.444,236
138.469,276
138.494,302
138.519,331
138.544,366
138.569,394
138.594,406
138.619,403
138.644,398
138.669,403
138.694,414
138.719,419
138.744,412
138.769,394
138.794,374
138.819,356
138.844,337
138.869,314
138.894,287
138.919,261
138.944,237
138.969,208
138.994,172
139.019,133
139.044,100
139.069,76
139.094,50
139.119,12
139.144,-26
139.169,-39
139.194,-2
139.219,77
139.244,164
139.269,227
139.294,260
139.319,286
139.344,323
139.369,363
139.394,382
139.419,368
139.444,338
139.469,321
139.494,329
139.519,348
139.544,354
139.569,341
139.594,319
139.619,302
139.644,292
139.669,280
139.694,258
139.719,226
139.744,193
139.769,164
139.794,141
139.819,123
139.844,104
139.869,78
139.894,42
139.919,5
139.944,-12
139.969,9
139.994,72
140.019,157
140.044,233
140.069,283
140.094,310
140.119,328
140.144,344
140.169,355
140.194,354
140.219,343
140.244,334
140.269,339
140.294,355
140.319,371
140.344,377
140.369,370
140.394,353
140.419,332
140.444,309
140.469,283
140.494,258
140.519,233
140.544,207
140.569,177
140.594,145
140.619,117
140.644,95
140.669,73
140.694,41
140.719,0
140.744,-34
140.769,-37
140.794,5
140.819,81
140.844,163
140.869,225
140.894,261
140.919,285
140.944,310
140.969,337
140.994,359
141.019,369
141.044,371
141.069,374
141.094,383
141.119,394
141.144,401
141.169,397
141.194,385
141.219,369
141.244,353
141.269,338
141.294,322
141.319,301
141.344,276
141.369,249
141.394,220
141.419,189
141.444,158
141.469,128
141.494,102
141.519,79
141.544,52
141.569,16
141.594,-24
141.619,-54
141.644,-48
141.669,1
141.694,82
141.719,164
141.744,225
141.769,259
141.794,282
141.819,305
141.844,332
141.869,353
141.894,363
141.919,365
141.944,368
141.969,377
141.994,388
142.019,392
142.044,387
142.069,373
142.094,357
142.119,341
142.144,326
142.169,308
142.194,285
142.219,261
142.244,238
142.269,219
142.294,201
142.319,181
142.344,159
142.369,135
142.394,107
142.419,71
142.444,29
142.469,-6
142.494,-14
142.519,20
142.544,91
142.569,172
142.594,232
142.619,265
142.644,282
142.669,299
142.694,320
142.719,335
142.744,336
142.769,329
142.794,326
142.819,332
142.844,341
142.869,344
142.894,339
142.919,330
142.944,320
142.969,306
142.994,286
143.019,261
143.044,235
143.069,211
143.094,187
143.119,163
143.144,142
143.169,126
143.194,108
143.219,77
143.244,34
143.269,1
143.294,7
143.319,61
143.344,143
143.369,216
143.394,258
143.419,276
143.444,292
143.469,317
143.494,341
143.519,351
143.544,343
143.569,331
143.594,328
143.619,336
143.644,347
143.669,352
143.694,351
143.719,345
143.744,334
143.769,316
143.794,292
143.819,266
143.844,241
143.869,214
143.894,183
143.919,151
143.944,124
143.969,103
143.994,79
144.019,41
144.044,-3
144.069,-31
144.094,-19
144.119,38
144.144,119
144.169,191
144.194,238
144.219,265
144.244,290
144.269,320
144.294,350
144.319,367
144.344,370
144.369,366
144.394,366
144.419,371
144.444,375
144.469,372
144.494,363
144.519,352
144.544,340
144.569,324
144.594,302
144.619,277
144.644,257
144.669,241
144.694,223
144.719,195
144.744,161
144.769,130
144.794,106
144.819,83
144.844,47
144.869,0
144.894,-36
144.919,-32
144.944,22
144.969,107
144.994,186
145.019,239
145.044,267
145.069,290
145.094,320
145.119,349
145.144,365
145.169,365
145.194,358
145.219,357
145.244,364
145.269,373
145.294,374
145.319,367
145.344,354
145.369,341
145.394,327
145.419,310
145.444,289
145.469,269
145.494,252
145.519,234
145.544,213
145.569,187
145.594,159
145.619,133
145.644,107
145.669,76
145.694,36
145.719,-4
145.744,-22
145.769,0
145.794,63
145.819,145
145.844,216
145.869,261
145.894,285
145.919,303
145.944,321
145.969,335
145.994,340
146.019,337
146.044,335
146.069,339
146.094,344
146.119,345
146.144,337
146.169,322
146.194,306
146.219,288
146.244,267
146.269,246
146.294,228
146.319,211
146.344,193
146.369,171
146.394,145
146.419,120
146.444,94
146.469,62
146.494,27
146.519,3
146.544,13
146.569,66
146.594,146
146.619,222
146.644,272
146.669,297
146.694,315
146.719,337
146.744,361
146.769,372
146.794,368
146.819,357
146.844,352
146.869,357
146.894,361
146.919,358
146.944,346
146.969,332
146.994,318
147.019,303
147.044,283
147.069,260
147.094,236
147.119,215
147.144,192
147.169,165
147.194,134
147.219,106
147.244,81
147.269,54
147.294,21
147.319,-13
147.344,-31
147.369,-12
147.394,44
147.419,121
147.444,189
147.469,234
147.494,260
147.519,282
147.544,311
147.569,340
147.594,358
147.619,359
147.644,353
147.669,352
147.694,361
147.719,373
147.744,377
147.769,369
147.794,355
147.819,340
147.844,325
147.869,308
147.894,289
147.919,271
147.944,255
147.969,237
147.994,212
148.019,183
148.044,157
148.069,137
148.094,118
148.119,87
148.144,41
148.169,-1
148.194,-18
148.219,10
148.244,77
148.269,156
148.294,222
148.319,265
148.344,291
148.369,312
148.394,331
148.419,343
148.444,347
148.469,345
148.494,346
148.519,353
148.544,360
148.569,361
148.594,357
148.619,351
148.644,344
148.669,334
148.694,317
148.719,294
148.744,271
148.769,252
148.794,234
148.819,211
148.844,184
148.869,159
148.894,141
148.919,122
148.944,91
148.969,47
148.994,8
149.019,1
149.044,38
149.069,106
149.094,174
149.119,221
149.144,247
149.169,266
149.194,287
149.219,303
149.244,306
149.269,297
149.294,289
149.319,291
149.344,305
149.369,318
149.394,321
149.419,311
149.444,294
149.469,278
149.494,267
149.519,257
149.544,243
149.569,223
149.594,200
149.619,180
149.644,166
149.669,151
149.694,121
149.719,78
149.744,39
149.769,31
149.794,68
149.819,137
149.844,208
149.869,259
149.894,287
149.919,305
149.944,323
149.969,339
149.994,347
150.019,349
150.044,350
150.069,353
150.094,354
150.119,352
150.144,346
150.169,339
150.194,327
150.219,305
150.244,275
150.269,252
150.294,247
150.319,251
150.344,243
150.369,208
150.394,153
150.419,101
150.444,64
150.469,32
150.494,-5
150.519,-39
150.544,-41
150.569,6
150.594,92
150.619,176
150.644,229
150.669,254
150.694,274
150.719,303
150.744,332
150.769,345
150.794,340
150.819,333
150.844,337
150.869,351
150.894,366
150.919,372
150.944,370
150.969,362
150.994,350
151.019,330
151.044,304
151.069,276
151.094,246
151.119,213
151.144,177
151.169,143
151.194,115
151.219,86
151.244,48
151.269,3
151.294,-28
151.319,-19
151.344,39
151.369,124
151.394,199
151.419,241
151.444,258
151.469,272
151.494,296
151.519,325
151.544,347
151.569,359
151.594,366
151.619,373
151.644,381
151.669,387
151.694,389
151.719,384
151.744,374
151.769,358
151.794,340
151.819,321
151.844,303
151.869,282
151.894,256
151.919,230
151.944,212
151.969,199
151.994,178
152.019,137
152.044,81
152.069,41
152.094,42
152.119,88
152.144,153
152.169,204
152.194,226
152.219,230
152.244,230
152.269,230
152.294,224
152.319,210
152.344,196
152.369,192
152.394,199
152.419,206
152.444,207
152.469,207
152.494,215
152.519,234
152.544,252
152.569,255
152.594,242
152.619,224
152.644,209
152.669,195
152.694,170
152.719,130
152.744,88
152.769,70
152.794,91
152.819,145
152.844,213
152.869,277
152.894,328
152.919,372
152.944,410
152.969,440
152.994,458
153.019,461
153.044,458
153.069,457
153.094,461
153.119,467
153.144,460
153.169,429
153.194,367
153.219,283
153.244,194
153.269,123
153.294,83
153.319,73
153.344,75
153.369,63
153.394,24
153.419,-33
153.444,-82
153.469,-87
153.494,-35
153.519,59
153.544,161
153.569,236
153.594,273
153.619,282
153.644,280
153.669,276
153.694,268
153.719,255
153.744,244
153.769,245
153.794,258
153.819,274
153.844,280
153.869,276
153.894,269
153.919,266
153.944,264
153.969,256
153.994,242
154.019,228
154.044,217
154.069,198
154.094,158
154.119,103
154.144,59
154.169,54
154.194,95
154.219,159
154.244,216
154.269,253
154.294,277
154.319,303
154.344,332
154.369,356
154.394,366
154.419,364
154.444,355
154.469,345
154.494,334
154.519,320
154.544,309
154.569,303
154.594,298
154.619,289
154.644,274
154.669,256
154.694,239
154.719,222
154.744,201
154.769,180
154.794,163
154.819,151
154.844,135
154.869,107
154.894,75
154.919,63
154.944,91
154.969,155
154.994,226
155.019,274
155.044,293
155.069,298
155.094,310
155.119,329
155.144,341
155.169,335
155.194,317
155.219,306
155.244,308
155.269,318
155.294,320
155.319,308
155.344,290
155.369,276
155.394,268
155.419,257
155.444,236
155.469,202
155.494,157
155.519,105
155.544,49
155.569,0
155.594,-28
155.619,-25
155.644,4
155.669,39
155.694,54
155.719,40
155.744,14
155.769,8
155.794,39
155.819,101
155.844,166
155.869,213
155.894,242
155.919,266
155.944,295
155.969,326
155.994,350
156.019,366
156.044,381
156.069,402
156.094,428
156.119,451
156.144,471
156.169,496
156.194,532
156.219,575
156.244,611
156.269,629
156.294,632
156.319,628
156.344,622
156.369,604
156.394,566
156.419,505
156.444,426
156.469,336
156.494,234
156.519,129
156.544,40
156.569,-9
156.594,-11
156.619,18
156.644,46
156.669,48
156.694,30
156.719,17
156.744,30
156.769,67
156.794,107
156.819,130
156.844,132
156.869,127
156.894,129
156.919,144
156.944,165
156.969,185
156.994,201
157.019,212
157.044,213
157.069,197
157.094,165
157.119,126
157.144,91
157.169,62
157.194,27
157.219,-23
157.244,-81
157.269,-118
157.294,-107
157.319,-46
157.344,39
157.369,118
157.394,175
157.419,216
157.444,256
157.469,297
157.494,328
157.519,340
157.544,340
157.569,344
157.594,363
157.619,390
157.644,409
157.669,411
157.694,400
157.719,386
157.744,374
157.769,358
157.794,333
157.819,301
157.844,271
157.869,247
157.894,221
157.919,183
157.944,133
157.969,93
157.994,88
158.019,128
158.044,195
158.069,256
158.094,292
158.119,309
158.144,325
158.169,348
158.194,370
158.219,379
158.244,373
158.269,364
158.294,363
158.319,367
158.344,369
158.369,364
158.394,354
158.419,341
158.444,324
158.469,296
158.494,262
158.519,229
158.544,201
158.569,170
158.594,127
158.619,78
158.644,45
158.669,51
158.694,96
158.719,157
158.744,203
158.769,225
158.794,233
158.819,245
158.844,264
158.869,279
158.894,282
158.919,273
158.944,265
158.969,268
158.994,277
159.019,283
159.044,278
159.069,264
159.094,250
159.119,240
159.144,230
159.169,210
159.194,181
159.219,152
159.244,132
159.269,115
159.294,89
159.319,49
159.344,15
159.369,16
159.394,65
159.419,145
159.444,219
159.469,268
159.494,296
159.519,324
159.544,357
159.569,384
159.594,396
159.619,401
159.644,417
159.669,447
159.694,468
159.719,450
159.744,387
159.769,308
159.794,250
159.819,236
159.844,256
159.869,283
159.894,295
159.919,286
159.944,256
159.969,213
159.994,162
160.019,107
160.044,53
160.069,6
160.094,-22
160.119,-23
160.144,7
160.169,58
160.194,109
160.219,150
160.244,184
160.269,222
160.294,264
160.319,299
160.344,318
160.369,325
160.394,339
160.419,365
160.444,390
160.469,392
160.494,365
160.519,321
160.544,280
160.569,247
160.594,213
160.619,172
160.644,133
160.669,107
160.694,93
160.719,76
160.744,42
160.769,1
160.794,-22
160.819,-6
160.844,45
160.869,108
160.894,156
160.919,183
160.944,201
160.969,224
160.994,257
161.019,294
161.044,326
161.069,356
161.094,392
161.119,434
161.144,464
161.169,454
161.194,386
161.219,279
161.244,185
161.269,158
161.294,208
161.319,291
161.344,340
161.369,318
161.394,245
161.419,170
161.444,133
161.469,136
161.494,162
161.519,202
161.544,261
161.569,345
161.594,432
161.619,491
161.644,502
161.669,474
161.694,430
161.719,386
161.744,336
161.769,274
161.794,212
161.819,173
161.844,172
161.869,199
161.894,223
161.919,223
161.944,204
161.969,189
161.994,197
162.019,226
162.044,260
162.069,280
162.094,280
162.119,267
162.144,254
162.169,246
162.194,238
162.219,217
162.244,182
162.269,145
162.294,125
162.319,135
162.344,162
162.369,186
162.394,187
162.419,167
162.444,141
162.469,118
162.494,99
162.519,79
162.544,63
162.569,57
162.594,66
162.619,84
162.644,104
162.669,127
162.694,157
162.719,197
162.744,236
162.769,259
162.794,266
162.819,267
162.844,273
162.869,281
162.894,280
162.919,262
162.944,236
162.969,215
162.994,201
163.019,185
163.044,160
163.069,135
163.094,129
163.119,155
163.144,209
163.169,268
163.194,308
163.219,322
163.244,313
163.269,295
163.294,282
163.319,280
163.344,289
163.369,302
163.394,312
163.419,316
163.444,313
163.469,302
163.494,279
163.519,245
163.544,205
163.569,168
163.594,138
163.619,111
163.644,79
163.669,47
163.694,25
163.719,20
163.744,20
163.769,10
163.794,-8
163.819,-16
163.844,13
163.869,82
163.894,164
163.919,228
163.944,269
163.969,312
163.994,379
164.019,466
164.044,544
164.069,590
164.094,609
164.119,623
164.144,645
164.169,669
164.194,673
164.219,650
164.244,609
164.269,559
164.294,504
164.319,439
164.344,373
164.369,322
164.394,299
164.419,290
164.444,265
164.469,203
164.494,121
164.519,58
164.544,45
164.569,76
164.594,116
164.619,137
164.644,144
164.669,168
164.694,233
164.719,334
164.744,438
164.769,508
164.794,528
164.819,505
164.844,453
164.869,380
164.894,289
164.919,189
164.944,103
164.969,52
164.994,39
165.019,41
165.044,17
165.069,-60
165.094,-184
165.119,-312
165.144,-397
165.169,-409
165.194,-347
165.219,-229
165.244,-85
165.269,51
165.294,141
165.319,158
165.344,106
165.369,32
165.394,-2
165.419,41
165.444,157
165.469,296
165.494,409
165.519,478
165.544,513
165.569,534
165.594,553
165.619,565
165.644,560
165.669,524
165.694,448
165.719,328
165.744,181
165.769,36
165.794,-69
165.819,-113
165.844,-97
165.869,-40
165.894,30
165.919,101
165.944,164
165.969,227
165.994,297
166.019,378
166.044,463
166.069,532
166.094,570
166.119,574
166.144,554
166.169,528
166.194,506
166.219,483
166.244,457
166.269,428
166.294,400
166.319,373
166.344,338
166.369,286
166.394,218
166.419,148
166.444,98
166.469,79
166.494,93
166.519,127
166.544,167
166.569,200
166.594,224
166.619,241
166.644,255
166.669,266
166.694,268
166.719,258
166.744,242
166.769,232
166.794,234
166.819,243
166.844,247
166.869,241
166.894,231
166.919,222
166.944,212
166.969,193
166.994,163
167.019,130
167.044,106
167.069,90
167.094,70
167.119,41
167.144,14
167.169,14
167.194,51
167.219,114
167.244,178
167.269,229
167.294,267
167.319,304
167.344,339
167.369,364
167.394,373
167.419,372
167.444,372
167.469,383
167.494,398
167.519,410
167.544,413
167.569,411
167.594,407
167.619,403
167.644,395
167.669,382
167.694,363
167.719,337
167.744,308
167.769,278
167.794,249
167.819,225
167.844,208
167.869,202
167.894,209
167.919,223
167.944,234
167.969,233
167.994,221
168.019,207
168.044,195
168.069,180
168.094,153
168.119,118
168.144,98
168.169,114
168.194,158
168.219,188
168.244,165
168.269,89
168.294,3
168.319,-36
168.344,-9
168.369,53
168.394,106
168.419,120
168.444,103
168.469,76
168.494,61
168.519,68
168.544,106
168.569,180
168.594,285
168.619,393
168.644,470
168.669,494
168.694,468
168.719,417
168.744,368
168.769,342
168.794,343
168.819,365
168.844,398
168.869,432
168.894,460
168.919,477
168.944,479
168.969,463
168.994,431
169.019,393
169.044,361
169.069,338
169.094,313
169.119,268
169.144,198
169.169,123
169.194,67
169.219,46
169.244,50
169.269,58
169.294,56
169.319,45
169.344,27
169.369,3
169.394,-30
169.419,-72
169.444,-113
169.469,-142
169.494,-161
169.519,-177
169.544,-194
169.569,-208
169.594,-208
169.619,-188
169.644,-140
169.669,-59
169.694,54
169.719,192
169.744,329
169.769,442
169.794,520
169.819,567
169.844,594
169.869,604
169.894,593
169.919,559
169.944,514
169.969,477
169.994,472
170.019,507
170.044,570
170.069,638
170.094,683
170.119,692
170.144,669
170.169,630
170.194,595
170.219,571
170.244,553
170.269,536
170.294,519
170.319,500
170.344,475
170.369,436
170.394,384
170.419,330
170.444,285
170.469,249
170.494,211
170.519,161
170.544,105
170.569,56
170.594,19
170.619,-14
170.644,-53
170.669,-92
170.694,-110
170.719,-103
170.744,-86
170.769,-88
170.794,-111
170.819,-131
170.844,-115
170.869,-55
170.894,21
170.919,81
170.944,115
170.969,135
170.994,160
171.019,191
171.044,214
171.069,222
171.094,223
171.119,231
171.144,255
171.169,283
171.194,303
171.219,308
171.244,304
171.269,299
171.294,293
171.319,284
171.344,269
171.369,253
171.394,241
171.419,234
171.444,227
171.469,218
171.494,205
171.519,191
171.544,175
171.569,156
171.594,130
171.619,101
171.644,83
171.669,89
171.694,126
171.719,185
171.744,246
171.769,294
171.794,324
171.819,344
171.844,363
171.869,383
171.894,396
171.919,397
171.944,387
171.969,379
171.994,380
172.019,391
172.044,402
172.069,403
172.094,392
172.119,373
172.144,354
172.169,336
172.194,318
172.219,297
172.244,273
172.269,249
172.294,225
172.319,199
172.344,174
172.369,150
172.394,127
172.419,101
172.444,72
172.469,43
172.494,27
172.519,38
172.544,78
172.569,136
172.594,191
172.619,231
172.644,256
172.669,272
172.694,288
172.719,303
172.744,311
172.769,312
172.794,308
172.819,306
172.844,307
172.869,309
172.894,309
172.919,306
172.944,303
172.969,299
172.994,292
173.019,277
173.044,255
173.069,233
173.094,214
173.119,197
173.144,177
173.169,153
173.194,129
173.219,107
173.244,87
173.269,60
173.294,26
173.319,-4
173.344,-10
173.369,19
173.394,80
173.419,149
173.444,203
173.469,237
173.494,261
173.519,285
173.544,307
173.569,317
173.594,313
173.619,303
173.644,300
173.669,310
173.694,326
173.719,338
173.744,346
173.769,354
173.794,364
173.819,368
173.844,357
173.869,330
173.894,300
173.919,280
173.944,270
173.969,263
173.994,252
174.019,238
174.044,227
174.069,215
174.094,192
174.119,157
174.144,128
174.169,133
174.194,183
174.219,262
174.244,336
174.269,386
174.294,418
174.319,449
174.344,484
174.369,509
174.394,506
174.419,476
174.444,439
174.469,415
174.494,411
174.519,419
174.544,426
174.569,428
174.594,418
174.619,386
174.644,322
174.669,222
174.694,95
174.719,-38
174.744,-157
174.769,-246
174.794,-298
174.819,-318
174.844,-317
174.869,-306
174.894,-285
174.919,-241
174.944,-161
174.969,-45
174.994,84
175.019,200
175.044,283
175.069,337
175.094,377
175.119,414
175.144,447
175.169,470
175.194,476
175.219,465
175.244,446
175.269,429
175.294,421
175.319,420
175.344,419
175.369,409
175.394,386
175.419,356
175.444,326
175.469,298
175.494,268
175.519,235
175.544,199
175.569,166
175.594,135
175.619,103
175.644,71
175.669,52
175.694,62
175.719,108
175.744,174
175.769,235
175.794,271
175.819,284
175.844,286
175.869,291
175.894,301
175.919,314
175.944,323
175.969,328
175.994,329
176.019,325
176.044,317
176.069,305
176.094,292
176.119,279
176.144,266
176.169,250
176.194,229
176.219,200
176.244,166
176.269,131
176.294,97
176.319,62
176.344,21
176.369,-20
176.394,-46
176.419,-30
176.444,38
176.469,145
176.494,254
176.519,331
176.544,370
176.569,384
176.594,391
176.619,392
176.644,384
176.669,365
176.694,348
176.719,345
176.744,358
176.769,371
176.794,370
176.819,353
176.844,328
176.869,303
176.894,282
176.919,261
176.944,239
176.969,220
176.994,204
177.019,186
177.044,160
177.069,125
177.094,96
177.119,91
177.144,118
177.169,169
177.194,222
177.219,260
177.244,279
177.269,288
177.294,298
177.319,308
177.344,312
177.369,306
177.394,297
177.419,292
177.444,295
177.469,300
177.494,299
177.519,289
177.544,278
177.569,268
177.594,256
177.619,237
177.644,211
177.669,184
177.694,163
177.719,145
177.744,119
177.769,87
177.794,61
177.819,62
177.844,96
177.869,153
177.894,208
177.919,246
177.944,268
177.969,287
177.994,307
178.019,325
178.044,333
178.069,329
178.094,321
178.119,316
178.144,319
178.169,325
178.194,327
178.219,320
178.244,304
178.269,283
178.294,260
178.319,237
178.344,215
178.369,191
178.394,168
178.419,145
178.444,125
178.469,106
178.494,82
178.519,57
178.544,40
178.569,46
178.594,78
178.619,126
178.644,169
178.669,196
178.694,212
178.719,229
178.744,251
178.769,268
178.794,269
178.819,257
178.844,252
178.869,274
178.894,323
178.919,379
178.944,419
178.969,433
178.994,427
179.019,415
179.044,401
179.069,382
179.094,356
179.119,325
179.144,291
179.169,257
179.194,220
179.219,184
179.244,153
179.269,126
179.294,98
179.319,62
179.344,21
179.369,-6
179.394,0
179.419,47
179.444,120
179.469,197
179.494,261
179.519,310
179.544,345
179.569,364
179.594,364
179.619,343
179.644,314
179.669,290
179.694,281
179.719,283
179.744,286
179.769,285
179.794,280
179.819,275
179.844,269
179.869,259
179.894,242
179.919,224
179.944,212
179.969,208
179.994,205
180.019,197
180.044,184
180.069,172
180.094,164
180.119,157
180.144,142
180.169,118
180.194,98
180.219,100
180.244,132
180.269,186
180.294,240
180.319,278
180.344,300
180.369,315
180.394,333
180.419,351
180.444,361
180.469,359
180.494,351
180.519,349
180.544,356
180.569,363
180.594,360
180.619,341
180.644,316
180.669,294
180.694,281
180.719,273
180.744,260
180.769,243
180.794,226
180.819,211
180.844,197
180.869,178
180.894,155
180.919,133
180.944,118
180.969,104
180.994,82
181.019,49
181.044,19
181.069,14
181.094,47
181.119,106
181.144,166
181.169,209
181.194,234
181.219,253
181.244,276
181.269,301
181.294,320
181.319,330
181.344,335
181.369,342
181.394,354
181.419,365
181.444,370
181.469,367
181.494,360
181.519,353
181.544,347
181.569,339
181.594,325
181.619,305
181.644,281
181.669,257
181.694,237
181.719,217
181.744,194
181.769,167
181.794,144
181.819,128
181.844,118
181.869,100
181.894,69
181.919,32
181.944,14
181.969,34
181.994,87
182.019,154
182.044,210
182.069,247
182.094,275
182.119,304
182.144,332
182.169,352
182.194,358
182.219,354
182.244,351
182.269,357
182.294,368
182.319,375
182.344,374
182.369,364
182.394,349
182.419,333
182.444,316
182.469,296
182.494,274
182.519,251
182.544,230
182.569,209
182.594,185
182.619,155
182.644,122
182.669,94
182.694,75
182.719,60
182.744,38
182.769,7
182.794,-21
182.819,-24
182.844,11
182.869,76
182.894,145
182.919,198
182.944,233
182.969,261
182.994,292
183.019,322
183.044,343
183.069,349
183.094,348
183.119,350
183.144,357
183.169,366
183.194,370
183.219,365
183.244,355
183.269,343
183.294,332
183.319,321
183.344,310
183.369,295
183.394,276
183.419,251
183.444,228
183.469,208
183.494,191
183.519,171
183.544,147
183.569,124
183.594,119
183.619,140
183.644,182
183.669,229
183.694,263
183.719,282
183.744,293
183.769,304
183.794,317
183.819,325
183.844,323
183.869,315
183.894,309
183.919,310
183.944,314
183.969,311
183.994,297
184.019,275
184.044,254
184.069,235
184.094,215
184.119,188
184.144,156
184.169,127
184.194,106
184.219,90
184.244,71
184.269,47
184.294,28
184.319,34
184.344,74
184.369,139
184.394,205
184.419,252
184.444,278
184.469,293
184.494,310
184.519,329
184.544,344
184.569,347
184.594,340
184.619,327
184.644,316
184.669,309
184.694,304
184.719,299
184.744,294
184.769,287
184.794,276
184.819,257
184.844,232
184.869,207
184.894,185
184.919,166
184.944,143
184.969,110
184.994,72
185.019,46
185.044,50
185.069,90
185.094,152
185.119,213
185.144,259
185.169,290
185.194,316
185.219,343
185.244,365
185.269,374
185.294,367
185.319,354
185.344,345
185.369,342
185.394,342
185.419,336
185.444,322
185.469,304
185.494,289
185.519,275
185.544,259
185.569,238
185.594,211
185.619,182
185.644,156
185.669,129
185.694,98
185.719,61
185.744,28
185.769,18
185.794,41
185.819,93
185.844,154
185.869,204
185.894,236
185.919,259
185.944,282
185.969,305
185.994,322
186.019,327
186.044,323
186.069,319
186.094,319
186.119,323
186.144,325
186.169,322
186.194,315
186.219,305
186.244,293
186.269,280
186.294,266
186.319,251
186.344,235
186.369,219
186.394,203
186.419,191
186.444,178
186.469,160
186.494,131
186.519,100
186.544,86
186.569,100
186.594,139
186.619,183
186.644,214
186.669,230
186.694,243
186.719,262
186.744,285
186.769,300
186.794,301
186.819,295
186.844,294
186.869,305
186.894,318
186.919,324
186.944,318
186.969,305
186.994,291
187.019,277
187.044,260
187.069,240
187.094,222
187.119,208
187.144,195
187.169,177
187.194,150
187.219,124
187.244,115
187.269,131
187.294,168
187.319,209
187.344,239
187.369,255
187.394,266
187.419,283
187.444,301
187.469,311
187.494,306
187.519,292
187.544,285
187.569,293
187.594,309
187.619,317
187.644,308
187.669,286
187.694,264
187.719,251
187.744,243
187.769,229
187.794,205
187.819,178
187.844,158
187.869,145
187.894,130
187.919,106
187.944,76
187.969,57
187.994,66
188.019,105
188.044,160
188.069,211
188.094,247
188.119,269
188.144,289
188.169,310
188.194,328
188.219,336
188.244,333
188.269,326
188.294,322
188.319,325
188.344,330
188.369,332
188.394,326
188.419,317
188.444,305
188.469,293
188.494,278
188.519,262
188.544,243
188.569,224
188.594,207
188.619,190
188.644,171
188.669,147
188.694,117
188.719,85
188.744,58
188.769,48
188.794,62
188.819,99
188.844,150
188.869,200
188.894,239
188.919,266
188.944,287
188.969,306
188.994,325
189.019,338
189.044,341
189.069,340
189.094,339
189.119,344
189.144,353
189.169,358
189.194,354
189.219,341
189.244,325
189.269,309
189.294,294
189.319,277
189.344,260
189.369,243
189.394,226
189.419,207
189.444,186
189.469,163
189.494,142
189.519,121
189.544,95
189.569,66
189.594,39
189.619,29
189.644,48
189.669,92
189.694,147
189.719,195
189.744,226
189.769,247
189.794,268
189.819,293
189.844,316
189.869,329
189.894,328
189.919,323
189.944,323
189.969,332
189.994,343
190.019,349
190.044,345
190.069,336
190.094,326
190.119,317
190.144,304
190.169,284
190.194,261
190.219,239
190.244,222
190.269,204
190.294,184
190.319,164
190.344,146
190.369,130
190.394,108
190.419,76
190.444,43
190.469,31
190.494,54
190.519,106
190.544,166
190.569,212
190.594,240
190.619,260
190.644,281
190.669,302
190.694,315
190.719,319
190.744,318
190.769,319
190.794,325
190.819,335
190.844,344
190.869,351
190.894,354
190.919,351
190.944,343
190.969,331
190.994,318
191.019,301
191.044,277
191.069,247
191.094,215
191.119,189
191.144,166
191.169,139
191.194,107
191.219,84
191.244,88
191.269,123
191.294,175
191.319,222
191.344,253
191.369,272
191.394,289
191.419,307
191.444,318
191.469,320
191.494,315
191.519,310
191.544,311
191.569,315
191.594,319
191.619,321
191.644,319
191.669,310
191.694,291
191.719,266
191.744,238
191.769,213
191.794,187
191.819,158
191.844,128
191.869,104
191.894,85
191.919,65
191.944,33
191.969,0
191.994,-11
192.019,17
192.044,82
192.069,156
192.094,211
192.119,241
192.144,261
192.169,284
192.194,310
192.219,329
192.244,334
192.269,335
192.294,341
192.319,354
192.344,365
192.369,368
192.394,362
192.419,354
192.444,348
192.469,341
192.494,326
192.519,303
192.544,277
192.569,254
192.594,234
192.619,216
192.644,197
192.669,174
192.694,145
192.719,106
192.744,64
192.769,34
192.794,32
192.819,68
192.844,129
192.869,192
192.894,238
192.919,265
192.944,285
192.969,306
192.994,327
193.019,341
193.044,343
193.069,339
193.094,338
193.119,344
193.144,350
193.169,349
193.194,341
193.219,332
193.244,322
193.269,311
193.294,293
193.319,271
193.344,252
193.369,235
193.394,215
193.419,185
193.444,149
193.469,116
193.494,92
193.519,70
193.544,38
193.569,1
193.594,-19
193.619,-1
193.644,57
193.669,134
193.694,199
193.719,239
193.744,264
193.769,287
193.794,313
193.819,334
193.844,344
193.869,347
193.894,351
193.919,362
193.944,377
193.969,389
193.994,399
194.019,406
194.044,407
194.069,400
194.094,390
194.119,378
194.144,364
194.169,337
194.194,286
194.219,216
194.244,144
194.269,86
194.294,45
194.319,12
194.344,-17
194.369,-29
194.394,-8
194.419,48
194.444,119
194.469,179
194.494,214
194.519,235
194.544,257
194.569,285
194.594,308
194.619,319
194.644,318
194.669,318
194.694,327
194.719,340
194.744,346
194.769,337
194.794,320
194.819,303
194.844,289
194.869,276
194.894,259
194.919,237
194.944,218
194.969,203
194.994,189
195.019,167
195.044,133
195.069,101
195.094,91
195.119,115
195.144,168
195.169,227
195.194,272
195.219,296
195.244,305
195.269,313
195.294,321
195.319,325
195.344,318
195.369,303
195.394,288
195.419,281
195.444,282
195.469,283
195.494,277
195.519,264
195.544,250
195.569,238
195.594,226
195.619,210
195.644,186
195.669,161
195.694,141
195.719,121
195.744,95
195.769,58
195.794,23
195.819,12
195.844,41
195.869,102
195.894,169
195.919,220
195.944,250
195.969,272
195.994,298
196.019,326
196.044,343
196.069,345
196.094,336
196.119,328
196.144,326
196.169,329
196.194,328
196.219,323
196.244,314
196.269,300
196.294,284
196.319,267
196.344,255
196.369,249
196.394,245
196.419,238
196.444,223
196.469,201
196.494,172
196.519,137
196.544,104
196.569,89
196.594,106
196.619,155
196.644,218
196.669,271
196.694,302
196.719,318
196.744,331
196.769,346
196.794,356
196.819,354
196.844,344
196.869,337
196.894,339
196.919,343
196.944,340
196.969,328
196.994,312
197.019,300
197.044,289
197.069,274
197.094,255
197.119,231
197.144,206
197.169,177
197.194,147
197.219,119
197.244,98
197.269,77
197.294,49
197.319,14
197.344,-8
197.369,1
197.394,50
197.419,121
197.444,185
197.469,225
197.494,249
197.519,272
197.544,296
197.569,313
197.594,316
197.619,311
197.644,311
197.669,322
197.694,335
197.719,338
197.744,332
197.769,322
197.794,314
197.819,305
197.844,291
197.869,274
197.894,258
197.919,247
197.944,232
197.969,208
197.994,178
198.019,156
198.044,143
198.069,132
198.094,109
198.119,79
198.144,63
198.169,84
198.194,139
198.219,204
198.244,254
198.269,280
198.294,293
198.319,309
198.344,328
198.369,343
198.394,348
198.419,345
198.444,342
198.469,344
198.494,348
198.519,349
198.544,343
198.569,331
198.594,315
198.619,300
198.644,288
198.669,275
198.694,258
198.719,232
198.744,202
198.769,176
198.794,156
198.819,134
198.844,103
198.869,71
198.894,57
198.919,79
198.944,133
198.969,193
198.994,237
199.019,258
199.044,270
199.069,285
199.094,301
199.119,308
199.144,301
199.169,288
199.194,285
199.219,293
199.244,306
199.269,313
199.294,311
199.319,303
199.344,290
199.369,273
199.394,253
199.419,234
199.444,217
199.469,200
199.494,178
199.519,153
199.544,131
199.569,114
199.594,96
199.619,71
199.644,43
199.669,31
199.694,53
199.719,108
199.744,173
199.769,225
199.794,257
199.819,278
199.844,302
199.869,328
199.894,345
199.919,345
199.944,336
199.969,330
199.994,334
200.019,343
200.044,348
200.069,346
200.094,339
200.119,330
200.144,318
200.169,300
200.194,278
200.219,256
200.244,237
200.269,221
200.294,202
200.319,181
200.344,155
200.369,126
200.394,93
200.419,63
200.444,50
200.469,70
200.494,123
200.519,192
200.544,250
200.569,284
200.594,299
200.619,315
200.644,340
200.669,363
200.694,369
200.719,356
200.744,339
200.769,334
200.794,347
200.819,364
200.844,374
200.869,372
200.894,364
200.919,353
200.944,342
200.969,328
200.994,312
201.019,295
201.044,279
201.069,258
201.094,235
201.119,212
201.144,194
201.169,175
201.194,147
201.219,115
201.244,93
201.269,101
201.294,143
201.319,201
201.344,248
201.369,273
201.394,282
201.419,290
201.444,300
201.469,305
201.494,297
201.519,279
201.544,259
201.569,244
201.594,233
201.619,218
201.644,198
201.669,172
201.694,142
201.719,109
201.744,69
201.769,24
201.794,-21
201.819,-65
201.844,-104
201.869,-140
201.894,-177
201.919,-217
201.944,-253
201.969,-272
201.994,-260
202.019,-218
202.044,-161
202.069,-107
202.094,-59
202.119,-1
202.144,80
202.169,186
202.194,294
202.219,390
202.244,486
202.269,611
202.294,777
202.319,952
202.344,1072
202.369,1088
202.394,1001
202.419,861
202.444,726
202.469,620
202.494,537
202.519,459
202.544,382
202.569,314
202.594,264
202.619,222
202.644,179
202.669,133
202.694,99
202.719,97
202.744,129
202.769,178
202.794,221
202.819,250
202.844,279
202.869,329
202.894,404
202.919,488
202.944,553
202.969,586
202.994,589
203.019,575
203.044,552
203.069,516
203.094,461
203.119,386
203.144,290
203.169,171
203.194,25
203.219,-135
203.244,-281
203.269,-371
203.294,-384
203.319,-333
203.344,-261
203.369,-200
203.394,-160
203.419,-126
203.444,-82
203.469,-27
203.494,25
203.519,67
203.544,98
203.569,122
203.594,143
203.619,164
203.644,194
203.669,242
203.694,312
203.719,394
203.744,473
203.769,531
203.794,559
203.819,558
203.844,537
203.869,507
203.894,473
203.919,438
203.944,399
203.969,356
203.994,319
204.019,293
204.044,279
204.069,259
204.094,217
204.119,150
204.144,76
204.169,24
204.194,7
204.219,24
204.244,64
204.269,117
204.294,178
204.319,239
204.344,288
204.369,316
204.394,325
204.419,326
204.444,328
204.469,327
204.494,318
204.519,300
204.544,280
204.569,264
204.594,249
204.619,233
204.644,214
204.669,197
204.694,181
204.719,154
204.744,113
204.769,67
204.794,42
204.819,57
204.844,108
204.869,170
204.894,216
204.919,237
204.944,243
204.969,249
204.994,254
205.019,253
205.044,244
205.069,233
205.094,228
205.119,233
205.144,248
205.169,272
205.194,303
205.219,340
205.244,372
205.269,385
205.294,375
205.319,349
205.344,324
205.369,308
205.394,297
205.419,278
205.444,246
205.469,216
205.494,203
205.519,215
205.544,237
205.569,247
205.594,235
205.619,206
205.644,181
205.669,172
205.694,176
205.719,181
205.744,179
205.769,173
205.794,175
205.819,192
205.844,221
205.869,252
205.894,277
205.919,296
205.944,311
205.969,326
205.994,338
206.019,341
206.044,328
206.069,301
206.094,265
206.119,229
206.144,191
206.169,145
206.194,92
206.219,42
206.244,17
206.269,33
206.294,85
206.319,148
206.344,197
206.369,225
206.394,243
206.419,264
206.444,291
206.469,316
206.494,333
206.519,344
206.544,356
206.569,369
206.594,379
206.619,378
206.644,368
206.669,356
206.694,349
206.719,347
206.744,343
206.769,332
206.794,313
206.819,289
206.844,263
206.869,233
206.894,200
206.919,162
206.944,117
206.969,67
206.994,21
207.019,-9
207.044,-9
207.069,21
207.094,74
207.119,130
207.144,176
207.169,210
207.194,236
207.219,259
207.244,281
207.269,300
207.294,315
207.319,327
207.344,338
207.369,344
207.394,344
207.419,340
207.444,335
207.469,330
207.494,325
207.519,316
207.544,301
207.569,283
207.594,264
207.619,246
207.644,228
207.669,211
207.694,194
207.719,178
207.744,159
207.769,135
207.794,108
207.819,84
207.844,75
207.869,88
207.894,120
207.919,159
207.944,194
207.969,221
207.994,242
208.019,261
208.044,279
208.069,292
208.094,296
208.119,294
208.144,294
208.169,301
208.194,315
208.219,327
208.244,331
208.269,328
208.294,321
208.319,313
208.344,303
208.369,292
208.394,277
208.419,261
208.444,244
208.469,224
208.494,202
208.519,181
208.544,165
208.569,148
208.594,125
208.619,93
208.644,63
208.669,56
208.694,85
208.719,139
208.744,196
208.769,235
208.794,253
208.819,264
208.844,280
208.869,300
208.894,315
208.919,320
208.944,321
208.969,327
208.994,336
209.019,345
209.044,347
209.069,344
209.094,339
209.119,334
209.144,322
209.169,301
209.194,276
209.219,255
209.244,240
209.269,226
209.294,206
209.319,179
209.344,154
209.369,134
209.394,116
209.419,93
209.444,63
209.469,38
209.494,34
209.519,61
209.544,111
209.569,167
209.594,212
209.619,242
209.644,267
209.669,294
209.694,325
209.719,352
209.744,365
209.769,365
209.794,359
209.819,357
209.844,364
209.869,370
209.894,368
209.919,354
209.944,330
209.969,304
209.994,279
210.019,257
210.044,241
210.069,230
210.094,223
210.119,216
210.144,203
210.169,186
210.194,169
210.219,152
210.244,132
210.269,106
210.294,83
210.319,79
210.344,106
210.369,158
210.394,218
210.419,268
210.444,302
210.469,323
210.494,333
210.519,332
210.544,318
210.569,298
210.594,285
210.619,285
210.644,292
210.669,296
210.694,292
210.719,284
210.744,277
210.769,268
210.794,253
210.819,231
210.844,207
210.869,187
210.894,172
210.919,159
210.944,147
210.969,136
210.994,127
211.019,113
211.044,87
211.069,57
211.094,43
211.119,66
211.144,127
211.169,204
211.194,267
211.219,304
211.244,322
211.269,337
211.294,354
211.319,368
211.344,373
211.369,370
211.394,367
211.419,369
211.444,372
211.469,369
211.494,357
211.519,340
211.544,324
211.569,307
211.594,284
211.619,253
211.644,219
211.669,192
211.694,172
211.719,149
211.744,114
211.769,70
211.794,36
211.819,35
211.844,74
211.869,138
211.894,198
211.919,235
211.944,251
211.969,258
211.994,268
212.019,278
212.044,280
212.069,272
212.094,262
212.119,256
212.144,254
212.169,249
212.194,236
212.219,222
212.244,218
212.269,226
212.294,239
212.319,243
212.344,235
212.369,223
212.394,210
212.419,195
212.444,169
212.469,136
212.494,111
212.519,117
212.544,159
212.569,221
212.594,276
212.619,309
212.644,323
212.669,333
212.694,346
212.719,359
212.744,364
212.769,360
212.794,352
212.819,345
212.844,339
212.869,330
212.894,318
212.919,303
212.944,287
212.969,270
212.994,250
213.019,226
213.044,202
213.069,180
213.094,158
213.119,131
213.144,98
213.169,70
213.194,64
213.219,91
213.244,142
213.269,198
213.294,240
213.319,265
213.344,282
213.369,301
213.394,323
213.419,336
213.444,335
213.469,322
213.494,309
213.519,306
213.544,310
213.569,311
213.594,303
213.619,289
213.644,274
213.669,257
213.694,238
213.719,216
213.744,196
213.769,180
213.794,164
213.819,140
213.844,105
213.869,74
213.894,66
213.919,89
213.944,133
213.969,177
213.994,207
214.019,225
214.044,239
214.069,254
214.094,265
214.119,266
214.144,260
214.169,253
214.194,251
214.219,253
214.244,252
214.269,246
214.294,237
214.319,225
214.344,210
214.369,189
214.394,164
214.419,140
214.444,118
214.469,94
214.494,64
214.519,35
214.544,22
214.569,47
214.594,114
214.619,210
214.644,311
214.669,396
214.694,456
214.719,494
214.744,512
214.769,514
214.794,502
214.819,481
214.844,457
214.869,434
214.894,412
214.919,388
214.944,365
214.969,343
214.994,323
215.019,303
215.044,279
215.069,252
215.094,227
215.119,205
215.144,187
215.169,169
215.194,151
215.219,133
215.244,118
215.269,100
215.294,74
215.319,44
215.344,23
215.369,27
215.394,61
215.419,111
215.444,158
215.469,188
215.494,208
215.519,229
215.544,255
215.569,280
215.594,293
215.619,294
215.644,290
215.669,293
215.694,302
215.719,312
215.744,319
215.769,321
215.794,321
215.819,314
215.844,298
215.869,270
215.894,238
215.919,211
215.944,193
215.969,183
215.994,175
216.019,170
216.044,166
216.069,159
216.094,144
216.119,120
216.144,100
216.169,100
216.194,128
216.219,174
216.244,217
216.269,246
216.294,263
216.319,278
216.344,296
216.369,311
216.394,317
216.419,314
216.444,312
216.469,315
216.494,322
216.519,327
216.544,327
216.569,324
216.594,321
216.619,316
216.644,304
216.669,285
216.694,266
216.719,253
216.744,243
216.769,230
216.794,213
216.819,195
216.844,180
216.869,164
216.894,141
216.919,110
216.944,86
216.969,85
216.994,112
217.019,154
217.044,191
217.069,214
217.094,228
217.119,246
217.144,268
217.169,288
217.194,298
217.219,298
217.244,296
217.269,299
217.294,305
217.319,311
217.344,314
217.369,312
217.394,306
217.419,296
217.444,282
217.469,265
217.494,248
217.519,231
217.544,212
217.569,194
217.594,180
217.619,166
217.644,147
217.669,118
217.694,90
217.719,80
217.744,103
217.769,152
217.794,206
217.819,244
217.844,265
217.869,279
217.894,296
217.919,315
217.944,327
217.969,329
217.994,328
218.019,329
218.044,329
218.069,324
218.094,314
218.119,305
218.144,301
218.169,297
218.194,287
218.219,270
218.244,250
218.269,233
218.294,218
218.319,199
218.344,175
218.369,151
218.394,131
218.419,109
218.444,81
218.469,53
218.494,44
218.519,69
218.544,121
218.569,179
218.594,220
218.619,245
218.644,266
218.669,293
218.694,319
218.719,334
218.744,337
218.769,337
218.794,345
218.819,357
218.844,361
218.869,353
218.894,340
218.919,330
218.944,325
218.969,317
218.994,299
219.019,275
219.044,255
219.069,240
219.094,224
219.119,203
219.144,177
219.169,155
219.194,136
219.219,114
219.244,84
219.269,56
219.294,48
219.319,71
219.344,119
219.369,170
219.394,209
219.419,233
219.444,256
219.469,284
219.494,315
219.519,335
219.544,340
219.569,336
219.594,334
219.619,337
219.644,343
219.669,343
219.694,336
219.719,324
219.744,311
219.769,297
219.794,283
219.819,268
219.844,251
219.869,232
219.894,209
219.919,185
219.944,164
219.969,150
219.994,136
220.019,115
220.044,84
220.069,57
220.094,52
220.119,78
220.144,127
220.169,177
220.194,212
220.219,235
220.244,256
220.269,281
220.294,306
220.319,320
220.344,321
220.369,319
220.394,321
220.419,330
220.444,337
220.469,336
220.494,328
220.519,316
220.544,305
220.569,294
220.594,280
220.619,262
220.644,241
220.669,220
220.694,198
220.719,180
220.744,164
220.769,151
220.794,134
220.819,111
220.844,89
220.869,82
220.894,103
220.919,146
220.944,194
220.969,231
220.994,254
221.019,273
221.044,294
221.069,314
221.094,325
221.119,324
221.144,319
221.169,320
221.194,328
221.219,338
221.244,341
221.269,337
221.294,329
221.319,318
221.344,303
221.369,285
221.394,268
221.419,254
221.444,239
221.469,220
221.494,196
221.519,174
221.544,160
221.569,147
221.594,126
221.619,91
221.644,58
221.669,50
221.694,78
221.719,126
221.744,168
221.769,190
221.794,203
221.819,224
221.844,260
221.869,296
221.894,318
221.919,321
221.944,316
221.969,318
221.994,326
222.019,334
222.044,335
222.069,330
222.094,325
222.119,320
222.144,311
222.169,296
222.194,278
222.219,264
222.244,254
222.269,243
222.294,226
222.319,207
222.344,191
222.369,180
222.394,170
222.419,151
222.444,121
222.469,90
222.494,74
222.519,85
222.544,120
222.569,164
222.594,202
222.619,227
222.644,245
222.669,263
222.694,280
222.719,292
222.744,298
222.769,300
222.794,304
222.819,312
222.844,319
222.869,319
222.894,314
222.919,309
222.944,306
222.969,300
222.994,287
223.019,268
223.044,249
223.069,236
223.094,227
223.119,217
223.144,203
223.169,185
223.194,164
223.219,138
223.244,113
223.269,100
223.294,110
223.319,146
223.344,193
223.369,234
223.394,261
223.419,280
223.444,299
223.469,317
223.494,328
223.519,327
223.544,319
223.569,314
223.594,316
223.619,321
223.644,320
223.669,315
223.694,309
223.719,302
223.744,291
223.769,273
223.794,252
223.819,236
223.844,224
223.869,211
223.894,190
223.919,164
223.944,139
223.969,119
223.994,98
224.019,71
224.044,45
224.069,38
224.094,62
224.119,113
224.144,170
224.169,212
224.194,239
224.219,260
224.244,284
224.269,310
224.294,329
224.319,335
224.344,336
224.369,338
224.394,344
224.419,349
224.444,350
224.469,347
224.494,342
224.519,336
224.544,326
224.569,311
224.594,291
224.619,273
224.644,255
224.669,236
224.694,213
224.719,190
224.744,170
224.769,154
224.794,134
224.819,104
224.844,67
224.869,41
224.894,43
224.919,76
224.944,126
224.969,173
224.994,207
225.019,233
225.044,259
225.069,288
225.094,313
225.119,328
225.144,332
225.169,332
225.194,336
225.219,343
225.244,347
225.269,345
225.294,341
225.319,337
225.344,334
225.369,325
225.394,306
225.419,283
225.444,260
225.469,242
225.494,223
225.519,201
225.544,176
225.569,153
225.594,137
225.619,122
225.644,96
225.669,62
225.694,33
225.719,31
225.744,63
225.769,120
225.794,181
225.819,230
225.844,264
225.869,288
225.894,307
225.919,321
225.944,328
225.969,330
225.994,332
226.019,335
226.044,340
226.069,345
226.094,348
226.119,347
226.144,338
226.169,323
226.194,304
226.219,286
226.244,270
226.269,250
226.294,225
226.319,198
226.344,177
226.369,161
226.394,140
226.419,107
226.444,73
226.469,58
226.494,80
226.519,133
226.544,193
226.569,239
226.594,266
226.619,285
226.644,306
226.669,326
226.694,337
226.719,335
226.744,327
226.769,323
226.794,326
226.819,332
226.844,337
226.869,334
226.894,324
226.919,306
226.944,285
226.969,263
226.994,243
227.019,223
227.044,200
227.069,175
227.094,152
227.119,133
227.144,112
227.169,82
227.194,45
227.219,21
227.244,30
227.269,77
227.294,143
227.319,204
227.344,245
227.369,270
227.394,291
227.419,314
227.444,334
227.469,341
227.494,337
227.519,329
227.544,325
227.569,328
227.594,333
227.619,334
227.644,327
227.669,314
227.694,298
227.719,280
227.744,259
227.769,234
227.794,208
227.819,185
227.844,167
227.869,150
227.894,123
227.919,87
227.944,57
227.969,56
227.994,93
228.019,154
228.044,212
228.069,248
228.094,265
228.119,279
228.144,297
228.169,313
228.194,317
228.219,308
228.244,299
228.269,299
228.294,307
228.319,310
228.344,304
228.369,292
228.394,282
228.419,274
228.444,261
228.469,242
228.494,220
228.519,200
228.544,179
228.569,149
228.594,112
228.619,86
228.644,90
228.669,128
228.694,186
228.719,237
228.744,269
228.769,287
228.794,303
228.819,321
228.844,335
228.869,337
228.894,329
228.919,319
228.944,311
228.969,306
228.994,301
229.019,296
229.044,290
229.069,283
229.094,269
229.119,244
229.144,214
229.169,185
229.194,163
229.219,142
229.244,115
229.269,83
229.294,63
229.319,71
229.344,112
229.369,168
229.394,218
229.419,249
229.444,268
229.469,287
229.494,310
229.519,329
229.544,334
229.569,325
229.594,315
229.619,311
229.644,315
229.669,317
229.694,311
229.719,300
229.744,289
229.769,278
229.794,263
229.819,240
229.844,213
229.869,190
229.894,174
229.919,154
229.944,122
229.969,82
229.994,53
230.019,55
230.044,93
230.069,150
230.094,203
230.119,239
230.144,262
230.169,282
230.194,304
230.219,323
230.244,331
230.269,327
230.294,318
230.319,313
230.344,315
230.369,319
230.394,319
230.419,312
230.444,300
230.469,288
230.494,272
230.519,251
230.544,225
230.569,202
230.594,185
230.619,171
230.644,151
230.669,119
230.694,84
230.719,67
230.744,83
230.769,127
230.794,182
230.819,225
230.844,251
230.869,268
230.894,283
230.919,299
230.944,307
230.969,305
230.994,297
231.019,293
231.044,296
231.069,302
231.094,304
231.119,300
231.144,291
231.169,280
231.194,265
231.219,245
231.244,224
231.269,206
231.294,193
231.319,179
231.344,156
231.369,126
231.394,104
231.419,107
231.444,140
231.469,188
231.494,231
231.519,257
231.544,270
231.569,284
231.594,304
231.619,321
231.644,326
231.669,317
231.694,305
231.719,303
231.744,311
231.769,320
231.794,318
231.819,307
231.844,294
231.869,285
231.894,276
231.919,257
231.944,226
231.969,193
231.994,171
232.019,156
232.044,137
232.069,105
232.094,70
232.119,53
232.144,72
232.169,119
232.194,175
232.219,220
232.244,246
232.269,263
232.294,281
232.319,302
232.344,320
232.369,328
232.394,326
232.419,319
232.444,314
232.469,315
232.494,319
232.519,318
232.544,308
232.569,292
232.594,275
232.619,260
232.644,245
232.669,226
232.694,204
232.719,183
232.744,164
232.769,143
232.794,113
232.819,80
232.844,59
232.869,67
232.894,106
232.919,159
232.944,205
232.969,234
232.994,252
233.019,271
233.044,292
233.069,311
233.094,319
233.119,316
233.144,312
233.169,313
233.194,319
233.219,326
233.244,327
233.269,320
233.294,305
233.319,286
233.344,267
233.369,253
233.394,240
233.419,226
233.444,209
233.469,191
233.494,175
233.519,157
233.544,134
233.569,107
233.594,89
233.619,96
233.644,132
233.669,185
233.694,232
233.719,262
233.744,279
233.769,293
233.794,307
233.819,317
233.844,314
233.869,303
233.894,296
233.919,298
233.944,307
233.969,311
233.994,305
234.019,294
234.044,284
234.069,276
234.094,266
234.119,248
234.144,226
234.169,205
234.194,188
234.219,170
234.244,146
234.269,115
234.294,88
234.319,78
234.344,96
234.369,139
234.394,193
234.419,241
234.444,272
234.469,290
234.494,300
234.519,309
234.544,317
234.569,319
234.594,315
234.619,307
234.644,303
234.669,302
234.694,300
234.719,293
234.744,280
234.769,265
234.794,252
234.819,241
234.844,229
234.869,215
234.894,201
234.919,191
234.944,182
234.969,164
234.994,133
235.019,98
235.044,75
235.069,83
235.094,122
235.119,176
235.144,224
235.169,257
235.194,278
235.219,297
235.244,318
235.269,336
235.294,341
235.319,335
235.344,325
235.369,320
235.394,321
235.419,324
235.444,321
235.469,312
235.494,298
235.519,284
235.544,270
235.569,252
235.594,227
235.619,200
235.644,178
235.669,163
235.694,149
235.719,125
235.744,93
235.769,67
235.794,66
235.819,98
235.844,151
235.869,200
235.894,233
235.919,250
235.944,266
235.969,285
235.994,301
236.019,305
236.044,296
236.069,287
236.094,287
236.119,297
236.144,305
236.169,301
236.194,290
236.219,281
236.244,275
236.269,267
236.294,250
236.319,228
236.344,210
236.369,198
236.394,183
236.419,154
236.444,118
236.469,95
236.494,107
236.519,151
236.544,204
236.569,243
236.594,263
236.619,277
236.644,295
236.669,314
236.694,322
236.719,315
236.744,302
236.769,295
236.794,298
236.819,303
236.844,301
236.869,293
236.894,286
236.919,282
236.944,274
236.969,255
236.994,227
237.019,202
237.044,184
237.069,167
237.094,141
237.119,108
237.144,86
237.169,96
237.194,138
237.219,193
237.244,237
237.269,261
237.294,275
237.319,290
237.344,308
237.369,318
237.394,314
237.419,300
237.444,289
237.469,290
237.494,296
237.519,298
237.544,289
237.569,275
237.594,263
237.619,253
237.644,240
237.669,219
237.694,195
237.719,175
237.744,157
237.769,135
237.794,106
237.819,79
237.844,73
237.869,102
237.894,158
237.919,219
237.944,265
237.969,289
237.994,303
238.019,317
238.044,332
238.069,339
238.094,335
238.119,325
238.144,318
238.169,318
238.194,317
238.219,309
238.244,293
238.269,276
238.294,261
238.319,247
238.344,228
238.369,204
238.394,182
238.419,164
238.444,147
238.469,121
238.494,86
238.519,61
238.544,65
238.569,103
238.594,159
238.619,208
238.644,237
238.669,251
238.694,265
238.719,285
238.744,304
238.769,311
238.794,304
238.819,292
238.844,285
238.869,286
238.894,290
238.919,292
238.944,290
238.969,282
238.994,267
239.019,246
239.044,223
239.069,205
239.094,189
239.119,172
239.144,148
239.169,125
239.194,119
239.219,139
239.244,182
239.269,229
239.294,264
239.319,283
239.344,294
239.369,306
239.394,315
239.419,318
239.444,313
239.469,307
239.494,305
239.519,310
239.544,313
239.569,309
239.594,300
239.619,289
239.644,277
239.669,262
239.694,241
239.719,218
239.744,198
239.769,178
239.794,154
239.819,126
239.844,106
239.869,109
239.894,143
239.919,194
239.944,240
239.969,266
239.994,275
240.019,281
240.044,292
240.069,302
240.094,302
240.119,293
240.144,283
240.169,282
240.194,288
240.219,291
240.244,284
240.269,273
240.294,262
240.319,253
240.344,240
240.369,219
240.394,195
240.419,175
240.444,160
240.469,144
240.494,120
240.519,95
240.544,84
240.569,102
240.594,148
240.619,202
240.644,244
240.669,266
240.694,278
240.719,289
240.744,303
240.769,313
240.794,314
240.819,305
240.844,296
240.869,292
240.894,294
240.919,294
240.944,288
240.969,276
240.994,261
241.019,246
241.044,229
241.069,211
241.094,193
241.119,178
241.144,164
241.169,145
241.194,118
241.219,93
241.244,88
241.269,112
241.294,158
241.319,203
241.344,232
241.369,245
241.394,255
241.419,271
241.444,289
241.469,299
241.494,295
241.519,287
241.544,284
241.569,290
241.594,297
241.619,298
241.644,293
241.669,287
241.694,282
241.719,275
241.744,262
241.769,247
241.794,234
241.819,223
241.844,207
241.869,181
241.894,155
241.919,144
241.944,162
241.969,202
241.994,243
242.019,269
242.044,278
242.069,284
242.094,293
242.119,305
242.144,308
242.169,300
242.194,289
242.219,285
242.244,291
242.269,297
242.294,296
242.319,286
242.344,273
242.369,261
242.394,247
242.419,228
242.444,205
242.469,185
242.494,173
242.519,162
242.544,141
242.569,110
242.594,83
242.619,82
242.644,114
242.669,166
242.694,213
242.719,241
242.744,254
242.769,267
242.794,287
242.819,306
242.844,315
242.869,309
242.894,297
242.919,293
242.944,298
242.969,307
242.994,308
243.019,299
243.044,285
243.069,270
243.094,258
243.119,245
243.144,227
243.169,206
243.194,189
243.219,175
243.244,161
243.269,138
243.294,108
243.319,82
243.344,77
243.369,103
243.394,152
243.419,206
243.444,247
243.469,271
243.494,287
243.519,303
243.544,320
243.569,333
243.594,335
243.619,332
243.644,330
243.669,334
243.694,339
243.719,341
243.744,338
243.769,332
243.794,325
243.819,315
243.844,300
243.869,278
243.894,256
243.919,239
243.944,226
243.969,212
243.994,190
244.019,165
244.044,142
244.069,125
244.094,108
244.119,84
244.144,57
244.169,42
244.194,54
244.219,96
244.244,154
244.269,205
244.294,237
244.319,255
244.344,268
244.369,284
244.394,299
244.419,308
244.444,308
244.469,303
244.494,300
244.519,302
244.544,308
244.569,313
244.594,312
244.619,306
244.644,297
244.669,287
244.694,273
244.719,255
244.744,232
244.769,210
244.794,195
244.819,184
244.844,169
244.869,144
244.894,117
244.919,106
244.944,124
244.969,169
244.994,221
245.019,260
245.044,279
245.069,290
245.094,303
245.119,320
245.144,330
245.169,328
245.194,319
245.219,315
245.244,319
245.269,324
245.294,322
245.319,312
245.344,299
245.369,288
245.394,281
245.419,270
245.444,253
245.469,234
245.494,217
245.519,202
245.544,185
245.569,163
245.594,137
245.619,114
245.644,106
245.669,122
245.694,163
245.719,218
245.744,268
245.769,300
245.794,316
245.819,326
245.844,341
245.869,357
245.894,363
245.919,352
245.944,333
245.969,324
245.994,332
246.019,349
246.044,355
246.069,341
246.094,315
246.119,291
246.144,276
246.169,259
246.194,231
246.219,192
246.244,155
246.269,128
246.294,104
246.319,69
246.344,23
246.369,-16
246.394,-27
246.419,-3
246.444,39
246.469,75
246.494,90
246.519,91
246.544,92
246.569,97
246.594,101
246.619,93
246.644,76
246.669,60
246.694,52
246.719,53
246.744,59
246.769,68
246.794,85
246.819,115
246.844,156
246.869,203
246.894,254
246.919,311
246.944,371
246.969,422
246.994,451
247.019,454
247.044,448
247.069,451
247.094,470
247.119,492
247.144,500
247.169,495
247.194,491
247.219,500
247.244,515
247.269,514
247.294,482
247.319,429
247.344,374
247.369,331
247.394,298
247.419,266
247.444,235
247.469,218
247.494,227
247.519,259
247.544,296
247.569,321
247.594,323
247.619,308
247.644,284
247.669,261
247.694,243
247.719,232
247.744,226
247.769,222
247.794,212
247.819,193
247.844,163
247.869,124
247.894,85
247.919,55
247.944,45
247.969,54
247.994,75
248.019,95
248.044,108
248.069,115
248.094,126
248.119,145
248.144,171
248.169,198
248.194,221
248.219,238
248.244,255
248.269,273
248.294,290
248.319,299
248.344,299
248.369,291
248.394,280
248.419,270
248.444,259
248.469,243
248.494,220
248.519,193
248.544,169
248.569,151
248.594,136
248.619,116
248.644,85
248.669,51
248.694,30
248.719,37
248.744,72
248.769,118
248.794,160
248.819,189
248.844,207
248.869,223
248.894,239
248.919,256
248.944,270
248.969,283
248.994,293
249.019,301
249.044,304
249.069,303
249.094,303
249.119,308
249.144,319
249.169,331
249.194,334
249.219,326
249.244,312
249.269,301
249.294,297
249.319,300
249.344,303
249.369,305
249.394,311
249.419,324
249.444,341
249.469,346
249.494,327
249.519,283
249.544,232
249.569,198
249.594,190
249.619,197
249.644,205
249.669,207
249.694,209
249.719,217
249.744,229
249.769,235
249.794,231
249.819,227
249.844,234
249.869,253
249.894,270
249.919,274
249.944,266
249.969,256
249.994,251
250.019,244
250.044,229
250.069,210
250.094,197
250.119,192
250.144,189
250.169,177
250.194,161
250.219,157
250.244,172
250.269,189
250.294,184
250.319,148
250.344,104
250.369,81
250.394,92
250.419,119
250.444,137
250.469,142
250.494,151
250.519,182
250.544,233
250.569,285
250.594,320
250.619,340
250.644,355
250.669,375
250.694,400
250.719,427
250.744,455
250.769,480
250.794,495
250.819,490
250.844,465
250.869,427
250.894,386
250.919,352
250.944,330
250.969,325
250.994,329
251.019,324
251.044,291
251.069,230
251.094,165
251.119,126
251.144,115
251.169,105
251.194,62
251.219,-17
251.244,-95
251.269,-124
251.294,-86
251.319,2
251.344,111
251.369,221
251.394,325
251.419,403
251.444,431
251.469,394
251.494,312
251.519,228
251.544,174
251.569,152
251.594,142
251.619,131
251.644,128
251.669,148
251.694,187
251.719,223
251.744,232
251.769,210
251.794,176
251.819,148
251.844,128
251.869,104
251.894,70
251.919,33
251.944,14
251.969,31
251.994,80
252.019,144
252.044,201
252.069,242
252.094,273
252.119,305
252.144,342
252.169,377
252.194,401
252.219,415
252.244,424
252.269,433
252.294,443
252.319,446
252.344,438
252.369,420
252.394,398
252.419,377
252.444,357
252.469,338
252.494,316
252.519,292
252.544,263
252.569,234
252.594,208
252.619,188
252.644,169
252.669,141
252.694,105
252.719,72
252.744,63
252.769,86
252.794,131
252.819,179
252.844,215
252.869,241
252.894,265
252.919,290
252.944,313
252.969,329
252.994,335
253.019,336
253.044,335
253.069,332
253.094,329
253.119,323
253.144,313
253.169,296
253.194,274
253.219,252
253.244,235
253.269,224
253.294,213
253.319,194
253.344,170
253.369,147
253.394,125
253.419,98
253.444,62
253.469,29
253.494,20
253.519,49
253.544,109
253.569,181
253.594,244
253.619,297
253.644,349
253.669,409
253.694,475
253.719,535
253.744,567
253.769,547
253.794,458
253.819,310
253.844,144
253.869,17
253.894,-29
253.919,-3
253.944,46
253.969,67
253.994,37
254.019,-23
254.044,-76
254.069,-84
254.094,-37
254.119,54
254.144,163
254.169,261
254.194,332
254.219,385
254.244,442
254.269,520
254.294,607
254.319,670
254.344,670
254.369,594
254.394,463
254.419,313
254.444,182
254.469,96
254.494,63
254.519,77
254.544,119
254.569,169
254.594,211
254.619,242
254.644,259
254.669,262
254.694,250
254.719,229
254.744,208
254.769,197
254.794,193
254.819,188
254.844,177
254.869,165
254.894,156
254.919,146
254.944,120
254.969,76
254.994,30
255.019,10
255.044,34
255.069,93
255.094,160
255.119,211
255.144,241
255.169,262
255.194,283
255.219,308
255.244,332
255.269,348
255.294,352
255.319,348
255.344,341
255.369,333
255.394,324
255.419,309
255.444,286
255.469,263
255.494,247
255.519,238
255.544,226
255.569,203
255.594,169
255.619,138
255.644,115
255.669,97
255.694,76
255.719,57
255.744,63
255.769,110
255.794,193
255.819,282
255.844,349
255.869,392
255.894,426
255.919,468
255.944,510
255.969,536
255.994,537
256.019,522
256.044,505
256.069,490
256.094,470
256.119,438
256.144,398
256.169,359
256.194,324
256.219,292
256.244,265
256.269,244
256.294,225
256.319,198
256.344,156
256.369,109
256.394,80
256.419,88
256.444,125
256.469,163
256.494,180
256.519,181
256.544,184
256.569,202
256.594,218
256.619,210
256.644,167
256.669,107
256.694,56
256.719,25
256.744,9
256.769,-3
256.794,-16
256.819,-25
256.844,-29
256.869,-33
256.894,-43
256.919,-58
256.944,-72
256.969,-81
256.994,-89
257.019,-94
257.044,-89
257.069,-62
257.094,-6
257.119,71
257.144,156
257.169,238
257.194,314
257.219,386
257.244,450
257.269,494
257.294,515
257.319,518
257.344,520
257.369,534
257.394,558
257.419,580
257.444,590
257.469,586
257.494,573
257.519,552
257.544,519
257.569,473
257.594,419
257.619,365
257.644,319
257.669,276
257.694,230
257.719,180
257.744,138
257.769,119
257.794,127
257.819,152
257.844,180
257.869,201
257.894,213
257.919,223
257.944,231
257.969,236
257.994,233
258.019,225
258.044,215
258.069,209
258.094,210
258.119,217
258.144,225
258.169,229
258.194,230
258.219,228
258.244,229
258.269,233
258.294,237
258.319,237
258.344,235
258.369,235
258.394,242
258.419,250
258.444,249
258.469,234
258.494,208
258.519,184
258.544,170
258.569,163
258.594,155
258.619,143
258.644,132
258.669,129
258.694,134
258.719,139
258.744,138
258.769,131
258.794,126
258.819,131
258.844,142
258.869,155
258.894,168
258.919,181
258.944,199
258.969,218
258.994,231
259.019,233
259.044,228
259.069,223
259.094,226
259.119,235
259.144,247
259.169,254
259.194,251
259.219,235
259.244,206
259.269,171
259.294,137
259.319,116
259.344,115
259.369,138
259.394,189
259.419,268
259.444,368
259.469,469
259.494,544
259.519,575
259.544,565
259.569,538
259.594,517
259.619,506
259.644,491
259.669,461
259.694,423
259.719,395
259.744,386
259.769,379
259.794,350
259.819,288
259.844,215
259.869,158
259.894,128
259.919,109
259.944,79
259.969,29
259.994,-27
260.019,-79
260.044,-125
260.069,-169
260.094,-203
260.119,-202
260.144,-148
260.169,-48
260.194,63
260.219,154
260.244,212
260.269,247
260.294,275
260.319,301
260.344,323
260.369,337
260.394,348
260.419,362
260.444,377
260.469,386
260.494,385
260.519,378
260.544,371
260.569,364
260.594,357
260.619,348
260.644,338
260.669,324
260.694,303
260.719,272
260.744,236
260.769,205
260.794,183
260.819,160
260.844,126
260.869,79
260.894,39
260.919,29
260.944,59
260.969,116
260.994,174
261.019,220
261.044,252
261.069,279
261.094,306
261.119,328
261.144,337
261.169,333
261.194,326
261.219,325
261.244,334
261.269,347
261.294,354
261.319,355
261.344,352
261.369,350
261.394,348
261.419,340
261.444,326
261.469,307
261.494,289
261.519,273
261.544,254
261.569,229
261.594,198
261.619,170
261.644,148
261.669,128
261.694,101
261.719,66
261.744,36
261.769,34
261.794,68
261.819,126
261.844,185
261.869,228
261.894,255
261.919,276
261.944,295
261.969,309
261.994,312
262.019,307
262.044,301
262.069,301
262.094,306
262.119,308
262.144,305
262.169,294
262.194,281
262.219,266
262.244,249
262.269,229
262.294,208
262.319,188
262.344,171
262.369,156
262.394,142
262.419,124
262.444,97
262.469,60
262.494,24
262.519,3
262.544,15
262.569,60
262.594,123
262.619,184
262.644,227
262.669,254
262.694,274
262.719,295
262.744,317
262.769,333
262.794,340
262.819,341
262.844,344
262.869,354
262.894,367
262.919,375
262.944,370
262.969,354
262.994,334
263.019,320
263.044,311
263.069,301
263.094,283
263.119,257
263.144,228
263.169,200
263.194,172
263.219,140
263.244,108
263.269,88
263.294,95
263.319,128
263.344,175
263.369,218
263.394,246
263.419,263
263.444,278
263.469,297
263.494,315
263.519,324
263.544,322
263.569,316
263.594,314
263.619,321
263.644,330
263.669,336
263.694,333
263.719,324
263.744,311
263.769,296
263.794,278
263.819,257
263.844,237
263.869,220
263.894,205
263.919,182
263.944,149
263.969,112
263.994,89
264.019,95
264.044,127
264.069,168
264.094,202
264.119,222
264.144,234
264.169,246
264.194,259
264.219,265
264.244,263
264.269,254
264.294,248
264.319,247
264.344,249
264.369,247
264.394,240
264.419,232
264.444,225
264.469,220
264.494,211
264.519,198
264.544,182
264.569,168
264.594,158
264.619,147
264.644,128
264.669,101
264.694,77
264.719,68
264.744,84
264.769,120
264.794,164
264.819,203
264.844,236
264.869,264
264.894,292
264.919,317
264.944,335
264.969,344
264.994,350
265.019,355
265.044,363
265.069,369
265.094,371
265.119,367
265.144,358
265.169,347
265.194,332
265.219,314
265.244,293
