df_hash,22ZHK4.BUJ0BH
device,HZ2X61
project_hash,29R7
project_name,istanbul_aydin_university
person_hash,29R7.9UES
person_label,V95
date_time_start,2025-11-04_18-12-10.948000_+03
date_time_start_unix,1762265530.948
date_time_end,2025-11-04_18-20-27.976000_+03
length_difference_noticed,no

time,ppg_ir,ppg_ambient,ppg_red
5.309,189879,196,226018
5.314,189887,195,226025
5.319,189880,193,226037
5.324,189884,195,226019
5.329,189910,194,226010
5.334,189891,194,226017
5.339,189891,193,226022
5.344,189880,193,226018
5.349,189880,194,226029
5.354,189871,199,226029
5.359,189886,190,226045
5.363,189885,192,226039
5.368,189890,191,226036
5.373,189879,193,226039
5.378,189875,192,226052
5.383,189899,193,226032
5.388,189867,193,226053
5.393,189895,193,226059
5.398,189893,192,226058
5.403,189894,198,226048
5.408,189907,198,226061
5.413,189899,189,226082
5.418,189906,189,226078
5.423,189909,192,226068
5.428,189907,193,226057
5.433,189905,194,226085
5.438,189903,194,226073
5.443,189927,196,226079
5.448,189916,198,226081
5.453,189926,191,226091
5.458,189932,192,226101
5.463,189918,194,226095
5.468,189943,195,226100
5.473,189947,196,226108
5.478,189931,196,226103
5.483,189945,198,226134
5.488,189962,189,226138
5.493,189960,189,226144
5.498,189970,190,226140
5.503,189964,195,226152
5.508,189977,196,226145
5.512,189977,197,226137
5.517,189991,197,226164
5.522,190002,198,226170
5.527,189996,189,226169
5.532,190001,189,226163
5.537,189997,189,226165
5.542,190005,189,226183
5.547,190004,193,226193
5.552,189993,195,226190
5.557,190018,195,226197
5.562,190028,196,226187
5.567,190036,198,226216
5.572,190030,199,226206
5.577,190047,199,226213
5.582,190033,198,226219
5.587,190047,199,226220
5.592,190061,197,226229
5.597,190072,191,226230
5.602,190050,195,226242
5.607,190051,197,226244
5.612,190062,197,226246
5.617,190084,198,226250
5.622,190081,198,226269
5.627,190085,199,226263
5.632,190071,198,226271
5.637,190081,198,226275
5.642,190104,198,226299
5.647,190098,192,226307
5.652,190100,190,226297
5.656,190109,189,226313
5.661,190098,189,226301
5.666,190121,192,226303
5.671,190111,191,226304
5.676,190115,192,226303
5.681,190120,193,226307
5.686,190131,195,226310
5.691,190127,196,226306
5.696,190136,189,226311
5.701,190130,188,226331
5.706,190131,201,226313
5.711,190140,199,226328
5.716,190178,188,226327
5.721,190187,199,226344
5.726,190175,200,226344
5.731,190178,199,226359
5.736,190194,199,226342
5.741,190197,188,226344
5.746,190197,194,226354
5.751,190186,194,226360
5.756,190213,195,226375
5.761,190208,195,226373
5.766,190226,196,226373
5.771,190208,195,226368
5.776,190228,194,226392
5.781,190222,193,226372
5.786,190223,195,226365
5.791,190217,193,226383
5.796,190183,192,226360
5.800,190188,192,226344
5.805,190165,193,226348
5.810,190156,191,226340
5.815,190150,192,226322
5.820,190128,191,226316
5.825,190100,192,226310
5.830,190110,190,226303
5.835,190106,190,226291
5.840,190107,193,226295
5.845,190072,195,226292
5.850,190068,195,226287
5.855,190063,195,226290
5.860,190057,194,226281
5.865,190035,196,226294
5.870,190051,194,226290
5.875,190023,194,226277
5.880,190035,194,226291
5.885,190021,196,226267
5.890,190023,190,226294
5.895,190005,190,226259
5.900,190026,189,226273
5.905,189990,190,226274
5.910,190000,189,226257
5.915,189997,191,226246
5.920,190000,190,226262
5.925,189986,192,226244
5.930,189989,189,226260
5.935,189984,192,226206
5.940,189954,197,226229
5.945,189967,189,226230
5.949,189971,189,226228
5.954,189958,190,226226
5.959,189968,190,226226
5.964,189959,193,226215
5.969,189965,193,226223
5.974,189973,195,226215
5.979,189972,196,226223
5.984,189978,199,226220
5.989,189959,192,226204
5.994,189948,193,226219
5.999,189956,193,226227
6.004,189968,196,226215
6.009,189958,196,226209
6.014,189941,197,226226
6.019,189949,196,226214
6.024,189948,199,226202
6.029,189948,188,226186
6.034,189953,204,226185
6.039,189949,194,226193
6.044,189959,195,226191
6.049,189958,195,226175
6.054,189949,195,226197
6.059,189961,195,226191
6.064,189945,196,226178
6.069,189957,194,226191
6.074,189957,195,226172
6.079,189941,195,226160
6.084,189940,190,226183
6.089,189923,190,226171
6.093,189942,190,226162
6.098,189951,190,226171
6.103,189949,193,226172
6.108,189951,192,226162
6.113,189932,193,226170
6.118,189933,192,226169
6.123,189935,194,226156
6.128,189923,194,226144
6.133,189945,188,226156
6.138,189961,188,226154
6.143,189924,191,226158
6.148,189941,191,226168
6.153,189944,192,226176
6.158,189953,191,226176
6.163,189953,193,226166
6.168,189936,193,226163
6.173,189961,194,226169
6.178,189961,194,226185
6.183,189944,194,226189
6.188,189967,188,226180
6.193,189962,188,226177
6.198,189974,187,226175
6.203,189967,188,226179
6.208,189980,189,226193
6.213,189978,190,226164
6.218,189956,189,226172
6.223,189966,190,226165
6.228,189983,190,226164
6.233,189963,195,226157
6.237,189961,195,226151
6.242,189960,197,226134
6.247,189960,197,226112
6.252,189967,198,226128
6.257,189969,187,226129
6.262,189972,188,226114
6.267,189964,189,226115
6.272,189967,189,226107
6.277,189963,191,226093
6.282,189980,196,226092
6.287,189985,198,226095
6.292,189975,188,226084
6.297,189976,189,226091
6.302,189966,189,226105
6.307,189975,190,226094
6.312,189991,191,226081
6.317,189999,192,226102
6.322,190000,193,226111
6.327,190011,195,226109
6.332,190006,199,226120
6.337,189995,187,226102
6.342,189997,188,226115
6.347,190001,188,226108
6.352,190028,189,226130
6.357,190019,189,226123
6.362,190025,190,226117
6.367,190012,191,226109
6.372,190032,192,226112
6.377,190019,197,226130
6.382,190025,187,226120
6.386,190034,189,226124
6.391,190033,190,226143
6.396,190032,191,226146
6.401,190040,192,226155
6.406,190035,194,226144
6.411,190036,195,226165
6.416,190060,196,226150
6.421,190048,198,226173
6.426,190026,193,226181
6.431,190057,193,226176
6.436,190048,194,226186
6.441,190066,195,226179
6.446,190075,197,226205
6.451,190062,198,226194
6.456,190050,198,226187
6.461,190066,187,226199
6.466,190069,189,226214
6.471,190088,188,226216
6.476,190081,196,226230
6.481,190077,197,226240
6.486,190083,188,226251
6.491,190082,190,226275
6.496,190093,191,226294
6.501,190087,192,226284
6.506,190108,195,226308
6.511,190112,195,226331
6.516,190125,196,226331
6.521,190122,198,226378
6.526,190152,198,226386
6.530,190146,198,226396
6.535,190138,199,226394
6.540,190144,188,226413
6.545,190139,189,226386
6.550,190157,189,226377
6.555,190130,190,226390
6.560,190150,190,226386
6.565,190142,192,226384
6.570,190140,191,226364
6.575,190092,198,226370
6.580,190093,187,226373
6.585,190071,191,226376
6.590,190103,190,226365
6.595,190077,191,226366
6.600,190067,192,226356
6.605,190061,194,226355
6.610,190047,193,226356
6.615,190047,194,226356
6.620,190045,198,226348
6.625,190036,189,226355
6.630,190018,188,226336
6.635,190005,190,226311
6.640,189982,190,226292
6.645,189967,192,226284
6.650,189966,191,226282
6.655,189955,192,226260
6.660,189943,192,226254
6.665,189954,194,226248
6.670,189927,198,226225
6.675,189920,188,226236
6.679,189918,187,226228
6.684,189921,190,226230
6.689,189920,190,226220
6.694,189911,191,226232
6.699,189913,191,226225
6.704,189917,194,226259
6.709,189912,194,226261
6.714,189920,196,226261
6.719,189944,189,226273
6.724,189947,192,226262
6.729,189925,192,226266
6.734,189920,194,226259
6.739,189921,194,226290
6.744,189934,195,226277
6.749,189935,192,226291
6.754,189922,191,226290
6.759,189938,189,226294
6.764,189928,189,226289
6.769,189922,192,226272
6.774,189917,190,226271
6.779,189920,188,226269
6.784,189920,189,226273
6.789,189894,198,226288
6.794,189933,196,226287
6.799,189920,193,226283
6.804,189898,193,226289
6.809,189913,191,226287
6.814,189903,191,226278
6.819,189916,192,226292
6.823,189919,192,226285
6.828,189907,190,226284
6.833,189896,189,226270
6.838,189900,187,226265
6.843,189891,198,226275
6.848,189899,197,226263
6.853,189876,194,226248
6.858,189887,192,226266
6.863,189900,197,226284
6.868,189899,196,226273
6.873,189883,196,226284
6.878,189886,194,226275
6.883,189865,195,226256
6.888,189866,192,226277
6.893,189872,192,226270
6.898,189872,191,226278
6.903,189876,191,226277
6.908,189869,190,226267
6.913,189876,196,226244
6.918,189874,197,226261
6.923,189880,198,226285
6.928,189874,168,226285
6.933,189882,195,226280
6.938,189892,193,226297
6.943,189909,193,226288
6.948,189899,193,226304
6.953,189891,191,226287
6.958,189914,189,226287
6.963,189910,193,226325
6.967,189905,192,226305
6.972,189911,191,226329
6.977,189922,189,226318
6.982,189919,189,226317
6.987,189919,188,226317
6.992,189922,199,226336
6.997,189921,196,226344
7.002,189935,196,226336
7.007,189922,195,226338
7.012,189919,187,226350
7.017,189941,197,226342
7.022,189942,197,226339
7.027,189949,195,226356
7.032,189930,195,226354
7.037,189938,196,226373
7.042,189946,194,226371
7.047,189961,193,226364
7.052,189962,192,226390
7.057,189988,190,226405
7.062,189973,190,226407
7.067,190002,188,226409
7.072,189986,188,226424
7.077,190004,198,226435
7.082,190012,197,226427
7.087,190026,195,226449
7.092,190022,194,226458
7.097,190022,193,226460
7.102,190028,192,226455
7.107,189994,192,226464
7.112,190046,194,226486
7.116,190056,193,226461
7.121,190055,192,226499
7.126,190049,192,226501
7.131,190072,191,226499
7.136,190088,189,226528
7.141,190093,188,226510
7.146,190091,188,226512
7.151,190065,197,226535
7.156,190127,190,226526
7.161,190074,195,226529
7.166,190092,194,226532
7.171,190100,193,226532
7.176,190124,192,226530
7.181,190124,192,226552
7.186,190133,191,226542
7.191,190132,190,226549
7.196,190135,189,226557
7.201,190139,188,226554
7.206,190151,193,226564
7.211,190143,192,226552
7.216,190155,191,226556
7.221,190150,191,226578
7.226,190174,190,226568
7.231,190171,189,226588
7.236,190182,188,226594
7.241,190168,188,226589
7.246,190192,199,226581
7.251,190173,198,226594
7.256,190202,190,226610
7.260,190205,189,226608
7.265,190209,190,226617
7.270,190207,188,226620
7.275,190232,198,226635
7.280,190253,196,226665
7.285,190234,197,226672
7.290,190259,194,226679
7.295,190277,193,226679
7.300,190276,193,226673
7.305,190253,199,226688
7.310,190266,196,226681
7.315,190259,195,226674
7.320,190255,193,226640
7.325,190228,193,226654
7.330,190223,191,226628
7.335,190190,191,226622
7.340,190170,190,226599
7.345,190151,192,226583
7.350,190137,192,226581
7.355,190111,194,226579
7.360,190134,192,226576
7.365,190121,193,226573
7.370,190113,191,226559
7.375,190108,190,226552
7.380,190084,189,226572
7.385,190081,190,226551
7.390,190069,188,226562
7.395,190056,199,226543
7.400,190066,190,226560
7.404,190055,190,226547
7.409,190062,188,226563
7.414,190061,188,226560
7.419,190040,198,226545
7.424,190039,199,226523
7.429,190036,188,226534
7.434,190020,188,226515
7.439,190048,188,226513
7.444,190016,190,226518
7.449,190018,193,226504
7.454,190007,193,226507
7.459,189996,191,226511
7.464,189991,191,226487
7.469,190004,189,226506
7.474,189992,189,226482
7.479,189989,188,226507
7.484,190005,189,226513
7.489,189975,198,226503
7.494,189993,197,226526
7.499,190009,189,226541
7.504,190005,190,226534
7.509,190013,188,226524
7.514,190014,199,226547
7.519,190008,197,226524
7.524,189993,198,226518
7.529,190001,195,226513
7.534,190007,194,226502
7.539,189988,192,226498
7.544,190013,193,226510
7.549,189983,197,226489
7.553,189981,196,226498
7.558,189989,194,226492
7.563,189981,196,226496
7.568,189982,195,226515
7.573,189991,195,226492
7.578,189982,194,226494
7.583,189980,195,226489
7.588,189979,195,226471
7.593,189980,195,226460
7.598,189981,192,226475
7.603,189959,193,226460
7.608,189979,192,226451
7.613,189959,192,226455
7.618,189955,190,226464
7.623,189965,191,226466
7.628,189941,189,226453
7.633,189938,188,226444
7.638,189952,197,226446
7.643,189947,190,226439
7.648,189945,189,226447
7.653,189959,188,226433
7.658,189964,187,226457
7.663,189961,198,226460
7.668,189956,195,226459
7.673,189952,194,226455
7.678,189949,193,226438
7.683,189967,193,226451
7.688,189957,192,226453
7.693,189970,197,226464
7.697,189965,187,226460
7.702,189955,188,226452
7.707,189948,198,226440
7.712,189961,198,226458
7.717,189965,196,226453
7.722,189965,196,226475
7.727,189965,194,226466
7.732,189975,193,226481
7.737,189987,192,226503
7.742,189989,197,226493
7.747,189995,194,226503
7.752,189995,192,226511
7.757,190003,189,226493
7.762,189998,190,226503
7.767,189995,188,226505
7.772,189995,187,226534
7.777,190015,196,226528
7.782,190007,195,226521
7.787,190011,196,226533
7.792,190008,198,226525
7.797,190022,196,226530
7.802,190019,196,226544
7.807,190042,196,226537
7.812,190047,195,226553
7.817,190045,193,226554
7.822,190041,194,226567
7.827,190054,195,226566
7.832,190060,194,226593
7.837,190073,193,226584
7.841,190060,199,226595
7.846,190071,198,226579
7.851,190075,198,226596
7.856,190080,198,226597
7.861,190083,197,226595
7.866,190072,195,226574
7.871,190086,194,226584
7.876,190095,192,226598
7.881,190089,191,226604
7.886,190085,190,226579
7.891,190090,193,226591
7.896,190100,192,226590
7.901,190085,192,226581
7.906,190096,192,226588
7.911,190105,190,226609
7.916,190088,189,226590
7.921,190120,188,226615
7.926,190106,189,226592
7.931,190127,186,226596
7.936,190118,190,226579
7.941,190122,192,226587
7.946,190113,193,226571
7.951,190113,191,226585
7.956,190118,191,226586
7.961,190130,189,226590
7.966,190101,189,226588
7.971,190133,189,226598
7.976,190149,188,226601
7.981,190149,186,226601
7.986,190126,192,226611
7.990,190150,190,226603
7.995,190148,189,226629
8.000,190168,188,226621
8.005,190160,188,226612
8.010,190170,188,226622
8.015,190171,198,226641
8.020,190184,197,226615
8.025,190171,197,226611
8.030,190166,195,226597
8.035,190152,194,226608
8.040,190147,197,226603
8.045,190142,196,226560
8.050,190130,195,226577
8.055,190119,193,226570
8.060,190105,192,226573
8.065,190087,194,226567
8.070,190079,193,226549
8.075,190071,192,226546
8.080,190044,191,226544
8.085,190046,196,226565
8.090,190044,195,226534
8.095,190037,194,226533
8.100,190016,193,226521
8.105,189993,194,226536
8.110,189992,193,226522
8.115,189983,192,226524
8.120,189982,190,226525
8.125,189995,191,226514
8.130,189978,190,226465
8.134,189954,193,226518
8.139,189961,192,226535
8.144,189954,191,226488
8.149,189947,190,226480
8.154,189937,190,226503
8.159,189922,189,226484
8.164,189896,188,226466
8.169,189897,187,226474
8.174,189882,198,226469
8.179,189933,189,226471
8.184,189882,191,226458
8.189,189874,189,226479
8.194,189865,189,226440
8.199,189873,187,226453
8.204,189861,188,226437
8.209,189863,198,226443
8.214,189853,197,226444
8.219,189851,196,226440
8.224,189841,197,226451
8.229,189836,189,226443
8.234,189845,188,226454
8.239,189839,188,226438
8.244,189826,189,226446
8.249,189830,188,226444
8.254,189821,198,226441
8.259,189826,197,226449
8.264,189822,198,226440
8.269,189827,196,226443
8.274,189826,196,226440
8.278,189826,191,226463
8.283,189822,195,226438
8.288,189826,194,226441
8.293,189831,194,226430
8.298,189836,193,226450
8.303,189825,194,226448
8.308,189815,193,226435
8.313,189820,193,226427
8.318,189808,192,226437
8.323,189823,191,226424
8.328,189818,196,226450
8.333,189823,196,226444
8.338,189812,197,226440
8.343,189808,198,226450
8.348,189839,197,226444
8.353,189804,196,226448
8.358,189814,195,226447
8.363,189803,195,226455
8.368,189817,194,226448
8.373,189817,194,226435
8.378,189814,198,226448
8.383,189781,199,226461
8.388,189805,198,226443
8.393,189793,198,226438
8.398,189796,196,226455
8.403,189790,197,226438
8.408,189798,195,226432
8.413,189793,195,226445
8.418,189804,193,226428
8.423,189792,201,226438
8.427,189802,198,226453
8.432,189789,197,226434
8.437,189795,195,226438
8.442,189792,196,226452
8.447,189795,197,226443
8.452,189800,196,226448
8.457,189794,194,226446
8.462,189799,196,226455
8.467,189785,195,226443
8.472,189798,188,226429
8.477,189792,187,226456
8.482,189803,188,226447
8.487,189802,187,226470
8.492,189797,188,226474
8.497,189799,188,226467
8.502,189804,189,226455
8.507,189803,188,226451
8.512,189784,189,226460
8.517,189807,188,226460
8.522,189800,197,226462
8.527,189818,188,226476
8.532,189822,188,226482
8.537,189819,186,226467
8.542,189817,188,226454
8.547,189821,187,226473
8.552,189846,187,226474
8.557,189827,187,226485
8.562,189835,188,226482
8.567,189844,198,226486
8.571,189836,191,226495
8.576,189849,191,226495
8.581,189863,192,226486
8.586,189853,193,226485
8.591,189848,193,226503
8.596,189857,193,226505
8.601,189877,192,226507
8.606,189860,192,226494
8.611,189864,192,226511
8.616,189869,191,226517
8.621,189850,196,226495
8.626,189874,195,226515
8.631,189876,195,226505
8.636,189864,193,226509
8.641,189890,194,226507
8.646,189896,193,226517
8.651,189889,193,226534
8.656,189899,192,226532
8.661,189901,192,226519
8.666,189913,195,226538
8.671,189913,196,226526
8.676,189902,193,226555
8.681,189892,194,226539
8.686,189913,193,226530
8.691,189926,193,226537
8.696,189937,194,226549
8.701,189934,193,226547
8.706,189946,194,226556
8.711,189939,194,226571
8.716,189955,188,226558
8.720,189947,192,226549
8.725,189947,195,226557
8.730,189953,194,226557
8.735,189960,195,226547
8.740,189959,195,226546
8.745,189918,197,226547
8.750,189929,198,226532
8.755,189913,187,226517
8.760,189894,187,226520
8.765,189879,193,226525
8.770,189876,193,226518
8.775,189845,194,226520
8.780,189845,194,226500
8.785,189828,197,226495
8.790,189814,197,226504
8.795,189816,197,226505
8.800,189815,197,226507
8.805,189795,188,226498
8.810,189807,188,226497
8.815,189766,193,226463
8.820,189769,193,226489
8.825,189763,196,226499
8.830,189748,195,226490
8.835,189739,197,226490
8.840,189747,187,226477
8.845,189740,190,226457
8.850,189726,191,226465
8.855,189699,192,226461
8.860,189722,192,226471
8.864,189698,191,226447
8.869,189680,190,226445
8.874,189684,191,226460
8.879,189676,191,226448
8.884,189661,193,226453
8.889,189644,192,226437
8.894,189640,191,226454
8.899,189663,191,226430
8.904,189658,192,226441
8.909,189650,193,226426
8.914,189648,195,226450
8.919,189627,195,226441
8.924,189638,197,226453
8.929,189653,192,226463
8.934,189632,195,226452
8.939,189631,194,226459
8.944,189635,196,226450
8.949,189633,193,226451
8.954,189621,193,226461
8.959,189639,196,226453
8.964,189621,188,226459
8.969,189635,188,226475
8.974,189633,188,226468
8.979,189633,187,226482
8.984,189639,189,226467
8.989,189630,188,226498
8.994,189607,189,226492
8.999,189637,189,226496
9.004,189634,191,226495
9.008,189652,195,226512
9.013,189637,197,226501
9.018,189629,196,226505
9.023,189644,198,226500
9.028,189631,198,226509
9.033,189617,192,226483
9.038,189644,187,226494
9.043,189623,190,226504
9.048,189620,189,226491
9.053,189613,189,226506
9.058,189615,193,226486
9.063,189624,195,226483
9.068,189630,194,226483
9.073,189614,195,226487
9.078,189603,194,226479
9.083,189604,196,226492
9.088,189611,195,226493
9.093,189593,195,226500
9.098,189606,195,226516
9.103,189613,196,226513
9.108,189632,194,226497
9.113,189613,195,226488
9.118,189606,195,226507
9.123,189624,197,226496
9.128,189614,197,226526
9.133,189602,197,226511
9.138,189609,197,226509
9.143,189640,199,226516
9.148,189619,187,226509
9.153,189616,188,226517
9.157,189628,186,226540
9.162,189625,193,226533
9.167,189622,193,226535
9.172,189623,194,226528
9.177,189623,193,226513
9.182,189629,195,226536
9.187,189649,193,226551
9.192,189645,193,226539
9.197,189639,192,226535
9.202,189638,201,226541
9.207,189636,198,226546
9.212,189652,187,226559
9.217,189659,187,226552
9.222,189671,189,226568
9.227,189672,188,226552
9.232,189657,188,226569
9.237,189652,189,226559
9.242,189673,190,226575
9.247,189664,189,226573
9.252,189666,193,226595
9.257,189685,192,226581
9.262,189670,192,226587
9.267,189685,191,226594
9.272,189686,190,226583
9.277,189698,189,226589
9.282,189693,191,226604
9.287,189690,190,226612
9.292,189702,190,226611
9.297,189718,189,226605
9.301,189714,195,226613
9.306,189694,195,226625
9.311,189720,196,226616
9.316,189724,195,226623
9.321,189726,197,226612
9.326,189732,195,226627
9.331,189746,196,226639
9.336,189759,195,226635
9.341,189749,196,226649
9.346,189741,197,226649
9.351,189741,191,226627
9.356,189746,190,226641
9.361,189750,190,226649
9.366,189756,190,226655
9.371,189767,189,226662
9.376,189774,190,226651
9.381,189770,191,226648
9.386,189778,191,226650
9.391,189783,191,226668
9.396,189782,189,226651
9.401,189783,188,226672
9.406,189789,188,226662
9.411,189785,187,226673
9.416,189800,187,226678
9.421,189810,188,226674
9.426,189791,187,226669
9.431,189810,187,226677
9.436,189810,186,226679
9.441,189807,187,226658
9.445,189819,193,226676
9.450,189807,192,226674
9.455,189826,191,226664
9.460,189812,191,226678
9.465,189810,192,226665
9.470,189783,192,226662
9.475,189769,191,226657
9.480,189757,192,226641
9.485,189751,193,226631
9.490,189734,194,226633
9.495,189727,197,226617
9.500,189716,198,226627
9.505,189693,197,226598
9.510,189692,196,226609
9.515,189671,196,226598
9.520,189667,196,226597
9.525,189645,197,226575
9.530,189633,196,226580
9.535,189624,197,226577
9.540,189631,197,226573
9.545,189630,190,226572
9.550,189616,189,226565
9.555,189598,189,226560
9.560,189595,188,226561
9.565,189593,188,226564
9.570,189577,187,226570
9.575,189570,187,226544
9.580,189565,187,226547
9.585,189546,189,226524
9.590,189544,188,226523
9.594,189541,193,226514
9.599,189525,192,226524
9.604,189525,193,226500
9.609,189523,192,226491
9.614,189522,192,226496
9.619,189513,191,226494
9.624,189500,193,226481
9.629,189506,192,226474
9.634,189514,192,226478
9.639,189504,193,226502
9.644,189500,188,226478
9.649,189511,188,226497
9.654,189489,188,226490
9.659,189488,189,226476
9.664,189485,191,226503
9.669,189485,189,226503
9.674,189478,190,226480
9.679,189476,189,226495
9.684,189495,191,226502
9.689,189492,192,226498
9.694,189484,195,226493
9.699,189491,195,226503
9.704,189498,198,226488
9.709,189494,197,226501
9.714,189479,198,226505
9.719,189494,196,226506
9.724,189495,198,226521
9.729,189493,197,226511
9.734,189500,197,226507
9.738,189477,183,226470
9.743,189475,195,226502
9.748,189485,193,226516
9.753,189479,194,226502
9.758,189462,194,226494
9.763,189486,197,226510
9.768,189474,196,226508
9.773,189492,196,226524
9.778,189476,196,226504
9.783,189479,199,226525
9.788,189477,190,226530
9.793,189488,190,226523
9.798,189477,190,226540
9.803,189486,192,226542
9.808,189481,192,226554
9.813,189478,192,226526
9.818,189502,192,226547
9.823,189509,194,226552
9.828,189490,194,226571
9.833,189501,194,226557
9.838,189509,188,226547
9.843,189503,193,226575
9.848,189516,192,226548
9.853,189511,192,226551
9.858,189493,192,226566
9.863,189528,193,226567
9.868,189514,192,226573
9.873,189539,192,226577
9.878,189540,191,226598
9.882,189537,190,226573
9.887,189533,189,226584
9.892,189533,188,226608
9.897,189533,186,226608
9.902,189545,188,226623
9.907,189575,197,226634
9.912,189572,196,226618
9.917,189574,196,226631
9.922,189587,198,226638
9.927,189591,197,226641
9.932,189599,187,226693
9.937,189612,190,226660
9.942,189616,192,226656
9.947,189610,190,226678
9.952,189613,190,226686
9.957,189633,189,226690
9.962,189659,190,226713
9.967,189662,190,226719
9.972,189665,190,226720
9.977,189677,189,226728
9.982,189687,194,226719
9.987,189680,194,226733
9.992,189696,193,226724
9.997,189702,193,226737
10.002,189695,194,226750
10.007,189710,193,226738
10.012,189709,192,226757
10.017,189712,192,226755
10.022,189726,194,226759
10.027,189729,194,226771
10.031,189748,190,226799
10.036,189752,193,226793
10.041,189744,196,226785
10.046,189768,196,226806
10.051,189775,196,226822
10.056,189775,195,226807
10.061,189791,197,226843
10.066,189802,198,226836
10.071,189816,187,226829
10.076,189829,187,226850
10.081,189822,193,226872
10.086,189812,192,226877
10.091,189832,193,226867
10.096,189845,192,226895
10.101,189854,192,226881
10.106,189856,191,226892
10.111,189869,190,226894
10.116,189854,189,226890
10.121,189881,190,226899
10.126,189887,189,226907
10.131,189885,193,226916
10.136,189866,191,226900
10.141,189877,192,226899
10.146,189879,191,226926
10.151,189893,191,226917
10.156,189883,189,226909
10.161,189898,190,226897
10.166,189909,189,226905
10.171,189915,189,226916
10.175,189915,188,226927
10.180,189909,193,226899
10.185,189911,192,226920
10.190,189906,192,226916
10.195,189894,191,226911
10.200,189878,191,226900
10.205,189883,191,226916
10.210,189867,192,226901
10.215,189848,191,226903
10.220,189849,191,226881
10.225,189838,196,226884
10.230,189844,190,226883
10.235,189829,189,226889
10.240,189814,189,226902
10.245,189794,189,226883
10.250,189794,189,226875
10.255,189809,188,226888
10.260,189780,189,226880
10.265,189777,189,226903
10.270,189777,189,226871
10.275,189741,192,226884
10.280,189777,193,226869
10.285,189743,193,226885
10.290,189745,194,226871
10.295,189734,193,226864
10.300,189744,194,226865
10.305,189737,195,226863
10.310,189743,194,226862
10.315,189743,194,226848
10.319,189720,195,226851
10.324,189712,189,226860
10.329,189702,189,226863
10.334,189701,188,226864
10.339,189714,189,226849
10.344,189700,188,226872
10.349,189689,189,226836
10.354,189712,189,226867
10.359,189721,188,226865
10.364,189694,189,226844
10.369,189704,188,226833
10.374,189698,192,226858
10.379,189701,192,226838
10.384,189690,193,226847
10.389,189686,192,226863
10.394,189701,193,226867
10.399,189700,193,226870
10.404,189690,195,226865
10.409,189695,194,226854
10.414,189703,195,226859
10.419,189712,194,226862
10.424,189703,189,226855
10.429,189715,188,226851
10.434,189706,188,226881
10.439,189716,187,226881
10.444,189703,199,226865
10.449,189709,197,226891
10.454,189718,196,226893
10.459,189711,195,226894
10.464,189710,195,226912
10.468,189711,195,226904
10.473,189724,197,226911
10.478,189725,195,226894
10.483,189721,195,226903
10.488,189710,194,226900
10.493,189726,193,226908
10.498,189731,192,226906
10.503,189726,193,226908
10.508,189737,191,226914
10.513,189736,190,226925
10.518,189701,192,226924
10.523,189719,188,226922
10.528,189714,196,226933
10.533,189728,195,226921
10.538,189735,193,226928
10.543,189732,194,226939
10.548,189742,192,226927
10.553,189738,191,226907
10.558,189741,190,226925
10.563,189746,190,226936
10.568,189746,194,226917
10.573,189747,192,226948
10.578,189747,191,226920
10.583,189738,192,226929
10.588,189749,191,226924
10.593,189747,190,226933
10.598,189745,190,226925
10.603,189756,190,226946
10.608,189752,188,226938
10.612,189761,198,226951
10.617,189779,193,226931
10.622,189761,196,226953
10.627,189771,196,226953
10.632,189774,197,226953
10.637,189782,195,226964
10.642,189796,196,226972
10.647,189795,196,226991
10.652,189783,195,226977
10.657,189808,194,226976
10.662,189799,197,227002
10.667,189804,188,226986
10.672,189781,188,227010
10.677,189813,187,226999
10.682,189802,198,227005
10.687,189810,197,226988
10.692,189827,197,227007
10.697,189822,195,227028
10.702,189830,195,227005
10.707,189822,195,227009
10.712,189831,195,227022
10.717,189831,187,227016
10.722,189853,189,227032
10.727,189852,188,227028
10.732,189836,187,227015
10.737,189831,187,227040
10.742,189870,199,227032
10.747,189858,187,227048
10.752,189884,187,227034
10.757,189863,186,227033
10.761,189861,187,226983
10.766,189872,191,227058
10.771,189869,191,227050
10.776,189875,189,227058
10.781,189887,191,227047
10.786,189892,190,227046
10.791,189878,191,227055
10.796,189895,189,227054
10.801,189894,192,227051
10.806,189902,192,227054
10.811,189924,196,227058
10.816,189910,195,227050
10.821,189934,196,227052
10.826,189905,197,227025
10.831,189905,197,227036
10.836,189920,197,227051
10.841,189908,198,227018
10.846,189921,196,227022
10.851,189896,196,227022
10.856,189933,195,227015
10.861,189936,190,227026
10.866,189934,190,227014
10.871,189935,189,227015
10.876,189942,188,227029
10.881,189953,189,227025
10.886,189925,189,227019
10.891,189960,189,227016
10.896,189956,188,227012
10.901,189968,189,227022
10.905,189967,189,227032
10.910,189984,187,227023
10.915,189986,186,227017
10.920,189981,197,227025
10.925,189990,196,227015
10.930,189995,195,227003
10.935,189984,194,227014
10.940,189975,194,227007
10.945,189962,193,227008
10.950,189954,193,227006
10.955,189927,192,226993
10.960,189928,197,226965
10.965,189934,196,226967
10.970,189909,195,226952
10.975,189906,193,226954
10.980,189907,193,226933
10.985,189903,193,226949
10.990,189891,193,226938
10.995,189872,191,226925
11.000,189891,192,226926
11.005,189863,193,226937
11.010,189876,187,226919
11.015,189868,196,226923
11.020,189867,196,226930
11.025,189863,196,226916
11.030,189846,197,226917
11.035,189832,198,226924
11.040,189839,198,226945
11.045,189828,187,226925
11.049,189828,188,226915
11.054,189816,188,226916
11.059,189825,192,226918
11.064,189822,192,226913
11.069,189835,192,226911
11.074,189826,192,226913
11.079,189818,192,226895
11.084,189819,192,226899
11.089,189809,192,226906
11.094,189807,192,226904
11.099,189816,192,226893
11.104,189814,197,226895
11.109,189806,196,226904
11.114,189817,195,226884
11.119,189824,195,226913
11.124,189807,197,226894
11.129,189824,197,226888
11.134,189818,197,226889
11.139,189817,197,226911
11.144,189829,188,226901
11.149,189821,188,226894
11.154,189829,193,226902
11.159,189855,193,226919
11.164,189847,195,226904
11.169,189852,195,226917
11.174,189866,195,226905
11.179,189851,196,226934
11.184,189855,197,226916
11.189,189861,196,226918
11.194,189854,196,226922
11.198,189862,195,226913
11.203,189846,189,226913
11.208,189838,189,226931
11.213,189833,189,226920
11.218,189848,189,226920
11.223,189845,189,226892
11.228,189840,188,226893
11.233,189845,189,226902
11.238,189869,188,226899
11.243,189857,189,226881
11.248,189834,190,226887
11.253,189830,193,226858
11.258,189835,192,226854
11.263,189832,192,226860
11.268,189826,191,226877
11.273,189846,191,226844
11.278,189844,190,226841
11.283,189831,192,226841
11.288,189825,191,226813
11.293,189818,190,226801
11.298,189848,188,226814
11.303,189808,195,226805
11.308,189805,194,226804
11.313,189817,194,226797
11.318,189810,193,226817
11.323,189823,193,226787
11.328,189823,192,226804
11.333,189816,191,226774
11.338,189829,189,226787
11.342,189838,190,226787
11.347,189824,194,226805
11.352,189814,188,226788
11.357,189817,187,226780
11.362,189824,189,226789
11.367,189834,187,226794
11.372,189831,186,226807
11.377,189828,197,226799
11.382,189830,198,226788
11.387,189850,197,226799
11.392,189843,196,226816
11.397,189834,189,226820
11.402,189836,191,226811
11.407,189856,190,226819
11.412,189845,190,226820
11.417,189845,189,226817
11.422,189832,190,226813
11.427,189864,188,226839
11.432,189856,188,226836
11.437,189892,186,226853
11.442,189883,187,226858
11.447,189895,190,226844
11.452,189898,189,226875
11.457,189896,189,226863
11.462,189911,191,226881
11.467,189901,189,226871
11.472,189912,189,226881
11.477,189914,187,226877
11.482,189927,198,226862
11.486,189929,196,226883
11.491,189927,194,226900
11.496,189930,187,226895
11.501,189935,188,226866
11.506,189935,197,226909
11.511,189964,195,226901
11.516,189958,195,226910
11.521,189950,196,226924
11.526,189957,195,226916
11.531,189966,194,226906
11.536,189982,193,226928
11.541,189972,198,226913
11.546,189990,191,226927
11.551,189999,191,226939
11.556,190010,190,226973
11.561,190003,190,226951
11.566,190019,188,226979
11.571,190026,188,226982
11.576,190030,186,226993
11.581,190030,198,226983
11.586,190041,196,226968
11.591,190042,188,226995
11.596,190056,187,227008
11.601,190065,188,227021
11.606,190064,198,227013
11.611,190070,197,227037
11.616,190081,195,227019
11.621,190083,196,227028
11.626,190093,193,227037
11.631,190105,193,227068
11.635,190129,191,227058
11.640,190132,187,227081
11.645,190118,192,227087
11.650,190126,191,227085
11.655,190146,188,227096
11.660,190137,188,227100
11.665,190145,187,227090
11.670,190178,197,227113
11.675,190179,196,227106
11.680,190163,195,227100
11.685,190144,194,227091
11.690,190140,186,227070
11.695,190135,195,227069
11.700,190102,196,227054
11.705,190107,196,227068
11.710,190108,195,227042
11.715,190095,193,227046
11.720,190115,193,227024
11.725,190085,193,227025
11.730,190083,192,227033
11.735,190084,191,227028
11.740,190086,195,227029
11.745,190090,195,227040
11.750,190103,193,227046
11.755,190108,192,227057
11.760,190116,193,227066
11.765,190104,193,227065
11.770,190117,192,227048
11.775,190111,192,227085
11.779,190087,192,227075
11.784,190099,193,227091
11.789,190117,198,227081
11.794,190106,196,227095
11.799,190107,196,227088
11.804,190094,195,227093
11.809,190095,195,227093
11.814,190090,193,227106
11.819,190074,193,227090
11.824,190093,193,227081
11.829,190096,192,227106
11.834,190076,197,227167
11.839,190099,188,227120
11.844,190097,188,227111
11.849,190097,188,227139
11.854,190093,187,227142
11.859,190115,188,227150
11.864,190111,190,227140
11.869,190119,189,227157
11.874,190120,189,227162
11.879,190127,190,227174
11.884,190107,195,227172
11.889,190118,194,227181
11.894,190140,194,227196
11.899,190125,194,227208
11.904,190130,196,227211
11.909,190129,196,227208
11.914,190145,198,227219
11.919,190148,187,227220
11.923,190133,188,227234
11.928,190159,186,227234
11.933,190148,191,227236
11.938,190150,190,227240
11.943,190147,191,227235
11.948,190156,189,227260
11.953,190170,189,227241
11.958,190161,187,227256
11.963,190157,189,227247
11.968,190158,187,227250
11.973,190168,186,227270
11.978,190158,190,227282
11.983,190156,192,227284
11.988,190173,190,227288
11.993,190159,191,227284
11.998,190157,191,227286
12.003,190170,192,227294
12.008,190163,191,227295
12.013,190168,192,227325
12.018,190176,192,227307
12.023,190175,193,227290
12.028,190186,192,227309
12.033,190179,193,227318
12.038,190197,191,227345
12.043,190181,192,227328
12.048,190190,189,227341
12.053,190182,189,227337
12.058,190191,189,227348
12.063,190175,189,227347
12.068,190167,187,227354
12.072,190173,187,227345
12.077,190177,187,227319
12.082,190164,192,227347
12.087,190164,191,227353
12.092,190177,191,227369
12.097,190174,190,227363
12.102,190174,191,227363
12.107,190167,190,227386
12.112,190193,189,227379
12.117,190205,188,227382
12.122,190193,189,227368
12.127,190205,192,227402
12.132,190200,198,227404
12.137,190213,196,227406
12.142,190207,198,227421
12.147,190221,196,227417
12.152,190233,196,227452
12.157,190229,197,227452
12.162,190243,197,227440
12.167,190250,196,227460
12.172,190254,196,227464
12.177,190261,192,227467
12.182,190258,193,227467
12.187,190274,193,227469
12.192,190288,193,227492
12.197,190276,192,227497
12.202,190280,195,227503
12.207,190285,194,227516
12.212,190302,194,227535
12.216,190314,194,227518
12.221,190317,197,227509
12.226,190312,189,227539
12.231,190322,190,227552
12.236,190319,190,227540
12.241,190344,192,227568
12.246,190343,191,227546
12.251,190340,190,227558
12.256,190345,190,227574
12.261,190361,191,227578
12.266,190342,190,227586
12.271,190373,190,227584
12.276,190374,194,227583
12.281,190384,195,227578
12.286,190380,194,227588
12.291,190386,194,227610
12.296,190390,194,227605
12.301,190406,197,227584
12.306,190407,196,227603
12.311,190399,197,227602
12.316,190422,197,227611
12.321,190404,190,227640
12.326,190410,188,227608
12.331,190426,189,227609
12.336,190438,188,227634
12.341,190438,190,227620
12.346,190445,189,227618
12.351,190425,188,227628
12.356,190442,188,227623
12.361,190421,190,227621
12.365,190416,189,227599
12.370,190424,194,227602
12.375,190403,195,227595
12.380,190387,196,227605
12.385,190382,196,227585
12.390,190373,196,227567
12.395,190354,196,227568
12.400,190347,198,227558
12.405,190347,197,227546
12.410,190330,198,227554
12.415,190311,196,227546
12.420,190299,191,227555
12.425,190312,190,227551
12.430,190327,190,227563
12.435,190312,189,227561
12.440,190303,191,227543
12.445,190292,189,227549
12.450,190308,188,227554
12.455,190279,186,227544
12.460,190270,187,227540
12.465,190274,198,227556
12.470,190268,193,227536
12.475,190269,192,227553
12.480,190261,194,227530
12.485,190253,194,227535
12.490,190238,194,227540
12.495,190231,194,227514
12.500,190242,194,227547
12.505,190233,194,227529
12.509,190234,194,227521
12.514,190222,193,227531
12.519,190252,188,227521
12.524,190232,188,227531
12.529,190234,189,227534
12.534,190240,187,227534
12.539,190235,188,227514
12.544,190234,189,227528
12.549,190237,188,227523
12.554,190227,188,227508
12.559,190228,189,227523
12.564,190206,190,227520
12.569,190214,193,227555
12.574,190203,192,227527
12.579,190227,192,227533
12.584,190246,193,227531
12.589,190227,192,227555
12.594,190225,192,227550
12.599,190232,192,227545
12.604,190243,192,227553
12.609,190236,192,227562
12.614,190239,195,227545
12.619,190241,197,227553
12.624,190242,198,227571
12.629,190239,187,227559
12.634,190241,187,227563
12.639,190250,188,227541
12.644,190248,190,227569
12.649,190229,190,227564
12.653,190233,190,227556
12.658,190239,189,227561
12.663,190229,195,227549
12.668,190245,193,227567
12.673,190234,194,227569
12.678,190243,194,227582
12.683,190230,195,227556
12.688,190251,194,227572
12.693,190240,193,227549
12.698,190250,193,227584
12.703,190248,195,227575
12.708,190253,194,227593
12.713,190269,190,227587
12.718,190259,190,227588
12.723,190239,191,227590
12.728,190263,190,227611
12.733,190255,191,227608
12.738,190268,191,227623
12.743,190267,191,227614
12.748,190265,190,227615
12.753,190274,190,227615
12.758,190267,190,227632
12.763,190265,190,227631
12.768,190285,189,227613
12.773,190254,190,227624
12.778,190283,190,227629
12.783,190275,191,227613
12.788,190278,190,227638
12.793,190263,189,227631
12.798,190282,189,227648
12.802,190293,191,227619
12.807,190293,190,227646
12.812,190296,193,227634
12.817,190286,193,227646
12.822,190279,194,227652
12.827,190289,194,227653
12.832,190289,193,227647
12.837,190302,192,227666
12.842,190310,193,227666
12.847,190322,190,227680
12.852,190310,191,227652
12.857,190312,191,227670
12.862,190331,197,227671
12.867,190309,195,227666
12.872,190315,194,227674
12.877,190329,193,227669
12.882,190330,195,227672
12.887,190333,193,227677
12.892,190339,193,227697
12.897,190336,191,227685
12.902,190358,193,227694
12.907,190340,196,227700
12.912,190355,195,227718
12.917,190355,194,227714
12.922,190356,195,227715
12.927,190393,189,227715
12.932,190376,191,227735
12.937,190378,190,227729
12.942,190385,190,227740
12.946,190394,189,227727
12.951,190401,188,227744
12.956,190408,190,227744
12.961,190403,192,227757
12.966,190414,190,227748
12.971,190417,189,227765
12.976,190427,188,227769
12.981,190417,189,227760
12.986,190430,187,227762
12.991,190432,187,227777
12.996,190448,197,227766
13.001,190453,198,227793
13.006,190441,194,227783
13.011,190452,194,227786
13.016,190463,192,227779
13.021,190471,192,227803
13.026,190471,190,227816
13.031,190371,203,227778
13.036,190473,189,227797
13.041,190475,189,227792
13.046,190488,188,227804
13.051,190467,188,227799
13.056,190493,191,227809
13.061,190479,192,227793
13.066,190464,191,227798
13.071,190459,191,227798
13.076,190446,190,227777
13.081,190428,192,227774
13.086,190410,190,227767
13.090,190401,190,227758
13.095,190405,189,227761
13.100,190383,191,227715
13.105,190389,192,227753
13.110,190354,192,227735
13.115,190347,191,227740
13.120,190352,192,227744
13.125,190352,189,227721
13.130,190324,189,227721
13.135,190322,188,227729
13.140,190314,189,227720
13.145,190324,189,227717
13.150,190323,193,227723
13.155,190297,186,227726
13.160,190277,188,227711
13.165,190292,187,227717
13.170,190260,197,227697
13.175,190263,197,227696
13.180,190268,197,227684
13.185,190255,196,227707
13.190,190257,195,227696
13.195,190248,194,227680
13.200,190252,190,227685
13.205,190234,192,227672
13.210,190230,192,227673
13.215,190226,190,227686
13.220,190246,192,227662
13.225,190212,192,227686
13.230,190209,191,227658
13.235,190202,190,227678
13.239,190219,191,227686
13.244,190202,191,227673
13.249,190200,195,227661
13.254,190195,195,227680
13.259,190208,196,227681
13.264,190177,195,227670
13.269,190191,195,227664
13.274,190182,195,227670
13.279,190184,195,227677
13.284,190185,195,227675
13.289,190156,195,227680
13.294,190180,192,227660
13.299,190183,188,227667
13.304,190200,187,227685
13.309,190180,186,227689
13.314,190176,197,227679
13.319,190187,197,227671
13.324,190163,196,227669
13.329,190179,195,227673
13.334,190152,194,227667
13.339,190169,195,227680
13.344,190171,194,227659
13.349,190183,187,227669
13.354,190176,187,227677
13.359,190161,188,227638
13.364,190156,189,227648
13.369,190156,188,227657
13.374,190151,187,227634
13.379,190166,187,227629
13.383,190146,187,227634
13.388,190156,198,227621
13.393,190155,195,227625
13.398,190163,190,227631
13.403,190147,190,227647
13.408,190168,190,227652
13.413,190151,190,227647
13.418,190147,189,227647
13.423,190161,191,227672
13.428,190158,190,227659
13.433,190173,190,227670
13.438,190167,190,227673
13.443,190169,197,227684
13.448,190173,188,227676
13.453,190195,188,227679
13.458,190189,188,227689
13.463,190176,189,227690
13.468,190186,187,227710
13.473,190195,187,227715
13.478,190184,198,227691
13.483,190178,198,227702
13.488,190193,195,227725
13.493,190180,188,227716
13.498,190203,187,227730
13.503,190222,188,227728
13.508,190208,196,227728
13.513,190211,195,227749
13.518,190222,193,227758
13.523,190218,194,227765
13.527,190240,193,227763
13.532,190225,192,227769
13.537,190230,191,227769
13.542,190232,198,227778
13.547,190237,196,227793
13.552,190250,194,227803
13.557,190243,192,227821
13.562,190248,193,227805
13.567,190264,192,227822
13.572,190282,190,227823
13.577,190268,189,227838
13.582,190284,190,227828
13.587,190287,188,227837
13.592,190318,188,227847
13.597,190291,188,227847
13.602,190291,189,227840
13.607,190304,188,227861
13.612,190311,186,227858
13.617,190309,196,227876
13.622,190306,197,227885
13.627,190312,194,227876
13.632,190322,193,227887
13.637,190321,195,227912
13.642,190351,198,227876
13.647,190341,197,227892
13.652,190345,197,227917
13.657,190356,197,227904
13.662,190352,198,227921
13.667,190357,197,227909
13.672,190375,197,227927
13.676,190372,195,227916
13.681,190365,195,227949
13.686,190362,197,227932
13.691,190380,196,227940
13.696,190400,194,227933
13.701,190386,195,227947
13.706,190376,192,227954
13.711,190400,191,227954
13.716,190409,189,227967
13.721,190397,189,227988
13.726,190418,187,227985
13.731,190415,197,227965
13.736,190438,189,227990
13.741,190423,189,227990
13.746,190440,188,228004
13.751,190450,186,228018
13.756,190459,196,228013
13.761,190454,196,228045
13.766,190465,194,228057
13.771,190461,193,228051
13.776,190471,191,228042
13.781,190479,191,228038
13.786,190472,195,228040
13.791,190480,193,228050
13.796,190465,191,228051
13.801,190444,192,228040
13.806,190450,191,228034
13.811,190426,190,228017
13.816,190408,189,228021
13.820,190416,189,228032
13.825,190400,188,228019
13.830,190383,187,227993
13.835,190376,197,227987
13.840,190353,196,227975
13.845,190347,194,227978
13.850,190336,194,227976
13.855,190342,192,227982
13.860,190334,192,227972
13.865,190316,191,227981
13.870,190308,192,227958
13.875,190303,189,227986
13.880,190319,191,227984
13.885,190292,193,227981
13.890,190285,193,227986
13.895,190278,192,227968
13.900,190276,194,227966
13.905,190257,192,227969
13.910,190256,192,227948
13.915,190232,190,227968
13.920,190240,190,227941
13.925,190240,187,227884
13.930,190231,189,227920
13.935,190229,192,227953
13.940,190201,193,227950
13.945,190230,192,227945
13.950,190207,192,227949
13.955,190216,190,227949
13.960,190216,190,227960
13.964,190213,189,227947
13.969,190215,188,227954
13.974,190208,186,227950
13.979,190207,190,227955
13.984,190212,189,227952
13.989,190185,188,227951
13.994,190181,186,227966
13.999,190179,187,227935
14.004,190178,196,227944
14.009,190189,195,227965
14.014,190176,194,227970
14.019,190181,193,227976
14.024,190170,192,227968
14.029,190184,196,227947
14.034,190188,193,227954
14.039,190186,192,227965
14.044,190170,190,227973
14.049,190172,190,227962
14.054,190185,188,227975
14.059,190185,187,227982
14.064,190183,196,227943
14.069,190186,195,227967
14.074,190176,193,227962
14.079,190193,196,227981
14.084,190174,194,227966
14.089,190174,193,227993
14.094,190189,191,227991
14.099,190196,190,228005
14.104,190169,191,227970
14.109,190186,188,227994
14.113,190187,198,227988
14.118,190182,197,227999
14.123,190181,196,228002
14.128,190186,189,227986
14.133,190177,188,228000
14.138,190190,187,227999
14.143,190184,187,227992
14.148,190205,197,228003
14.153,190181,196,228013
14.158,190200,194,228027
14.163,190187,195,228014
14.168,190181,194,228019
14.173,190201,195,228039
14.178,190194,195,228006
14.183,190189,195,228004
14.188,190185,192,228001
14.193,190185,191,228003
14.198,190184,189,228027
14.203,190183,190,227992
14.208,190188,188,227993
14.213,190183,187,228009
14.218,190205,197,228003
14.223,190168,189,228002
14.228,190194,188,228005
14.233,190187,187,228012
14.238,190193,186,228000
14.243,190175,199,227998
14.248,190197,197,227987
14.253,190194,196,227975
14.257,190191,194,227998
14.262,190212,195,227980
14.267,190180,193,227970
14.272,190207,187,227972
14.277,190187,190,227965
14.282,190200,190,227969
14.287,190192,188,227971
14.292,190202,187,227981
14.297,190188,197,227974
14.302,190208,198,227983
14.307,190197,196,227959
14.312,190206,195,227961
14.317,190216,195,227950
14.322,190180,189,227935
14.327,190182,188,227943
14.332,190200,187,227939
14.337,190209,197,227925
14.342,190201,198,227920
14.347,190190,195,227921
14.352,190193,195,227930
14.357,190220,193,227923
14.362,190202,195,227909
14.367,190197,193,227897
14.372,190204,198,227916
14.377,190199,196,227914
14.382,190201,198,227888
14.387,190195,196,227917
14.392,190193,196,227887
14.397,190199,195,227874
14.402,190194,196,227865
14.406,190179,194,227866
14.411,190189,193,227857
14.416,190187,192,227844
14.421,190200,197,227820
14.426,190186,196,227865
14.431,190187,195,227843
14.436,190185,194,227828
14.441,190190,196,227829
14.446,190183,194,227815
14.451,190188,194,227807
14.456,190199,193,227814
14.461,190182,193,227830
14.466,190205,194,227804
14.471,190192,195,227813
14.476,190198,194,227807
14.481,190193,194,227819
14.486,190205,192,227827
14.491,190197,190,227801
14.496,190195,189,227817
14.501,190219,189,227800
14.506,190204,187,227786
14.511,190210,186,227788
14.516,190205,194,227778
14.521,190173,199,227758
14.526,190168,187,227777
14.531,190152,187,227756
14.536,190132,187,227743
14.541,190115,190,227718
14.546,190097,190,227700
14.550,190084,192,227699
14.555,190060,192,227687
14.560,190055,195,227684
14.565,190050,191,227669
14.570,190026,196,227649
14.575,190012,197,227639
14.580,189997,187,227620
14.585,189974,187,227621
14.590,189977,188,227620
14.595,189950,188,227594
14.600,189945,192,227590
14.605,189943,192,227593
14.610,189921,194,227578
14.615,189916,187,227559
14.620,189907,190,227549
14.625,189897,190,227529
14.630,189887,191,227523
14.635,189874,192,227533
14.640,189866,195,227515
14.645,189867,196,227514
14.650,189858,198,227498
14.655,189848,186,227487
14.660,189833,188,227488
14.665,189834,192,227468
14.670,189831,192,227459
14.675,189809,192,227447
14.680,189802,194,227448
14.685,189804,194,227433
14.690,189809,195,227432
14.694,189803,195,227433
14.699,189805,196,227438
14.704,189781,197,227415
14.709,189777,187,227400
14.714,189773,190,227402
14.719,189776,193,227392
14.724,189766,193,227392
14.729,189762,194,227383
14.734,189776,194,227378
14.739,189770,196,227393
14.744,189745,196,227369
14.749,189765,186,227369
14.754,189762,187,227369
14.759,189748,193,227374
14.764,189762,193,227367
14.769,189760,195,227356
14.774,189766,196,227356
14.779,189753,187,227351
14.784,189740,187,227362
14.789,189744,189,227322
14.794,189723,188,227353
14.799,189741,192,227314
14.804,189730,193,227325
14.809,189736,189,227306
14.814,189733,190,227312
14.819,189717,192,227324
14.824,189700,193,227313
14.829,189713,194,227294
14.834,189713,196,227307
14.839,189715,186,227302
14.843,189718,188,227283
14.848,189723,190,227300
14.853,189711,190,227308
14.858,189729,197,227300
14.863,189740,188,227305
14.868,189720,189,227300
14.873,189716,190,227295
14.878,189735,191,227294
14.883,189727,193,227262
14.888,189730,193,227282
14.893,189705,194,227273
14.898,189722,196,227253
14.903,189721,187,227260
14.908,189724,190,227263
14.913,189703,191,227267
14.918,189702,192,227275
14.923,189721,193,227262
14.928,189701,192,227242
14.933,189714,192,227275
14.938,189697,194,227240
14.943,189707,196,227233
14.948,189697,196,227239
14.953,189698,189,227223
14.958,189699,191,227239
14.963,189690,193,227250
14.968,189709,193,227223
14.973,189701,195,227230
14.978,189695,197,227228
14.983,189715,189,227228
14.987,189702,189,227218
14.992,189710,191,227234
14.997,189711,192,227235
15.002,189749,188,227236
15.007,189721,195,227223
15.012,189721,197,227220
15.017,189733,188,227228
15.022,189738,191,227209
15.027,189722,192,227235
15.032,189711,197,227187
15.037,189728,187,227219
15.042,189716,190,227223
15.047,189724,191,227202
15.052,189738,198,227224
15.057,189760,188,227210
15.062,189758,192,227203
15.067,189725,194,227214
15.072,189757,196,227223
15.077,189736,187,227208
15.082,189762,191,227219
15.087,189763,192,227210
15.092,189765,194,227228
15.097,189756,197,227216
15.102,189779,196,227226
15.107,189774,197,227236
15.112,189784,187,227244
15.117,189805,189,227258
15.122,189783,192,227253
15.127,189796,193,227249
15.131,189809,196,227251
15.136,189802,186,227245
15.141,189806,190,227239
15.146,189803,190,227237
15.151,189818,196,227249
15.156,189814,196,227254
15.161,189820,188,227235
15.166,189823,188,227248
15.171,189807,190,227243
15.176,189818,191,227256
15.181,189821,196,227263
15.186,189833,196,227268
15.191,189845,187,227235
15.196,189838,191,227310
15.201,189834,196,227267
15.206,189833,197,227258
15.211,189849,186,227262
15.216,189842,189,227259
15.221,189868,192,227277
15.226,189863,193,227267
15.231,189865,195,227284
15.236,189890,196,227274
15.241,189882,189,227280
15.246,189858,193,227269
15.251,189890,194,227298
15.256,189884,195,227276
15.261,189894,198,227271
15.266,189866,188,227286
15.271,189854,189,227259
15.276,189849,191,227274
15.280,189831,194,227249
15.285,189810,195,227254
15.290,189820,186,227233
15.295,189806,190,227219
15.300,189792,193,227231
15.305,189785,193,227218
15.310,189768,193,227208
15.315,189764,194,227210
15.320,189744,197,227203
15.325,189733,187,227195
15.330,189755,189,227195
15.335,189741,189,227179
15.340,189737,192,227185
15.345,189729,197,227188
15.350,189713,186,227193
15.355,189705,188,227170
15.360,189718,189,227189
15.365,189691,190,227183
15.370,189701,191,227165
15.375,189677,192,227159
15.380,189686,195,227164
15.385,189663,196,227155
15.390,189672,197,227150
15.395,189673,195,227153
15.400,189661,197,227145
15.405,189656,187,227159
15.410,189668,189,227149
15.415,189631,190,227154
15.420,189667,194,227155
15.424,189641,195,227145
15.429,189650,197,227147
15.434,189652,186,227140
15.439,189637,189,227115
15.444,189641,192,227148
15.449,189645,195,227149
15.454,189636,195,227166
15.459,189642,187,227150
15.464,189628,188,227142
15.469,189639,190,227145
15.474,189641,190,227163
15.479,189636,192,227151
15.484,189643,193,227163
15.489,189704,187,227160
15.494,189643,187,227154
15.499,189632,190,227155
15.504,189654,192,227150
15.509,189631,193,227176
15.514,189639,193,227174
15.519,189648,195,227173
15.524,189653,196,227163
15.529,189641,197,227158
15.534,189649,187,227154
15.539,189638,193,227165
15.544,189628,195,227149
15.549,189655,187,227160
15.554,189641,187,227177
15.559,189647,190,227172
15.564,189648,192,227154
15.568,189661,194,227177
15.573,189636,195,227186
15.578,189648,197,227176
15.583,189654,187,227183
15.588,189650,192,227186
15.593,189666,192,227201
15.598,189669,195,227177
15.603,189643,196,227183
15.608,189667,186,227191
15.613,189656,189,227180
15.618,189646,192,227195
15.623,189665,194,227175
15.628,189665,195,227187
15.633,189666,186,227199
15.638,189645,187,227170
15.643,189661,189,227200
15.648,189653,190,227190
15.653,189660,191,227182
15.658,189657,193,227182
15.663,189662,194,227188
15.668,189657,196,227184
15.673,189666,186,227199
15.678,189671,189,227184
15.683,189677,190,227197
15.688,189671,186,227200
15.693,189665,186,227215
15.698,189684,189,227209
15.703,189688,190,227214
15.708,189685,190,227227
15.713,189681,191,227216
15.717,189687,191,227223
15.722,189683,192,227206
15.727,189695,194,227216
15.732,189672,197,227233
15.737,189694,188,227225
15.742,189713,189,227220
15.747,189703,189,227230
15.752,189706,190,227232
15.757,189712,190,227228
15.762,189709,192,227222
15.767,189731,193,227238
15.772,189732,194,227252
15.777,189727,195,227249
15.782,189713,189,227236
15.787,189738,192,227251
15.792,189737,192,227256
15.797,189752,193,227257
15.802,189747,195,227267
15.807,189750,195,227259
15.812,189766,195,227271
15.817,189772,196,227270
15.822,189767,198,227284
15.827,189766,187,227291
15.832,189788,192,227285
15.837,189775,193,227306
15.842,189799,195,227307
15.847,189808,196,227306
15.852,189799,197,227311
15.857,189809,187,227318
15.861,189823,189,227327
15.866,189826,189,227347
15.871,189847,190,227330
15.876,189844,190,227337
15.881,189847,196,227338
15.886,189856,197,227377
15.891,189850,187,227337
15.896,189864,188,227362
15.901,189871,191,227360
15.906,189876,190,227365
15.911,189867,192,227377
15.916,189880,193,227368
15.921,189873,196,227376
15.926,189891,194,227375
15.931,189877,189,227374
15.936,189892,189,227385
15.941,189912,193,227401
15.946,189907,193,227394
15.951,189923,193,227409
15.956,189922,192,227405
15.961,189942,192,227435
15.966,189944,190,227436
15.971,189945,188,227422
15.976,189954,196,227476
15.981,189968,188,227449
15.986,189970,197,227461
15.991,189983,196,227477
15.996,189982,194,227465
16.001,189993,194,227469
16.005,189994,191,227464
16.010,189997,189,227488
16.015,190004,188,227479
16.020,190001,188,227454
16.025,190004,192,227477
16.030,189965,199,227455
16.035,189962,196,227451
16.040,189960,196,227446
16.045,189949,194,227439
16.050,189953,193,227443
16.055,189933,193,227444
16.060,189918,194,227425
16.065,189923,191,227427
16.070,189926,190,227427
16.075,189900,197,227424
16.080,189891,191,227423
16.085,189892,189,227404
16.090,189881,188,227426
16.095,189885,186,227441
16.100,189873,198,227414
16.105,189876,195,227417
16.110,189859,193,227415
16.115,189851,191,227406
16.120,189866,191,227374
16.125,189854,195,227394
16.130,189833,193,227397
16.135,189836,192,227406
16.140,189838,192,227403
16.145,189823,189,227381
16.150,189817,188,227383
16.154,189812,187,227392
16.159,189803,189,227388
16.164,189813,187,227378
16.169,189808,187,227381
16.174,189819,190,227382
16.179,189780,191,227394
16.184,189800,190,227375
16.189,189795,189,227360
16.194,189808,186,227380
16.199,189782,188,227382
16.204,189813,186,227382
16.209,189800,197,227386
16.214,189808,194,227355
16.219,189798,199,227417
16.224,189806,187,227359
16.229,189796,198,227370
16.234,189795,195,227361
16.239,189779,194,227379
16.244,189790,193,227367
16.249,189793,191,227356
16.254,189800,189,227363
16.259,189785,190,227362
16.264,189816,188,227371
16.269,189783,191,227368
16.274,189799,190,227369
16.279,189802,191,227366
16.284,189804,190,227382
16.289,189800,189,227379
16.294,189800,187,227372
16.298,189807,188,227364
16.303,189800,187,227365
16.308,189803,186,227358
16.313,189785,196,227349
16.318,189801,189,227354
16.323,189803,187,227366
16.328,189787,186,227340
16.333,189805,196,227350
16.338,189800,196,227348
16.343,189799,195,227329
16.348,189779,193,227343
16.353,189798,190,227358
16.358,189804,191,227343
16.363,189797,190,227335
16.368,189786,194,227329
16.373,189785,193,227338
16.378,189798,192,227330
16.383,189792,191,227334
16.388,189788,190,227319
16.393,189769,187,227334
16.398,189803,187,227347
16.403,189787,197,227326
16.408,189791,195,227323
16.413,189785,191,227329
16.418,189792,197,227325
16.423,189792,196,227330
16.428,189779,194,227327
16.433,189782,191,227306
16.438,189795,190,227307
16.443,189790,188,227316
16.447,189799,188,227301
16.452,189810,187,227329
16.457,189795,187,227322
16.462,189807,187,227318
16.467,189802,190,227318
16.472,189810,189,227323
16.477,189802,188,227311
16.482,189816,188,227308
16.487,189811,187,227316
16.492,189812,196,227306
16.497,189817,195,227338
16.502,189835,196,227299
16.507,189831,195,227342
16.512,189847,198,227326
16.517,189837,192,227339
16.522,189836,192,227325
16.527,189859,192,227324
16.532,189865,191,227335
16.537,189854,190,227327
16.542,189859,191,227332
16.547,189860,189,227330
16.552,189857,188,227354
16.557,189875,187,227336
16.562,189876,192,227337
16.567,189853,196,227344
16.572,189871,194,227327
16.577,189878,193,227348
16.582,189867,193,227334
16.587,189880,190,227331
16.591,189855,190,227346
16.596,189893,189,227354
16.601,189911,188,227371
16.606,189867,187,227322
16.611,189905,194,227360
16.616,189910,195,227364
16.621,189908,194,227359
16.626,189923,192,227362
16.631,189933,191,227378
16.636,189919,190,227376
16.641,189940,191,227374
16.646,189936,189,227388
16.651,189946,189,227394
16.656,189942,189,227399
16.661,189950,195,227408
16.666,189947,194,227387
16.671,189949,194,227399
16.676,189979,193,227400
16.681,189970,193,227407
16.686,189963,191,227428
16.691,189981,189,227415
16.696,189987,187,227419
16.701,189996,188,227413
16.706,190005,196,227415
16.711,190014,188,227427
16.716,190004,186,227432
16.721,190011,198,227429
16.726,190027,194,227437
16.731,190028,193,227438
16.735,190023,191,227466
16.740,190030,191,227460
16.745,190025,189,227457
16.750,190027,189,227429
16.755,190013,191,227488
16.760,190015,198,227425
16.765,189989,195,227415
16.770,189972,193,227415
16.775,189957,190,227385
16.780,189965,190,227383
16.785,189940,188,227373
16.790,189944,186,227379
16.795,189916,195,227373
16.800,189907,194,227375
16.805,189906,196,227364
16.810,189907,188,227342
16.815,189907,197,227352
16.820,189867,196,227331
16.825,189881,191,227328
16.830,189858,189,227350
16.835,189850,187,227308
16.840,189851,187,227310
16.845,189817,195,227300
16.850,189824,193,227288
16.855,189821,196,227283
16.860,189829,195,227288
16.865,189805,192,227285
16.870,189809,191,227272
16.875,189793,188,227280
16.880,189806,188,227271
16.884,189778,187,227256
16.889,189765,196,227244
16.894,189769,194,227253
16.899,189763,194,227249
16.904,189752,189,227244
16.909,189750,189,227241
16.914,189756,186,227213
16.919,189771,187,227232
16.924,189777,190,227244
16.929,189744,194,227214
16.934,189744,193,227239
16.939,189733,193,227229
16.944,189733,191,227225
16.949,189733,188,227209
16.954,189729,193,227209
16.959,189728,194,227208
16.964,189726,192,227187
16.969,189702,190,227198
16.974,189717,188,227195
16.979,189720,189,227192
16.984,189721,187,227203
16.989,189724,187,227191
16.994,189731,186,227206
16.999,189709,187,227195
17.004,189716,189,227176
17.009,189711,189,227190
17.014,189705,187,227181
17.019,189716,187,227198
17.024,189708,197,227180
17.028,189715,195,227164
17.033,189699,194,227184
17.038,189704,193,227171
17.043,189694,191,227157
17.048,189707,193,227156
17.053,189693,192,227136
17.058,189698,193,227154
17.063,189699,192,227139
17.068,189672,192,227156
17.073,189709,189,227143
17.078,189699,189,227136
17.083,189714,188,227149
17.088,189699,187,227132
17.093,189684,196,227144
17.098,189706,190,227135
17.103,189694,189,227168
17.108,189693,189,227143
17.113,189690,187,227159
17.118,189688,187,227147
17.123,189685,197,227146
17.128,189693,197,227157
17.133,189700,195,227151
17.138,189701,195,227126
17.143,189708,194,227142
17.148,189694,187,227146
17.153,189697,195,227135
17.158,189701,195,227132
17.163,189686,194,227130
17.168,189696,193,227134
17.172,189705,191,227142
17.177,189698,191,227121
17.182,189689,190,227133
17.187,189708,189,227133
17.192,189704,188,227130
17.197,189704,197,227112
17.202,189716,197,227103
17.207,189727,195,227106
17.212,189724,193,227115
17.217,189691,192,227127
17.222,189724,192,227115
17.227,189739,191,227123
17.232,189736,189,227126
17.237,189744,188,227131
17.242,189736,188,227135
17.247,189744,186,227136
17.252,189733,186,227123
17.257,189749,187,227113
17.262,189757,187,227137
17.267,189761,197,227149
17.272,189742,185,227117
17.277,189775,197,227149
17.282,189748,197,227127
17.287,189761,195,227120
17.292,189762,195,227094
17.297,189767,192,227126
17.302,189755,192,227137
17.307,189792,191,227146
17.312,189807,189,227137
17.317,189771,189,227163
17.321,189794,187,227154
17.326,189807,197,227154
17.331,189803,195,227157
17.336,189831,194,227160
17.341,189812,195,227169
17.346,189830,197,227177
17.351,189824,195,227189
17.356,189841,192,227180
17.361,189839,192,227190
17.366,189847,190,227185
17.371,189834,188,227165
17.376,189860,187,227201
17.381,189869,187,227197
17.386,189873,196,227198
17.391,189857,189,227216
17.396,189901,187,227219
17.401,189892,187,227204
17.406,189883,196,227233
17.411,189899,193,227231
17.416,189903,192,227241
17.421,189922,192,227244
17.426,189910,189,227244
17.431,189913,189,227247
17.436,189933,187,227231
17.441,189931,192,227239
17.446,189926,189,227220
17.451,189929,189,227240
17.456,189944,187,227228
17.461,189929,187,227209
17.465,189936,195,227211
17.470,189923,193,227203
17.475,189917,191,227178
17.480,189913,190,227190
17.485,189916,187,227183
17.490,189926,197,227188
17.495,189917,195,227165
17.500,189921,194,227194
17.505,189913,191,227191
17.510,189919,190,227198
17.515,189904,188,227188
17.520,189889,188,227200
17.525,189893,186,227215
17.530,189910,196,227197
17.535,189898,194,227227
17.540,189883,198,227237
17.545,189879,187,227232
17.550,189888,187,227240
17.555,189868,196,227228
17.560,189864,196,227225
17.565,189867,193,227222
17.570,189839,192,227218
17.575,189838,189,227223
17.580,189829,190,227179
17.585,189825,194,227191
17.590,189801,190,227185
17.595,189813,188,227173
17.600,189791,189,227172
17.605,189766,187,227191
17.609,189778,187,227187
17.614,189773,185,227201
17.619,189761,197,227182
17.624,189765,195,227208
17.629,189757,193,227198
17.634,189763,197,227191
17.639,189746,196,227216
17.644,189762,194,227217
17.649,189753,193,227204
17.654,189745,191,227208
17.659,189741,192,227205
17.664,189721,189,227206
17.669,189712,188,227183
17.674,189716,186,227177
17.679,189687,188,227174
17.684,189689,191,227179
17.689,189683,189,227171
17.694,189694,188,227165
17.699,189685,188,227179
17.704,189680,186,227162
17.709,189664,198,227166
17.714,189673,194,227164
17.719,189645,195,227147
17.724,189660,193,227138
17.729,189643,193,227158
17.734,189647,195,227129
17.739,189647,196,227107
17.744,189648,194,227132
17.749,189628,192,227122
17.754,189646,191,227120
17.758,189628,192,227110
17.763,189646,189,227128
17.768,189616,188,227101
17.773,189624,186,227112
17.778,189599,197,227107
17.783,189618,191,227099
17.788,189633,190,227122
17.793,189627,188,227126
17.798,189635,188,227110
17.803,189620,187,227109
17.808,189643,197,227114
17.813,189630,195,227133
17.818,189631,195,227112
17.823,189628,193,227095
17.828,189606,194,227048
17.833,189615,185,227074
17.838,189598,197,227085
17.843,189597,196,227079
17.848,189602,194,227059
17.853,189581,191,227049
17.858,189585,192,227076
17.863,189574,190,227054
17.868,189598,188,227033
17.873,189597,187,227046
17.878,189609,190,227056
17.883,189595,195,227050
17.888,189588,193,227055
17.893,189584,191,227045
17.898,189591,192,227044
17.902,189591,190,227048
17.907,189610,188,227062
17.912,189595,186,227054
17.917,189614,196,227030
17.922,189599,193,227053
17.927,189588,195,227035
17.932,189593,193,227030
17.937,189585,192,227022
17.942,189592,191,227026
17.947,189592,189,227011
17.952,189582,187,227017
17.957,189604,187,226995
17.962,189588,197,227020
17.967,189588,195,227017
17.972,189589,194,227018
17.977,189588,187,227000
17.982,189579,187,226997
17.987,189592,186,227009
17.992,189593,185,227002
17.997,189600,196,227008
18.002,189604,196,227013
18.007,189579,195,226998
18.012,189577,194,227003
18.017,189581,193,226989
18.022,189589,197,226991
18.027,189583,196,226960
18.032,189584,197,226966
18.037,189577,195,226960
18.042,189587,194,226950
18.046,189588,192,226964
18.051,189606,192,226957
18.056,189604,192,226965
18.061,189603,192,226973
18.066,189616,191,226958
18.071,189628,190,226977
18.076,189641,191,226986
18.081,189622,193,226961
18.086,189648,191,226942
18.091,189630,190,226959
18.096,189646,189,226951
18.101,189633,189,226966
18.106,189632,187,226950
18.111,189626,187,226950
18.116,189651,196,226952
18.121,189640,187,226946
18.126,189629,188,226935
18.131,189655,187,226935
18.136,189632,186,226918
18.141,189635,197,226925
18.146,189636,195,226893
18.151,189625,194,226904
18.156,189617,192,226891
18.161,189626,192,226877
18.166,189627,190,226874
18.171,189629,194,226855
18.176,189629,192,226847
18.181,189622,193,226856
18.186,189635,192,226859
18.191,189646,191,226865
18.195,189649,190,226854
18.200,189646,190,226863
18.205,189652,188,226866
18.210,189667,189,226847
18.215,189657,187,226834
18.220,189671,192,226866
18.225,189686,191,226842
18.230,189687,189,226817
18.235,189694,189,226832
18.240,189697,189,226824
18.245,189699,187,226811
18.250,189702,186,226819
18.255,189683,196,226816
18.260,189687,197,226802
18.265,189675,195,226818
18.270,189667,187,226796
18.275,189667,186,226774
18.280,189632,187,226779
18.285,189640,196,226773
18.290,189617,196,226740
18.295,189605,194,226753
18.300,189622,195,226759
18.305,189603,192,226757
18.310,189591,191,226760
18.315,189573,188,226745
18.320,189578,189,226732
18.325,189563,187,226723
18.330,189553,187,226702
18.335,189542,196,226718
18.339,189541,196,226713
18.344,189534,194,226711
18.349,189545,194,226740
18.354,189548,192,226738
18.359,189550,192,226749
18.364,189520,192,226723
18.369,189529,195,226748
18.374,189523,194,226740
18.379,189521,195,226748
18.384,189528,193,226741
18.389,189520,192,226757
18.394,189501,190,226738
18.399,189488,190,226730
18.404,189459,188,226711
18.409,189471,188,226689
18.414,189505,189,226694
18.419,189447,190,226668
18.424,189443,188,226661
18.429,189435,188,226647
18.434,189418,185,226634
18.439,189416,187,226620
18.444,189417,196,226610
18.449,189401,195,226610
18.454,189392,194,226631
18.459,189402,195,226580
18.464,189384,187,226598
18.469,189383,186,226568
18.474,189360,196,226534
18.479,189350,196,226540
18.484,189359,195,226513
18.488,189338,195,226507
18.493,189330,194,226482
18.498,189326,194,226469
18.503,189315,192,226444
18.508,189284,191,226415
18.513,189276,194,226385
18.518,189278,194,226367
18.523,189277,192,226318
18.528,189260,190,226321
18.533,189258,188,226294
18.538,189238,188,226280
18.543,189232,187,226290
18.548,189244,197,226272
18.553,189235,195,226269
18.558,189246,197,226242
18.563,189233,191,226259
18.568,189223,191,226227
18.573,189224,189,226231
18.578,189229,190,226230
18.583,189219,188,226226
18.588,189205,187,226205
18.593,189205,185,226193
18.598,189203,197,226186
18.603,189206,195,226166
18.608,189172,194,226153
18.613,189179,191,226128
18.618,189167,191,226109
18.623,189153,191,226099
18.628,189134,190,226088
18.632,189125,187,226077
18.637,189109,187,226053
18.642,189097,187,226051
18.647,189108,186,226017
18.652,189092,196,226015
18.657,189087,187,225961
18.662,189066,189,225988
18.667,189071,188,225984
18.672,189075,187,225974
18.677,189081,187,225984
18.682,189061,197,225962
18.687,189072,195,225977
18.692,189062,193,225931
18.697,189044,193,225947
18.702,189050,192,225921
18.707,189084,196,225913
18.712,189033,187,225895
18.717,189029,186,225885
18.722,189024,197,225866
18.727,189005,197,225866
18.732,189014,195,225864
18.737,189006,195,225842
18.742,189000,195,225844
18.747,188993,193,225830
18.752,189008,192,225837
18.757,189011,196,225848
18.762,189021,196,225855
18.767,189040,194,225858
18.772,189046,194,225853
18.776,189024,193,225859
18.781,189018,192,225830
18.786,188999,192,225806
18.791,189003,191,225812
18.796,188979,191,225790
18.801,188975,192,225786
18.806,188958,196,225764
18.811,188945,195,225737
18.816,188938,194,225730
18.821,188935,193,225716
18.826,188923,191,225718
18.831,188920,189,225715
18.836,188925,188,225704
18.841,188907,187,225701
18.846,188934,196,225697
18.851,188918,194,225697
18.856,188925,188,225713
18.861,188914,189,225675
18.866,188927,196,225673
18.871,188903,195,225670
18.876,188909,193,225672
18.881,188897,192,225657
18.886,188912,188,225651
18.891,188906,197,225633
18.896,188897,195,225644
18.901,188892,194,225598
18.906,188902,196,225640
18.911,188901,193,225630
18.916,188872,190,225639
18.921,188893,190,225614
18.925,188896,184,225643
18.930,188893,196,225630
18.935,188897,193,225624
18.940,188882,193,225632
18.945,188912,189,225613
18.950,188894,192,225624
18.955,188917,186,225613
18.960,188902,198,225628
18.965,188903,194,225634
18.970,188915,193,225619
18.975,188928,191,225631
18.980,188897,190,225606
18.985,188866,186,225615
18.990,188859,196,225591
18.995,188844,194,225575
19.000,188824,188,225579
19.005,188801,189,225556
19.010,188795,187,225539
19.015,188783,197,225525
19.020,188752,195,225501
19.025,188752,192,225493
19.030,188711,195,225472
19.035,188722,187,225467
19.040,188710,197,225469
19.045,188704,192,225459
19.050,188673,197,225467
19.055,188677,194,225434
19.060,188658,194,225437
19.065,188643,191,225444
19.069,188628,189,225415
19.074,188633,187,225409
19.079,188621,197,225404
19.084,188597,194,225410
19.089,188590,192,225405
19.094,188595,189,225397
19.099,188579,195,225382
19.104,188591,191,225390
19.109,188562,190,225387
19.114,188562,187,225381
19.119,188553,198,225379
19.124,188540,194,225390
19.129,188536,193,225371
19.134,188527,189,225372
19.139,188536,188,225376
19.144,188513,196,225383
19.149,188515,187,225364
19.154,188519,185,225385
19.159,188515,196,225389
19.164,188510,192,225401
19.169,188519,189,225393
19.174,188518,187,225398
19.179,188511,187,225385
19.184,188490,195,225386
19.189,188515,192,225384
19.194,188500,193,225389
19.199,188499,192,225386
19.204,188475,189,225392
19.209,188501,186,225385
19.213,188486,195,225383
19.218,188482,194,225395
19.223,188511,191,225384
19.228,188507,189,225414
19.233,188509,185,225403
19.238,188491,195,225399
19.243,188534,186,225417
19.248,188514,195,225424
19.253,188516,193,225419
19.258,188536,192,225427
19.263,188527,189,225433
19.268,188516,188,225436
19.273,188521,196,225438
19.278,188512,194,225431
19.283,188531,192,225435
19.288,188532,190,225432
19.293,188520,192,225433
19.298,188536,191,225433
19.303,188509,190,225437
19.308,188525,188,225445
19.313,188529,196,225417
19.318,188539,193,225438
19.323,188534,190,225428
19.328,188543,187,225436
19.333,188539,195,225443
19.338,188541,193,225446
19.343,188557,196,225447
19.348,188548,193,225449
19.353,188540,190,225442
19.358,188544,188,225447
19.362,188545,186,225451
19.367,188542,195,225458
19.372,188547,192,225478
19.377,188555,190,225463
19.382,188551,188,225455
19.387,188568,187,225473
19.392,188565,195,225457
19.397,188559,193,225478
19.402,188556,191,225450
19.407,188562,188,225475
19.412,188564,186,225464
19.417,188565,195,225444
19.422,188564,192,225431
19.427,188552,189,225435
19.432,188557,186,225435
19.437,188552,196,225426
19.442,188551,188,225412
19.447,188546,196,225409
19.452,188554,194,225408
19.457,188554,192,225408
19.462,188543,191,225411
19.467,188552,189,225407
19.472,188548,187,225391
19.477,188564,186,225383
19.482,188549,195,225383
19.487,188558,192,225411
19.492,188563,195,225396
19.497,188562,192,225391
19.502,188577,191,225408
19.506,188569,187,225401
19.511,188577,197,225407
19.516,188571,195,225398
19.521,188582,194,225409
19.526,188593,190,225404
19.531,188588,188,225431
19.536,188592,192,225423
19.541,188600,191,225406
19.546,188600,188,225429
19.551,188592,186,225416
19.556,188618,195,225437
19.561,188610,194,225419
19.566,188621,190,225437
19.571,188624,187,225432
19.576,188619,196,225444
19.581,188608,194,225442
19.586,188633,187,225462
19.591,188627,189,225450
19.596,188636,185,225459
19.601,188631,195,225443
19.606,188654,192,225476
19.611,188663,190,225480
19.616,188673,188,225477
19.621,188705,198,225488
19.626,188687,194,225497
19.631,188703,192,225509
19.636,188698,186,225513
19.641,188693,187,225510
19.646,188718,196,225516
19.650,188700,193,225525
19.655,188691,192,225524
19.660,188695,191,225524
19.665,188677,188,225518
19.670,188683,187,225500
19.675,188655,195,225486
19.680,188648,194,225480
19.685,188622,191,225469
19.690,188635,189,225464
19.695,188613,186,225460
19.700,188594,197,225467
19.705,188598,195,225465
19.710,188573,192,225482
19.715,188602,189,225459
19.720,188585,188,225453
19.725,188554,195,225450
19.730,188541,195,225485
19.735,188538,185,225463
19.740,188545,196,225455
19.745,188521,192,225437
19.750,188535,189,225475
19.755,188527,186,225481
19.760,188517,186,225480
19.765,188512,195,225457
19.770,188514,192,225474
19.775,188514,191,225477
19.780,188473,191,225473
19.785,188514,193,225472
19.790,188494,191,225457
19.795,188494,189,225475
19.799,188501,189,225480
19.804,188492,187,225457
19.809,188501,186,225484
19.814,188502,195,225471
19.819,188491,195,225483
19.824,188494,192,225506
19.829,188498,196,225492
19.834,188494,194,225490
19.839,188497,194,225497
19.844,188499,192,225497
19.849,188498,191,225501
19.854,188501,188,225502
19.859,188484,187,225494
19.864,188476,197,225511
19.869,188490,195,225497
19.874,188496,193,225521
19.879,188504,189,225489
19.884,188489,187,225501
19.889,188507,186,225515
19.894,188505,196,225533
19.899,188524,195,225536
19.904,188517,193,225536
19.909,188525,191,225558
19.914,188533,188,225578
19.919,188532,188,225555
19.924,188532,185,225667
19.929,188552,188,225575
19.934,188559,185,225579
19.939,188563,184,225580
19.943,188556,193,225596
19.948,188549,193,225576
19.953,188555,189,225565
19.958,188544,188,225563
19.963,188564,186,225599
19.968,188560,196,225597
19.973,188559,192,225602
19.978,188556,197,225599
19.983,188552,195,225596
19.988,188559,192,225592
19.993,188566,189,225598
19.998,188558,188,225619
20.003,188562,186,225623
20.008,188548,196,225607
20.013,188557,192,225629
20.018,188572,190,225622
20.023,188578,190,225564
20.028,188566,190,225631
20.033,188575,189,225619
20.038,188580,187,225623
20.043,188586,196,225646
20.048,188597,193,225628
20.053,188585,190,225630
20.058,188581,188,225634
20.063,188597,187,225640
20.068,188594,195,225668
20.073,188620,185,225653
20.078,188619,186,225692
20.083,188617,186,225672
20.088,188623,195,225683
20.092,188620,192,225678
20.097,188639,190,225680
20.102,188622,189,225688
20.107,188634,187,225694
20.112,188641,197,225705
20.117,188639,195,225707
20.122,188656,189,225717
20.127,188663,190,225723
20.132,188655,188,225720
20.137,188680,186,225725
20.142,188671,196,225750
20.147,188694,194,225747
20.152,188691,191,225753
20.157,188704,190,225749
20.162,188698,188,225765
20.167,188703,187,225776
20.172,188705,190,225774
20.177,188717,189,225775
20.182,188739,189,225790
20.187,188741,187,225796
20.192,188737,186,225809
20.197,188734,195,225824
20.202,188758,195,225828
20.207,188772,192,225820
20.212,188771,191,225828
20.217,188754,189,225842
20.222,188763,196,225832
20.227,188775,193,225830
20.232,188773,192,225825
20.236,188780,191,225842
20.241,188790,191,225835
20.246,188789,189,225850
20.251,188781,188,225845
20.256,188799,187,225838
20.261,188802,188,225846
20.266,188784,187,225855
20.271,188797,189,225865
20.276,188802,188,225881
20.281,188826,189,225866
20.286,188831,188,225880
20.291,188831,187,225869
20.296,188832,186,225883
20.301,188860,197,225886
20.306,188835,197,225906
20.311,188862,196,225911
20.316,188884,187,225911
20.321,188887,189,225916
20.326,188883,187,225926
20.331,188899,186,225909
20.336,188894,185,225920
20.341,188885,197,225919
20.346,188883,195,225923
20.351,188860,195,225919
20.356,188851,195,225932
20.361,188840,188,225910
20.366,188852,191,225929
20.371,188852,191,225916
20.376,188831,190,225928
20.380,188839,191,225931
20.385,188832,190,225924
20.390,188832,189,225928
20.395,188831,188,225941
20.400,188827,188,225940
20.405,188827,186,225947
20.410,188823,186,225956
20.415,188810,189,225953
20.420,188797,190,225959
20.425,188802,189,225955
20.430,188804,188,225960
20.435,188812,187,225962
20.440,188791,187,225961
20.445,188781,186,225950
20.450,188794,186,225947
20.455,188766,196,225948
20.460,188783,196,225941
20.465,188762,192,225940
20.470,188761,191,225969
20.475,188764,189,225947
20.480,188776,190,225934
20.485,188753,188,225947
20.490,188732,187,225931
20.495,188743,185,225935
20.500,188732,186,225937
20.505,188725,185,225918
20.510,188720,195,225932
20.515,188745,192,225932
20.520,188728,193,225923
20.525,188719,191,225925
20.529,188721,191,225914
20.534,188735,190,225935
20.539,188723,191,225933
20.544,188734,190,225932
20.549,188713,190,225904
20.554,188735,187,225909
20.559,188739,191,225897
20.564,188711,186,225933
20.569,188726,197,225919
20.574,188716,195,225918
20.579,188725,196,225902
20.584,188728,195,225911
20.589,188708,194,225926
20.594,188739,190,225918
20.599,188741,191,225918
20.604,188740,188,225921
20.609,188737,191,225955
20.614,188741,195,225934
20.619,188735,195,225932
20.624,188762,193,225950
20.629,188746,192,225936
20.634,188751,189,225959
20.639,188751,190,225957
20.644,188750,187,225968
20.649,188758,185,225975
20.654,188749,195,225989
20.659,188765,188,225986
20.664,188772,188,225991
20.669,188773,188,226000
20.673,188774,185,225998
20.678,188777,186,226019
20.683,188786,195,225994
20.688,188796,195,226016
20.693,188794,193,226020
20.698,188781,194,226008
20.703,188781,192,226007
20.708,188804,196,226017
20.713,188785,194,226014
20.718,188806,193,226032
20.723,188802,192,226027
20.728,188804,190,226027
20.733,188798,187,226035
20.738,188800,187,226037
20.743,188802,196,226037
20.748,188808,194,226041
20.753,188802,189,226053
20.758,188808,197,226046
20.763,188807,195,226020
20.768,188828,192,226042
20.773,188824,190,226057
20.778,188817,191,226054
20.783,188825,191,226042
20.788,188837,189,226059
20.793,188844,187,226051
20.798,188847,186,226074
20.803,188847,196,226073
20.808,188840,192,226082
20.813,188844,191,226056
20.817,188861,189,226074
20.822,188870,188,226065
20.827,188859,186,226098
20.832,188858,195,226096
20.837,188866,194,226089
20.842,188869,193,226091
20.847,188873,191,226109
20.852,188895,194,226130
20.857,188881,188,226118
20.862,188881,187,226114
20.867,188897,197,226128
20.872,188904,195,226116
20.877,188907,193,226132
20.882,188909,193,226130
20.887,188918,192,226132
20.892,188926,191,226149
20.897,188932,191,226159
20.902,188929,197,226163
20.907,188935,195,226170
20.912,188933,194,226144
20.917,188936,192,226171
20.922,188944,193,226168
20.927,188956,189,226167
20.932,188962,188,226171
20.937,188964,187,226181
20.942,188961,187,226176
20.947,188961,185,226180
20.952,188988,189,226197
20.957,188983,188,226191
20.962,188999,189,226221
20.966,188985,187,226224
20.971,188995,197,226221
20.976,189009,194,226234
20.981,189023,193,226220
20.986,189028,191,226242
20.991,189042,190,226241
20.996,189036,187,226242
21.001,189041,191,226260
21.006,189036,189,226265
21.011,189041,188,226255
21.016,189050,187,226256
21.021,189045,187,226241
21.026,189060,197,226235
21.031,189025,198,226229
21.036,189039,194,226237
21.041,189011,194,226201
21.046,189009,191,226189
21.051,189003,192,226199
21.056,189004,189,226185
21.061,188990,190,226183
21.066,188986,188,226180
21.071,188968,187,226157
21.076,188977,195,226174
21.081,188958,196,226147
21.086,188948,194,226154
21.091,188934,193,226158
21.096,188935,193,226181
21.101,188945,195,226148
21.106,188935,192,226152
21.110,188934,189,226164
21.115,188921,188,226131
21.120,188916,189,226135
21.125,188908,187,226137
21.130,188909,186,226151
21.135,188914,196,226134
21.140,188895,196,226151
21.145,188874,187,226114
21.150,188876,187,226132
21.155,188885,185,226135
21.160,188888,198,226123
21.165,188895,196,226130
21.170,188874,195,226130
21.175,188886,193,226137
21.180,188872,194,226138
21.185,188870,192,226116
21.190,188867,191,226127
21.195,188879,195,226118
21.200,188877,195,226132
21.205,188869,193,226131
21.210,188874,192,226126
21.215,188850,191,226145
21.220,188866,191,226134
21.225,188870,189,226146
21.230,188842,188,226152
21.235,188876,186,226157
21.240,188863,186,226150
21.245,188863,189,226142
21.250,188866,189,226158
21.254,188863,188,226158
21.259,188876,188,226159
21.264,188871,186,226170
21.269,188867,186,226158
21.274,188862,186,226171
21.279,188885,187,226171
21.284,188881,186,226181
21.289,188891,186,226181
21.294,188870,194,226191
21.299,188880,195,226197
21.304,188880,193,226188
21.309,188878,194,226177
21.314,188873,193,226179
21.319,188885,193,226172
21.324,188880,193,226188
21.329,188896,193,226199
21.334,188870,193,226180
21.339,188900,194,226214
21.344,188884,186,226203
21.349,188897,186,226196
21.354,188897,185,226204
21.359,188884,186,226193
21.364,188890,196,226179
21.369,188892,195,226213
21.374,188901,194,226211
21.379,188902,196,226208
21.384,188897,195,226235
21.389,188903,184,226216
21.394,188894,188,226224
21.399,188914,189,226238
21.403,188922,190,226239
21.408,188927,191,226253
21.413,188925,189,226241
21.418,188916,190,226257
21.423,188928,189,226262
21.428,188922,189,226254
21.433,188935,187,226270
21.438,188934,193,226260
21.443,188930,193,226259
21.448,188938,191,226266
21.453,188924,190,226251
21.458,188937,191,226267
21.463,188931,190,226281
21.468,188952,189,226259
21.473,188953,188,226264
21.478,188957,188,226275
21.483,188960,187,226280
21.488,188962,191,226291
21.493,188968,190,226311
21.498,188977,189,226314
21.503,188973,189,226306
21.508,188978,189,226293
21.513,188987,188,226312
21.518,188988,187,226316
21.523,188993,186,226325
21.528,188990,195,226326
21.533,189016,192,226342
21.538,189011,196,226323
21.543,189015,194,226341
21.547,189016,192,226343
21.552,189022,189,226349
21.557,189040,189,226344
21.562,189040,188,226363
21.567,189041,187,226366
21.572,189043,185,226369
21.577,189054,196,226356
21.582,189071,195,226369
21.587,189067,187,226375
21.592,189064,185,226385
21.597,189062,195,226368
21.602,189070,193,226390
21.607,189080,191,226385
21.612,189070,189,226388
21.617,189094,187,226366
21.622,189095,186,226373
21.627,189107,193,226384
21.632,189087,195,226373
21.637,189097,196,226387
21.642,189102,196,226381
21.647,189104,196,226399
21.652,189106,194,226380
21.657,189124,194,226402
21.662,189127,194,226399
21.667,189130,194,226403
21.672,189128,194,226409
21.677,189142,193,226407
21.682,189162,197,226413
21.687,189157,194,226407
21.691,189167,194,226402
21.696,189161,193,226407
21.701,189136,194,226417
21.706,189146,192,226402
21.711,189146,192,226423
21.716,189142,192,226399
21.721,189126,192,226405
21.726,189126,192,226393
21.731,189106,186,226384
21.736,189100,185,226391
21.741,189087,197,226386
21.746,189077,194,226357
21.751,189071,194,226352
21.756,189036,193,226365
21.761,189025,194,226356
21.766,189042,192,226362
21.771,189047,191,226349
21.776,189025,190,226361
21.781,189025,197,226355
21.786,189020,195,226354
21.791,189013,193,226354
21.796,189012,193,226357
21.801,189003,194,226329
21.806,188988,192,226366
21.811,189002,192,226352
21.816,188986,191,226352
21.821,188988,193,226349
21.826,188984,191,226348
21.831,188979,197,226332
21.836,188968,196,226341
21.840,188972,196,226320
21.845,188949,194,226320
21.850,188964,194,226339
21.855,188949,192,226325
21.860,188957,193,226328
21.865,188947,190,226327
21.870,188957,190,226330
21.875,188963,191,226328
21.880,188948,196,226321
21.885,188963,193,226332
21.890,188950,194,226333
21.895,188957,193,226314
21.900,188953,193,226321
21.905,188946,192,226327
21.910,188951,191,226331
21.915,188955,189,226318
21.920,188947,191,226329
21.925,188973,184,226335
21.930,188948,185,226340
21.935,188945,184,226349
21.940,188953,186,226340
21.945,188960,195,226327
21.950,188959,194,226360
21.955,188973,193,226362
21.960,188964,195,226359
21.965,188982,193,226358
21.970,188968,193,226371
21.975,188989,187,226374
21.980,188961,192,226381
21.984,188976,190,226370
21.989,188980,189,226381
21.994,188967,187,226371
21.999,188975,188,226370
22.004,188975,186,226373
22.009,188986,196,226382
22.014,188981,195,226360
22.019,188973,195,226365
22.024,188969,187,226350
22.029,188961,191,226376
22.034,188969,190,226363
22.039,188955,192,226373
22.044,188972,188,226368
22.049,188987,187,226348
22.054,188985,196,226365
22.059,188977,195,226385
22.064,188989,193,226386
22.069,188973,192,226388
22.074,188980,196,226375
22.079,188984,195,226385
22.084,188971,193,226378
22.089,188969,192,226384
22.094,188990,190,226372
22.099,188993,190,226373
22.104,189000,189,226385
22.109,189014,189,226394
22.114,189012,187,226394
22.119,188988,188,226400
22.124,188994,191,226397
22.129,189009,190,226388
22.133,189005,188,226387
22.138,188996,188,226374
22.143,188997,187,226402
22.148,189001,186,226396
22.153,189021,185,226398
22.158,189020,196,226405
22.163,189009,193,226408
22.168,189033,197,226399
22.173,189008,185,226400
22.178,189033,197,226426
22.183,189028,195,226417
22.188,189050,194,226417
22.193,189062,192,226431
22.198,189048,191,226426
22.203,189052,190,226431
22.208,189051,188,226421
22.213,189053,187,226428
22.218,189067,192,226425
22.223,189070,191,226433
22.228,189081,189,226436
22.233,189078,188,226432
22.238,189089,188,226451
22.243,189084,187,226447
22.248,189086,186,226449
22.253,189110,195,226446
22.258,189101,195,226443
22.263,189101,193,226459
22.268,189111,185,226457
22.273,189112,195,226458
22.277,189131,194,226481
22.282,189128,192,226494
22.287,189139,191,226477
22.292,189128,188,226506
22.297,189149,188,226501
22.302,189163,188,226507
22.307,189166,186,226510
22.312,189160,196,226509
22.317,189159,193,226515
22.322,189172,191,226505
22.327,189171,190,226514
22.332,189165,188,226535
22.337,189183,187,226534
22.342,189194,186,226522
22.347,189197,196,226534
22.352,189195,194,226554
22.357,189212,193,226562
22.362,189200,193,226546
22.367,189217,197,226547
22.372,189238,194,226579
22.377,189235,193,226569
22.382,189244,192,226565
22.387,189245,191,226567
22.392,189263,189,226591
22.397,189250,188,226597
22.402,189282,187,226601
22.407,189290,186,226611
22.412,189278,185,226597
22.417,189284,187,226601
22.421,189287,187,226605
22.426,189298,186,226613
22.431,189301,196,226620
22.436,189283,195,226581
22.441,189260,194,226595
22.446,189270,194,226598
22.451,189247,192,226595
22.456,189237,191,226597
22.461,189264,195,226586
22.466,189234,195,226590
22.471,189207,193,226572
22.476,189206,193,226566
22.481,189203,194,226555
22.486,189191,192,226570
22.491,189198,192,226567
22.496,189185,191,226550
22.501,189179,192,226574
22.506,189183,190,226561
22.511,189181,196,226581
22.516,189173,195,226584
22.521,189182,196,226568
22.526,189142,195,226574
22.531,189157,193,226582
22.536,189162,193,226593
22.541,189148,194,226587
22.546,189151,193,226589
22.551,189148,191,226586
22.556,189155,190,226601
22.561,189137,194,226574
22.566,189145,193,226587
22.570,189137,191,226576
22.575,189127,190,226574
22.580,189137,191,226597
22.585,189128,190,226607
22.590,189146,189,226598
22.595,189121,188,226608
22.600,189135,189,226601
22.605,189122,187,226615
22.610,189134,196,226613
22.615,189127,190,226608
22.620,189134,191,226613
22.625,189144,189,226621
22.630,189142,189,226594
22.635,189145,189,226630
22.640,189129,189,226614
22.645,189143,187,226620
22.650,189129,186,226610
22.655,189134,196,226610
22.660,189134,190,226613
22.665,189139,189,226621
22.670,189145,189,226618
22.675,189131,188,226610
22.680,189137,189,226630
22.685,189131,187,226619
22.690,189138,187,226622
22.695,189132,186,226638
22.700,189139,186,226634
22.705,189135,188,226642
22.710,189129,188,226628
22.714,189134,186,226642
22.719,189124,187,226628
22.724,189133,195,226631
22.729,189140,193,226639
22.734,189125,190,226638
22.739,189121,191,226636
22.744,189146,189,226648
22.749,189148,188,226640
22.754,189142,190,226648
22.759,189151,191,226655
22.764,189139,189,226644
22.769,189150,189,226650
22.774,189163,187,226655
22.779,189147,187,226663
22.784,189157,185,226669
22.789,189166,195,226670
22.794,189165,192,226657
22.799,189168,193,226672
22.804,189162,197,226668
22.809,189164,195,226678
22.814,189160,194,226667
22.819,189154,194,226674
22.824,189148,193,226681
22.829,189158,192,226665
22.834,189161,190,226683
22.839,189149,191,226680
22.844,189152,189,226686
22.849,189160,189,226653
22.854,189173,195,226660
22.858,189170,196,226693
22.863,189148,196,226655
22.868,189175,195,226667
22.873,189157,195,226675
22.878,189174,196,226664
22.883,189178,195,226674
22.888,189181,194,226676
22.893,189178,192,226707
22.898,189190,193,226673
22.903,189176,185,226687
22.908,189173,185,226714
22.913,189191,184,226723
22.918,189193,197,226701
22.923,189220,196,226711
22.928,189225,194,226718
22.933,189221,194,226714
22.938,189215,195,226726
22.943,189225,195,226745
22.948,189241,185,226761
22.953,189241,187,226739
22.958,189245,189,226732
22.963,189236,190,226743
22.968,189263,189,226745
22.973,189251,189,226749
22.978,189255,190,226763
22.983,189264,190,226759
22.988,189270,188,226767
22.993,189264,187,226778
22.998,189233,191,226760
23.003,189304,193,226782
23.007,189288,193,226780
23.012,189298,192,226779
23.017,189305,193,226791
23.022,189309,193,226786
23.027,189304,193,226803
23.032,189310,193,226806
23.037,189324,193,226796
23.042,189311,193,226808
23.047,189336,186,226812
23.052,189330,191,226816
23.057,189336,191,226813
23.062,189347,191,226809
23.067,189349,190,226810
23.072,189346,188,226834
23.077,189355,187,226823
23.082,189345,187,226823
23.087,189368,187,226827
23.092,189365,185,226854
23.097,189372,189,226829
23.102,189388,188,226847
23.107,189387,187,226852
23.112,189389,187,226844
23.117,189397,187,226853
23.122,189412,187,226868
23.127,189408,186,226868
23.132,189422,185,226872
23.137,189429,185,226879
23.142,189433,197,226882
23.147,189434,189,226884
23.151,189448,188,226891
23.156,189429,188,226882
23.161,189432,187,226889
23.166,189414,186,226877
23.171,189414,186,226862
23.176,189418,186,226860
23.181,189383,197,226833
23.186,189391,196,226861
23.191,189373,195,226818
23.196,189362,188,226838
23.201,189358,188,226833
23.206,189339,186,226835
23.211,189358,196,226835
23.216,189337,195,226842
23.221,189329,195,226850
23.226,189323,193,226852
23.231,189321,192,226828
23.236,189308,190,226834
23.241,189304,191,226802
23.246,189293,193,226809
23.251,189292,193,226823
23.256,189280,192,226800
23.261,189269,192,226804
23.266,189264,190,226801
23.271,189258,189,226797
23.276,189259,188,226824
23.281,189235,189,226769
23.286,189245,187,226794
23.291,189228,191,226788
23.295,189234,191,226790
23.300,189233,192,226785
23.305,189223,189,226787
23.310,189225,189,226774
23.315,189237,188,226792
23.320,189237,190,226808
23.325,189226,188,226798
23.330,189222,187,226794
23.335,189215,187,226794
23.340,189233,192,226787
23.345,189202,190,226801
23.350,189238,189,226779
23.355,189214,188,226809
23.360,189223,188,226777
23.365,189226,186,226774
23.370,189199,197,226776
23.375,189206,193,226781
23.380,189204,193,226786
23.385,189199,191,226789
23.390,189201,194,226769
23.395,189207,193,226779
23.400,189216,194,226777
23.405,189210,192,226785
23.410,189203,191,226764
23.415,189203,188,226778
23.420,189201,190,226764
23.425,189210,188,226783
23.430,189211,187,226799
23.435,189202,186,226779
23.440,189223,187,226794
23.444,189225,191,226782
23.449,189224,191,226791
23.454,189211,190,226793
23.459,189199,191,226767
23.464,189203,190,226785
23.469,189196,189,226785
23.474,189214,188,226788
23.479,189208,190,226774
23.484,189219,190,226758
23.489,189203,193,226792
23.494,189222,191,226804
23.499,189219,193,226805
23.504,189208,191,226807
23.509,189224,190,226823
23.514,189231,189,226800
23.519,189227,190,226801
23.524,189214,188,226818
23.529,189224,187,226817
23.534,189231,188,226814
23.539,189210,190,226808
23.544,189228,189,226828
23.549,189235,188,226827
23.554,189236,187,226824
23.559,189254,188,226825
23.564,189224,187,226798
23.569,189227,187,226837
23.574,189254,185,226849
23.579,189249,196,226835
23.584,189244,188,226845
23.588,189262,188,226853
23.593,189254,186,226853
23.598,189263,197,226838
23.603,189260,194,226849
23.608,189257,193,226862
23.613,189284,190,226850
23.618,189280,191,226861
23.623,189267,188,226854
23.628,189273,188,226847
23.633,189290,191,226872
23.638,189275,191,226873
23.643,189277,190,226866
23.648,189273,189,226860
23.653,189290,188,226867
23.658,189313,189,226850
23.663,189294,187,226869
23.668,189305,185,226877
23.673,189301,193,226866
23.678,189310,195,226870
23.683,189308,196,226868
23.688,189323,194,226890
23.693,189328,193,226883
23.698,189337,192,226891
23.703,189325,190,226899
23.708,189340,189,226902
23.713,189351,187,226889
23.718,189343,188,226913
23.723,189347,186,226918
23.728,189355,186,226908
23.732,189375,185,226915
23.737,189365,188,226913
23.742,189362,187,226933
23.747,189368,187,226928
23.752,189382,195,226940
23.757,189384,196,226930
23.762,189372,195,226925
23.767,189394,195,226912
23.772,189392,193,226930
23.777,189413,193,226917
23.782,189403,186,226944
23.787,189408,197,226959
23.792,189422,196,226959
23.797,189395,195,226946
23.802,189402,193,226957
23.807,189441,192,226956
23.812,189446,191,226967
23.817,189452,192,226960
23.822,189434,190,226941
23.827,189447,194,226967
23.832,189449,192,226976
23.837,189457,193,226955
23.842,189448,193,226980
23.847,189455,192,226988
23.852,189444,191,226974
23.857,189446,191,226948
23.862,189426,190,226946
23.867,189404,189,226938
23.872,189402,187,226953
23.877,189394,192,226927
23.881,189383,192,226917
23.886,189366,190,226927
23.891,189367,189,226933
23.896,189350,189,226910
23.901,189341,189,226919
23.906,189342,187,226926
23.911,189347,186,226932
23.916,189341,186,226939
23.921,189313,186,226940
23.926,189336,187,226910
23.931,189320,188,226920
23.936,189308,187,226909
23.941,189313,187,226928
23.946,189302,186,226922
23.951,189287,185,226899
23.956,189280,196,226906
23.961,189292,196,226904
23.966,189262,195,226887
23.971,189258,195,226920
23.976,189251,188,226891
23.981,189244,189,226887
23.986,189245,187,226876
23.991,189240,186,226893
23.996,189247,185,226881
24.001,189235,186,226898
24.006,189225,196,226887
24.011,189237,195,226875
24.016,189224,195,226877
24.021,189214,198,226855
24.025,189219,194,226883
24.030,189184,198,226863
24.035,189218,193,226867
24.040,189211,194,226863
24.045,189203,192,226880
24.050,189200,191,226883
24.055,189194,190,226885
24.060,189193,191,226853
24.065,189191,189,226863
24.070,189224,189,226872
24.075,189217,193,226873
24.080,189205,193,226862
24.085,189197,191,226849
24.090,189188,190,226859
24.095,189184,190,226865
24.100,189205,191,226887
24.105,189202,189,226846
24.110,189207,188,226865
24.115,189210,187,226886
24.120,189228,193,226884
24.125,189204,195,226872
24.130,189208,193,226883
24.135,189208,191,226873
24.140,189211,191,226880
24.145,189203,188,226864
24.150,189210,187,226877
24.155,189217,186,226882
24.160,189209,187,226901
24.165,189223,197,226886
24.170,189217,189,226894
24.174,189206,187,226886
24.179,189214,187,226909
24.184,189220,196,226895
24.189,189219,193,226911
24.194,189214,190,226913
24.199,189235,190,226907
24.204,189213,188,226917
24.209,189237,186,226904
24.214,189216,199,226917
24.219,189219,189,226920
24.224,189244,187,226900
24.229,189260,196,226918
24.234,189237,193,226933
24.239,189251,193,226939
24.244,189238,189,226930
24.249,189256,187,226958
24.254,189244,185,226935
24.259,189258,186,226947
24.264,189262,195,226948
24.269,189270,187,226952
24.274,189263,185,226937
24.279,189266,196,226954
24.284,189263,194,226963
24.289,189255,192,226960
24.294,189268,190,226964
24.299,189270,189,226963
24.304,189284,187,226960
24.309,189279,186,226973
24.314,189282,184,226970
24.318,189287,189,226978
24.323,189315,186,226989
24.328,189299,196,227002
24.333,189309,194,227001
24.338,189304,195,227010
24.343,189310,193,227010
24.348,189306,193,227001
24.353,189331,191,227013
24.358,189330,190,227019
24.363,189340,193,227011
24.368,189346,191,227018
24.373,189345,189,227013
24.378,189343,189,227047
24.383,189343,188,227027
24.388,189376,187,227025
24.393,189364,185,227030
24.398,189351,197,227040
24.403,189372,196,227038
24.408,189366,195,227035
24.413,189384,188,227041
24.418,189392,188,227073
24.423,189393,187,227062
24.428,189402,186,227067
24.433,189390,195,227062
24.438,189385,195,227065
24.443,189419,193,227072
24.448,189408,192,227075
24.453,189422,189,227086
24.458,189420,189,227094
24.462,189403,193,227073
24.467,189425,192,227103
24.472,189437,190,227071
24.477,189425,189,227096
24.482,189436,188,227076
24.487,189438,187,227095
24.492,189431,185,227098
24.497,189450,197,227121
24.502,189461,195,227120
24.507,189465,194,227121
24.512,189463,186,227128
24.517,189468,186,227125
24.522,189488,196,227114
24.527,189491,195,227125
24.532,189490,195,227130
24.537,189482,194,227118
24.542,189510,193,227128
24.547,189500,191,227117
24.552,189485,190,227136
24.557,189478,191,227133
24.562,189471,188,227121
24.567,189469,186,227118
24.572,189446,196,227128
24.577,189443,195,227111
24.582,189437,194,227092
24.587,189412,193,227115
24.592,189412,191,227092
24.597,189403,190,227097
24.602,189404,188,227097
24.607,189357,190,227108
24.611,189395,190,227110
24.616,189391,189,227090
24.621,189376,189,227087
24.626,189380,188,227113
24.631,189362,186,227110
24.636,189364,197,227084
24.641,189358,197,227091
24.646,189344,195,227085
24.651,189330,194,227081
24.656,189332,186,227070
24.661,189336,189,227061
24.666,189345,187,227093
24.671,189334,187,227074
24.676,189314,185,227071
24.681,189307,196,227089
24.686,189308,193,227077
24.691,189329,193,227065
24.696,189320,191,227083
24.701,189310,190,227092
24.706,189318,193,227086
24.711,189304,191,227062
24.716,189311,188,227071
24.721,189298,189,227085
24.726,189302,187,227079
24.731,189297,186,227080
24.736,189289,186,227082
24.741,189285,186,227073
24.746,189294,195,227080
24.751,189282,194,227095
24.755,189285,186,227080
24.760,189260,197,227090
24.765,189276,194,227074
24.770,189280,192,227072
24.775,189279,190,227084
24.780,189286,190,227089
24.785,189296,187,227084
24.790,189292,185,227076
24.795,189277,195,227086
24.800,189289,195,227081
24.805,189272,187,227073
24.810,189296,197,227082
24.815,189282,194,227073
24.820,189287,195,227078
24.825,189274,192,227075
24.830,189277,191,227061
24.835,189276,189,227097
24.840,189268,190,227048
24.845,189278,189,227060
24.850,189281,192,227082
24.855,189262,187,227063
24.860,189268,186,227056
24.865,189280,197,227080
24.870,189295,195,227082
24.875,189289,193,227082
24.880,189289,195,227042
24.885,189276,193,227089
24.890,189285,193,227076
24.895,189288,192,227068
24.899,189287,197,227078
24.904,189298,196,227085
24.909,189283,194,227077
24.914,189286,192,227094
24.919,189289,193,227070
24.924,189300,169,227085
24.929,189298,189,227076
24.934,189306,188,227082
24.939,189301,188,227104
24.944,189313,186,227109
24.949,189332,193,227069
24.954,189316,194,227104
24.959,189313,194,227092
24.964,189315,192,227113
24.969,189327,190,227110
24.974,189320,188,227102
24.979,189340,189,227095
24.984,189327,187,227107
24.989,189331,186,227109
24.994,189342,195,227118
24.999,189338,188,227115
25.004,189363,187,227119
25.009,189342,196,227131
25.014,189357,193,227113
25.019,189352,193,227129
25.024,189366,190,227126
25.029,189365,189,227142
25.034,189368,188,227127
25.039,189367,187,227145
25.044,189380,197,227146
25.048,189404,190,227143
25.053,189379,187,227139
25.058,189380,188,227151
25.063,189394,197,227164
25.068,189393,195,227155
25.073,189403,193,227157
25.078,189398,194,227156
25.083,189423,191,227172
25.088,189409,189,227171
25.093,189424,189,227182
25.098,189418,196,227171
25.103,189420,193,227176
25.108,189431,190,227177
25.113,189431,187,227170
25.118,189441,188,227178
25.123,189442,185,227175
25.128,189444,195,227176
25.133,189452,193,227183
25.138,189450,193,227179
25.143,189446,191,227194
25.148,189462,193,227175
25.153,189479,190,227198
25.158,189479,190,227197
25.163,189492,188,227173
25.168,189486,186,227194
25.173,189468,196,227201
25.178,189490,196,227215
25.183,189493,194,227178
25.188,189487,193,227206
25.192,189500,185,227208
25.197,189501,196,227214
25.202,189500,196,227224
25.207,189513,194,227204
25.212,189528,191,227205
25.217,189526,191,227212
25.222,189531,190,227211
25.227,189525,189,227211
25.232,189526,187,227229
25.237,189542,187,227184
25.242,189566,191,227197
25.247,189552,195,227203
25.252,189533,192,227203
25.257,189548,191,227197
25.262,189568,189,227195
25.267,189552,188,227196
25.272,189546,185,227154
25.277,189526,196,227169
25.282,189503,195,227168
25.287,189501,194,227130
25.292,189479,186,227152
25.297,189488,196,227141
25.302,189469,194,227121
25.307,189467,193,227101
25.312,189464,190,227109
25.317,189458,188,227122
25.322,189434,187,227132
25.327,189452,196,227118
25.332,189442,193,227138
25.336,189439,192,227126
25.341,189411,196,227124
25.346,189442,194,227123
25.351,189431,192,227134
25.356,189407,190,227133
25.361,189420,189,227132
25.366,189418,188,227089
25.371,189410,186,227112
25.376,189399,196,227115
25.381,189392,196,227102
25.386,189394,197,227086
25.391,189375,186,227120
25.396,189388,195,227119
25.401,189374,195,227104
25.406,189381,192,227111
25.411,189384,191,227133
25.416,189386,189,227121
25.421,189385,188,227105
25.426,189377,186,227124
25.431,189384,186,227118
25.436,189403,190,227110
25.441,189388,191,227115
25.446,189392,189,227125
25.451,189386,187,227141
25.456,189380,186,227129
25.461,189369,186,227138
25.466,189376,195,227126
25.471,189369,196,227133
25.476,189385,195,227124
25.481,189358,196,227121
25.485,189382,187,227129
25.490,189372,187,227127
25.495,189385,186,227111
25.500,189378,187,227125
25.505,189379,186,227137
25.510,189384,196,227123
25.515,189374,195,227134
25.520,189390,195,227130
25.525,189384,193,227117
25.530,189382,192,227124
25.535,189372,189,227126
25.540,189374,190,227123
25.545,189380,188,227115
25.550,189384,188,227119
25.555,189389,186,227123
25.560,189367,187,227130
25.565,189392,186,227118
25.570,189388,186,227117
25.575,189385,185,227127
25.580,189392,198,227118
25.585,189389,194,227125
25.590,189381,193,227094
25.595,189381,192,227107
25.600,189367,194,227119
25.605,189396,192,227107
25.610,189392,192,227112
25.615,189377,190,227103
25.620,189367,192,227117
25.625,189390,190,227112
25.629,189384,190,227119
25.634,189389,192,227142
25.639,189384,192,227126
25.644,189381,190,227119
25.649,189393,190,227126
25.654,189398,188,227115
25.659,189395,188,227121
25.664,189399,186,227113
25.669,189409,186,227118
25.674,189404,195,227127
25.679,189416,188,227122
25.684,189393,192,227106
25.689,189418,191,227116
25.694,189395,189,227130
25.699,189422,190,227120
25.704,189408,187,227128
25.709,189418,186,227122
25.714,189417,185,227148
25.719,189433,197,227144
25.724,189438,196,227124
25.729,189432,188,227138
25.734,189426,186,227128
25.739,189431,187,227142
25.744,189440,186,227141
25.749,189436,196,227116
25.754,189441,194,227156
25.759,189446,194,227130
25.764,189452,192,227144
25.769,189459,191,227142
25.774,189469,189,227134
25.778,189490,194,227143
25.783,189480,192,227158
25.788,189464,191,227165
25.793,189468,190,227148
25.798,189506,190,227156
25.803,189493,188,227163
25.808,189499,188,227158
25.813,189499,186,227172
25.818,189505,186,227148
25.823,189513,196,227187
25.828,189515,190,227175
25.833,189512,189,227171
25.838,189524,190,227179
25.843,189528,189,227184
25.848,189515,187,227176
25.853,189546,186,227196
25.858,189544,187,227187
25.863,189558,186,227185
25.868,189544,197,227183
25.873,189569,195,227201
25.878,189555,192,227192
25.883,189545,191,227197
25.888,189556,190,227211
25.893,189562,188,227210
25.898,189573,189,227210
25.903,189591,188,227225
25.908,189592,187,227209
25.913,189564,187,227231
25.918,189587,187,227241
25.922,189587,190,227274
25.927,189601,189,227237
25.932,189617,187,227262
25.937,189618,187,227259
25.942,189623,187,227258
25.947,189639,185,227249
25.952,189630,194,227286
25.957,189649,193,227286
25.962,189637,191,227266
25.967,189657,190,227285
25.972,189663,193,227327
25.977,189657,188,227307
25.982,189698,188,227305
25.987,189691,187,227319
25.992,189683,186,227305
25.997,189695,187,227314
26.002,189709,187,227314
26.007,189691,186,227309
26.012,189701,196,227309
26.017,189700,196,227296
26.022,189667,188,227288
26.027,189668,188,227275
26.032,189637,188,227282
26.037,189639,188,227264
26.042,189654,187,227267
26.047,189636,187,227275
26.052,189640,185,227267
26.057,189641,185,227279
26.062,189633,197,227271
26.066,189627,196,227260
26.071,189619,189,227265
26.076,189617,189,227288
26.081,189606,188,227258
26.086,189600,187,227263
26.091,189594,186,227270
26.096,189590,187,227269
26.101,189591,187,227277
26.106,189589,188,227277
26.111,189575,186,227253
26.116,189564,186,227252
26.121,189565,191,227253
26.126,189569,191,227236
26.131,189565,191,227242
26.136,189544,191,227217
26.141,189547,192,227229
26.146,189536,191,227225
26.151,189538,192,227219
26.156,189540,191,227216
26.161,189549,192,227231
26.166,189533,192,227231
26.171,189547,196,227233
26.176,189528,196,227219
26.181,189534,197,227225
26.186,189539,196,227218
26.191,189527,195,227235
26.196,189556,193,227225
26.201,189537,195,227217
26.206,189536,194,227208
26.211,189539,193,227223
26.215,189511,184,227220
26.220,189546,188,227219
26.225,189532,186,227231
26.230,189532,186,227212
26.235,189530,186,227210
26.240,189538,187,227197
26.245,189542,185,227201
26.250,189550,195,227208
26.255,189529,193,227226
26.260,189541,193,227217
26.265,189546,185,227214
26.270,189548,196,227200
26.275,189559,195,227227
26.280,189548,196,227228
26.285,189551,194,227201
26.290,189552,193,227200
26.295,189564,192,227212
26.300,189555,192,227198
26.305,189548,191,227216
26.310,189546,190,227207
26.315,189564,194,227208
26.320,189565,195,227223
26.325,189550,192,227211
26.330,189543,191,227208
26.335,189563,188,227226
26.340,189554,190,227223
26.345,189558,188,227215
26.350,189568,186,227233
26.355,189562,195,227225
26.359,189545,197,227236
26.364,189580,192,227223
26.369,189558,191,227223
26.374,189578,190,227227
26.379,189586,191,227235
26.384,189576,190,227234
26.389,189575,190,227218
26.394,189584,188,227246
26.399,189574,190,227215
26.404,189571,189,227233
26.409,189571,188,227228
26.414,189579,186,227222
26.419,189592,188,227209
26.424,189596,186,227227
26.429,189599,185,227221
26.434,189595,196,227231
26.439,189601,196,227235
26.444,189598,194,227228
26.449,189601,194,227238
26.454,189596,193,227232
26.459,189596,195,227238
26.464,189585,186,227245
26.469,189605,196,227245
26.474,189614,194,227268
26.479,189607,196,227246
26.484,189615,193,227235
26.489,189625,194,227265
26.494,189639,192,227263
26.499,189643,194,227267
26.503,189626,192,227272
26.508,189646,186,227261
26.513,189638,185,227273
26.518,189636,186,227284
26.523,189638,186,227263
26.528,189648,185,227269
26.533,189664,195,227271
26.538,189668,196,227278
26.543,189657,194,227278
26.548,189647,194,227265
26.553,189681,194,227281
26.558,189676,189,227285
26.563,189680,188,227288
26.568,189685,188,227296
26.573,189690,187,227296
26.578,189682,188,227289
26.583,189691,186,227289
26.588,189699,186,227309
26.593,189718,185,227293
26.598,189701,186,227307
26.603,189717,196,227311
26.608,189723,188,227304
26.613,189709,186,227310
26.618,189707,187,227286
26.623,189727,185,227318
26.628,189731,196,227309
26.633,189737,194,227292
26.638,189722,194,227303
26.643,189727,192,227306
26.648,189737,191,227295
26.652,189728,188,227321
26.657,189746,194,227319
26.662,189746,193,227325
26.667,189737,191,227316
26.672,189764,189,227315
26.677,189764,189,227325
26.682,189778,189,227328
26.687,189785,188,227342
26.692,189804,187,227338
26.697,189814,187,227339
26.702,189799,187,227304
26.707,189801,191,227351
26.712,189813,189,227355
26.717,189822,189,227334
26.722,189797,188,227332
26.727,189801,188,227324
26.732,189786,187,227340
26.737,189782,187,227330
26.742,189773,186,227301
26.747,189767,186,227312
26.752,189800,188,227286
26.757,189745,189,227310
26.762,189745,189,227298
26.767,189731,188,227303
26.772,189721,186,227291
26.777,189708,187,227262
26.782,189724,186,227276
26.787,189726,196,227282
26.792,189712,195,227265
26.796,189688,195,227276
26.801,189709,190,227278
26.806,189703,193,227267
26.811,189700,192,227271
26.816,189678,192,227254
26.821,189669,192,227246
26.826,189667,190,227252
26.831,189667,188,227230
26.836,189659,189,227249
26.841,189643,189,227229
26.846,189629,189,227231
26.851,189650,192,227229
26.856,189635,192,227224
26.861,189630,192,227219
26.866,189622,192,227232
26.871,189629,191,227206
26.876,189616,191,227209
26.881,189626,191,227219
26.886,189614,190,227231
26.891,189623,188,227227
26.896,189618,188,227219
26.901,189634,193,227199
26.906,189613,192,227199
26.911,189627,190,227196
26.916,189617,190,227194
26.921,189589,190,227179
26.926,189648,185,227206
26.931,189613,187,227182
26.936,189608,187,227176
26.940,189602,187,227167
26.945,189607,186,227180
26.950,189594,190,227208
26.955,189609,189,227186
26.960,189602,189,227188
26.965,189600,187,227201
26.970,189622,187,227186
26.975,189602,186,227191
26.980,189617,186,227173
26.985,189612,195,227171
26.990,189624,195,227185
26.995,189610,193,227195
27.000,189613,192,227188
27.005,189597,190,227174
27.010,189608,188,227153
27.015,189607,187,227145
27.020,189614,187,227171
27.025,189602,186,227174
27.030,189578,194,227160
27.035,189616,186,227149
27.040,189606,197,227140
27.045,189625,189,227142
27.050,189598,195,227153
27.055,189597,195,227146
27.060,189624,196,227150
27.065,189624,195,227152
27.070,189607,196,227159
27.075,189600,195,227154
27.080,189631,196,227138
27.085,189615,195,227158
27.089,189617,195,227157
27.094,189633,190,227155
27.099,189632,195,227157
27.104,189617,193,227163
27.109,189629,193,227148
27.114,189626,190,227145
27.119,189624,191,227152
27.124,189631,189,227152
27.129,189646,189,227140
27.134,189648,188,227135
27.139,189639,189,227131
27.144,189631,192,227147
27.149,189644,191,227150
27.154,189650,189,227161
27.159,189644,189,227151
27.164,189635,188,227149
27.169,189657,187,227160
27.174,189667,186,227159
27.179,189653,187,227158
27.184,189655,185,227146
27.189,189663,196,227145
27.194,189675,188,227151
27.199,189668,190,227150
27.204,189668,188,227154
27.209,189668,187,227149
27.214,189673,185,227146
27.219,189676,197,227142
27.224,189667,194,227141
27.229,189688,194,227163
27.233,189695,193,227148
27.238,189689,195,227185
27.243,189678,186,227153
27.248,189693,185,227156
27.253,189698,195,227146
27.258,189707,196,227153
27.263,189706,194,227149
27.268,189710,193,227158
27.273,189710,192,227145
27.278,189732,193,227164
27.283,189730,191,227159
27.288,189725,196,227159
27.293,189720,195,227172
27.298,189728,195,227160
27.303,189748,193,227155
27.308,189742,192,227185
27.313,189750,192,227153
27.318,189742,192,227177
27.323,189752,192,227161
27.328,189765,191,227174
27.333,189754,189,227154
27.338,189776,195,227179
27.343,189773,194,227171
27.348,189769,193,227186
27.353,189774,191,227182
27.358,189793,192,227194
27.363,189790,190,227187
27.368,189779,188,227187
27.373,189806,186,227194
27.377,189803,187,227216
27.382,189799,196,227212
27.387,189811,188,227207
27.392,189821,187,227198
27.397,189831,188,227235
27.402,189804,186,227209
27.407,189826,185,227204
27.412,189859,195,227212
27.417,189850,195,227218
27.422,189853,194,227228
27.427,189855,194,227234
27.432,189859,191,227213
27.437,189857,188,227228
27.442,189858,187,227217
27.447,189865,187,227231
27.452,189838,186,227224
27.457,189829,187,227202
27.462,189820,186,227207
27.467,189817,186,227183
27.472,189805,195,227172
27.477,189787,195,227174
27.482,189776,192,227183
27.487,189786,196,227178
27.492,189777,193,227163
27.497,189772,192,227172
27.502,189771,191,227162
27.507,189755,190,227180
27.512,189750,189,227152
27.517,189753,189,227162
27.522,189735,187,227162
27.526,189738,186,227150
27.531,189734,194,227138
27.536,189723,195,227156
27.541,189717,194,227132
27.546,189721,193,227139
27.551,189710,192,227136
27.556,189692,192,227130
27.561,189702,192,227135
27.566,189688,192,227124
27.571,189687,190,227115
27.576,189681,189,227128
27.581,189665,194,227126
27.586,189678,193,227122
27.591,189681,191,227106
27.596,189671,190,227108
27.601,189653,189,227086
27.606,189675,187,227103
27.611,189663,186,227109
27.616,189653,185,227096
27.621,189665,196,227094
27.626,189663,194,227096
27.631,189665,188,227108
27.636,189664,186,227105
27.641,189655,187,227095
27.646,189668,185,227085
27.651,189648,195,227101
27.656,189654,194,227082
27.661,189649,195,227079
27.666,189649,193,227093
27.670,189654,192,227083
27.675,189653,191,227063
27.680,189625,197,227096
27.685,189647,196,227085
27.690,189655,194,227077
27.695,189638,192,227078
27.700,189636,192,227064
27.705,189660,190,227082
27.710,189647,188,227083
27.715,189645,188,227081
27.720,189650,188,227068
27.725,189654,187,227067
27.730,189658,191,227070
27.735,189647,189,227062
27.740,189646,190,227062
27.745,189638,188,227069
27.750,189651,187,227073
27.755,189646,187,227061
27.760,189645,188,227060
27.765,189630,185,227060
27.770,189637,195,227077
27.775,189643,196,227098
27.780,189632,191,227043
27.785,189639,190,227049
27.790,189637,188,227059
27.795,189637,187,227042
27.800,189649,187,227037
27.805,189650,196,227031
27.810,189653,194,227052
27.815,189639,192,227053
27.819,189659,192,227056
27.824,189626,194,227037
27.829,189638,193,227056
27.834,189663,189,227064
27.839,189667,190,227049
27.844,189652,187,227040
27.849,189644,185,227057
27.854,189658,194,227062
27.859,189659,195,227058
27.864,189674,192,227062
27.869,189648,191,227060
27.874,189655,195,227070
27.879,189662,195,227052
27.884,189658,192,227070
27.889,189672,191,227062
27.894,189664,187,227074
27.899,189679,187,227075
27.904,189685,185,227080
27.909,189674,195,227068
27.914,189699,193,227066
27.919,189685,193,227065
27.924,189695,189,227107
27.929,189700,187,227072
27.934,189697,185,227091
27.939,189703,187,227074
27.944,189719,185,227083
27.949,189723,185,227088
27.954,189703,193,227087
27.959,189708,193,227096
27.963,189704,191,227099
27.968,189721,187,227104
27.973,189744,187,227102
27.978,189753,187,227112
27.983,189744,185,227101
27.988,189747,196,227104
27.993,189760,194,227135
27.998,189746,193,227104
28.003,189757,190,227121
28.008,189773,189,227120
28.013,189779,187,227124
28.018,189782,186,227117
28.023,189784,189,227136
28.028,189796,187,227128
28.033,189795,186,227154
28.038,189803,196,227152
28.043,189795,193,227134
28.048,189806,192,227138
28.053,189818,189,227158
28.058,189796,189,227156
28.063,189818,187,227162
28.068,189824,195,227157
28.073,189831,188,227156
28.078,189821,189,227151
28.083,189840,186,227182
28.088,189829,196,227161
28.093,189836,193,227170
28.098,189844,192,227183
28.103,189847,190,227179
28.107,189858,189,227170
28.112,189870,186,227187
28.117,189878,192,227183
28.122,189880,191,227196
28.127,189889,191,227182
28.132,189881,189,227213
28.137,189889,190,227207
28.142,189901,187,227228
28.147,189912,187,227203
28.152,189929,184,227206
28.157,189926,197,227224
28.162,189923,194,227223
28.167,189937,189,227215
28.172,189941,188,227219
28.177,189938,189,227218
28.182,189932,187,227218
28.187,189924,186,227217
28.192,189909,185,227213
28.197,189904,185,227208
28.202,189880,195,227206
28.207,189878,194,227201
28.212,189872,192,227200
28.217,189863,186,227189
28.222,189856,185,227181
28.227,189834,195,227171
28.232,189843,193,227175
28.237,189831,192,227183
28.242,189803,191,227149
28.247,189812,190,227170
28.252,189821,189,227146
28.256,189790,188,227164
28.261,189800,187,227173
28.266,189791,191,227160
28.271,189786,189,227166
28.276,189761,188,227168
28.281,189750,187,227161
28.286,189755,186,227135
28.291,189750,186,227144
28.296,189747,186,227148
28.301,189752,186,227142
28.306,189743,195,227145
28.311,189735,195,227142
28.316,189736,187,227139
28.321,189745,187,227148
28.326,189737,187,227133
28.331,189723,186,227137
28.336,189715,185,227136
28.341,189735,196,227135
28.346,189726,194,227131
28.351,189723,193,227116
28.356,189719,192,227121
28.361,189757,196,227155
28.366,189715,196,227129
28.371,189720,194,227115
28.376,189705,194,227124
28.381,189698,194,227124
28.386,189712,191,227122
28.391,189700,189,227122
28.396,189686,186,227116
28.400,189698,197,227118
28.405,189697,194,227102
28.410,189707,186,227115
28.415,189686,195,227112
28.420,189699,194,227105
28.425,189685,190,227103
28.430,189688,189,227110
28.435,189708,186,227118
28.440,189701,197,227110
28.445,189698,193,227124
28.450,189701,190,227123
28.455,189690,188,227133
28.460,189685,193,227124
28.465,189697,189,227118
28.470,189692,187,227120
28.475,189713,185,227098
28.480,189713,196,227129
28.485,189704,193,227120
28.490,189709,190,227134
28.495,189694,188,227114
28.500,189704,187,227118
28.505,189699,186,227111
28.510,189709,193,227122
28.515,189719,191,227152
28.520,189706,190,227147
28.525,189713,187,227146
28.530,189698,185,227138
28.535,189704,194,227133
28.540,189706,194,227138
28.544,189711,191,227139
28.549,189732,189,227139
28.554,189716,187,227136
28.559,189724,192,227142
28.564,189700,188,227146
28.569,189713,187,227152
28.574,189718,184,227161
28.579,189726,196,227149
28.584,189720,193,227159
28.589,189728,190,227174
28.594,189727,188,227159
28.599,189745,188,227172
28.604,189740,187,227160
28.609,189737,186,227160
28.614,189726,194,227174
28.619,189748,193,227168
28.624,189756,191,227165
28.629,189748,190,227193
28.634,189764,187,227181
28.639,189782,187,227188
28.644,189761,186,227203
28.649,189771,195,227195
28.654,189789,187,227200
28.659,189782,187,227234
28.664,189771,185,227199
28.669,189791,195,227195
28.674,189789,193,227217
28.679,189787,193,227213
28.684,189793,190,227226
28.689,189812,189,227216
28.693,189814,186,227222
28.698,189812,185,227219
28.703,189828,189,227244
28.708,189828,189,227252
28.713,189843,186,227257
28.718,189832,186,227248
28.723,189836,196,227239
28.728,189861,195,227253
28.733,189832,192,227247
28.738,189844,193,227263
28.743,189861,191,227253
28.748,189845,190,227255
28.753,189864,192,227264
28.758,189885,193,227266
28.763,189859,191,227276
28.768,189878,190,227274
28.773,189888,188,227288
28.778,189886,188,227280
28.783,189889,186,227273
28.788,189892,196,227289
28.793,189889,192,227302
28.798,189899,192,227263
28.803,189899,187,227292
28.808,189921,185,227282
28.813,189918,195,227294
28.818,189922,194,227295
28.823,189917,191,227286
28.828,189923,191,227309
28.833,189935,188,227297
28.837,189929,188,227303
28.842,189925,187,227294
28.847,189951,187,227314
28.852,189950,195,227317
28.857,189952,195,227324
28.862,189955,194,227306
28.867,189962,193,227310
28.872,189965,191,227309
28.877,189979,190,227308
28.882,189967,188,227328
28.887,189979,186,227328
28.892,189986,195,227337
28.897,189965,186,227340
28.902,190003,191,227344
28.907,190003,189,227354
28.912,190015,186,227329
28.917,190018,186,227333
28.922,190030,196,227342
28.927,190031,193,227344
28.932,190029,192,227358
28.937,190008,190,227350
28.942,190002,188,227327
28.947,189981,191,227304
28.952,189971,188,227332
28.957,189962,185,227305
28.962,189958,195,227314
28.967,189957,192,227287
28.972,189939,190,227287
28.977,189918,187,227298
28.981,189916,187,227275
28.986,189910,186,227284
28.991,189899,195,227268
28.996,189886,187,227289
29.001,189890,186,227254
29.006,189878,185,227258
29.011,189854,195,227262
29.016,189849,194,227267
29.021,189844,194,227252
29.026,189853,193,227256
29.031,189827,194,227231
29.036,189828,191,227254
29.041,189833,191,227233
29.046,189822,194,227244
29.051,189799,192,227246
29.056,189803,190,227237
29.061,189807,189,227218
29.066,189784,187,227207
29.071,189800,185,227225
29.076,189797,195,227221
29.081,189787,194,227220
29.086,189774,192,227215
29.091,189776,190,227223
29.096,189790,194,227208
29.101,189751,192,227210
29.106,189766,188,227210
29.111,189765,187,227208
29.116,189766,195,227203
29.121,189752,195,227218
29.126,189763,191,227203
29.130,189757,188,227209
29.135,189754,186,227194
29.140,189754,191,227167
29.145,189764,188,227180
29.150,189750,185,227172
29.155,189737,195,227194
29.160,189731,194,227193
29.165,189752,190,227191
29.170,189750,188,227187
29.175,189732,186,227178
29.180,189749,186,227192
29.185,189718,195,227196
29.190,189772,187,227187
29.195,189737,186,227183
29.200,189743,197,227195
29.205,189735,194,227199
29.210,189746,193,227203
29.215,189729,191,227168
29.220,189746,191,227169
29.225,189739,188,227169
29.230,189743,186,227171
29.235,189752,185,227167
29.240,189736,190,227174
29.245,189733,187,227158
29.250,189728,185,227166
29.255,189741,194,227169
29.260,189725,194,227180
