df_hash,22ZHK4.3NGMYT
device,HZ2X61
project_hash,29R7
project_name,istanbul_aydin_university
person_hash,29R7.VVA5
person_label,V18
date_time_start,2025-05-23_10-26-57.429000_+03
date_time_start_unix,1747985217.429
date_time_end,2025-05-23_10-35-12.468000_+03
length_difference_noticed,no

time,ppg_med
5.604,509
5.629,585
5.654,705
5.679,770
5.704,745
5.729,718
5.754,788
5.779,916
5.804,965
5.829,887
5.854,803
5.879,847
5.904,965
5.929,972
5.954,804
5.979,625
6.004,615
6.029,703
6.054,640
6.079,339
6.104,25
6.129,-64
6.154,-23
6.179,-182
6.204,-650
6.229,-1132
6.254,-1314
6.279,-1321
6.304,-1581
6.329,-2233
6.354,-2892
6.379,-3154
6.404,-3179
6.429,-3514
6.454,-4335
6.479,-5148
6.504,-5437
6.529,-5407
6.554,-5751
6.579,-6687
6.604,-7590
6.629,-7810
6.654,-7604
6.679,-7843
6.704,-8800
6.729,-9690
6.754,-9699
6.779,-9151
6.804,-9134
6.829,-9989
6.854,-10735
6.879,-10360
6.904,-9267
6.929,-8817
6.954,-9436
6.979,-9903
7.004,-8955
7.029,-7098
7.054,-6036
7.079,-6306
7.104,-6386
7.129,-4687
7.154,-1846
7.179,-14
7.204,113
7.229,463
7.254,3060
7.279,7100
7.304,9813
7.329,10279
7.354,10981
7.379,14584
7.404,20056
7.429,23711
7.454,24262
7.479,25038
7.504,29742
7.529,32767
7.554,32767
7.579,32767
7.604,32767
7.629,32767
7.654,32767
7.679,32767
7.704,32767
7.729,32767
7.754,32767
7.779,32767
7.804,32767
7.829,32767
7.854,13536
7.879,-32768
7.904,-32768
7.929,-32768
7.954,-32768
7.979,-32768
8.004,-32768
8.029,-32768
8.054,-32768
8.079,-32768
8.104,-32768
8.129,-32768
8.154,-32768
8.179,-32768
8.204,-32443
8.229,-26162
8.254,-24033
8.279,-23976
8.304,-21719
8.329,-16575
8.354,-11875
8.379,-10174
8.404,-10021
8.429,-8294
8.454,-4457
8.479,-1003
8.504,120
8.529,8
8.554,1074
8.579,3759
8.604,6142
8.629,6690
8.654,6249
8.679,6714
8.704,8441
8.729,9916
8.754,9925
8.779,9139
8.804,9074
8.829,10024
8.854,10792
8.879,10417
8.904,9441
8.929,9078
8.954,9557
8.979,9913
9.004,9364
9.029,8339
9.054,7801
9.079,7932
9.104,7962
9.129,7283
9.154,6251
9.179,5647
9.204,5617
9.229,5544
9.254,4939
9.279,4082
9.304,3581
9.329,3538
9.354,3451
9.379,2926
9.404,2187
9.429,1728
9.454,1647
9.479,1563
9.504,1166
9.529,612
9.554,274
9.579,229
9.604,202
9.629,-29
9.654,-348
9.679,-493
9.704,-426
9.729,-369
9.754,-481
9.779,-661
9.804,-707
9.829,-592
9.854,-489
9.879,-523
9.904,-617
9.929,-620
9.954,-513
9.979,-422
10.004,-439
10.029,-506
10.054,-503
10.079,-408
10.104,-305
10.129,-267
10.154,-263
10.179,-224
10.204,-148
10.229,-101
10.254,-124
10.279,-169
10.304,-161
10.329,-89
10.354,-18
10.379,0
10.404,-9
10.429,-3
10.454,-1
10.479,11
10.504,27
10.529,44
10.554,61
10.579,79
10.604,92
10.629,91
10.654,71
10.679,44
10.704,26
10.729,21
10.754,12
10.779,-16
10.804,-62
10.829,-100
10.854,-107
10.879,-80
10.904,-31
10.929,34
10.954,121
10.979,216
11.004,283
11.029,289
11.054,245
11.079,214
11.104,251
11.129,350
11.154,455
11.179,520
11.204,558
11.229,607
11.254,662
11.279,669
11.304,601
11.329,523
11.354,551
11.379,731
11.404,956
11.429,1042
11.454,893
11.479,580
11.504,277
11.529,99
11.554,28
11.579,-22
11.604,-108
11.629,-202
11.654,-261
11.679,-280
11.704,-290
11.729,-309
11.754,-315
11.779,-280
11.804,-205
11.829,-125
11.854,-72
11.879,-46
11.904,-30
11.929,-10
11.954,20
11.979,62
12.004,117
12.029,174
12.054,207
12.079,200
12.104,165
12.129,136
12.154,140
12.179,172
12.204,213
12.229,252
12.254,294
12.279,346
12.304,403
12.329,460
12.354,524
12.379,608
12.404,702
12.429,761
12.454,741
12.479,644
12.504,523
12.529,440
12.554,415
12.579,419
12.604,415
12.629,395
12.654,377
12.679,373
12.704,372
12.729,353
12.754,306
12.779,238
12.804,155
12.829,54
12.854,-70
12.879,-208
12.904,-337
12.929,-432
12.954,-483
12.979,-487
13.004,-447
13.029,-369
13.054,-270
13.079,-175
13.104,-105
13.129,-57
13.154,-14
13.179,39
13.204,97
13.229,145
13.254,182
13.279,234
13.304,336
13.329,500
13.354,691
13.379,847
13.404,910
13.429,869
13.454,761
13.479,641
13.504,547
13.529,488
13.554,445
13.579,401
13.604,349
13.629,296
13.654,244
13.679,190
13.704,129
13.729,64
13.754,4
13.779,-41
13.804,-65
13.829,-69
13.854,-58
13.879,-39
13.904,-24
13.929,-20
13.954,-28
13.979,-30
14.004,-12
14.029,29
14.054,75
14.079,97
14.104,81
14.129,35
14.154,-14
14.179,-48
14.204,-59
14.229,-49
14.254,-21
14.279,24
14.304,87
14.329,160
14.354,234
14.379,306
14.404,381
14.429,463
14.454,553
14.479,645
14.504,733
14.529,807
14.554,860
14.579,883
14.604,875
14.629,836
14.654,770
14.679,676
14.704,549
14.729,391
14.754,222
14.779,69
14.804,-47
14.829,-128
14.854,-186
14.879,-237
14.904,-286
14.929,-330
14.954,-366
14.979,-387
15.004,-384
15.029,-344
15.054,-265
15.079,-161
15.104,-58
15.129,22
15.154,80
15.179,127
15.204,169
15.229,202
15.254,219
15.279,223
15.304,229
15.329,244
15.354,262
15.379,276
15.404,291
15.429,321
15.454,371
15.479,423
15.504,449
15.529,442
15.554,423
15.579,418
15.604,423
15.629,411
15.654,365
15.679,308
15.704,293
15.729,349
15.754,452
15.779,540
15.804,561
15.829,510
15.854,415
15.879,307
15.904,206
15.929,132
15.954,107
15.979,150
16.004,248
16.029,365
16.054,459
16.079,513
16.104,537
16.129,540
16.154,524
16.179,479
16.204,406
16.229,316
16.254,227
16.279,154
16.304,106
16.329,86
16.354,93
16.379,111
16.404,119
16.429,101
16.454,53
16.479,-17
16.504,-99
16.529,-188
16.554,-275
16.579,-350
16.604,-410
16.629,-460
16.654,-508
16.679,-547
16.704,-559
16.729,-529
16.754,-466
16.779,-405
16.804,-375
16.829,-369
16.854,-353
16.879,-294
16.904,-187
16.929,-58
16.954,62
16.979,166
17.004,259
17.029,355
17.054,455
17.079,551
17.104,627
17.129,678
17.154,706
17.179,724
17.204,739
17.229,746
17.254,732
17.279,692
17.304,637
17.329,594
17.354,580
17.379,593
17.404,615
17.429,634
17.454,651
17.479,670
17.504,681
17.529,664
17.554,606
17.579,516
17.604,415
17.629,321
17.654,240
17.679,175
17.704,131
17.729,110
17.754,100
17.779,84
17.804,52
17.829,16
17.854,-2
17.879,10
17.904,46
17.929,84
17.954,112
17.979,128
18.004,136
18.029,135
18.054,131
18.079,131
18.104,144
18.129,168
18.154,191
18.179,199
18.204,195
18.229,194
18.254,208
18.279,234
18.304,251
18.329,236
18.354,179
18.379,89
18.404,-10
18.429,-91
18.454,-130
18.479,-120
18.504,-75
18.529,-25
18.554,7
18.579,19
18.604,26
18.629,44
18.654,79
18.679,118
18.704,146
18.729,158
18.754,160
18.779,164
18.804,174
18.829,185
18.854,188
18.879,179
18.904,161
18.929,141
18.954,122
18.979,100
19.004,73
19.029,47
19.054,34
19.079,44
19.104,66
19.129,83
19.154,84
19.179,75
19.204,76
19.229,101
19.254,147
19.279,198
19.304,243
19.329,283
19.354,323
19.379,366
19.404,407
19.429,445
19.454,479
19.479,507
19.504,522
19.529,520
19.554,503
19.579,483
19.604,476
19.629,487
19.654,515
19.679,548
19.704,575
19.729,584
19.754,567
19.779,531
19.804,492
19.829,464
19.854,446
19.879,423
19.904,374
19.929,296
19.954,202
19.979,102
20.004,0
20.029,-109
20.054,-216
20.079,-296
20.104,-326
20.129,-300
20.154,-235
20.179,-157
20.204,-89
20.229,-44
20.254,-25
20.279,-27
20.304,-41
20.329,-52
20.354,-51
20.379,-39
20.404,-25
20.429,-12
20.454,4
20.479,29
20.504,62
20.529,93
20.554,115
20.579,130
20.604,139
20.629,141
20.654,132
20.679,116
20.704,106
20.729,120
20.754,159
20.779,205
20.804,238
20.829,250
20.854,248
20.879,244
20.904,242
20.929,240
20.954,241
20.979,254
21.004,296
21.029,368
21.054,453
21.079,521
21.104,549
21.129,540
21.154,519
21.179,512
21.204,522
21.229,530
21.254,509
21.279,454
21.304,385
21.329,330
21.354,301
21.379,286
21.404,265
21.429,233
21.454,204
21.479,189
21.504,190
21.529,192
21.554,182
21.579,162
21.604,144
21.629,142
21.654,160
21.679,195
21.704,235
21.729,263
21.754,271
21.779,263
21.804,256
21.829,261
21.854,269
21.879,255
21.904,202
21.929,117
21.954,33
21.979,-25
22.004,-56
22.029,-74
22.054,-86
22.079,-84
22.104,-60
22.129,-23
22.154,4
22.179,12
22.204,11
22.229,18
22.254,38
22.279,60
22.304,70
22.329,75
22.354,89
22.379,119
22.404,155
22.429,183
22.454,201
22.479,219
22.504,243
22.529,262
22.554,265
22.579,252
22.604,242
22.629,247
22.654,262
22.679,265
22.704,245
22.729,216
22.754,200
22.779,210
22.804,231
22.829,245
22.854,247
22.879,252
22.904,271
22.929,302
22.954,326
22.979,329
23.004,314
23.029,300
23.054,302
23.079,320
23.104,339
23.129,345
23.154,333
23.179,310
23.204,282
23.229,257
23.254,235
23.279,216
23.304,202
23.329,193
23.354,185
23.379,177
23.404,167
23.429,154
23.454,139
23.479,121
23.504,102
23.529,85
23.554,73
23.579,60
23.604,41
23.629,15
23.654,-8
23.679,-16
23.704,0
23.729,39
23.754,87
23.779,132
23.804,169
23.829,199
23.854,226
23.879,247
23.904,264
23.929,284
23.954,317
23.979,360
24.004,399
24.029,417
24.054,409
24.079,387
24.104,365
24.129,351
24.154,339
24.179,322
24.204,303
24.229,286
24.254,274
24.279,263
24.304,248
24.329,230
24.354,216
24.379,210
24.404,206
24.429,194
24.454,171
24.479,145
24.504,126
24.529,113
24.554,98
24.579,78
24.604,61
24.629,56
24.654,60
24.679,57
24.704,34
24.729,-2
24.754,-28
24.779,-20
24.804,21
24.829,76
24.854,119
24.879,147
24.904,172
24.929,203
24.954,239
24.979,267
25.004,278
25.029,277
25.054,275
25.079,277
25.104,283
25.129,290
25.154,296
25.179,300
25.204,299
25.229,293
25.254,284
25.279,279
25.304,278
25.329,276
25.354,267
25.379,251
25.404,237
25.429,228
25.454,220
25.479,205
25.504,183
25.529,159
25.554,142
25.579,130
25.604,119
25.629,112
25.654,117
25.679,137
25.704,153
25.729,140
25.754,93
25.779,39
25.804,18
25.829,47
25.854,105
25.879,157
25.904,185
25.929,196
25.954,209
25.979,230
26.004,248
26.029,249
26.054,235
26.079,215
26.104,199
26.129,190
26.154,190
26.179,202
26.204,224
26.229,248
26.254,262
26.279,266
26.304,268
26.329,273
26.354,279
26.379,278
26.404,270
26.429,263
26.454,264
26.479,269
26.504,268
26.529,257
26.554,244
26.579,237
26.604,228
26.629,208
26.654,173
26.679,140
26.704,129
26.729,145
26.754,179
26.779,218
26.804,259
26.829,300
26.854,332
26.879,339
26.904,309
26.929,256
26.954,206
26.979,176
27.004,167
27.029,166
27.054,161
27.079,152
27.104,143
27.129,135
27.154,125
27.179,114
27.204,102
27.229,91
27.254,79
27.279,67
27.304,63
27.329,75
27.354,98
27.379,115
27.404,111
27.429,88
27.454,65
27.479,64
27.504,89
27.529,129
27.554,166
27.579,195
27.604,218
27.629,242
27.654,267
27.679,289
27.704,303
27.729,310
27.754,313
27.779,316
27.804,321
27.829,326
27.854,327
27.879,319
27.904,298
27.929,269
27.954,237
27.979,209
28.004,187
28.029,169
28.054,152
28.079,134
28.104,117
28.129,101
28.154,84
28.179,67
28.204,48
28.229,29
28.254,15
28.279,14
28.304,29
28.329,58
28.354,88
28.379,109
28.404,120
28.429,128
28.454,144
28.479,175
28.504,220
28.529,270
28.554,317
28.579,353
28.604,377
28.629,398
28.654,421
28.679,450
28.704,475
28.729,482
28.754,465
28.779,429
28.804,390
28.829,358
28.854,330
28.879,293
28.904,243
28.929,189
28.954,145
28.979,116
29.004,95
29.029,71
29.054,40
29.079,10
29.104,-6
29.129,-1
29.154,24
29.179,65
29.204,109
29.229,145
29.254,166
29.279,174
29.304,176
29.329,180
29.354,190
29.379,201
29.404,210
29.429,218
29.454,227
29.479,238
29.504,246
29.529,249
29.554,247
29.579,246
29.604,249
29.629,254
29.654,258
29.679,258
29.704,254
29.729,247
29.754,236
29.779,221
29.804,203
29.829,183
29.854,163
29.879,143
29.904,123
29.929,109
29.954,104
29.979,101
30.004,89
30.029,62
30.054,27
30.079,4
30.104,7
30.129,39
30.154,85
30.179,129
30.204,166
30.229,197
30.254,226
30.279,254
30.304,277
30.329,294
30.354,308
30.379,319
30.404,323
30.429,320
30.454,313
30.479,311
30.504,318
30.529,329
30.554,332
30.579,322
30.604,302
30.629,284
30.654,275
30.679,272
30.704,267
30.729,255
30.754,238
30.779,224
30.804,216
30.829,211
30.854,201
30.879,186
30.904,168
30.929,152
30.954,140
30.979,126
31.004,103
31.029,64
31.054,12
31.079,-45
31.104,-93
31.129,-118
31.154,-108
31.179,-63
31.204,1
31.229,68
31.254,121
31.279,160
31.304,195
31.329,232
31.354,270
31.379,298
31.404,309
31.429,310
31.454,318
31.479,340
31.504,369
31.529,391
31.554,399
31.579,396
31.604,393
31.629,390
31.654,381
31.679,364
31.704,343
31.729,329
31.754,328
31.779,339
31.804,354
31.829,369
31.854,377
31.879,372
31.904,350
31.929,316
31.954,283
31.979,263
32.004,255
32.029,251
32.054,243
32.079,228
32.104,212
32.129,195
32.154,170
32.179,135
32.204,98
32.229,78
32.254,86
32.279,117
32.304,151
32.329,168
32.354,164
32.379,152
32.404,149
32.429,157
32.454,166
32.479,157
32.504,125
32.529,83
32.554,53
32.579,47
32.604,57
32.629,63
32.654,51
32.679,34
32.704,33
32.729,63
32.754,111
32.779,144
32.804,130
32.829,64
32.854,-33
32.879,-127
32.904,-187
32.929,-201
32.954,-181
32.979,-156
33.004,-167
33.029,-237
33.054,-354
33.079,-464
33.104,-491
33.129,-381
33.154,-132
33.179,197
33.204,521
33.229,762
33.254,889
33.279,921
33.304,903
33.329,871
33.354,838
33.379,795
33.404,739
33.429,681
33.454,634
33.479,602
33.504,566
33.529,501
33.554,388
33.579,231
33.604,55
33.629,-96
33.654,-167
33.679,-114
33.704,65
33.729,314
33.754,537
33.779,658
33.804,662
33.829,596
33.854,519
33.879,458
33.904,402
33.929,336
33.954,268
33.979,221
34.004,206
34.029,202
34.054,181
34.079,131
34.104,65
34.129,5
34.154,-41
34.179,-77
34.204,-105
34.229,-118
34.254,-110
34.279,-88
34.304,-69
34.329,-61
34.354,-58
34.379,-54
34.404,-49
34.429,-49
34.454,-48
34.479,-28
34.504,24
34.529,99
34.554,168
34.579,202
34.604,205
34.629,203
34.654,221
34.679,264
34.704,314
34.729,352
34.754,367
34.779,354
34.804,307
34.829,226
34.854,124
34.879,28
34.904,-34
34.929,-52
34.954,-34
34.979,7
35.004,65
35.029,127
35.054,177
35.079,196
35.104,184
35.129,163
35.154,166
35.179,208
35.204,274
35.229,335
35.254,371
35.279,384
35.304,382
35.329,366
35.354,340
35.379,310
35.404,289
35.429,285
35.454,285
35.479,270
35.504,239
35.529,215
35.554,226
35.579,276
35.604,342
35.629,395
35.654,427
35.679,451
35.704,469
35.729,460
35.754,396
35.779,285
35.804,178
35.829,132
35.854,157
35.879,210
35.904,235
35.929,227
35.954,240
35.979,335
36.004,509
36.029,688
36.054,777
36.079,739
36.104,613
36.129,475
36.154,369
36.179,289
36.204,212
36.229,134
36.254,66
36.279,3
36.304,-99
36.329,-284
36.354,-540
36.379,-787
36.404,-929
36.429,-928
36.454,-824
36.479,-693
36.504,-577
36.529,-464
36.554,-329
36.579,-174
36.604,-39
36.629,44
36.654,84
36.679,118
36.704,170
36.729,236
36.754,295
36.779,346
36.804,407
36.829,488
36.854,571
36.879,620
36.904,618
36.929,588
36.954,565
36.979,561
37.004,551
37.029,506
37.054,423
37.079,337
37.104,282
37.129,261
37.154,243
37.179,201
37.204,143
37.229,103
37.254,111
37.279,165
37.304,239
37.329,310
37.354,378
37.379,453
37.404,537
37.429,616
37.454,677
37.479,716
37.504,745
37.529,770
37.554,774
37.579,734
37.604,637
37.629,495
37.654,343
37.679,211
37.704,113
37.729,43
37.754,-5
37.779,-43
37.804,-75
37.829,-105
37.854,-138
37.879,-172
37.904,-200
37.929,-219
37.954,-230
37.979,-235
38.004,-235
38.029,-229
38.054,-214
38.079,-195
38.104,-177
38.129,-167
38.154,-170
38.179,-184
38.204,-200
38.229,-204
38.254,-180
38.279,-123
38.304,-45
38.329,31
38.354,84
38.379,107
38.404,105
38.429,92
38.454,84
38.479,92
38.504,114
38.529,141
38.554,154
38.579,152
38.604,150
38.629,175
38.654,240
38.679,326
38.704,405
38.729,461
38.754,508
38.779,569
38.804,645
38.829,710
38.854,746
38.879,761
38.904,784
38.929,834
38.954,896
38.979,938
39.004,951
39.029,955
39.054,970
39.079,972
39.104,901
39.129,710
39.154,416
39.179,107
39.204,-109
39.229,-181
39.254,-130
39.279,-26
39.304,73
39.329,154
39.354,227
39.379,292
39.404,317
39.429,273
39.454,171
39.479,70
39.504,29
39.529,48
39.554,68
39.579,24
39.604,-79
39.629,-175
39.654,-196
39.679,-149
39.704,-106
39.729,-133
39.754,-225
39.779,-313
39.804,-333
39.829,-283
39.854,-208
39.879,-148
39.904,-105
39.929,-56
39.954,6
39.979,68
40.004,113
40.029,144
40.054,174
40.079,209
40.104,237
40.129,248
40.154,248
40.179,247
40.204,249
40.229,244
40.254,227
40.279,203
40.304,185
40.329,181
40.354,193
40.379,217
40.404,251
40.429,289
40.454,321
40.479,334
40.504,330
40.529,324
40.554,326
40.579,327
40.604,313
40.629,276
40.654,232
40.679,203
40.704,195
40.729,195
40.754,187
40.779,171
40.804,159
40.829,160
40.854,175
40.879,198
40.904,225
40.929,250
40.954,256
40.979,229
41.004,175
41.029,127
41.054,123
41.079,174
41.104,254
41.129,321
41.154,357
41.179,372
41.204,387
41.229,406
41.254,415
41.279,402
41.304,372
41.329,346
41.354,337
41.379,343
41.404,352
41.429,355
41.454,349
41.479,333
41.504,302
41.529,259
41.554,210
41.579,169
41.604,142
41.629,124
41.654,104
41.679,78
41.704,56
41.729,48
41.754,63
41.779,93
41.804,127
41.829,155
41.854,174
41.879,193
41.904,216
41.929,236
41.954,239
41.979,218
42.004,189
42.029,177
42.054,197
42.079,233
42.104,251
42.129,235
42.154,203
42.179,182
42.204,182
42.229,184
42.254,173
42.279,163
42.304,186
42.329,239
42.354,265
42.379,200
42.404,41
42.429,-119
42.454,-167
42.479,-53
42.504,157
42.529,347
42.554,437
42.579,433
42.604,388
42.629,337
42.654,283
42.679,214
42.704,142
42.729,97
42.754,94
42.779,120
42.804,153
42.829,183
42.854,212
42.879,240
42.904,258
42.929,253
42.954,231
42.979,212
43.004,209
43.029,220
43.054,233
43.079,247
43.104,265
43.129,284
43.154,290
43.179,270
43.204,232
43.229,202
43.254,200
43.279,223
43.304,245
43.329,246
43.354,229
43.379,210
43.404,198
43.429,186
43.454,162
43.479,127
43.504,98
43.529,90
43.554,105
43.579,130
43.604,146
43.629,147
43.654,135
43.679,120
43.704,109
43.729,104
43.754,102
43.779,99
43.804,94
43.829,93
43.854,102
43.879,125
43.904,158
43.929,194
43.954,227
43.979,254
44.004,271
44.029,272
44.054,254
44.079,225
44.104,205
44.129,212
44.154,247
44.179,297
44.204,341
44.229,365
44.254,372
44.279,367
44.304,358
44.329,345
44.354,332
44.379,320
44.404,314
44.429,313
44.454,311
44.479,305
44.504,293
44.529,276
44.554,258
44.579,241
44.604,225
44.629,211
44.654,194
44.679,173
44.704,148
44.729,125
44.754,110
44.779,103
44.804,102
44.829,101
44.854,97
44.879,91
44.904,84
44.929,74
44.954,55
44.979,24
45.004,-7
45.029,-24
45.054,-11
45.079,30
45.104,85
45.129,132
45.154,163
45.179,184
45.204,206
45.229,234
45.254,262
45.279,280
45.304,286
45.329,287
45.354,291
45.379,296
45.404,297
45.429,292
45.454,285
45.479,282
45.504,284
45.529,285
45.554,281
45.579,275
45.604,270
45.629,266
45.654,257
45.679,238
45.704,216
45.729,199
45.754,190
45.779,185
45.804,176
45.829,163
45.854,152
45.879,143
45.904,129
45.929,101
45.954,65
45.979,41
46.004,47
46.029,83
46.054,129
46.079,163
46.104,180
46.129,189
46.154,202
46.179,217
46.204,228
46.229,231
46.254,230
46.279,232
46.304,238
46.329,242
46.354,241
46.379,238
46.404,240
46.429,249
46.454,260
46.479,268
46.504,269
46.529,268
46.554,265
46.579,260
46.604,254
46.629,246
46.654,240
46.679,233
46.704,224
46.729,212
46.754,198
46.779,182
46.804,159
46.829,124
46.854,78
46.879,35
46.904,14
46.929,26
46.954,63
46.979,103
47.004,131
47.029,146
47.054,154
47.079,165
47.104,179
47.129,190
47.154,197
47.179,203
47.204,212
47.229,226
47.254,243
47.279,260
47.304,276
47.329,290
47.354,299
47.379,303
47.404,302
47.429,299
47.454,296
47.479,293
47.504,287
47.529,282
47.554,279
47.579,279
47.604,276
47.629,263
47.654,238
47.679,211
47.704,193
47.729,193
47.754,214
47.779,251
47.804,293
47.829,328
47.854,342
47.879,331
47.904,300
47.929,264
47.954,237
47.979,220
48.004,209
48.029,194
48.054,178
48.079,162
48.104,149
48.129,133
48.154,112
48.179,89
48.204,73
48.229,66
48.254,63
48.279,57
48.304,47
48.329,40
48.354,39
48.379,38
48.404,28
48.429,13
48.454,9
48.479,32
48.504,83
48.529,143
48.554,190
48.579,213
48.604,219
48.629,220
48.654,217
48.679,209
48.704,194
48.729,180
48.754,178
48.779,188
48.804,205
48.829,223
48.854,248
48.879,288
48.904,344
48.929,402
48.954,442
48.979,453
49.004,439
49.029,408
49.054,364
49.079,303
49.104,228
49.129,158
49.154,118
49.179,123
49.204,160
49.229,197
49.254,210
49.279,202
49.304,190
49.329,189
49.354,198
49.379,203
49.404,198
49.429,191
49.454,192
49.479,199
49.504,203
49.529,195
49.554,179
49.579,163
49.604,153
49.629,144
49.654,130
49.679,117
49.704,113
49.729,118
49.754,122
49.779,116
49.804,102
49.829,95
49.854,111
49.879,147
49.904,190
49.929,223
49.954,245
49.979,265
50.004,290
50.029,314
50.054,325
50.079,319
50.104,300
50.129,282
50.154,279
50.179,290
50.204,308
50.229,321
50.254,321
50.279,308
50.304,287
50.329,262
50.354,237
50.379,210
50.404,185
50.429,163
50.454,142
50.479,119
50.504,91
50.529,65
50.554,54
50.579,67
50.604,99
50.629,135
50.654,159
50.679,169
50.704,173
50.729,180
50.754,191
50.779,205
50.804,222
50.829,242
50.854,262
50.879,274
50.904,273
50.929,266
50.954,261
50.979,264
51.004,265
51.029,256
51.054,234
51.079,211
51.104,198
51.129,193
51.154,187
51.179,171
51.204,152
51.229,140
51.254,134
51.279,123
51.304,94
51.329,49
51.354,8
51.379,-2
51.404,24
51.429,78
51.454,134
51.479,175
51.504,199
51.529,214
51.554,230
51.579,250
51.604,272
51.629,293
51.654,309
51.679,316
51.704,313
51.729,302
51.754,291
51.779,287
51.804,290
51.829,286
51.854,268
51.879,236
51.904,207
51.929,194
51.954,198
51.979,205
52.004,208
52.029,208
52.054,212
52.079,219
52.104,217
52.129,197
52.154,169
52.179,151
52.204,151
52.229,155
52.254,140
52.279,101
52.304,58
52.329,37
52.354,44
52.379,65
52.404,82
52.429,88
52.454,93
52.479,103
52.504,116
52.529,127
52.554,135
52.579,141
52.604,144
52.629,147
52.654,156
52.679,187
52.704,241
52.729,300
52.754,330
52.779,315
52.804,274
52.829,244
52.854,248
52.879,275
52.904,297
52.929,300
52.954,293
52.979,290
53.004,291
53.029,286
53.054,272
53.079,261
53.104,266
53.129,282
53.154,289
53.179,275
53.204,247
53.229,226
53.254,222
53.279,233
53.304,246
53.329,258
53.354,271
53.379,282
53.404,280
53.429,261
53.454,234
53.479,220
53.504,226
53.529,242
53.554,251
53.579,250
53.604,249
53.629,261
53.654,278
53.679,284
53.704,270
53.729,249
53.754,239
53.779,247
53.804,261
53.829,267
53.854,264
53.879,262
53.904,265
53.929,259
53.954,225
53.979,160
54.004,82
54.029,17
54.054,-24
54.079,-53
54.104,-78
54.129,-94
54.154,-87
54.179,-52
54.204,-1
54.229,40
54.254,59
54.279,61
54.304,65
54.329,81
54.354,108
54.379,132
54.404,143
54.429,140
54.454,134
54.479,136
54.504,153
54.529,181
54.554,211
54.579,234
54.604,252
54.629,273
54.654,301
54.679,330
54.704,341
54.729,326
54.754,296
54.779,275
54.804,276
54.829,287
54.854,289
54.879,273
54.904,254
54.929,245
54.954,245
54.979,233
55.004,203
55.029,175
55.054,182
55.079,233
55.104,304
55.129,354
55.154,365
55.179,349
55.204,324
55.229,294
55.254,247
55.279,189
55.304,145
55.329,140
55.354,165
55.379,186
55.404,180
55.429,163
55.454,170
55.479,211
55.504,253
55.529,256
55.554,216
55.579,173
55.604,167
55.629,195
55.654,218
55.679,205
55.704,164
55.729,126
55.754,106
55.779,88
55.804,54
55.829,12
55.854,-5
55.879,24
55.904,97
55.929,185
55.954,268
55.979,340
56.004,406
56.029,465
56.054,511
56.079,541
56.104,559
56.129,562
56.154,539
56.179,484
56.204,409
56.229,343
56.254,307
56.279,295
56.304,281
56.329,236
56.354,157
56.379,66
56.404,-6
56.429,-36
56.454,-28
56.479,-10
56.504,-22
56.529,-81
56.554,-162
56.579,-215
56.604,-204
56.629,-146
56.654,-88
56.679,-64
56.704,-50
56.729,-3
56.754,92
56.779,192
56.804,238
56.829,218
56.854,184
56.879,193
56.904,252
56.929,314
56.954,334
56.979,318
57.004,301
57.029,299
57.054,292
57.079,260
57.104,216
57.129,200
57.154,224
57.179,249
57.204,219
57.229,130
57.254,46
57.279,41
57.304,135
57.329,274
57.354,384
57.379,435
57.404,456
57.429,491
57.454,552
57.479,610
57.504,623
57.529,573
57.554,477
57.579,375
57.604,307
57.629,290
57.654,309
57.679,331
57.704,325
57.729,284
57.754,229
57.779,184
57.804,160
57.829,144
57.854,116
57.879,76
57.904,44
57.929,40
57.954,69
57.979,111
58.004,145
58.029,162
58.054,174
58.079,199
58.104,238
58.129,276
58.154,293
58.179,287
58.204,273
58.229,265
58.254,256
58.279,223
58.304,151
58.329,55
58.354,-24
58.379,-61
58.404,-57
58.429,-37
58.454,-25
58.479,-20
58.504,-11
58.529,0
58.554,3
58.579,-7
58.604,-16
58.629,3
58.654,62
58.679,140
58.704,205
58.729,241
58.754,259
58.779,281
58.804,315
58.829,352
58.854,378
58.879,391
58.904,400
58.929,415
58.954,433
58.979,446
59.004,446
59.029,433
59.054,415
59.079,397
59.104,381
59.129,359
59.154,323
59.179,275
59.204,222
59.229,174
59.254,132
59.279,87
59.304,36
59.329,-16
59.354,-60
59.379,-94
59.404,-124
59.429,-155
59.454,-171
59.479,-147
59.504,-77
59.529,15
59.554,89
59.579,118
59.604,116
59.629,115
59.654,138
59.679,177
59.704,218
59.729,256
59.754,304
59.779,369
59.804,439
59.829,486
59.854,497
59.879,482
59.904,463
59.929,451
59.954,436
59.979,405
60.004,356
60.029,306
60.054,270
60.079,252
60.104,240
60.129,219
60.154,186
60.179,155
60.204,143
60.229,155
60.254,183
60.279,208
60.304,220
60.329,220
60.354,216
60.379,206
60.404,182
60.429,136
60.454,79
60.479,33
60.504,20
60.529,40
60.554,72
60.579,97
60.604,109
60.629,113
60.654,118
60.679,123
60.704,124
60.729,121
60.754,119
60.779,124
60.804,138
60.829,163
60.854,203
60.879,259
60.904,324
60.929,380
60.954,413
60.979,417
61.004,402
61.029,378
61.054,349
61.079,317
61.104,286
61.129,262
61.154,251
61.179,245
61.204,235
61.229,220
61.254,208
61.279,205
61.304,208
61.329,200
61.354,173
61.379,136
61.404,109
61.429,111
61.454,140
61.479,178
61.504,207
61.529,219
61.554,218
61.579,206
61.604,185
61.629,157
61.654,131
61.679,116
61.704,120
61.729,137
61.754,157
61.779,174
61.804,186
61.829,194
61.854,199
61.879,198
61.904,193
61.929,186
61.954,183
61.979,186
62.004,192
62.029,196
62.054,194
62.079,188
62.104,179
62.129,168
62.154,156
62.179,142
62.204,126
62.229,109
62.254,91
62.279,72
62.304,55
62.329,43
62.354,43
62.379,63
62.404,102
62.429,154
62.454,206
62.479,248
62.504,278
62.529,301
62.554,323
62.579,341
62.604,350
62.629,345
62.654,331
62.679,321
62.704,319
62.729,326
62.754,336
62.779,345
62.804,348
62.829,344
62.854,329
62.879,306
62.904,282
62.929,266
62.954,256
62.979,247
63.004,232
63.029,211
63.054,191
63.079,169
63.104,135
63.129,78
63.154,6
63.179,-57
63.204,-89
63.229,-81
63.254,-49
63.279,-17
63.304,6
63.329,27
63.354,60
63.379,111
63.404,174
63.429,235
63.454,288
63.479,332
63.504,372
63.529,407
63.554,431
63.579,437
63.604,422
63.629,396
63.654,369
63.679,350
63.704,335
63.729,318
63.754,299
63.779,284
63.804,276
63.829,268
63.854,247
63.879,209
63.904,169
63.929,147
63.954,152
63.979,170
64.004,182
64.029,179
64.054,169
64.079,162
64.104,158
64.129,152
64.154,142
64.179,137
64.204,145
64.229,161
64.254,172
64.279,171
64.304,163
64.329,159
64.354,159
64.379,154
64.404,140
64.429,126
64.454,123
64.479,131
64.504,131
64.529,110
64.554,78
64.579,59
64.604,73
64.629,112
64.654,154
64.679,184
64.704,207
64.729,234
64.754,268
64.779,294
64.804,302
64.829,296
64.854,290
64.879,289
64.904,287
64.929,278
64.954,267
64.979,262
65.004,266
65.029,263
65.054,245
65.079,214
65.104,185
65.129,165
65.154,148
65.179,123
65.204,96
65.229,89
65.254,115
65.279,165
65.304,210
65.329,228
65.354,225
65.379,224
65.404,236
65.429,254
65.454,263
65.479,255
65.504,240
65.529,228
65.554,220
65.579,213
65.604,204
65.629,192
65.654,176
65.679,150
65.704,115
65.729,79
65.754,51
65.779,33
65.804,14
65.829,-11
65.854,-34
65.879,-34
65.904,-3
65.929,45
65.954,89
65.979,119
66.004,148
66.029,190
66.054,242
66.079,283
66.104,300
66.129,303
66.154,317
66.179,354
66.204,398
66.229,429
66.254,442
66.279,450
66.304,467
66.329,485
66.354,483
66.379,454
66.404,412
66.429,383
66.454,368
66.479,343
66.504,281
66.529,186
66.554,94
66.579,46
66.604,52
66.629,84
66.654,105
66.679,98
66.704,80
66.729,84
66.754,129
66.779,207
66.804,286
66.829,343
66.854,370
66.879,378
66.904,376
66.929,366
66.954,338
66.979,291
67.004,234
67.029,186
67.054,164
67.079,167
67.104,181
67.129,189
67.154,179
67.179,152
67.204,117
67.229,94
67.254,94
67.279,120
67.304,159
67.329,193
67.354,210
67.379,208
67.404,197
67.429,186
67.454,181
67.479,182
67.504,185
67.529,185
67.554,173
67.579,148
67.604,115
67.629,88
67.654,72
67.679,59
67.704,36
67.729,0
67.754,-31
67.779,-35
67.804,-3
67.829,50
67.854,98
67.879,121
67.904,120
67.929,110
67.954,107
67.979,119
68.004,146
68.029,181
68.054,217
68.079,249
68.104,275
68.129,298
68.154,321
68.179,344
68.204,362
68.229,373
68.254,381
68.279,389
68.304,400
68.329,412
68.354,418
68.379,419
68.404,414
68.429,401
68.454,380
68.479,353
68.504,329
68.529,315
68.554,313
68.579,314
68.604,313
68.629,314
68.654,318
68.679,321
68.704,306
68.729,266
68.754,212
68.779,169
68.804,150
68.829,145
68.854,129
68.879,91
68.904,46
68.929,20
68.954,24
68.979,44
69.004,56
69.029,48
69.054,31
69.079,22
69.104,25
69.129,28
69.154,23
69.179,12
69.204,13
69.229,35
69.254,69
69.279,94
69.304,95
69.329,77
69.354,54
69.379,33
69.404,16
69.429,5
69.454,8
69.479,33
69.504,74
69.529,114
69.554,138
69.579,150
69.604,165
69.629,192
69.654,216
69.679,217
69.704,201
69.729,197
69.754,238
69.779,322
69.804,415
69.829,477
69.854,494
69.879,484
69.904,466
69.929,454
69.954,451
69.979,463
70.004,497
70.029,546
70.054,583
70.079,583
70.104,551
70.129,520
70.154,520
70.179,551
70.204,582
70.229,579
70.254,535
70.279,469
70.304,401
70.329,337
70.354,269
70.379,193
70.404,112
70.429,32
70.454,-45
70.479,-117
70.504,-176
70.529,-205
70.554,-198
70.579,-165
70.604,-131
70.629,-117
70.654,-123
70.679,-130
70.704,-117
70.729,-80
70.754,-31
70.779,11
70.804,41
70.829,62
70.854,84
70.879,112
70.904,141
70.929,165
70.954,183
70.979,202
71.004,229
71.029,261
71.054,286
71.079,299
71.104,302
71.129,306
71.154,319
71.179,342
71.204,364
71.229,374
71.254,370
71.279,357
71.304,345
71.329,340
71.354,342
71.379,346
71.404,351
71.429,359
71.454,370
71.479,381
71.504,378
71.529,352
71.554,306
71.579,258
71.604,228
71.629,224
71.654,232
71.679,232
71.704,210
71.729,170
71.754,127
71.779,93
71.804,73
71.829,65
71.854,67
71.879,75
71.904,85
71.929,87
71.954,79
71.979,63
72.004,46
72.029,38
72.054,42
72.079,59
72.104,85
72.129,109
72.154,122
72.179,123
72.204,118
72.229,116
72.254,119
72.279,119
72.304,111
72.329,97
72.354,88
72.379,87
72.404,87
72.429,76
72.454,53
72.479,34
72.504,39
72.529,72
72.554,122
72.579,178
72.604,237
72.629,303
72.654,370
72.679,427
72.704,464
72.729,492
72.754,524
72.779,559
72.804,571
72.829,530
72.854,435
72.879,327
72.904,256
72.929,244
72.954,268
72.979,287
73.004,281
73.029,264
73.054,261
73.079,281
73.104,308
73.129,321
73.154,319
73.179,320
73.204,340
73.229,372
73.254,389
73.279,366
73.304,300
73.329,216
73.354,147
73.379,112
73.404,113
73.429,137
73.454,166
73.479,188
73.504,192
73.529,181
73.554,164
73.579,153
73.604,151
73.629,154
73.654,152
73.679,145
73.704,145
73.729,161
73.754,187
73.779,209
73.804,216
73.829,215
73.854,220
73.879,238
73.904,259
73.929,267
73.954,256
73.979,238
74.004,228
74.029,227
74.054,228
74.079,219
74.104,196
74.129,165
74.154,129
74.179,93
74.204,65
74.229,57
74.254,72
74.279,99
74.304,117
74.329,115
74.354,102
74.379,100
74.404,118
74.429,141
74.454,146
74.479,123
74.504,88
74.529,66
74.554,64
74.579,73
74.604,72
74.629,53
74.654,21
74.679,-13
74.704,-43
74.729,-58
74.754,-49
74.779,-17
74.804,23
74.829,51
74.854,59
74.879,62
74.904,85
74.929,132
74.954,179
74.979,192
75.004,164
75.029,129
75.054,129
75.079,181
75.104,264
75.129,340
75.154,394
75.179,439
75.204,497
75.229,573
75.254,648
75.279,695
75.304,704
75.329,677
75.354,630
75.379,580
75.404,539
75.429,514
75.454,500
75.479,482
75.504,450
75.529,406
75.554,367
75.579,343
75.604,327
75.629,296
75.654,235
75.679,153
75.704,79
75.729,38
75.754,31
75.779,34
75.804,23
75.829,-5
75.854,-35
75.879,-48
75.904,-37
75.929,-11
75.954,17
75.979,45
76.004,73
76.029,98
76.054,113
76.079,114
76.104,105
76.129,101
76.154,115
76.179,149
76.204,194
76.229,237
76.254,278
76.279,319
76.304,363
76.329,405
76.354,438
76.379,452
76.404,439
76.429,397
76.454,330
76.479,253
76.504,193
76.529,169
76.554,180
76.579,197
76.604,191
76.629,156
76.654,116
76.679,106
76.704,138
76.729,186
76.754,207
76.779,176
76.804,103
76.829,29
76.854,-7
76.879,9
76.904,66
76.929,135
76.954,189
76.979,215
77.004,211
77.029,189
77.054,168
77.079,161
77.104,174
77.129,197
77.154,216
77.179,220
77.204,216
77.229,216
77.254,234
77.279,261
77.304,277
77.329,263
77.354,221
77.379,176
77.404,155
77.429,170
77.454,209
77.479,252
77.504,283
77.529,302
77.554,313
77.579,311
77.604,287
77.629,233
77.654,156
77.679,80
77.704,28
77.729,14
77.754,33
77.779,70
77.804,116
77.829,168
77.854,221
77.879,267
77.904,291
77.929,288
77.954,267
77.979,249
78.004,248
78.029,257
78.054,259
78.079,241
78.104,210
78.129,185
78.154,179
78.179,184
78.204,181
78.229,160
78.254,133
78.279,116
78.304,119
78.329,132
78.354,139
78.379,136
78.404,132
78.429,135
78.454,146
78.479,160
78.504,176
78.529,201
78.554,237
78.579,275
78.604,298
78.629,297
78.654,279
78.679,262
78.704,258
78.729,266
78.754,275
78.779,274
78.804,258
78.829,226
78.854,180
78.879,127
78.904,86
78.929,80
78.954,116
78.979,183
79.004,258
79.029,318
79.054,358
79.079,383
79.104,399
79.129,406
79.154,398
79.179,374
79.204,346
79.229,325
79.254,322
79.279,333
79.304,346
79.329,348
79.354,334
79.379,311
79.404,286
79.429,267
79.454,252
79.479,234
79.504,207
79.529,174
79.554,147
79.579,132
79.604,127
79.629,124
79.654,119
79.679,114
79.704,113
79.729,112
79.754,102
79.779,80
79.804,57
79.829,45
79.854,45
79.879,43
79.904,27
79.929,0
79.954,-14
79.979,0
80.004,41
80.029,86
80.054,115
80.079,127
80.104,139
80.129,167
80.154,210
80.179,250
80.204,277
80.229,288
80.254,293
80.279,296
80.304,300
80.329,302
80.354,304
80.379,305
80.404,301
80.429,287
80.454,265
80.479,243
80.504,235
80.529,248
80.554,276
80.579,300
80.604,302
80.629,273
80.654,223
80.679,173
80.704,147
80.729,150
80.754,166
80.779,171
80.804,155
80.829,126
80.854,100
80.879,83
80.904,66
80.929,37
80.954,5
80.979,-3
81.004,26
81.029,90
81.054,159
81.079,215
81.104,257
81.129,300
81.154,350
81.179,390
81.204,400
81.229,378
81.254,338
81.279,300
81.304,273
81.329,251
81.354,233
81.379,227
81.404,237
81.429,257
81.454,274
81.479,274
81.504,263
81.529,255
81.554,257
81.579,260
81.604,253
81.629,230
81.654,203
81.679,186
81.704,185
81.729,189
81.754,188
81.779,178
81.804,168
81.829,171
81.854,183
81.879,191
81.904,179
81.929,147
81.954,105
81.979,72
82.004,59
82.029,63
82.054,80
82.079,105
82.104,139
82.129,182
82.154,225
82.179,260
82.204,282
82.229,293
82.254,298
82.279,301
82.304,308
82.329,321
82.354,342
82.379,363
82.404,375
82.429,367
82.454,343
82.479,312
82.504,283
82.529,257
82.554,231
82.579,208
82.604,190
82.629,176
82.654,161
82.679,137
82.704,109
82.729,84
82.754,68
82.779,52
82.804,27
82.829,-7
82.854,-33
82.879,-32
82.904,-2
82.929,39
82.954,72
82.979,91
83.004,101
83.029,113
83.054,130
83.079,150
83.104,170
83.129,189
83.154,207
83.179,220
83.204,227
83.229,233
83.254,242
83.279,249
83.304,244
83.329,225
83.354,207
83.379,210
83.404,243
83.429,289
83.454,318
83.479,316
83.504,295
83.529,279
83.554,283
83.579,295
83.604,294
83.629,268
83.654,230
83.679,206
83.704,213
83.729,243
83.754,277
83.779,299
83.804,311
83.829,327
83.854,351
83.879,376
83.904,388
83.929,390
83.954,397
83.979,421
84.004,452
84.029,455
84.054,410
84.079,327
84.104,243
84.129,189
84.154,162
84.179,137
84.204,96
84.229,47
84.254,11
84.279,1
84.304,6
84.329,11
84.354,13
84.379,17
84.404,27
84.429,33
84.454,24
84.479,1
84.504,-17
84.529,-13
84.554,18
84.579,67
84.604,119
84.629,167
84.654,214
84.679,261
84.704,304
84.729,336
84.754,353
84.779,356
84.804,351
84.829,343
84.854,334
84.879,322
84.904,305
84.929,284
84.954,263
84.979,246
85.004,229
85.029,211
85.054,191
85.079,179
85.104,180
85.129,188
85.154,189
85.179,177
85.204,170
85.229,192
85.254,247
85.279,299
85.304,296
85.329,208
85.354,70
85.379,-46
85.404,-79
85.429,-23
85.454,77
85.479,162
85.504,200
85.529,198
85.554,181
85.579,171
85.604,179
85.629,200
85.654,225
85.679,242
85.704,245
85.729,237
85.754,225
85.779,220
85.804,229
85.829,250
85.854,277
85.879,306
85.904,330
85.929,344
85.954,346
85.979,338
86.004,326
86.029,312
86.054,294
86.079,275
86.104,259
86.129,255
86.154,263
86.179,267
86.204,250
86.229,210
86.254,162
86.279,131
86.304,131
86.329,150
86.354,170
86.379,177
86.404,173
86.429,166
86.454,162
86.479,159
86.504,154
86.529,151
86.554,153
86.579,159
86.604,164
86.629,162
86.654,155
86.679,146
86.704,141
86.729,140
86.754,142
86.779,146
86.804,147
86.829,142
86.854,129
86.879,120
86.904,133
86.929,178
86.954,251
86.979,328
87.004,388
87.029,421
87.054,431
87.079,420
87.104,384
87.129,316
87.154,230
87.179,152
87.204,113
87.229,120
87.254,154
87.279,191
87.304,216
87.329,233
87.354,249
87.379,263
87.404,268
87.429,262
87.454,248
87.479,233
87.504,221
87.529,207
87.554,194
87.579,186
87.604,185
87.629,184
87.654,171
87.679,141
87.704,104
87.729,79
87.754,76
87.779,93
87.804,118
87.829,143
87.854,166
87.879,188
87.904,209
87.929,223
87.954,225
87.979,213
88.004,186
88.029,145
88.054,94
88.079,49
88.104,26
88.129,38
88.154,81
88.179,142
88.204,201
88.229,252
88.254,294
88.279,329
88.304,355
88.329,365
88.354,355
88.379,331
88.404,306
88.429,296
88.454,305
88.479,321
88.504,327
88.529,313
88.554,284
88.579,254
88.604,230
88.629,211
88.654,188
88.679,161
88.704,136
88.729,121
88.754,116
88.779,115
88.804,118
88.829,130
88.854,152
88.879,171
88.904,165
88.929,134
88.954,99
88.979,93
89.004,129
89.029,185
89.054,230
89.079,245
89.104,238
89.129,232
89.154,237
89.179,250
89.204,260
89.229,269
89.254,279
89.279,292
89.304,305
89.329,314
89.354,317
89.379,318
89.404,316
89.429,312
89.454,307
89.479,307
89.504,311
89.529,311
89.554,296
89.579,267
89.604,234
89.629,207
89.654,182
89.679,147
89.704,96
89.729,48
89.754,30
89.779,56
89.804,116
89.829,181
89.854,226
89.879,248
89.904,255
89.929,258
89.954,259
89.979,254
90.004,241
90.029,224
90.054,211
90.079,204
90.104,200
90.129,191
90.154,176
90.179,155
90.204,131
90.229,105
90.254,73
90.279,33
90.304,-8
90.329,-41
90.354,-60
90.379,-68
90.404,-73
90.429,-74
90.454,-60
90.479,-20
90.504,42
90.529,109
90.554,162
90.579,201
90.604,240
90.629,292
90.654,346
90.679,383
90.704,390
90.729,379
90.754,375
90.779,391
90.804,420
90.829,443
90.854,450
90.879,449
90.904,453
90.929,463
90.954,459
90.979,423
91.004,354
91.029,269
91.054,191
91.079,128
91.104,77
91.129,31
91.154,-2
91.179,-10
91.204,13
91.229,62
91.254,111
91.279,145
91.304,164
91.329,184
91.354,215
91.379,250
91.404,271
91.429,268
91.454,248
91.479,228
91.504,220
91.529,223
91.554,227
91.579,230
91.604,236
91.629,250
91.654,266
91.679,272
91.704,259
91.729,233
91.754,206
91.779,181
91.804,146
91.829,88
91.854,12
91.879,-57
91.904,-90
91.929,-77
91.954,-38
91.979,-1
92.004,19
92.029,31
92.054,52
92.079,90
92.104,138
92.129,187
92.154,233
92.179,278
92.204,319
92.229,349
92.254,361
92.279,357
92.304,348
92.329,344
92.354,345
92.379,350
92.404,361
92.429,382
92.454,410
92.479,426
92.504,413
92.529,366
92.554,306
92.579,261
92.604,247
92.629,258
92.654,277
92.679,289
92.704,292
92.729,289
92.754,281
92.779,266
92.804,246
92.829,232
92.854,235
92.879,259
92.904,294
92.929,323
92.954,334
92.979,318
93.004,281
93.029,235
93.054,194
93.079,169
93.104,166
93.129,178
93.154,193
93.179,200
93.204,193
93.229,175
93.254,154
93.279,140
93.304,137
93.329,135
93.354,124
93.379,99
93.404,66
93.429,39
93.454,27
93.479,24
93.504,21
93.529,15
93.554,14
93.579,29
93.604,55
93.629,81
93.654,96
93.679,109
93.704,136
93.729,183
93.754,234
93.779,268
93.804,273
93.829,262
93.854,256
93.879,261
93.904,266
93.929,259
93.954,239
93.979,219
94.004,209
94.029,209
94.054,212
94.079,214
94.104,215
94.129,213
94.154,200
94.179,175
94.204,145
94.229,126
94.254,126
94.279,140
94.304,151
94.329,151
94.354,141
94.379,130
94.404,118
94.429,98
94.454,69
94.479,45
94.504,48
94.529,98
94.554,185
94.579,280
94.604,349
94.629,377
94.654,373
94.679,364
94.704,366
94.729,379
94.754,393
94.779,402
94.804,413
94.829,430
94.854,448
94.879,447
94.904,414
94.929,362
94.954,314
94.979,285
95.004,265
95.029,237
95.054,202
95.079,191
95.104,222
95.129,279
95.154,303
95.179,250
95.204,124
95.229,-20
95.254,-126
95.279,-175
95.304,-186
95.329,-184
95.354,-171
95.379,-134
95.404,-68
95.429,13
95.454,92
95.479,158
95.504,210
95.529,247
95.554,268
95.579,276
95.604,285
95.629,303
95.654,326
95.679,337
95.704,330
95.729,314
95.754,308
95.779,319
95.804,335
95.829,346
95.854,351
95.879,360
95.904,374
95.929,381
95.954,366
95.979,329
96.004,287
96.029,261
96.054,257
96.079,264
96.104,270
96.129,268
96.154,263
96.179,259
96.204,260
96.229,266
96.254,277
96.279,290
96.304,298
96.329,295
96.354,282
96.379,263
96.404,243
96.429,228
96.454,221
96.479,220
96.504,219
96.529,211
96.554,189
96.579,156
96.604,125
96.629,108
96.654,106
96.679,107
96.704,101
96.729,88
96.754,75
96.779,70
96.804,71
96.829,72
96.854,70
96.879,66
96.904,60
96.929,53
96.954,46
96.979,40
97.004,36
97.029,30
97.054,19
97.079,2
97.104,-7
97.129,-4
97.154,4
97.179,6
97.204,-3
97.229,-10
97.254,16
97.279,88
97.304,191
97.329,293
97.354,372
97.379,430
97.404,475
97.429,512
97.454,532
97.479,533
97.504,522
97.529,511
97.554,504
97.579,492
97.604,464
97.629,420
97.654,369
97.679,322
97.704,281
97.729,249
97.754,225
97.779,205
97.804,185
97.829,160
97.854,136
97.879,121
97.904,119
97.929,121
97.954,115
97.979,103
98.004,105
98.029,137
98.054,198
98.079,260
98.104,295
98.129,297
98.154,286
98.179,281
98.204,286
98.229,289
98.254,280
98.279,262
98.304,244
98.329,229
98.354,213
98.379,190
98.404,163
98.429,143
98.454,133
98.479,124
98.504,109
98.529,88
98.554,68
98.579,59
98.604,55
98.629,42
98.654,13
98.679,-25
98.704,-50
98.729,-46
98.754,-13
98.779,29
98.804,65
98.829,88
98.854,103
98.879,119
98.904,134
98.929,143
98.954,146
98.979,152
99.004,172
99.029,204
99.054,237
99.079,262
99.104,277
99.129,289
99.154,301
99.179,309
99.204,311
99.229,309
99.254,313
99.279,324
99.304,340
99.329,355
99.354,367
99.379,381
99.404,394
99.429,391
99.454,358
99.479,296
99.504,222
99.529,159
99.554,122
99.579,111
99.604,120
99.629,139
99.654,162
99.679,181
99.704,196
99.729,212
99.754,234
99.779,258
99.804,275
99.829,277
99.854,266
99.879,250
99.904,237
99.929,228
99.954,223
99.979,228
100.004,245
100.029,264
100.054,270
100.079,256
100.104,240
100.129,242
100.154,263
100.179,280
100.204,278
100.229,274
100.254,299
100.279,360
100.304,419
100.329,429
100.354,396
100.379,375
100.404,418
100.429,503
100.454,538
100.479,445
100.504,239
100.529,15
100.554,-131
100.579,-185
100.604,-198
100.629,-222
100.654,-252
100.679,-249
100.704,-194
100.729,-116
100.754,-57
100.779,-25
100.804,8
100.829,67
100.854,129
100.879,144
100.904,95
100.929,25
100.954,5
100.979,69
101.004,182
101.029,278
101.054,329
101.079,369
101.104,450
101.129,581
101.154,703
101.179,742
101.204,678
101.229,565
101.254,475
101.279,439
101.304,423
101.329,377
101.354,287
101.379,181
101.404,99
101.429,52
101.454,26
101.479,10
101.504,8
101.529,31
101.554,70
101.579,105
101.604,123
101.629,130
101.654,143
101.679,170
101.704,197
101.729,206
101.754,193
101.779,170
101.804,152
101.829,148
101.854,155
101.879,166
101.904,177
101.929,189
101.954,202
101.979,221
102.004,244
102.029,263
102.054,270
102.079,260
102.104,238
102.129,214
102.154,191
102.179,165
102.204,129
102.229,91
102.254,70
102.279,79
102.304,112
102.329,150
102.354,174
102.379,180
102.404,180
102.429,181
102.454,183
102.479,182
102.504,178
102.529,179
102.554,193
102.579,218
102.604,242
102.629,259
102.654,267
102.679,271
102.704,275
102.729,276
102.754,272
102.779,265
102.804,266
102.829,285
102.854,324
102.879,372
102.904,410
102.929,421
102.954,402
102.979,359
103.004,308
103.029,262
103.054,230
103.079,214
103.104,204
103.129,185
103.154,144
103.179,84
103.204,27
103.229,-1
103.254,9
103.279,44
103.304,79
103.329,95
103.354,97
103.379,97
103.404,106
103.429,120
103.454,130
103.479,138
103.504,154
103.529,187
103.554,238
103.579,293
103.604,341
103.629,373
103.654,390
103.679,396
103.704,389
103.729,368
103.754,333
103.779,292
103.804,254
103.829,228
103.854,217
103.879,218
103.904,225
103.929,230
103.954,230
103.979,223
104.004,216
104.029,216
104.054,228
104.079,242
104.104,245
104.129,222
104.154,174
104.179,121
104.204,88
104.229,90
104.254,118
104.279,151
104.304,174
104.329,185
104.354,194
104.379,207
104.404,220
104.429,222
104.454,211
104.479,195
104.504,183
104.529,181
104.554,186
104.579,190
104.604,192
104.629,193
104.654,194
104.679,196
104.704,196
104.729,194
104.754,193
104.779,194
104.804,197
104.829,197
104.854,192
104.879,181
104.904,171
104.929,169
104.954,173
104.979,175
105.004,165
105.029,147
105.054,140
105.079,164
105.104,218
105.129,280
105.154,322
105.179,335
105.204,331
105.229,330
105.254,335
105.279,335
105.304,319
105.329,289
105.354,262
105.379,249
105.404,243
105.429,234
105.454,216
105.479,198
105.504,186
105.529,179
105.554,166
105.579,142
105.604,116
105.629,103
105.654,110
105.679,128
105.704,140
105.729,133
105.754,105
105.779,69
105.804,43
105.829,37
105.854,56
105.879,93
105.904,135
105.929,175
105.954,211
105.979,247
106.004,284
106.029,311
106.054,318
106.079,303
106.104,280
106.129,267
106.154,268
106.179,274
106.204,273
106.229,263
106.254,254
106.279,252
106.304,253
106.329,247
106.354,230
106.379,212
106.404,200
106.429,192
106.454,176
106.479,146
106.504,116
106.529,107
106.554,128
106.579,166
106.604,197
106.629,210
106.654,213
106.679,220
106.704,236
106.729,249
106.754,251
106.779,245
106.804,240
106.829,244
106.854,251
106.879,252
106.904,246
106.929,241
106.954,240
106.979,242
107.004,239
107.029,233
107.054,231
107.079,230
107.104,220
107.129,192
107.154,153
107.179,125
107.204,131
107.229,167
107.254,207
107.279,226
107.304,224
107.329,218
107.354,227
107.379,246
107.404,261
107.429,262
107.454,257
107.479,261
107.504,275
107.529,286
107.554,282
107.579,265
107.604,245
107.629,232
107.654,223
107.679,210
107.704,191
107.729,174
107.754,160
107.779,146
107.804,125
107.829,100
107.854,84
107.879,92
107.904,120
107.929,153
107.954,177
107.979,192
108.004,207
108.029,229
108.054,249
108.079,258
108.104,253
108.129,247
108.154,250
108.179,262
108.204,273
108.229,274
108.254,269
108.279,264
108.304,260
108.329,251
108.354,231
108.379,204
108.404,183
108.429,173
108.454,165
108.479,151
108.504,127
108.529,104
108.554,95
108.579,95
108.604,89
108.629,64
108.654,26
108.679,-2
108.704,-3
108.729,22
108.754,56
108.779,79
108.804,84
108.829,86
108.854,100
108.879,132
108.904,169
108.929,196
108.954,207
108.979,207
109.004,210
109.029,223
109.054,245
109.079,270
109.104,294
109.129,316
109.154,338
109.179,356
109.204,369
109.229,376
109.254,379
109.279,381
109.304,382
109.329,380
109.354,374
109.379,366
109.404,360
109.429,357
109.454,357
109.479,356
109.504,352
109.529,347
109.554,341
109.579,335
109.604,327
109.629,317
109.654,304
109.679,290
109.704,276
109.729,264
109.754,256
109.779,248
109.804,237
109.829,225
109.854,214
109.879,207
109.904,200
109.929,186
109.954,167
109.979,153
110.004,149
110.029,152
110.054,144
110.079,113
110.104,68
110.129,36
110.154,35
110.179,61
110.204,88
110.229,99
110.254,99
110.279,105
110.304,124
110.329,146
110.354,154
110.379,144
110.404,131
110.429,128
110.454,135
110.479,139
110.504,133
110.529,119
110.554,105
110.579,97
110.604,94
110.629,96
110.654,106
110.679,129
110.704,160
110.729,195
110.754,227
110.779,254
110.804,275
110.829,284
110.854,281
110.879,274
110.904,272
110.929,281
110.954,295
110.979,305
111.004,307
111.029,309
111.054,320
111.079,333
111.104,335
111.129,318
111.154,286
111.179,247
111.204,201
111.229,141
111.254,63
111.279,-16
111.304,-70
111.329,-77
111.354,-39
111.379,15
111.404,62
111.429,90
111.454,107
111.479,127
111.504,159
111.529,200
111.554,241
111.579,273
111.604,291
111.629,302
111.654,316
111.679,341
111.704,372
111.729,397
111.754,405
111.779,395
111.804,375
111.829,357
111.854,343
111.879,333
111.904,325
111.929,319
111.954,313
111.979,301
112.004,277
112.029,247
112.054,224
112.079,215
112.104,218
112.129,220
112.154,214
112.179,206
112.204,205
112.229,209
112.254,206
112.279,183
112.304,146
112.329,114
112.354,105
112.379,124
112.404,158
112.429,196
112.454,232
112.479,268
112.504,303
112.529,330
112.554,337
112.579,321
112.604,288
112.629,249
112.654,214
112.679,188
112.704,172
112.729,167
112.754,171
112.779,175
112.804,174
112.829,164
112.854,148
112.879,131
112.904,115
112.929,99
112.954,84
112.979,70
113.004,58
113.029,44
113.054,21
113.079,-12
113.104,-51
113.129,-79
113.154,-86
113.179,-74
113.204,-55
113.229,-40
113.254,-27
113.279,0
113.304,53
113.329,134
113.354,225
113.379,307
113.404,369
113.429,410
113.454,437
113.479,454
113.504,464
113.529,468
113.554,466
113.579,459
113.604,447
113.629,438
113.654,440
113.679,458
113.704,483
113.729,491
113.754,462
113.779,393
113.804,304
113.829,226
113.854,174
113.879,144
113.904,120
113.929,96
113.954,77
113.979,72
114.004,82
114.029,101
114.054,119
114.079,139
114.104,166
114.129,199
114.154,219
114.179,207
114.204,157
114.229,89
114.254,36
114.279,22
114.304,44
114.329,79
114.354,103
114.379,104
114.404,90
114.429,72
114.454,59
114.479,50
114.504,46
114.529,52
114.554,78
114.579,132
114.604,208
114.629,292
114.654,368
114.679,430
114.704,477
114.729,509
114.754,525
114.779,527
114.804,517
114.829,503
114.854,486
114.879,464
114.904,432
114.929,388
114.954,335
114.979,277
115.004,216
115.029,154
115.054,99
115.079,62
115.104,44
115.129,28
115.154,-4
115.179,-58
115.204,-112
115.229,-139
115.254,-129
115.279,-98
115.304,-69
115.329,-46
115.354,-15
115.379,35
115.404,94
115.429,133
115.454,139
115.479,126
115.504,121
115.529,138
115.554,168
115.579,198
115.604,225
115.629,255
115.654,284
115.679,302
115.704,298
115.729,279
115.754,264
115.779,265
115.804,275
115.829,282
115.854,285
115.879,291
115.904,305
115.929,317
115.954,313
115.979,295
116.004,280
116.029,279
116.054,283
116.079,268
116.104,227
116.129,184
116.154,170
116.179,195
116.204,233
116.229,254
116.254,250
116.279,243
116.304,254
116.329,283
116.354,308
116.379,311
116.404,296
116.429,278
116.454,269
116.479,266
116.504,263
116.529,258
116.554,254
116.579,256
116.604,261
116.629,266
116.654,266
116.679,256
116.704,234
116.729,204
116.754,176
116.779,157
116.804,144
116.829,121
116.854,76
116.879,19
116.904,-22
116.929,-33
116.954,-26
116.979,-31
117.004,-63
117.029,-98
117.054,-99
117.079,-47
117.104,33
117.129,103
117.154,143
117.179,167
117.204,199
117.229,244
117.254,282
117.279,293
117.304,279
117.329,258
117.354,245
117.379,238
117.404,231
117.429,227
117.454,242
117.479,282
117.504,333
117.529,370
117.554,375
117.579,351
117.604,317
117.629,289
117.654,275
117.679,268
117.704,262
117.729,252
117.754,242
117.779,235
117.804,231
117.829,223
117.854,201
117.879,161
117.904,115
117.929,86
117.954,90
117.979,122
118.004,160
118.029,183
118.054,193
118.079,202
118.104,221
118.129,243
118.154,250
118.179,238
118.204,219
118.229,212
118.254,224
118.279,245
118.304,263
118.329,274
118.354,283
118.379,290
118.404,294
118.429,289
118.454,276
118.479,259
118.504,241
118.529,221
118.554,202
118.579,186
118.604,178
118.629,176
118.654,174
118.679,171
118.704,169
118.729,170
118.754,168
118.779,146
118.804,100
118.829,46
118.854,15
118.879,25
118.904,66
118.929,109
118.954,134
118.979,141
119.004,147
119.029,163
119.054,187
119.079,203
119.104,206
119.129,201
119.154,197
119.179,197
119.204,202
119.229,209
119.254,217
119.279,225
119.304,229
119.329,228
119.354,228
119.379,236
119.404,253
119.429,270
119.454,277
119.479,270
119.504,256
119.529,241
119.554,226
119.579,208
119.604,184
119.629,163
119.654,149
119.679,135
119.704,107
119.729,60
119.754,9
119.779,-16
119.804,1
119.829,60
119.854,135
119.879,201
119.904,247
119.929,273
119.954,285
119.979,284
120.004,273
120.029,260
120.054,257
120.079,269
120.104,291
120.129,309
120.154,315
120.179,313
120.204,312
120.229,314
120.254,317
120.279,314
120.304,306
120.329,299
120.354,296
120.379,293
120.404,283
120.429,263
120.454,239
120.479,224
120.504,220
120.529,224
120.554,225
120.579,211
120.604,177
120.629,123
120.654,60
120.679,8
120.704,-13
120.729,4
120.754,49
120.779,102
120.804,142
120.829,166
120.854,179
120.879,190
120.904,201
120.929,211
120.954,218
120.979,222
121.004,222
121.029,215
121.054,203
121.079,193
121.104,193
121.129,204
121.154,221
121.179,236
121.204,245
121.229,249
121.254,246
121.279,236
121.304,219
121.329,202
121.354,193
121.379,195
121.404,200
121.429,200
121.454,195
121.479,190
121.504,182
121.529,162
121.554,122
121.579,74
121.604,42
121.629,52
121.654,104
121.679,171
121.704,223
121.729,244
121.754,242
121.779,233
121.804,229
121.829,238
121.854,259
121.879,288
121.904,315
121.929,332
121.954,336
121.979,334
122.004,333
122.029,332
122.054,321
122.079,293
122.104,256
122.129,226
122.154,211
122.179,206
122.204,199
122.229,189
122.254,182
122.279,184
122.304,186
122.329,179
122.354,165
122.379,158
122.404,166
122.429,176
122.454,163
122.479,117
122.504,62
122.529,38
122.554,64
122.579,124
122.604,181
122.629,214
122.654,229
122.679,243
122.704,263
122.729,279
122.754,283
122.779,275
122.804,264
122.829,258
122.854,253
122.879,249
122.904,248
122.929,251
122.954,253
122.979,245
123.004,222
123.029,193
123.054,170
123.079,158
123.104,149
123.129,134
123.154,115
123.179,97
123.204,86
123.229,76
123.254,65
123.279,58
123.304,57
123.329,59
123.354,47
123.379,13
123.404,-25
123.429,-41
123.454,-12
123.479,50
123.504,114
123.529,158
123.554,180
123.579,199
123.604,223
123.629,246
123.654,259
123.679,263
123.704,270
123.729,291
123.754,323
123.779,353
123.804,373
123.829,387
123.854,399
123.879,409
123.904,412
123.929,404
123.954,390
123.979,375
124.004,360
124.029,343
124.054,323
124.079,301
124.104,278
124.129,254
124.154,229
124.179,207
124.204,191
124.229,178
124.254,155
124.279,114
124.304,64
124.329,31
124.354,36
124.379,74
124.404,124
124.429,161
124.454,181
124.479,193
124.504,206
124.529,219
124.554,224
124.579,224
124.604,223
124.629,225
124.654,230
124.679,234
124.704,239
124.729,252
124.754,270
124.779,283
124.804,284
124.829,274
124.854,265
124.879,264
124.904,265
124.929,256
124.954,233
124.979,200
125.004,166
125.029,135
125.054,108
125.079,86
125.104,77
125.129,78
125.154,73
125.179,49
125.204,7
125.229,-26
125.254,-24
125.279,18
125.304,80
125.329,135
125.354,167
125.379,184
125.404,199
125.429,217
125.454,237
125.479,253
125.504,264
125.529,270
125.554,270
125.579,264
125.604,260
125.629,264
125.654,275
125.679,287
125.704,290
125.729,287
125.754,283
125.779,285
125.804,286
125.829,280
125.854,265
125.879,247
125.904,232
125.929,218
125.954,201
125.979,183
126.004,169
126.029,162
126.054,152
126.079,126
126.104,88
126.129,58
126.154,57
126.179,89
126.204,134
126.229,170
126.254,188
126.279,201
126.304,218
126.329,241
126.354,260
126.379,268
126.404,269
126.429,271
126.454,274
126.479,278
126.504,280
126.529,282
126.554,285
126.579,285
126.604,276
126.629,259
126.654,241
126.679,227
126.704,218
126.729,209
126.754,197
126.779,186
126.804,178
126.829,170
126.854,161
126.879,149
126.904,140
126.929,135
126.954,123
126.979,97
127.004,57
127.029,27
127.054,27
127.079,65
127.104,121
127.129,170
127.154,198
127.179,213
127.204,228
127.229,246
127.254,261
127.279,265
127.304,261
127.329,258
127.354,262
127.379,269
127.404,274
127.429,276
127.454,280
127.479,288
127.504,294
127.529,290
127.554,275
127.579,256
127.604,244
127.629,240
127.654,235
127.679,221
127.704,201
127.729,183
127.754,173
127.779,167
127.804,155
127.829,138
127.854,124
127.879,120
127.904,119
127.929,104
127.954,66
127.979,18
128.004,-5
128.029,15
128.054,77
128.079,148
128.104,197
128.129,215
128.154,216
128.179,219
128.204,232
128.229,248
128.254,260
128.279,263
128.304,262
128.329,263
128.354,267
128.379,272
128.404,276
128.429,278
128.454,278
128.479,276
128.504,272
128.529,265
128.554,258
128.579,252
128.604,248
128.629,247
128.654,246
128.679,248
128.704,253
128.729,259
128.754,263
128.779,255
128.804,235
128.829,207
128.854,182
128.879,165
128.904,148
128.929,118
128.954,72
128.979,24
129.004,-2
129.029,4
129.054,40
129.079,83
129.104,119
129.129,144
129.154,166
129.179,190
129.204,213
129.229,230
129.254,240
129.279,248
129.304,261
129.329,276
129.354,291
129.379,302
129.404,310
129.429,314
129.454,313
129.479,306
129.504,294
129.529,281
129.554,273
129.579,270
129.604,267
129.629,257
129.654,240
129.679,218
129.704,199
129.729,185
129.754,173
129.779,159
129.804,142
129.829,129
129.854,125
129.879,126
129.904,120
129.929,97
129.954,62
129.979,35
130.004,34
130.029,62
130.054,105
130.079,142
130.104,166
130.129,182
130.154,198
130.179,215
130.204,227
130.229,231
130.254,231
130.279,232
130.304,238
130.329,246
130.354,255
130.379,265
130.404,278
130.429,291
130.454,299
130.479,298
130.504,288
130.529,273
130.554,255
130.579,236
130.604,219
130.629,208
130.654,202
130.679,197
130.704,188
130.729,175
130.754,168
130.779,167
130.804,165
130.829,147
130.854,112
130.879,78
130.904,68
130.929,93
130.954,138
130.979,179
131.004,201
131.029,211
131.054,222
131.079,239
131.104,254
131.129,259
131.154,253
131.179,249
131.204,253
131.229,264
131.254,273
131.279,274
131.304,271
131.329,267
131.354,264
131.379,258
131.404,245
131.429,228
131.454,214
131.479,205
131.504,199
131.529,194
131.554,189
131.579,183
131.604,174
131.629,154
131.654,121
131.679,82
131.704,56
131.729,60
131.754,92
131.779,137
131.804,173
131.829,193
131.854,202
131.879,214
131.904,230
131.929,243
131.954,245
131.979,237
132.004,227
132.029,224
132.054,227
132.079,232
132.104,236
132.129,237
132.154,238
132.179,235
132.204,228
132.229,216
132.254,206
132.279,200
132.304,195
132.329,189
132.354,179
132.379,167
132.404,154
132.429,137
132.454,113
132.479,85
132.504,68
132.529,76
132.554,110
132.579,152
132.604,183
132.629,197
132.654,202
132.679,211
132.704,226
132.729,241
132.754,247
132.779,245
132.804,244
132.829,247
132.854,254
132.879,258
132.904,259
132.929,262
132.954,268
132.979,276
133.004,280
133.029,276
133.054,268
133.079,261
133.104,256
133.129,249
133.154,236
133.179,216
133.204,192
133.229,163
133.254,129
133.279,94
133.304,68
133.329,63
133.354,81
133.379,110
133.404,134
133.429,143
133.454,143
133.479,145
133.504,157
133.529,173
133.554,184
133.579,187
133.604,189
133.629,197
133.654,213
133.679,231
133.704,248
133.729,264
133.754,282
133.779,304
133.804,324
133.829,334
133.854,333
133.879,325
133.904,315
133.929,304
133.954,295
133.979,289
134.004,288
134.029,290
134.054,291
134.079,285
134.104,271
134.129,255
134.154,241
134.179,227
134.204,209
134.229,186
134.254,162
134.279,140
134.304,120
134.329,92
134.354,55
134.379,15
134.404,-8
134.429,-6
134.454,21
134.479,58
134.504,88
134.529,107
134.554,121
134.579,138
134.604,159
134.629,178
134.654,192
134.679,201
134.704,213
134.729,233
134.754,258
134.779,278
134.804,283
134.829,268
134.854,238
134.879,205
134.904,179
134.929,165
134.954,164
134.979,174
135.004,193
135.029,217
135.054,242
135.079,263
135.104,279
135.129,289
135.154,291
135.179,286
135.204,275
135.229,263
135.254,256
135.279,254
135.304,249
135.329,236
135.354,218
135.379,202
135.404,189
135.429,173
135.454,142
135.479,96
135.504,51
135.529,27
135.554,34
135.579,61
135.604,91
135.629,112
135.654,129
135.679,149
135.704,174
135.729,197
135.754,213
135.779,223
135.804,232
135.829,245
135.854,261
135.879,279
135.904,297
135.929,309
135.954,314
135.979,308
136.004,296
136.029,284
136.054,277
136.079,277
136.104,277
136.129,276
136.154,269
136.179,258
136.204,243
136.229,229
136.254,219
136.279,215
136.304,213
136.329,206
136.354,195
136.379,183
136.404,179
136.429,177
136.454,165
136.479,137
136.504,101
136.529,80
136.554,90
136.579,122
136.604,147
136.629,146
136.654,122
136.679,98
136.704,95
136.729,112
136.754,136
136.779,155
136.804,168
136.829,183
136.854,205
136.879,230
136.904,252
136.929,268
136.954,277
136.979,280
137.004,277
137.029,271
137.054,264
137.079,263
137.104,266
137.129,274
137.154,280
137.179,283
137.204,278
137.229,264
137.254,246
137.279,226
137.304,211
137.329,200
137.354,191
137.379,183
137.404,179
137.429,183
137.454,189
137.479,184
137.504,158
137.529,116
137.554,79
137.579,68
137.604,93
137.629,138
137.654,181
137.679,207
137.704,216
137.729,219
137.754,221
137.779,223
137.804,218
137.829,206
137.854,197
137.879,201
137.904,219
137.929,242
137.954,258
137.979,260
138.004,253
138.029,248
138.054,250
138.079,258
138.104,263
138.129,262
138.154,257
138.179,253
138.204,249
138.229,243
138.254,233
138.279,224
138.304,218
138.329,214
138.354,206
138.379,190
138.404,172
138.429,156
138.454,141
138.479,116
138.504,78
138.529,37
138.554,15
138.579,25
138.604,63
138.629,106
138.654,136
138.679,150
138.704,156
138.729,164
138.754,174
138.779,181
138.804,186
138.829,194
138.854,207
138.879,221
138.904,228
138.929,229
138.954,228
138.979,231
139.004,236
139.029,239
139.054,238
139.079,235
139.104,233
139.129,229
139.154,222
139.179,212
139.204,205
139.229,204
139.254,207
139.279,206
139.304,200
139.329,191
139.354,181
139.379,165
139.404,138
139.429,105
139.454,81
139.479,87
139.504,127
139.529,184
139.554,238
139.579,275
139.604,299
139.629,319
139.654,341
139.679,360
139.704,373
139.729,379
139.754,381
139.779,383
139.804,387
139.829,392
139.854,399
139.879,404
139.904,403
139.929,392
139.954,371
139.979,343
140.004,313
140.029,283
140.054,254
140.079,224
140.104,193
140.129,159
140.154,122
140.179,88
140.204,61
140.229,43
140.254,26
140.279,0
140.304,-43
140.329,-91
140.354,-122
140.379,-119
140.404,-85
140.429,-39
140.454,1
140.479,28
140.504,48
140.529,69
140.554,93
140.579,115
140.604,128
140.629,134
140.654,138
140.679,149
140.704,170
140.729,198
140.754,226
140.779,248
140.804,265
140.829,282
140.854,304
140.879,329
140.904,351
140.929,362
140.954,361
140.979,351
141.004,340
141.029,331
141.054,322
141.079,312
141.104,301
141.129,287
141.154,273
141.179,259
141.204,242
141.229,219
141.254,187
141.279,148
141.304,111
141.329,91
141.354,95
141.379,119
141.404,149
141.429,172
141.454,187
141.479,200
141.504,217
141.529,237
141.554,252
141.579,257
141.604,255
141.629,252
141.654,251
141.679,251
141.704,250
141.729,250
141.754,252
141.779,254
141.804,252
141.829,246
141.854,241
141.879,244
141.904,252
141.929,257
141.954,251
141.979,235
142.004,217
142.029,204
142.054,193
142.079,179
142.104,160
142.129,144
142.154,135
142.179,130
142.204,115
142.229,87
142.254,56
142.279,41
142.304,54
142.329,87
142.354,121
142.379,144
142.404,156
142.429,166
142.454,180
142.479,198
142.504,211
142.529,218
142.554,220
142.579,221
142.604,226
142.629,235
142.654,246
142.679,258
142.704,267
142.729,272
142.754,272
142.779,269
142.804,264
142.829,259
142.854,251
142.879,239
142.904,222
142.929,203
142.954,186
142.979,171
143.004,160
143.029,154
143.054,153
143.079,156
143.104,155
143.129,146
143.154,133
143.179,126
143.204,133
143.229,153
143.254,174
143.279,184
143.304,183
143.329,182
143.354,189
143.379,201
143.404,206
143.429,198
143.454,184
143.479,176
143.504,175
143.529,174
143.554,166
143.579,152
143.604,139
143.629,127
143.654,103
143.679,60
143.704,17
143.729,13
143.754,75
143.779,192
143.804,321
143.829,418
143.854,472
143.879,499
143.904,514
143.929,518
143.954,497
143.979,449
144.004,387
144.029,321
144.054,251
144.079,170
144.104,86
144.129,24
144.154,5
144.179,26
144.204,62
144.229,90
144.254,110
144.279,137
144.304,179
144.329,224
144.354,254
144.379,264
144.404,268
144.429,280
144.454,301
144.479,319
144.504,322
144.529,314
144.554,301
144.579,290
144.604,278
144.629,262
144.654,240
144.679,216
144.704,192
144.729,170
144.754,153
144.779,145
144.804,146
144.829,151
144.854,153
144.879,152
144.904,154
144.929,161
144.954,167
144.979,158
145.004,128
145.029,92
145.054,75
145.079,95
145.104,144
145.129,197
145.154,227
145.179,229
145.204,214
145.229,198
145.254,185
145.279,172
145.304,154
145.329,137
145.354,129
145.379,132
145.404,141
145.429,149
145.454,159
145.479,178
145.504,203
145.529,224
145.554,228
145.579,214
145.604,196
145.629,188
145.654,190
145.679,191
145.704,180
145.729,163
145.754,153
145.779,154
145.804,156
145.829,147
145.854,127
145.879,114
145.904,117
145.929,133
145.954,146
145.979,151
146.004,163
146.029,195
146.054,244
146.079,282
146.104,288
146.129,262
146.154,231
146.179,220
146.204,230
146.229,244
146.254,248
146.279,242
146.304,238
146.329,242
146.354,253
146.379,266
146.404,281
146.429,296
146.454,309
146.479,316
146.504,318
146.529,318
146.554,324
146.579,331
146.604,333
146.629,322
146.654,300
146.679,274
146.704,247
146.729,219
146.754,193
146.779,173
146.804,161
146.829,154
146.854,148
146.879,142
146.904,138
146.929,137
146.954,129
146.979,109
147.004,85
147.029,79
147.054,106
147.079,156
147.104,204
147.129,229
147.154,233
147.179,237
147.204,251
147.229,267
147.254,270
147.279,256
147.304,242
147.329,240
147.354,248
147.379,254
147.404,247
147.429,232
147.454,219
147.479,210
147.504,198
147.529,182
147.554,166
147.579,158
147.604,158
147.629,158
147.654,151
147.679,141
147.704,133
147.729,129
147.754,127
147.779,124
147.804,125
147.829,131
147.854,134
147.879,120
147.904,87
147.929,51
147.954,38
147.979,58
148.004,100
148.029,145
148.054,181
148.079,209
148.104,232
148.129,249
148.154,251
148.179,237
148.204,218
148.229,208
148.254,211
148.279,224
148.304,241
148.329,261
148.354,283
148.379,302
148.404,311
148.429,305
148.454,290
148.479,279
148.504,278
148.529,283
148.554,284
148.579,275
148.604,259
148.629,243
148.654,234
148.679,230
148.704,227
148.729,220
148.754,208
148.779,197
148.804,191
148.829,187
148.854,178
148.879,155
148.904,119
148.929,81
148.954,59
148.979,63
149.004,90
149.029,125
149.054,154
149.079,174
149.104,191
149.129,210
149.154,232
149.179,250
149.204,260
149.229,262
149.254,263
149.279,267
149.304,275
149.329,282
149.354,286
149.379,286
149.404,284
149.429,279
149.454,270
149.479,257
149.504,243
149.529,230
149.554,220
149.579,213
149.604,209
149.629,206
149.654,205
149.679,205
149.704,205
149.729,205
149.754,204
149.779,202
149.804,197
149.829,187
149.854,174
149.879,160
149.904,149
149.929,140
149.954,128
149.979,105
150.004,72
150.029,40
150.054,25
150.079,37
150.104,72
150.129,112
150.154,139
150.179,148
150.204,150
150.229,158
150.254,179
150.279,205
150.304,224
150.329,229
150.354,226
150.379,229
150.404,244
150.429,268
150.454,292
150.479,308
150.504,313
150.529,311
150.554,306
150.579,304
150.604,306
150.629,310
150.654,310
150.679,301
150.704,283
150.729,260
150.754,241
150.779,228
150.804,218
150.829,207
150.854,194
150.879,182
150.904,173
150.929,167
150.954,164
150.979,163
151.004,165
151.029,167
151.054,157
151.079,127
151.104,84
151.129,50
151.154,50
151.179,87
151.204,145
151.229,198
151.254,231
151.279,248
151.304,259
151.329,271
151.354,279
151.379,278
151.404,270
151.429,264
151.454,263
151.479,266
151.504,265
151.529,261
151.554,255
151.579,251
151.604,246
151.629,234
151.654,215
151.679,194
151.704,178
151.729,169
151.754,160
151.779,145
151.804,124
151.829,99
151.854,78
151.879,59
151.904,41
151.929,27
151.954,20
151.979,21
152.004,24
152.029,18
152.054,5
152.079,-1
152.104,19
152.129,77
152.154,157
152.179,235
152.204,293
152.229,330
152.254,357
152.279,379
152.304,392
152.329,389
152.354,373
152.379,357
152.404,351
152.429,355
152.454,359
152.479,353
152.504,338
152.529,317
152.554,295
152.579,270
152.604,246
152.629,230
152.654,225
152.679,228
152.704,227
152.729,213
152.754,191
152.779,172
152.804,164
152.829,158
152.854,139
152.879,103
152.904,66
152.929,50
152.954,69
152.979,114
153.004,162
153.029,197
153.054,215
153.079,225
153.104,235
153.129,245
153.154,252
153.179,254
153.204,250
153.229,242
153.254,235
153.279,232
153.304,233
153.329,238
153.354,240
153.379,236
153.404,227
153.429,217
153.454,209
153.479,202
153.504,191
153.529,178
153.554,165
153.579,154
153.604,141
153.629,118
153.654,85
153.679,58
153.704,50
153.729,68
153.754,102
153.779,136
153.804,161
153.829,181
153.854,201
153.879,219
153.904,228
153.929,225
153.954,218
153.979,216
154.004,223
154.029,233
154.054,238
154.079,238
154.104,239
154.129,246
154.154,254
154.179,257
154.204,254
154.229,251
154.254,255
154.279,266
154.304,271
154.329,259
154.354,222
154.379,169
154.404,118
154.429,85
154.454,83
154.479,108
154.504,146
154.529,182
154.554,204
154.579,220
154.604,242
154.629,280
154.654,323
154.679,352
154.704,353
154.729,331
154.754,307
154.779,298
154.804,308
154.829,323
154.854,329
154.879,319
154.904,299
154.929,276
154.954,251
154.979,224
155.004,202
155.029,187
155.054,179
155.079,168
155.104,145
155.129,114
155.154,92
155.179,88
155.204,93
155.229,83
155.254,47
155.279,0
155.304,-31
155.329,-22
155.354,20
155.379,70
155.404,105
155.429,121
155.454,127
155.479,132
155.504,131
155.529,121
155.554,104
155.579,94
155.604,100
155.629,121
155.654,149
155.679,174
155.704,191
155.729,203
155.754,215
155.779,231
155.804,258
155.829,294
155.854,333
155.879,361
155.904,371
155.929,366
155.954,357
155.979,351
156.004,344
156.029,331
156.054,309
156.079,287
156.104,269
156.129,252
156.154,225
156.179,186
156.204,146
156.229,124
156.254,128
156.279,151
156.304,172
156.329,182
156.354,184
156.379,191
156.404,210
156.429,231
156.454,244
156.479,243
156.504,233
156.529,228
156.554,233
156.579,246
156.604,258
156.629,262
156.654,257
156.679,246
156.704,234
156.729,224
156.754,217
156.779,210
156.804,201
156.829,191
156.854,181
156.879,173
156.904,166
156.929,157
156.954,145
156.979,130
157.004,117
157.029,107
157.054,97
157.079,80
157.104,58
157.129,40
157.154,36
157.179,53
157.204,88
157.229,129
157.254,166
157.279,198
157.304,224
157.329,249
157.354,272
157.379,292
157.404,310
157.429,326
157.454,341
157.479,353
157.504,360
157.529,364
157.554,366
157.579,365
157.604,359
157.629,349
157.654,336
157.679,326
157.704,320
157.729,311
157.754,297
157.779,277
157.804,256
157.829,237
157.854,220
157.879,197
157.904,167
157.929,137
157.954,115
157.979,100
158.004,77
158.029,35
158.054,-22
158.079,-75
158.104,-98
158.129,-80
158.154,-35
158.179,14
158.204,58
158.229,95
158.254,132
158.279,167
158.304,194
158.329,206
158.354,207
158.379,206
158.404,207
158.429,209
158.454,210
158.479,210
158.504,212
158.529,222
158.554,237
158.579,247
158.604,249
158.629,244
158.654,237
158.679,236
158.704,240
158.729,246
158.754,249
158.779,248
158.804,249
158.829,254
158.854,262
158.879,264
158.904,255
158.929,240
158.954,225
158.979,218
159.004,213
159.029,196
159.054,166
159.079,134
159.104,122
159.129,141
159.154,182
159.179,219
159.204,238
159.229,241
159.254,243
159.279,253
159.304,265
159.329,269
159.354,263
159.379,254
159.404,253
159.429,260
159.454,267
159.479,269
159.504,270
159.529,275
159.554,286
159.579,291
159.604,282
159.629,259
159.654,235
159.679,222
159.704,219
159.729,218
159.754,209
159.779,193
159.804,177
159.829,166
159.854,154
159.879,130
159.904,92
159.929,53
159.954,27
159.979,23
160.004,38
160.029,60
160.054,82
160.079,104
160.104,126
160.129,144
160.154,154
160.179,155
160.204,155
160.229,162
160.254,178
160.279,194
160.304,204
160.329,211
160.354,222
160.379,240
160.404,262
160.429,279
160.454,289
160.479,294
160.504,297
160.529,296
160.554,289
160.579,279
160.604,269
160.629,262
160.654,255
160.679,242
160.704,225
160.729,211
160.754,202
160.779,190
160.804,165
160.829,130
160.854,101
160.879,96
160.904,119
160.929,154
160.954,179
160.979,186
161.004,184
161.029,185
161.054,194
161.079,209
161.104,222
161.129,228
161.154,226
161.179,220
161.204,216
161.229,219
161.254,232
161.279,250
161.304,264
161.329,265
161.354,255
161.379,240
161.404,226
161.429,216
161.454,208
161.479,202
161.504,195
161.529,185
161.554,169
161.579,154
161.604,148
161.629,151
161.654,152
161.679,134
161.704,94
161.729,51
161.754,32
161.779,50
161.804,95
161.829,137
161.854,161
161.879,170
161.904,180
161.929,203
161.954,234
161.979,260
162.004,276
162.029,285
162.054,294
162.079,305
162.104,313
162.129,320
162.154,328
162.179,341
162.204,355
162.229,362
162.254,354
162.279,338
162.304,322
162.329,313
162.354,306
162.379,290
162.404,264
162.429,234
162.454,211
162.479,195
162.504,174
162.529,135
162.554,79
162.579,25
162.604,-1
162.629,9
162.654,45
162.679,85
162.704,112
162.729,122
162.754,128
162.779,138
162.804,154
162.829,168
162.854,176
162.879,179
162.904,183
162.929,191
162.954,205
162.979,220
163.004,234
163.029,241
163.054,238
163.079,227
163.104,212
163.129,201
163.154,196
163.179,195
163.204,193
163.229,183
163.254,166
163.279,146
163.304,129
163.329,112
163.354,93
163.379,69
163.404,51
163.429,51
163.454,77
163.479,126
163.504,179
163.529,219
163.554,239
163.579,248
163.604,258
163.629,274
163.654,296
163.679,315
163.704,329
163.729,339
163.754,347
163.779,355
163.804,365
163.829,376
163.854,387
163.879,391
163.904,385
163.929,368
163.954,347
163.979,326
164.004,308
164.029,288
164.054,266
164.079,246
164.104,229
164.129,208
164.154,174
164.179,129
164.204,86
164.229,66
164.254,76
164.279,102
164.304,119
164.329,115
164.354,96
164.379,80
164.404,72
164.429,69
164.454,63
164.479,54
164.504,52
164.529,60
164.554,73
164.579,86
164.604,97
164.629,110
164.654,131
164.679,157
164.704,180
164.729,196
164.754,203
164.779,206
164.804,208
164.829,209
164.854,205
164.879,191
164.904,160
164.929,115
164.954,72
164.979,57
165.004,92
165.029,172
165.054,265
165.079,332
165.104,354
165.129,345
165.154,335
165.179,342
165.204,360
165.229,368
165.254,358
165.279,338
165.304,323
165.329,319
165.354,317
165.379,304
165.404,277
165.429,246
165.454,220
165.479,202
165.504,189
165.529,179
165.554,175
165.579,176
165.604,181
165.629,186
165.654,192
165.679,200
165.704,213
165.729,220
165.754,213
165.779,187
165.804,151
165.829,123
165.854,113
165.879,121
165.904,138
165.929,152
165.954,157
165.979,154
166.004,146
166.029,141
166.054,141
166.079,147
166.104,156
166.129,166
166.154,177
166.179,192
166.204,211
166.229,230
166.254,247
166.279,261
166.304,273
166.329,282
166.354,286
166.379,285
166.404,282
166.429,281
166.454,281
166.479,274
166.504,255
166.529,227
166.554,201
166.579,182
166.604,163
166.629,130
166.654,87
166.679,49
166.704,38
166.729,58
166.754,92
166.779,121
166.804,136
166.829,144
166.854,158
166.879,176
166.904,194
166.929,206
166.954,214
166.979,222
167.004,234
167.029,249
167.054,264
167.079,279
167.104,293
167.129,302
167.154,303
167.179,296
167.204,283
167.229,265
167.254,246
167.279,230
167.304,223
167.329,224
167.354,226
167.379,219
167.404,198
167.429,171
167.454,148
167.479,134
167.504,122
167.529,106
167.554,89
167.579,84
167.604,99
167.629,130
167.654,165
167.679,193
167.704,214
167.729,234
167.754,253
167.779,268
167.804,270
167.829,260
167.854,244
167.879,231
167.904,225
167.929,227
167.954,230
167.979,233
168.004,231
168.029,228
168.054,225
168.079,226
168.104,230
168.129,235
168.154,236
168.179,233
168.204,225
168.229,212
168.254,198
168.279,184
168.304,174
168.329,167
168.354,154
168.379,131
168.404,100
168.429,75
168.454,74
168.479,98
168.504,137
168.529,170
168.554,186
168.579,191
168.604,196
168.629,208
168.654,223
168.679,231
168.704,230
168.729,225
168.754,222
168.779,224
168.804,228
168.829,229
168.854,226
168.879,219
168.904,211
168.929,201
168.954,192
168.979,187
169.004,186
169.029,183
169.054,175
169.079,162
169.104,153
169.129,154
169.154,161
169.179,163
169.204,151
169.229,129
169.254,113
169.279,121
169.304,154
169.329,202
169.354,250
169.379,286
169.404,308
169.429,318
169.454,321
169.479,320
169.504,323
169.529,331
169.554,344
169.579,357
169.604,364
169.629,365
169.654,360
169.679,352
169.704,341
169.729,329
169.754,318
169.779,309
169.804,296
169.829,278
169.854,254
169.879,231
169.904,214
169.929,195
169.954,161
169.979,104
170.004,37
170.029,-15
170.054,-37
170.079,-30
170.104,-12
170.129,3
170.154,14
170.179,23
170.204,35
170.229,48
170.254,57
170.279,63
170.304,66
170.329,68
170.354,71
170.379,78
170.404,96
170.429,128
170.454,168
170.479,207
170.504,246
170.529,291
170.554,346
170.579,399
170.604,427
170.629,422
170.654,396
170.679,371
170.704,356
170.729,337
170.754,298
170.779,247
170.804,209
170.829,207
170.854,238
170.879,271
170.904,283
170.929,273
170.954,260
170.979,256
171.004,259
171.029,254
171.054,238
171.079,220
171.104,210
171.129,207
171.154,205
171.179,199
171.204,192
171.229,189
171.254,187
171.279,178
171.304,159
171.329,138
171.354,122
171.379,111
171.404,96
171.429,73
171.454,48
171.479,30
171.504,19
171.529,4
171.554,-21
171.579,-48
171.604,-54
171.629,-22
171.654,40
171.679,114
171.704,179
171.729,228
171.754,270
171.779,310
171.804,347
171.829,375
171.854,390
171.879,393
171.904,388
171.929,378
171.954,369
171.979,362
172.004,360
172.029,358
172.054,351
172.079,337
172.104,318
172.129,298
172.154,279
172.179,261
172.204,244
172.229,227
172.254,212
172.279,195
172.304,173
172.329,146
172.354,120
172.379,98
172.404,77
172.429,51
172.454,16
172.479,-14
172.504,-26
172.529,-9
172.554,28
172.579,72
172.604,109
172.629,137
172.654,160
172.679,182
172.704,203
172.729,223
172.754,240
172.779,253
172.804,261
172.829,266
172.854,272
172.879,285
172.904,304
172.929,325
172.954,337
172.979,336
173.004,325
173.029,312
173.054,302
173.079,297
173.104,296
173.129,297
173.154,296
173.179,286
173.204,264
173.229,237
173.254,215
173.279,206
173.304,202
173.329,187
173.354,152
173.379,106
173.404,73
173.429,69
173.454,91
173.479,123
173.504,151
173.529,171
173.554,186
173.579,201
173.604,211
173.629,213
173.654,210
173.679,207
173.704,209
173.729,214
173.754,216
173.779,216
173.804,217
173.829,222
173.854,228
173.879,229
173.904,220
173.929,204
173.954,187
173.979,176
174.004,171
174.029,170
174.054,168
174.079,165
174.104,163
174.129,168
174.154,176
174.179,180
174.204,169
174.229,142
174.254,108
174.279,85
174.304,85
174.329,107
174.354,140
174.379,170
174.404,192
174.429,210
174.454,228
174.479,248
174.504,266
174.529,276
174.554,277
174.579,270
174.604,264
174.629,262
174.654,268
174.679,276
174.704,283
174.729,285
174.754,286
174.779,284
174.804,279
174.829,268
174.854,253
174.879,240
174.904,233
174.929,227
174.954,214
174.979,194
175.004,175
175.029,163
175.054,154
175.079,137
175.104,102
175.129,60
175.154,35
175.179,43
175.204,80
175.229,126
175.254,160
175.279,179
175.304,194
175.329,213
175.354,236
175.379,256
175.404,265
175.429,264
175.454,257
175.479,253
175.504,254
175.529,259
175.554,267
175.579,271
175.604,267
175.629,253
175.654,232
175.679,208
175.704,185
175.729,164
175.754,147
175.779,134
175.804,123
175.829,112
175.854,99
175.879,84
175.904,66
175.929,45
175.954,25
175.979,12
176.004,17
176.029,47
176.054,98
176.079,157
176.104,210
176.129,250
176.154,282
176.179,312
176.204,340
176.229,359
176.254,365
176.279,359
176.304,352
176.329,347
176.354,345
176.379,339
176.404,327
176.429,311
176.454,293
176.479,274
176.504,254
176.529,236
176.554,224
176.579,218
176.604,212
176.629,199
176.654,178
176.679,159
176.704,152
176.729,153
176.754,151
176.779,131
176.804,94
176.829,57
176.854,38
176.879,45
176.904,74
176.929,111
176.954,145
176.979,172
177.004,193
177.029,211
177.054,226
177.079,239
177.104,252
177.129,264
177.154,275
177.179,284
177.204,295
177.229,306
177.254,317
177.279,320
177.304,311
177.329,294
177.354,276
177.379,263
177.404,258
177.429,253
177.454,241
177.479,219
177.504,194
177.529,173
177.554,160
177.579,147
177.604,124
177.629,89
177.654,55
177.679,39
177.704,53
177.729,89
177.754,126
177.779,150
177.804,159
177.829,165
177.854,176
177.879,191
177.904,202
177.929,205
177.954,203
177.979,202
178.004,208
178.029,220
178.054,234
178.079,248
178.104,261
178.129,267
178.154,263
178.179,250
178.204,235
178.229,227
178.254,224
178.279,222
178.304,212
178.329,200
178.354,191
178.379,189
178.404,184
178.429,164
178.454,130
178.479,95
178.504,80
178.529,93
178.554,128
178.579,164
178.604,189
178.629,201
178.654,210
178.679,223
178.704,238
178.729,247
178.754,248
178.779,243
178.804,240
178.829,242
178.854,249
178.879,258
178.904,265
178.929,271
178.954,275
178.979,278
179.004,280
179.029,280
179.054,277
179.079,271
179.104,264
179.129,254
179.154,243
179.179,233
179.204,224
179.229,215
179.254,204
179.279,188
179.304,164
179.329,134
179.354,101
179.379,70
179.404,45
179.429,28
179.454,21
179.479,23
179.504,33
179.529,53
179.554,82
179.579,115
179.604,147
179.629,172
179.654,192
179.679,210
179.704,229
179.729,248
179.754,263
179.779,272
179.804,278
179.829,284
179.854,292
179.879,299
179.904,305
179.929,309
179.954,310
179.979,309
180.004,303
180.029,296
180.054,291
180.079,284
180.104,269
180.129,237
180.154,193
180.179,154
180.204,135
180.229,141
180.254,161
180.279,178
180.304,185
180.329,188
180.354,195
180.379,207
180.404,215
180.429,214
180.454,205
180.479,199
180.504,204
180.529,219
180.554,235
180.579,243
180.604,241
180.629,230
180.654,217
180.679,204
180.704,195
180.729,190
180.754,184
180.779,177
180.804,167
180.829,160
180.854,159
180.879,161
180.904,156
180.929,135
180.954,105
180.979,83
181.004,83
181.029,106
181.054,138
181.079,164
181.104,176
181.129,180
181.154,181
181.179,182
181.204,180
181.229,177
181.254,175
181.279,177
181.304,180
181.329,181
181.354,181
181.379,189
181.404,209
181.429,234
181.454,252
181.479,255
181.504,245
181.529,234
181.554,227
181.579,220
181.604,210
181.629,196
181.654,183
181.679,169
181.704,151
181.729,125
181.754,99
181.779,87
181.804,98
181.829,128
181.854,162
181.879,191
181.904,216
181.929,244
181.954,276
181.979,309
182.004,335
182.029,353
182.054,366
182.079,380
182.104,393
182.129,403
182.154,407
182.179,406
182.204,400
182.229,389
182.254,373
182.279,353
182.304,330
182.329,308
182.354,288
182.379,267
182.404,244
182.429,220
182.454,195
182.479,169
182.504,140
182.529,103
182.554,55
182.579,3
182.604,-42
182.629,-68
182.654,-68
182.679,-48
182.704,-15
182.729,20
182.754,53
182.779,83
182.804,106
182.829,125
182.854,140
182.879,153
182.904,165
182.929,172
182.954,173
182.979,172
183.004,176
183.029,189
183.054,204
183.079,217
183.104,224
183.129,233
183.154,249
183.179,273
183.204,296
183.229,310
183.254,311
183.279,303
183.304,290
183.329,274
183.354,258
183.379,243
183.404,225
183.429,199
183.454,160
183.479,117
183.504,84
183.529,76
183.554,93
183.579,123
183.604,150
183.629,169
183.654,184
183.679,199
183.704,217
183.729,235
183.754,253
183.779,269
183.804,282
183.829,286
183.854,283
183.879,280
183.904,285
183.929,294
183.954,301
183.979,295
184.004,283
184.029,275
184.054,277
184.079,283
184.104,279
184.129,262
184.154,238
184.179,217
184.204,201
184.229,185
184.254,168
184.279,153
184.304,141
184.329,127
184.354,104
184.379,74
184.404,51
184.429,50
184.454,72
184.479,105
184.504,137
184.529,165
184.554,196
184.579,228
184.604,252
184.629,255
184.654,240
184.679,220
184.704,206
184.729,196
184.754,185
184.779,174
184.804,175
184.829,194
184.854,220
184.879,235
184.904,230
184.929,215
184.954,210
184.979,223
185.004,243
185.029,252
185.054,246
185.079,238
185.104,236
185.129,237
185.154,224
185.179,186
185.204,138
185.229,105
185.254,101
185.279,121
185.304,145
185.329,161
185.354,172
185.379,188
185.404,210
185.429,232
185.454,246
185.479,251
185.504,251
185.529,247
185.554,240
185.579,231
185.604,230
185.629,245
185.654,271
185.679,291
185.704,290
185.729,269
185.754,246
185.779,237
185.804,239
185.829,237
185.854,223
185.879,202
185.904,184
185.929,170
185.954,151
185.979,120
186.004,87
186.029,69
186.054,75
186.079,100
186.104,128
186.129,150
186.154,168
186.179,187
186.204,204
186.229,212
186.254,210
186.279,204
186.304,204
186.329,210
186.354,219
186.379,226
186.404,231
186.429,239
186.454,245
186.479,247
186.504,240
186.529,230
186.554,220
186.579,212
186.604,205
186.629,198
186.654,192
186.679,187
186.704,177
186.729,158
186.754,135
186.779,124
186.804,137
186.829,170
186.854,205
186.879,226
186.904,229
186.929,222
186.954,218
186.979,216
187.004,213
187.029,208
187.054,203
187.079,205
187.104,216
187.129,230
187.154,241
187.179,245
187.204,242
187.229,237
187.254,234
187.279,230
187.304,224
187.329,214
187.354,203
187.379,196
187.404,196
187.429,194
187.454,182
187.479,154
187.504,122
187.529,105
187.554,117
187.579,152
187.604,193
187.629,223
187.654,241
187.679,253
187.704,264
187.729,272
187.754,274
187.779,269
187.804,262
187.829,258
187.854,257
187.879,252
187.904,242
187.929,228
187.954,218
187.979,211
188.004,205
188.029,196
188.054,186
188.079,177
188.104,169
188.129,159
188.154,143
188.179,120
188.204,98
188.229,86
188.254,89
188.279,107
188.304,132
188.329,154
188.354,171
188.379,182
188.404,192
188.429,199
188.454,201
188.479,198
188.504,192
188.529,188
188.554,193
188.579,212
188.604,238
188.629,262
188.654,277
188.679,281
188.704,279
188.729,276
188.754,269
188.779,253
188.804,228
188.829,199
188.854,173
188.879,154
188.904,136
188.929,115
188.954,92
188.979,80
189.004,91
189.029,122
189.054,158
189.079,186
189.104,202
189.129,215
189.154,234
189.179,256
189.204,272
189.229,273
189.254,265
189.279,260
189.304,265
189.329,278
189.354,286
189.379,284
189.404,274
189.429,264
189.454,259
189.479,256
189.504,253
189.529,244
189.554,231
189.579,215
189.604,202
189.629,194
189.654,188
189.679,181
189.704,170
189.729,156
189.754,144
189.779,135
189.804,123
189.829,100
189.854,65
189.879,34
189.904,27
189.929,50
189.954,90
189.979,126
190.004,146
190.029,159
190.054,180
190.079,214
190.104,247
190.129,264
190.154,262
190.179,251
190.204,247
190.229,255
190.254,269
190.279,281
190.304,288
190.329,291
190.354,289
190.379,283
190.404,277
190.429,275
190.454,278
190.479,280
190.504,274
190.529,259
190.554,243
190.579,233
190.604,227
190.629,220
190.654,208
190.679,197
190.704,191
190.729,186
190.754,173
190.779,150
190.804,126
190.829,114
190.854,114
190.879,110
190.904,87
190.929,48
190.954,18
190.979,17
191.004,49
191.029,94
191.054,130
191.079,151
191.104,166
191.129,186
191.154,212
191.179,236
191.204,251
191.229,258
191.254,264
191.279,273
191.304,287
191.329,302
191.354,313
191.379,320
191.404,323
191.429,321
191.454,316
191.479,309
191.504,301
191.529,293
191.554,285
191.579,276
191.604,265
191.629,255
191.654,245
191.679,235
191.704,220
191.729,200
191.754,179
191.779,163
191.804,151
191.829,139
191.854,117
191.879,82
191.904,45
191.929,24
191.954,31
191.979,60
192.004,96
192.029,122
192.054,134
192.079,140
192.104,147
192.129,156
192.154,166
192.179,171
192.204,175
192.229,181
192.254,192
192.279,208
192.304,227
192.329,246
192.354,261
192.379,271
192.404,273
192.429,269
192.454,265
192.479,263
192.504,261
192.529,257
192.554,250
192.579,243
192.604,240
192.629,241
192.654,239
192.679,229
192.704,211
192.729,194
192.754,187
192.779,188
192.804,184
192.829,163
192.854,125
192.879,87
192.904,71
192.929,86
192.954,124
192.979,163
193.004,188
193.029,200
193.054,207
193.079,217
193.104,230
193.129,239
193.154,240
193.179,235
193.204,232
193.229,234
193.254,241
193.279,248
193.304,255
193.329,259
193.354,259
193.379,254
193.404,243
193.429,229
193.454,217
193.479,209
193.504,204
193.529,203
193.554,209
193.579,227
193.604,256
193.629,282
193.654,289
193.679,268
193.704,230
193.729,199
193.754,194
193.779,211
193.804,224
193.829,205
193.854,151
193.879,87
193.904,46
193.929,46
193.954,76
193.979,111
194.004,135
194.029,150
194.054,165
194.079,186
194.104,205
194.129,215
194.154,214
194.179,209
194.204,209
194.229,210
194.254,210
194.279,207
194.304,206
194.329,211
194.354,217
194.379,219
194.404,215
194.429,209
194.454,206
194.479,206
194.504,203
194.529,195
194.554,187
194.579,185
194.604,187
194.629,184
194.654,174
194.679,163
194.704,161
194.729,170
194.754,176
194.779,165
194.804,140
194.829,121
194.854,126
194.879,157
194.904,197
194.929,226
194.954,239
194.979,245
195.004,251
195.029,259
195.054,263
195.079,261
195.104,259
195.129,260
195.154,263
195.179,261
195.204,252
195.229,240
195.254,232
195.279,229
195.304,231
195.329,234
195.354,237
195.379,242
195.404,249
195.429,259
195.454,271
195.479,282
195.504,293
195.529,300
195.554,303
195.579,300
195.604,294
195.629,282
195.654,263
195.679,238
195.704,214
195.729,203
195.754,211
195.779,229
195.804,238
195.829,218
195.854,170
195.879,110
195.904,63
195.929,41
195.954,41
195.979,47
196.004,48
196.029,43
196.054,42
196.079,49
196.104,65
196.129,85
196.154,105
196.179,126
196.204,148
196.229,168
196.254,179
196.279,182
196.304,181
196.329,187
196.354,201
196.379,213
196.404,209
196.429,189
196.454,168
196.479,166
196.504,188
196.529,223
196.554,252
196.579,266
196.604,269
196.629,272
196.654,280
196.679,291
196.704,301
196.729,306
196.754,308
196.779,310
196.804,311
196.829,310
196.854,309
196.879,309
196.904,309
196.929,309
196.954,307
196.979,303
197.004,297
197.029,288
197.054,273
197.079,253
197.104,227
197.129,196
197.154,161
197.179,127
197.204,103
197.229,99
197.254,120
197.279,158
197.304,198
197.329,226
197.354,239
197.379,242
197.404,245
197.429,253
197.454,264
197.479,275
197.504,282
197.529,282
197.554,273
197.579,253
197.604,221
197.629,184
197.654,148
197.679,121
197.704,103
197.729,88
197.754,71
197.779,51
197.804,27
197.829,0
197.854,-29
197.879,-58
197.904,-83
197.929,-102
197.954,-114
197.979,-120
198.004,-118
198.029,-98
198.054,-55
198.079,0
198.104,47
198.129,63
198.154,55
198.179,56
198.204,107
198.229,224
198.254,380
198.279,523
198.304,615
198.329,650
198.354,647
198.379,626
198.404,590
198.429,538
198.454,481
198.479,440
198.504,429
198.529,440
198.554,445
198.579,420
198.604,372
198.629,334
198.654,334
198.679,368
198.704,404
198.729,399
198.754,335
198.779,230
198.804,124
198.829,54
198.854,24
198.879,6
198.904,-41
198.929,-149
198.954,-312
198.979,-493
199.004,-641
199.029,-714
199.054,-696
199.079,-590
199.104,-412
199.129,-186
199.154,56
199.179,274
199.204,434
199.229,521
199.254,552
199.279,559
199.304,569
199.329,582
199.354,582
199.379,550
199.404,487
199.429,416
199.454,363
199.479,342
199.504,341
199.529,336
199.554,313
199.579,279
199.604,258
199.629,270
199.654,311
199.679,358
199.704,385
199.729,385
199.754,377
199.779,382
199.804,408
199.829,438
199.854,450
199.879,435
199.904,407
199.929,387
199.954,387
199.979,399
200.004,407
200.029,402
200.054,385
200.079,369
200.104,361
200.129,355
200.154,335
200.179,299
200.204,264
200.229,260
200.254,299
200.279,351
200.304,357
200.329,267
200.354,85
200.379,-124
200.404,-286
200.429,-357
200.454,-355
200.479,-328
200.504,-308
200.529,-288
200.554,-242
200.579,-160
200.604,-58
200.629,28
200.654,75
200.679,84
200.704,73
200.729,57
200.754,44
200.779,37
200.804,33
200.829,34
200.854,37
200.879,39
200.904,41
200.929,52
200.954,80
200.979,127
201.004,181
201.029,222
201.054,235
201.079,225
201.104,212
201.129,218
201.154,247
201.179,286
201.204,319
201.229,338
201.254,348
201.279,354
201.304,356
201.329,351
201.354,343
201.379,341
201.404,354
201.429,374
201.454,382
201.479,367
201.504,333
201.529,300
201.554,283
201.579,285
201.604,296
201.629,303
201.654,300
201.679,288
201.704,273
201.729,265
201.754,273
201.779,299
201.804,331
201.829,353
201.854,350
201.879,328
201.904,302
201.929,290
201.954,294
201.979,308
202.004,318
202.029,318
202.054,304
202.079,275
202.104,230
202.129,178
202.154,132
202.179,102
202.204,89
202.229,88
202.254,91
202.279,99
202.304,116
202.329,144
202.354,177
202.379,203
202.404,211
202.429,200
202.454,177
202.479,154
202.504,137
202.529,122
202.554,105
202.579,85
202.604,66
202.629,56
202.654,53
202.679,46
202.704,27
202.729,4
202.754,-5
202.779,14
202.804,58
202.829,107
202.854,139
202.879,152
202.904,156
202.929,163
202.954,170
202.979,172
203.004,168
203.029,163
203.054,161
203.079,161
203.104,158
203.129,155
203.154,161
203.179,183
203.204,215
203.229,249
203.254,282
203.279,326
203.304,386
203.329,453
203.354,507
203.379,534
203.404,540
203.429,541
203.454,540
203.479,522
203.504,467
203.529,377
203.554,276
203.579,189
203.604,127
203.629,78
203.654,31
203.679,-13
203.704,-44
203.729,-50
203.754,-32
203.779,4
203.804,57
203.829,121
203.854,186
203.879,239
203.904,269
203.929,281
203.954,290
203.979,310
204.004,338
204.029,360
204.054,364
204.079,348
204.104,326
204.129,310
204.154,303
204.179,298
204.204,286
204.229,270
204.254,255
204.279,245
204.304,232
204.329,205
204.354,163
204.379,118
204.404,89
204.429,84
204.454,95
204.479,106
204.504,107
204.529,102
204.554,100
204.579,101
204.604,101
204.629,94
204.654,85
204.679,80
204.704,83
204.729,90
204.754,94
204.779,97
204.804,105
204.829,120
204.854,138
204.879,152
204.904,165
204.929,182
204.954,209
204.979,239
205.004,261
205.029,272
205.054,275
205.079,272
205.104,258
205.129,227
205.154,187
205.179,161
205.204,169
205.229,209
205.254,258
205.279,291
205.304,301
205.329,303
205.354,311
205.379,321
205.404,320
205.429,303
205.454,279
205.479,268
205.504,274
205.529,290
205.554,299
205.579,299
205.604,296
205.629,298
205.654,303
205.679,300
205.704,288
205.729,273
205.754,266
205.779,267
205.804,262
205.829,234
205.854,184
205.879,126
205.904,83
205.929,68
205.954,79
205.979,103
206.004,125
206.029,143
206.054,157
206.079,171
206.104,183
206.129,185
206.154,175
206.179,157
206.204,141
206.229,138
206.254,151
206.279,172
206.304,190
206.329,200
206.354,202
206.379,200
206.404,197
206.429,195
206.454,192
206.479,187
206.504,177
206.529,158
206.554,129
206.579,95
206.604,69
206.629,66
206.654,85
206.679,115
206.704,142
206.729,157
206.754,164
206.779,170
206.804,177
206.829,184
206.854,191
206.879,196
206.904,201
206.929,207
206.954,213
206.979,218
207.004,222
207.029,225
207.054,227
207.079,227
207.104,226
207.129,222
207.154,212
207.179,194
207.204,169
207.229,146
207.254,129
207.279,119
207.304,109
207.329,98
207.354,94
207.379,112
207.404,159
207.429,229
207.454,303
207.479,361
207.504,395
207.529,407
207.554,407
207.579,406
207.604,409
207.629,415
207.654,421
207.679,418
207.704,404
207.729,381
207.754,355
207.779,330
207.804,306
207.829,282
207.854,256
207.879,230
207.904,203
207.929,178
207.954,156
207.979,141
208.004,132
208.029,124
208.054,111
208.079,95
208.104,81
208.129,70
208.154,58
208.179,38
208.204,10
208.229,-10
208.254,-6
208.279,22
208.304,64
208.329,101
208.354,127
208.379,147
208.404,169
208.429,195
208.454,216
208.479,228
208.504,233
208.529,236
208.554,240
208.579,246
208.604,253
208.629,263
208.654,277
208.679,291
208.704,300
208.729,302
208.754,298
208.779,291
208.804,284
208.829,276
208.854,267
208.879,255
208.904,237
208.929,212
208.954,186
208.979,166
209.004,161
209.029,162
209.054,156
209.079,131
209.104,95
209.129,69
209.154,70
209.179,96
209.204,130
209.229,155
209.254,171
209.279,183
209.304,197
209.329,210
209.354,216
209.379,218
209.404,220
209.429,225
209.454,229
209.479,231
209.504,236
209.529,249
209.554,270
209.579,289
209.604,297
209.629,294
209.654,290
209.679,291
209.704,295
209.729,294
209.754,286
209.779,275
209.804,267
209.829,260
209.854,250
209.879,237
209.904,223
209.929,209
209.954,188
209.979,156
210.004,117
210.029,90
210.054,92
210.079,121
210.104,157
210.129,179
210.154,183
210.179,179
210.204,180
210.229,186
210.254,188
210.279,185
210.304,183
210.329,187
210.354,196
210.379,203
210.404,202
210.429,198
210.454,197
210.479,201
210.504,206
210.529,205
210.554,198
210.579,189
210.604,183
210.629,180
210.654,179
210.679,179
210.704,175
210.729,169
210.754,162
210.779,159
210.804,159
210.829,154
210.854,132
210.879,95
210.904,59
210.929,49
210.954,76
210.979,125
211.004,172
211.029,203
211.054,226
211.079,255
211.104,292
211.129,324
211.154,340
211.179,341
211.204,339
211.229,340
211.254,338
211.279,327
211.304,312
211.329,305
211.354,313
211.379,325
211.404,323
211.429,305
211.454,281
211.479,265
211.504,257
211.529,245
211.554,222
211.579,193
211.604,168
211.629,149
211.654,126
211.679,94
211.704,61
211.729,48
211.754,65
211.779,101
211.804,138
211.829,161
211.854,170
211.879,173
211.904,175
211.929,177
211.954,177
211.979,176
212.004,177
212.029,176
212.054,174
212.079,169
212.104,168
212.129,171
212.154,174
212.179,176
212.204,177
212.229,184
212.254,198
212.279,212
212.304,218
212.329,218
212.354,226
212.379,247
212.404,269
212.429,267
212.454,235
212.479,191
212.504,170
212.529,190
212.554,237
212.579,280
212.604,298
212.629,297
212.654,294
212.679,298
212.704,302
212.729,297
212.754,282
212.779,267
212.804,260
212.829,259
212.854,259
212.879,257
212.904,255
212.929,253
212.954,247
212.979,235
213.004,219
213.029,206
213.054,198
213.079,190
213.104,177
213.129,162
213.154,148
213.179,134
213.204,111
213.229,74
213.254,36
213.279,19
213.304,36
213.329,76
213.354,114
213.379,133
213.404,140
213.429,148
213.454,164
213.479,177
213.504,177
213.529,165
213.554,153
213.579,151
213.604,158
213.629,169
213.654,182
213.679,199
213.704,217
213.729,226
213.754,223
213.779,214
213.804,215
213.829,226
213.854,233
213.879,222
213.904,197
213.929,176
213.954,171
213.979,174
214.004,166
214.029,142
214.054,125
214.079,143
214.104,202
214.129,281
214.154,349
214.179,393
214.204,425
214.229,456
214.254,487
214.279,502
214.304,489
214.329,452
214.354,404
214.379,357
214.404,315
214.429,279
214.454,252
214.479,236
214.504,226
214.529,214
214.554,198
214.579,177
214.604,155
214.629,136
214.654,118
214.679,100
214.704,82
214.729,68
214.754,58
214.779,53
214.804,51
214.829,45
214.854,29
214.879,1
214.904,-32
214.929,-54
214.954,-51
214.979,-23
215.004,12
215.029,40
215.054,60
215.079,80
215.104,110
215.129,142
215.154,160
215.179,157
215.204,144
215.229,144
215.254,169
215.279,214
215.304,262
215.329,305
215.354,343
215.379,381
215.404,419
215.429,450
215.454,466
215.479,466
215.504,450
215.529,426
215.554,400
215.579,380
215.604,365
215.629,351
215.654,334
215.679,315
215.704,298
215.729,283
215.754,262
215.779,227
215.804,176
215.829,128
215.854,104
215.879,112
215.904,139
215.929,162
215.954,169
215.979,162
216.004,155
216.029,154
216.054,158
216.079,161
216.104,161
216.129,161
216.154,165
216.179,171
216.204,181
216.229,195
216.254,210
216.279,222
216.304,226
216.329,223
216.354,221
216.379,226
216.404,236
216.429,242
216.454,236
216.479,222
216.504,210
216.529,205
216.554,202
216.579,192
216.604,174
216.629,156
216.654,148
216.679,146
216.704,133
216.729,99
216.754,53
216.779,19
216.804,17
216.829,46
216.854,89
216.879,124
216.904,143
216.929,151
216.954,160
216.979,173
217.004,182
217.029,182
217.054,171
217.079,157
217.104,148
217.129,149
217.154,159
217.179,170
217.204,177
217.229,181
217.254,189
217.279,211
217.304,244
217.329,281
217.354,308
217.379,320
217.404,321
217.429,318
217.454,311
217.479,299
217.504,284
217.529,273
217.554,273
217.579,277
217.604,266
217.629,227
217.654,169
217.679,118
217.704,100
217.729,117
217.754,152
217.779,182
217.804,201
217.829,213
217.854,227
217.879,241
217.904,248
217.929,246
217.954,243
217.979,246
218.004,256
218.029,268
218.054,279
218.079,290
218.104,303
218.129,317
218.154,326
218.179,326
218.204,316
218.229,300
218.254,282
218.279,265
218.304,251
218.329,242
218.354,234
218.379,224
218.404,213
218.429,202
218.454,196
218.479,191
218.504,174
218.529,139
218.554,92
218.579,56
218.604,48
218.629,69
218.654,99
218.679,118
218.704,121
218.729,121
218.754,130
218.779,145
218.804,155
218.829,151
218.854,138
218.879,129
218.904,134
218.929,148
218.954,161
218.979,170
219.004,176
219.029,183
219.054,189
219.079,194
219.104,199
219.129,207
219.154,217
219.179,220
219.204,212
219.229,198
219.254,190
219.279,192
219.304,198
219.329,192
219.354,170
219.379,143
219.404,131
219.429,143
219.454,171
219.479,200
219.504,223
219.529,240
219.554,256
219.579,272
219.604,282
219.629,287
219.654,288
219.679,291
219.704,299
219.729,310
219.754,321
219.779,329
219.804,331
219.829,328
219.854,319
219.879,308
219.904,299
219.929,290
219.954,281
219.979,270
220.004,256
220.029,239
220.054,213
220.079,177
220.104,135
220.129,98
220.154,75
220.179,68
220.204,68
220.229,69
220.254,73
220.279,86
220.304,107
220.329,128
220.354,140
220.379,144
220.404,148
220.429,155
220.454,161
220.479,164
220.504,164
220.529,172
220.554,192
220.579,215
220.604,228
220.629,225
220.654,213
220.679,204
220.704,207
220.729,217
220.754,225
220.779,221
220.804,202
220.829,171
220.854,138
220.879,117
220.904,118
220.929,141
220.954,175
220.979,205
221.004,223
221.029,235
221.054,247
221.079,259
221.104,266
221.129,266
221.154,264
221.179,268
221.204,280
221.229,291
221.254,293
221.279,286
221.304,275
221.329,266
221.354,258
221.379,250
221.404,240
221.429,228
221.454,214
221.479,197
221.504,181
221.529,168
221.554,157
221.579,141
221.604,115
221.629,86
221.654,72
221.679,88
221.704,130
221.729,178
221.754,213
221.779,232
221.804,245
221.829,259
221.854,270
221.879,266
221.904,246
221.929,219
221.954,202
221.979,197
222.004,197
222.029,193
222.054,184
222.079,173
222.104,161
222.129,145
222.154,125
222.179,105
222.204,95
222.229,98
222.254,111
222.279,132
222.304,159
222.329,195
222.354,234
222.379,262
222.404,263
222.429,236
222.454,196
222.479,166
222.504,158
222.529,171
222.554,193
222.579,212
222.604,228
222.629,241
222.654,255
222.679,265
222.704,270
222.729,271
222.754,273
222.779,283
222.804,303
222.829,327
222.854,347
222.879,358
222.904,358
222.929,351
222.954,342
222.979,334
223.004,327
223.029,318
223.054,303
223.079,280
223.104,253
223.129,224
223.154,197
223.179,169
223.204,135
223.229,94
223.254,49
223.279,12
223.304,-6
223.329,-6
223.354,6
223.379,25
223.404,44
223.429,62
223.454,83
223.479,104
223.504,121
223.529,132
223.554,137
223.579,144
223.604,160
223.629,184
223.654,206
223.679,214
223.704,204
223.729,185
223.754,172
223.779,170
223.804,174
223.829,173
223.854,166
223.879,161
223.904,164
223.929,172
223.954,181
223.979,191
224.004,208
224.029,235
224.054,262
224.079,272
224.104,258
224.129,235
224.154,224
224.179,235
224.204,259
224.229,278
224.254,284
224.279,286
224.304,294
224.329,309
224.354,320
224.379,324
224.404,322
224.429,321
224.454,324
224.479,326
224.504,328
224.529,334
224.554,345
224.579,355
224.604,350
224.629,323
224.654,282
224.679,240
224.704,203
224.729,171
224.754,140
224.779,112
224.804,93
224.829,87
224.854,92
224.879,102
224.904,115
224.929,125
224.954,125
224.979,110
225.004,83
225.029,59
225.054,55
225.079,77
225.104,112
225.129,144
225.154,163
225.179,169
225.204,167
225.229,161
225.254,153
225.279,149
225.304,152
225.329,165
225.354,183
225.379,198
225.404,205
225.429,207
225.454,208
225.479,211
225.504,215
225.529,219
225.554,222
225.579,227
225.604,231
225.629,233
225.654,231
225.679,227
225.704,223
225.729,225
225.754,229
225.779,228
225.804,214
225.829,186
225.854,157
225.879,139
225.904,142
225.929,161
225.954,185
225.979,203
226.004,215
226.029,225
226.054,232
226.079,234
226.104,228
226.129,223
226.154,227
226.179,242
226.204,260
226.229,269
226.254,268
226.279,264
226.304,266
226.329,274
226.354,277
226.379,272
226.404,262
226.429,256
226.454,256
226.479,257
226.504,252
226.529,246
226.554,244
226.579,250
226.604,255
226.629,248
226.654,224
226.679,194
226.704,174
226.729,171
226.754,180
226.779,190
226.804,192
226.829,188
226.854,183
226.879,181
226.904,183
226.929,187
226.954,194
226.979,202
227.004,210
227.029,210
227.054,200
227.079,179
227.104,157
227.129,144
227.154,143
227.179,150
227.204,157
227.229,158
227.254,157
227.279,158
227.304,160
227.329,159
227.354,152
227.379,140
227.404,131
227.429,129
227.454,130
227.479,124
227.504,109
227.529,90
227.554,82
227.579,94
227.604,122
227.629,155
227.654,180
227.679,198
227.704,212
227.729,228
227.754,247
227.779,267
227.804,286
227.829,299
227.854,304
227.879,301
227.904,292
227.929,283
227.954,281
227.979,288
228.004,297
228.029,303
228.054,299
228.079,287
228.104,271
228.129,255
228.154,239
228.179,224
228.204,212
228.229,203
228.254,199
228.279,198
228.304,198
228.329,192
228.354,172
228.379,138
228.404,99
228.429,75
228.454,78
228.479,106
228.504,140
228.529,163
228.554,174
228.579,183
228.604,200
228.629,218
228.654,225
228.679,217
228.704,206
228.729,210
228.754,233
228.779,264
228.804,286
228.829,297
228.854,302
228.879,308
228.904,313
228.929,309
228.954,295
228.979,276
229.004,262
229.029,253
229.054,246
229.079,236
229.104,220
229.129,199
229.154,177
229.179,161
229.204,154
229.229,154
229.254,148
229.279,123
229.304,84
229.329,49
229.354,42
229.379,68
229.404,109
229.429,142
229.454,157
229.479,165
229.504,177
229.529,196
229.554,210
229.579,212
229.604,207
229.629,205
229.654,210
229.679,217
229.704,224
229.729,228
229.754,235
229.779,242
229.804,246
229.829,245
229.854,243
229.879,243
229.904,243
229.929,240
229.954,230
229.979,217
230.004,206
230.029,198
230.054,190
230.079,183
230.104,180
230.129,181
230.154,178
230.179,160
230.204,125
230.229,89
230.254,73
230.279,88
230.304,123
230.329,163
230.354,195
230.379,222
230.404,247
230.429,272
230.454,291
230.479,301
230.504,307
230.529,312
230.554,316
230.579,319
230.604,320
230.629,325
230.654,335
230.679,342
230.704,340
230.729,330
230.754,317
230.779,305
230.804,286
230.829,246
230.854,187
230.879,126
230.904,87
230.929,73
230.954,68
230.979,57
231.004,37
231.029,21
231.054,12
231.079,3
231.104,-16
231.129,-42
231.154,-50
231.179,-23
231.204,31
231.229,86
231.254,125
231.279,155
231.304,199
231.329,266
231.354,340
231.379,392
231.404,407
231.429,396
231.454,379
231.479,368
231.504,362
231.529,356
231.554,352
231.579,353
231.604,360
231.629,362
231.654,353
231.679,330
231.704,298
231.729,266
231.754,239
231.779,217
231.804,200
231.829,182
231.854,167
231.879,156
231.904,153
231.929,153
231.954,147
231.979,127
232.004,96
232.029,70
232.054,65
232.079,85
232.104,116
232.129,141
232.154,153
232.179,162
232.204,175
232.229,190
232.254,197
232.279,193
232.304,183
232.329,177
232.354,180
232.379,187
232.404,191
232.429,194
232.454,198
232.479,202
232.504,199
232.529,184
232.554,164
232.579,149
232.604,145
232.629,146
232.654,138
232.679,120
232.704,104
232.729,103
232.754,120
232.779,139
232.804,144
232.829,132
232.854,119
232.879,123
232.904,153
232.929,200
232.954,251
232.979,296
233.004,331
233.029,360
233.054,381
233.079,396
233.104,405
233.129,405
233.154,397
233.179,381
233.204,359
233.229,339
233.254,324
233.279,314
233.304,300
233.329,276
233.354,243
233.379,209
233.404,183
233.429,168
233.454,163
233.479,162
233.504,159
233.529,155
233.554,153
233.579,152
233.604,150
233.629,141
233.654,124
233.679,104
233.704,92
233.729,98
233.754,121
233.779,150
233.804,175
233.829,190
233.854,197
233.879,201
233.904,204
233.929,206
233.954,206
233.979,207
234.004,212
234.029,219
234.054,227
234.079,236
234.104,244
234.129,251
234.154,253
234.179,249
234.204,243
234.229,239
234.254,235
234.279,227
234.304,213
234.329,195
234.354,183
234.379,179
234.404,179
234.429,169
234.454,144
234.479,113
234.504,93
234.529,95
234.554,118
234.579,147
234.604,171
234.629,186
234.654,198
234.679,208
234.704,216
234.729,222
234.754,224
234.779,227
234.804,230
234.829,234
234.854,236
234.879,238
234.904,243
234.929,253
234.954,260
234.979,257
235.004,239
235.029,214
235.054,198
235.079,201
235.104,221
235.129,241
235.154,247
235.179,235
235.204,216
235.229,197
235.254,177
235.279,151
235.304,119
235.329,91
235.354,80
235.379,89
235.404,108
235.429,126
235.454,138
235.479,148
235.504,158
235.529,169
235.554,174
235.579,175
235.604,177
235.629,184
235.654,195
235.679,205
235.704,212
235.729,222
235.754,239
235.779,263
235.804,284
235.829,298
235.854,303
235.879,306
235.904,313
235.929,326
235.954,340
235.979,350
236.004,353
236.029,347
236.054,332
236.079,310
236.104,284
236.129,256
236.154,224
236.179,185
236.204,144
236.229,110
236.254,97
236.279,110
236.304,141
236.329,172
236.354,195
236.379,213
236.404,236
236.429,265
236.454,288
236.479,283
236.504,242
236.529,177
236.554,111
236.579,67
236.604,49
236.629,50
236.654,60
236.679,76
236.704,99
236.729,128
236.754,156
236.779,176
236.804,191
236.829,206
236.854,228
236.879,259
236.904,289
236.929,307
236.954,306
236.979,287
237.004,263
237.029,249
237.054,248
237.079,249
237.104,230
237.129,180
237.154,114
237.179,59
237.204,41
237.229,57
237.254,89
237.279,117
237.304,141
237.329,168
237.354,203
237.379,237
237.404,258
237.429,262
237.454,259
237.479,261
237.504,272
237.529,287
237.554,300
237.579,314
237.604,328
237.629,338
237.654,335
237.679,316
237.704,289
237.729,263
237.754,242
237.779,222
237.804,201
237.829,180
237.854,162
237.879,149
237.904,135
237.929,118
237.954,101
237.979,89
238.004,81
238.029,71
238.054,53
238.079,34
238.104,30
238.129,52
238.154,97
238.179,148
238.204,184
238.229,200
238.254,204
238.279,207
238.304,211
238.329,212
238.354,208
238.379,203
238.404,207
238.429,225
238.454,255
238.479,288
238.504,320
238.529,351
238.554,383
238.579,409
238.604,419
238.629,405
238.654,371
238.679,333
238.704,304
238.729,289
238.754,281
238.779,275
238.804,267
238.829,256
238.854,238
238.879,209
238.904,173
238.929,141
238.954,130
238.979,143
239.004,172
239.029,203
239.054,225
239.079,236
239.104,237
239.129,232
239.154,223
239.179,212
239.204,203
239.229,196
239.254,189
239.279,184
239.304,180
239.329,180
239.354,182
239.379,181
239.404,174
239.429,161
239.454,146
239.479,130
239.504,113
239.529,101
239.554,102
239.579,124
239.604,155
239.629,173
239.654,163
239.679,133
239.704,110
239.729,112
239.754,132
239.779,148
239.804,147
239.829,138
239.854,138
239.879,152
239.904,168
239.929,172
239.954,166
239.979,160
240.004,162
240.029,172
240.054,183
240.079,195
240.104,204
240.129,206
240.154,194
240.179,177
240.204,171
240.229,191
240.254,237
240.279,299
240.304,358
240.329,391
240.354,379
240.379,318
240.404,235
240.429,170
240.454,154
240.479,178
240.504,206
240.529,213
240.554,204
240.579,200
240.604,207
240.629,207
240.654,191
240.679,173
240.704,177
240.729,202
240.754,217
240.779,200
240.804,165
240.829,144
240.854,139
240.879,126
240.904,96
240.929,79
240.954,109
240.979,176
241.004,233
241.029,260
241.054,296
241.079,379
241.104,489
241.129,548
241.154,516
241.179,439
241.204,389
241.229,378
241.254,348
241.279,265
241.304,172
241.329,128
241.354,122
241.379,80
241.404,-25
241.429,-123
241.454,-135
241.479,-87
241.504,-88
241.529,-171
241.554,-232
241.579,-155
241.604,19
241.629,134
241.654,120
241.679,99
241.704,221
241.729,446
241.754,566
241.779,482
241.804,352
241.829,392
241.854,569
241.879,612
241.904,387
241.929,125
241.954,157
241.979,427
242.004,461
242.029,-48
242.054,-704
242.079,-655
242.104,485
242.129,2068
242.154,2905
242.179,2409
242.204,1187
242.229,439
242.254,800
242.279,1789
242.304,2369
242.329,1953
242.354,870
242.379,-46
242.404,-227
242.429,208
242.454,635
242.479,467
242.504,-362
242.529,-1347
242.554,-1828
242.579,-1634
242.604,-1350
242.629,-1852
242.654,-3416
242.679,-5264
242.704,-6147
242.729,-5491
242.754,-3937
242.779,-2647
242.804,-2083
242.829,-1574
242.854,-159
242.879,2237
242.904,4591
242.929,5720
242.954,5333
242.979,4085
243.004,2770
243.029,1642
243.054,549
243.079,-513
243.104,-1203
243.129,-1180
243.154,-484
243.179,542
243.204,1604
243.229,2566
243.254,3256
243.279,3363
243.304,2697
243.329,1537
243.354,526
243.379,142
243.404,293
243.429,491
243.454,407
243.479,149
243.504,24
243.529,115
243.554,220
243.579,145
243.604,-47
243.629,-149
243.654,-83
243.679,14
243.704,-9
243.729,-127
243.754,-191
243.779,-136
243.804,-55
243.829,-65
243.854,-154
243.879,-213
243.904,-187
243.929,-133
243.954,-126
243.979,-158
244.004,-154
244.029,-84
244.054,-1
244.079,30
244.104,23
244.129,33
244.154,83
244.179,128
244.204,122
244.229,81
244.254,58
244.279,77
244.304,104
244.329,101
244.354,79
244.379,80
244.404,119
244.429,162
244.454,169
244.479,140
244.504,106
244.529,88
244.554,76
244.579,52
244.604,19
244.629,2
244.654,11
244.679,35
244.704,59
244.729,83
244.754,110
244.779,131
244.804,131
244.829,110
244.854,91
244.879,98
244.904,130
244.929,162
244.954,177
244.979,178
245.004,179
245.029,184
245.054,179
245.079,160
245.104,144
245.129,154
245.154,197
245.179,256
245.204,309
245.229,345
245.254,366
245.279,380
245.304,385
245.329,379
245.354,363
245.379,348
245.404,339
245.429,335
245.454,330
245.479,324
245.504,324
245.529,336
245.554,357
245.579,378
245.604,394
245.629,407
245.654,424
245.679,445
245.704,457
245.729,447
245.754,409
245.779,356
245.804,307
245.829,281
245.854,274
245.879,269
245.904,249
245.929,211
245.954,163
245.979,117
246.004,80
246.029,52
246.054,35
246.079,28
246.104,30
246.129,34
246.154,36
246.179,36
246.204,38
246.229,49
246.254,66
246.279,85
246.304,98
246.329,105
246.354,107
246.379,108
246.404,109
246.429,113
246.454,120
246.479,131
246.504,145
246.529,162
246.554,179
246.579,189
246.604,185
246.629,162
246.654,129
246.679,104
246.704,104
246.729,130
246.754,168
246.779,198
246.804,213
246.829,219
246.854,225
246.879,234
246.904,240
246.929,241
246.954,242
246.979,253
247.004,274
247.029,298
247.054,314
247.079,324
247.104,333
247.129,347
247.154,364
247.179,374
247.204,375
247.229,376
247.254,381
247.279,387
247.304,384
247.329,362
247.354,322
247.379,276
247.404,231
247.429,187
247.454,143
247.479,107
247.504,90
247.529,102
247.554,133
247.579,162
247.604,173
247.629,163
247.654,139
247.679,109
247.704,78
247.729,49
247.754,31
247.779,30
247.804,46
247.829,73
247.854,103
247.879,138
247.904,175
247.929,203
247.954,208
247.979,183
248.004,144
248.029,114
248.054,106
248.079,112
248.104,114
248.129,111
248.154,117
248.179,139
248.204,164
248.229,165
248.254,129
248.279,77
248.304,48
248.329,65
248.354,115
248.379,169
248.404,211
248.429,246
248.454,287
248.479,337
248.504,384
248.529,413
248.554,424
248.579,426
248.604,427
248.629,429
248.654,429
248.679,425
248.704,417
248.729,399
248.754,368
248.779,321
248.804,262
248.829,197
248.854,132
248.879,71
248.904,15
248.929,-34
248.954,-75
248.979,-106
249.004,-122
249.029,-113
249.054,-75
249.079,-14
249.104,52
249.129,113
249.154,165
249.179,220
249.204,283
249.229,347
249.254,395
249.279,418
249.304,420
249.329,412
249.354,395
249.379,370
249.404,338
249.429,308
249.454,287
249.479,270
249.504,242
249.529,198
249.554,152
249.579,120
249.604,105
249.629,91
249.654,65
249.679,33
249.704,17
249.729,33
249.754,72
249.779,109
249.804,130
249.829,140
249.854,156
249.879,180
249.904,205
249.929,223
249.954,240
249.979,266
250.004,303
250.029,336
250.054,350
250.079,342
250.104,322
250.129,299
250.154,276
250.179,254
250.204,235
250.229,226
250.254,225
250.279,220
250.304,202
250.329,173
250.354,146
250.379,135
250.404,138
250.429,142
250.454,141
250.479,139
250.504,146
250.529,166
250.554,190
250.579,207
250.604,216
250.629,225
250.654,240
250.679,260
250.704,277
250.729,286
250.754,289
250.779,293
250.804,299
250.829,302
250.854,293
250.879,266
250.904,224
250.929,176
250.954,132
250.979,98
251.004,75
251.029,62
251.054,60
251.079,74
251.104,107
251.129,156
251.154,209
251.179,250
251.204,270
251.229,271
251.254,265
251.279,262
251.304,265
251.329,270
251.354,272
251.379,273
251.404,275
251.429,280
251.454,283
251.479,278
251.504,263
251.529,245
251.554,230
251.579,218
251.604,203
251.629,176
251.654,138
251.679,101
251.704,82
251.729,90
251.754,118
251.779,150
251.804,169
251.829,168
251.854,157
251.879,148
251.904,148
251.929,153
251.954,154
251.979,145
252.004,131
252.029,115
252.054,99
252.079,77
252.104,50
252.129,24
252.154,10
252.179,14
252.204,28
252.229,40
252.254,40
252.279,35
252.304,36
252.329,50
252.354,76
252.379,104
252.404,125
252.429,136
252.454,140
252.479,142
252.504,148
252.529,167
252.554,204
252.579,252
252.604,301
252.629,342
252.654,379
252.679,420
252.704,466
252.729,511
252.754,543
252.779,562
252.804,575
252.829,593
252.854,611
252.879,619
252.904,611
252.929,596
252.954,585
252.979,579
253.004,564
253.029,535
253.054,502
253.079,483
253.104,484
253.129,489
253.154,479
253.179,456
253.204,439
253.229,435
253.254,417
253.279,337
253.304,170
253.329,-57
253.354,-281
253.379,-444
253.404,-529
253.429,-553
253.454,-533
253.479,-475
253.504,-381
253.529,-262
253.554,-137
253.579,-20
253.604,86
253.629,176
253.654,229
253.679,224
253.704,163
253.729,77
253.754,10
253.779,-16
253.804,-10
253.829,5
253.854,19
253.879,31
253.904,41
253.929,45
253.954,42
253.979,38
254.004,41
254.029,49
254.054,52
254.079,43
254.104,36
254.129,49
254.154,95
254.179,160
254.204,226
254.229,277
254.254,320
254.279,368
254.304,436
254.329,528
254.354,637
254.379,739
254.404,800
254.429,795
254.454,730
254.479,642
254.504,574
254.529,536
254.554,504
254.579,443
254.604,355
254.629,272
254.654,225
254.679,215
254.704,212
254.729,189
254.754,149
254.779,113
254.804,97
254.829,91
254.854,79
254.879,56
254.904,35
254.929,27
254.954,30
254.979,35
255.004,38
255.029,46
255.054,65
255.079,92
255.104,119
255.129,137
255.154,150
255.179,164
255.204,182
255.229,203
255.254,224
255.279,244
255.304,265
255.329,280
255.354,283
255.379,273
255.404,257
255.429,245
255.454,239
255.479,233
255.504,221
255.529,201
255.554,180
255.579,162
255.604,147
255.629,131
255.654,114
255.679,99
255.704,89
255.729,81
255.754,74
255.779,70
255.804,77
255.829,99
255.854,133
255.879,166
255.904,188
255.929,199
255.954,205
255.979,214
256.004,228
256.029,245
256.054,268
256.079,301
256.104,341
256.129,377
256.154,396
256.179,393
256.204,375
256.229,354
256.254,337
256.279,324
256.304,313
256.329,299
256.354,277
256.379,240
256.404,187
256.429,128
256.454,81
256.479,55
256.504,46
256.529,40
256.554,33
256.579,33
256.604,55
256.629,96
256.654,140
256.679,173
256.704,196
256.729,217
256.754,239
256.779,253
256.804,248
256.829,231
256.854,220
256.879,230
256.904,255
256.929,275
256.954,280
256.979,276
257.004,275
257.029,279
257.054,276
257.079,258
257.104,234
257.129,215
257.154,209
257.179,206
257.204,198
257.229,183
257.254,169
257.279,159
257.304,147
257.329,125
257.354,101
257.379,91
257.404,106
257.429,142
257.454,183
257.479,214
257.504,235
257.529,251
257.554,269
257.579,285
257.604,290
257.629,283
257.654,265
257.679,243
257.704,224
257.729,208
257.754,199
257.779,192
257.804,187
257.829,181
257.854,175
257.879,170
257.904,163
257.929,152
257.954,137
257.979,122
258.004,111
258.029,101
258.054,86
258.079,60
258.104,30
258.129,13
258.154,22
258.179,55
258.204,100
258.229,137
258.254,159
258.279,168
258.304,176
258.329,188
258.354,203
258.379,218
258.404,233
258.429,252
258.454,276
258.479,305
258.504,330
258.529,344
258.554,346
258.579,339
258.604,333
258.629,330
258.654,331
258.679,327
258.704,312
258.729,285
258.754,249
258.779,212
258.804,180
258.829,162
258.854,163
258.879,184
258.904,218
258.929,251
258.954,273
258.979,276
259.004,266
259.029,251
259.054,240
259.079,238
259.104,240
259.129,243
259.154,245
259.179,247
259.204,251
259.229,254
259.254,252
259.279,239
259.304,220
259.329,202
259.354,192
259.379,186
259.404,176
259.429,154
259.454,120
259.479,86
259.504,64
259.529,65
259.554,86
259.579,117
259.604,146
259.629,167
259.654,178
259.679,184
259.704,190
259.729,198
259.754,204
259.779,205
259.804,202
259.829,201
259.854,208
259.879,222
259.904,238
259.929,249
259.954,252
259.979,250
260.004,247
260.029,246
260.054,247
260.079,248
260.104,242
260.129,223
260.154,192
260.179,161
260.204,147
260.229,165
260.254,208
260.279,258
260.304,292
260.329,307
260.354,310
260.379,310
260.404,308
260.429,300
260.454,283
260.479,267
260.504,260
260.529,266
260.554,276
260.579,282
260.604,280
260.629,272
260.654,259
260.679,241
260.704,215
260.729,179
260.754,137
260.779,92
260.804,48
260.829,6
260.854,-33
260.879,-72
260.904,-108
260.929,-130
260.954,-131
260.979,-114
261.004,-100
261.029,-110
261.054,-140
261.079,-153
261.104,-99
261.129,33
261.154,205
261.179,347
261.204,413
261.229,405
261.254,363
261.279,315
261.304,262
261.329,191
261.354,99
261.379,11
261.404,-48
261.429,-68
261.454,-53
261.479,-7
261.504,67
261.529,165
261.554,271
261.579,364
261.604,435
261.629,494
261.654,546
261.679,584
261.704,589
261.729,555
261.754,500
261.779,454
261.804,435
261.829,432
261.854,425
261.879,403
261.904,378
261.929,366
261.954,367
261.979,370
262.004,363
262.029,352
262.054,347
262.079,350
262.104,348
262.129,328
262.154,291
262.179,255
262.204,235
262.229,223
262.254,197
262.279,141
262.304,66
262.329,-3
262.354,-45
262.379,-55
262.404,-38
262.429,-5
262.454,37
262.479,80
262.504,117
262.529,139
262.554,147
262.579,144
262.604,135
262.629,127
262.654,133
262.679,168
262.704,233
262.729,308
262.754,364
262.779,394
262.804,414
262.829,449
262.854,492
262.879,507
262.904,461
262.929,360
262.954,245
262.979,156
263.004,95
263.029,34
263.054,-47
263.079,-134
263.104,-193
263.129,-204
263.154,-175
263.179,-132
263.204,-89
263.229,-51
263.254,-17
263.279,8
263.304,33
263.329,77
263.354,158
263.379,260
263.404,344
263.429,373
263.454,349
263.479,308
263.504,285
263.529,286
263.554,291
263.579,284
263.604,268
263.629,257
263.654,254
263.679,246
263.704,224
263.729,194
263.754,173
263.779,165
263.804,158
263.829,137
263.854,105
263.879,81
263.904,82
263.929,110
263.954,151
263.979,191
264.004,221
264.029,243
264.054,260
264.079,273
264.104,285
264.129,296
264.154,305
264.179,310
264.204,313
264.229,318
264.254,330
264.279,348
264.304,360
264.329,356
264.354,335
264.379,308
264.404,284
264.429,266
264.454,247
264.479,221
264.504,192
264.529,165
264.554,144
264.579,124
264.604,104
264.629,89
264.654,92
264.679,116
264.704,152
264.729,184
264.754,200
264.779,204
264.804,208
264.829,217
264.854,232
264.879,244
264.904,250
264.929,253
264.954,257
264.979,263
265.004,268
265.029,267
