df_hash,22ZHK4.3NGMYT
device,HZ2X61
project_hash,29R7
project_name,istanbul_aydin_university
person_hash,29R7.VVA5
person_label,V18
date_time_start,2025-05-23_10-26-57.429000_+03
date_time_start_unix,1747985217.429
date_time_end,2025-05-23_10-35-12.468000_+03
length_difference_noticed,no

time,ppg_ir,ppg_ambient,ppg_red
5.299,179945,182,132317
5.304,179943,189,132343
5.309,179935,183,132306
5.314,179931,190,132303
5.319,179947,181,132294
5.324,179915,189,132285
5.329,179925,185,132278
5.334,179910,191,132285
5.339,179895,186,132271
5.344,179888,192,132262
5.349,179902,188,132267
5.354,179886,193,132270
5.359,179872,181,132258
5.364,179876,186,132268
5.369,179863,185,132261
5.374,179861,191,132265
5.379,179873,187,132260
5.384,179879,192,132248
5.389,179867,189,132257
5.393,179883,193,132246
5.398,179871,190,132250
5.403,179870,186,132240
5.408,179887,183,132234
5.413,179872,188,132214
5.418,179886,189,132237
5.423,179883,193,132212
5.428,179883,182,132224
5.433,179876,186,132208
5.438,179876,184,132207
5.443,179870,188,132190
5.448,179870,185,132197
5.453,179847,188,132204
5.458,179847,186,132186
5.463,179858,188,132190
5.468,179865,191,132198
5.473,179891,184,132206
5.478,179886,184,132218
5.483,179902,186,132208
5.488,179907,185,132237
5.493,179908,187,132245
5.498,179925,187,132239
5.503,179948,189,132250
5.508,179940,190,132273
5.513,179933,187,132266
5.518,179928,190,132271
5.523,179938,192,132282
5.527,179943,184,132273
5.532,179959,185,132277
5.537,179956,185,132283
5.542,179955,185,132295
5.547,179971,185,132290
5.552,179979,186,132297
5.557,179982,186,132302
5.562,179998,189,132304
5.567,179990,186,132298
5.572,179980,185,132310
5.577,179999,186,132312
5.582,179999,186,132297
5.587,180015,188,132314
5.592,180044,187,132320
5.597,180036,189,132334
5.602,180037,188,132337
5.607,180029,190,132340
5.612,180014,183,132348
5.617,180010,186,132342
5.622,179991,184,132334
5.627,179962,188,132302
5.632,179950,186,132309
5.637,179940,190,132280
5.642,179914,187,132266
5.647,179896,191,132259
5.652,179882,190,132239
5.657,179869,185,132252
5.661,179864,186,132229
5.666,179875,190,132215
5.671,179882,187,132215
5.676,179874,190,132219
5.681,179876,187,132220
5.686,179883,191,132205
5.691,179892,188,132214
5.696,179880,193,132204
5.701,179886,181,132201
5.706,179882,186,132213
5.711,179895,185,132214
5.716,179885,191,132222
5.721,179883,187,132213
5.726,179893,193,132210
5.731,179895,189,132219
5.736,179892,186,132225
5.741,179888,182,132225
5.746,179886,188,132223
5.751,179904,183,132246
5.756,179912,191,132284
5.761,179923,183,132267
5.766,179934,189,132282
5.771,179932,183,132294
5.776,179957,189,132309
5.781,179946,184,132318
5.786,179930,191,132315
5.791,179953,186,132324
5.796,179951,193,132324
5.800,179946,187,132335
5.805,179908,188,132331
5.810,179935,182,132325
5.815,179927,190,132320
5.820,179936,183,132314
5.825,179940,191,132322
5.830,179939,185,132322
5.835,179924,192,132306
5.840,179926,186,132314
5.845,179910,194,132302
5.850,179900,188,132296
5.855,179892,190,132295
5.860,179904,183,132276
5.865,179883,191,132293
5.870,179885,184,132303
5.875,179892,192,132331
5.880,179880,186,132322
5.885,179906,193,132324
5.890,179893,187,132319
5.895,179890,195,132309
5.900,179885,188,132315
5.905,179892,190,132322
5.910,179880,183,132332
5.915,179899,191,132329
5.920,179883,183,132337
5.925,179884,192,132329
5.930,179864,185,132343
5.934,179872,193,132347
5.939,179870,187,132356
5.944,179877,195,132369
5.949,179860,187,132369
5.954,179890,189,132383
5.959,179886,182,132395
5.964,179888,191,132407
5.969,179890,183,132412
5.974,179862,192,132410
5.979,179876,185,132430
5.984,179895,193,132420
5.989,179892,186,132439
5.994,179884,194,132440
5.999,179883,179,132449
6.004,179877,189,132448
6.009,179875,182,132457
6.014,179872,191,132450
6.019,179873,184,132448
6.024,179864,192,132454
6.029,179863,186,132454
6.034,179865,194,132457
6.039,179841,187,132445
6.044,179846,195,132460
6.049,179850,179,132453
6.054,179846,190,132448
6.059,179852,183,132450
6.064,179842,191,132451
6.068,179842,184,132456
6.073,179842,192,132459
6.078,179837,184,132463
6.083,179840,192,132459
6.088,179831,185,132475
6.093,179828,193,132482
6.098,179839,180,132489
6.103,179832,188,132510
6.108,179832,180,132501
6.113,179832,188,132490
6.118,179829,182,132506
6.123,179832,189,132505
6.128,179814,182,132489
6.133,179808,189,132502
6.138,179822,182,132493
6.143,179825,189,132513
6.148,179853,182,132516
6.153,179816,192,132514
6.158,179830,186,132524
6.163,179837,193,132519
6.168,179840,187,132539
6.173,179837,193,132544
6.178,179844,187,132541
6.183,179853,194,132540
6.188,179855,180,132554
6.193,179842,185,132554
6.198,179843,185,132569
6.202,179848,191,132560
6.207,179874,186,132576
6.212,179873,193,132571
6.217,179861,180,132578
6.222,179864,186,132596
6.227,179879,182,132590
6.232,179873,188,132614
6.237,179905,184,132632
6.242,179898,190,132660
6.247,179908,180,132678
6.252,179940,186,132695
6.257,179941,182,132735
6.262,179944,187,132766
6.267,179950,183,132797
6.272,179952,187,132824
6.277,179975,183,132851
6.282,179962,188,132863
6.287,179961,185,132880
6.292,179955,192,132897
6.297,179942,182,132910
6.302,179960,185,132913
6.307,179961,182,132909
6.312,179961,186,132914
6.317,179962,184,132912
6.322,179962,187,132909
6.327,179967,186,132927
6.332,179970,189,132922
6.336,179961,187,132921
6.341,180021,184,132925
6.346,179961,183,132919
6.351,179966,186,132921
6.356,179969,184,132932
6.361,179971,186,132916
6.366,179954,185,132908
6.371,179963,186,132908
6.376,179947,185,132903
6.381,179930,187,132886
6.386,179943,187,132900
6.391,179912,184,132888
6.396,179921,184,132875
6.401,179890,185,132878
6.406,179878,187,132858
6.411,179883,185,132853
6.416,179866,186,132831
6.421,179879,185,132855
6.426,179875,186,132855
6.431,179855,186,132850
6.436,179862,186,132869
6.441,179867,184,132859
6.446,179843,187,132867
6.451,179844,187,132875
6.456,179828,188,132864
6.461,179837,187,132867
6.466,179813,188,132868
6.470,179816,187,132862
6.475,179811,189,132855
6.480,179816,188,132840
6.485,179795,189,132842
6.490,179793,183,132830
6.495,179812,185,132835
6.500,179795,184,132843
6.505,179791,187,132839
6.510,179778,185,132844
6.515,179781,188,132838
6.520,179783,186,132839
6.525,179789,189,132844
6.530,179793,187,132848
6.535,179799,183,132843
6.540,179807,183,132851
6.545,179806,187,132873
6.550,179808,185,132872
6.555,179820,189,132858
6.560,179816,187,132872
6.565,179834,191,132877
6.570,179828,188,132878
6.575,179841,192,132884
6.580,179834,181,132874
6.585,179816,188,132894
6.590,179821,185,132888
6.595,179804,191,132910
6.600,179821,187,132891
6.604,179806,193,132886
6.609,179815,180,132902
6.614,179819,186,132907
6.619,179824,182,132898
6.624,179812,188,132890
6.629,179809,184,132883
6.634,179818,193,132882
6.639,179812,187,132874
6.644,179799,193,132881
6.649,179786,187,132867
6.654,179804,192,132884
6.659,179786,187,132863
6.664,179776,193,132872
6.669,179784,187,132882
6.674,179775,194,132882
6.679,179766,179,132881
6.684,179763,188,132913
6.689,179756,183,132915
6.694,179753,190,132933
6.699,179762,184,132941
6.704,179743,191,132945
6.709,179743,185,132959
6.714,179724,191,132950
6.719,179721,185,132968
6.724,179703,191,132955
6.729,179703,185,132946
6.734,179696,187,132946
6.738,179663,179,132938
6.743,179653,193,132951
6.748,179639,186,132947
6.753,179648,192,132944
6.758,179638,184,132943
6.763,179624,190,132936
6.768,179642,182,132947
6.773,179622,188,132963
6.778,179630,182,133039
6.783,179621,189,132972
6.788,179629,181,132965
6.793,179625,188,132990
6.798,179646,179,132990
6.803,179645,186,133000
6.808,179646,186,133001
6.813,179646,192,133002
6.818,179665,183,132983
6.823,179665,188,132986
6.828,179671,184,132991
6.833,179678,191,132986
6.838,179686,183,132984
6.843,179695,189,132988
6.848,179687,181,132979
6.853,179685,188,132985
6.858,179706,179,132978
6.863,179715,186,132969
6.868,179712,187,132954
6.873,179732,193,132952
6.877,179737,181,132961
6.882,179727,191,132974
6.887,179710,182,132970
6.892,179739,190,132991
6.897,179740,181,132989
6.902,179741,188,132979
6.907,179755,180,132996
6.912,179765,187,132994
6.917,179765,179,133005
6.922,179797,186,133012
6.927,179802,182,133024
6.932,179822,188,133024
6.937,179818,179,133032
6.942,179833,187,133035
6.947,179834,178,133036
6.952,179838,193,133046
6.957,179835,185,133061
6.962,179847,191,133064
6.967,179865,183,133069
6.972,179851,189,133074
6.977,179857,186,133089
6.982,179886,192,133108
6.987,179877,184,133106
6.992,179915,190,133124
6.997,179916,182,133146
7.002,179931,188,133155
7.007,179942,181,133189
7.011,179956,187,133216
7.016,179968,180,133233
7.021,179990,185,133284
7.026,179990,187,133308
7.031,179990,192,133328
7.036,180020,186,133358
7.041,179998,190,133371
7.046,180014,185,133369
7.051,180000,190,133381
7.056,179983,184,133394
7.061,179997,189,133397
7.066,180009,183,133426
7.071,180003,203,133418
7.076,179976,186,133420
7.081,179977,190,133413
7.086,179965,185,133428
7.091,179956,188,133424
7.096,179963,183,133434
7.101,179958,187,133438
7.106,179969,182,133447
7.111,179978,185,133447
7.116,179984,182,133456
7.121,179990,188,133494
7.126,180006,184,133486
7.131,179981,187,133505
7.136,179999,183,133522
7.141,180004,185,133539
7.145,180006,181,133552
7.150,180010,192,133557
7.155,180006,189,133559
7.160,180015,191,133580
7.165,180007,188,133574
7.170,180015,185,133587
7.175,180015,183,133598
7.180,180002,184,133612
7.185,180012,183,133604
7.190,179996,184,133610
7.195,179997,190,133618
7.200,180016,190,133622
7.205,179999,190,133646
7.210,180011,190,133647
7.215,180016,190,133642
7.220,179995,184,133671
7.225,180015,184,133680
7.230,180019,184,133687
7.235,180006,184,133689
7.240,180013,183,133689
7.245,180005,183,133702
7.250,179998,182,133693
7.255,179997,191,133704
7.260,180012,189,133700
7.265,180010,189,133715
7.270,180009,187,133705
7.275,180027,189,133717
7.279,180025,186,133715
7.284,180021,187,133720
7.289,180026,185,133729
7.294,180021,186,133729
7.299,180049,180,133732
7.304,180018,185,133735
7.309,180014,182,133733
7.314,180039,188,133748
7.319,180036,185,133754
7.324,180047,188,133761
7.329,180041,184,133774
7.334,180060,187,133789
7.339,180065,183,133799
7.344,180065,186,133809
7.349,180064,182,133826
7.354,180079,185,133832
7.359,180069,181,133839
7.364,180063,187,133829
7.369,180076,183,133838
7.374,180075,187,133836
7.379,180084,182,133846
7.384,180090,187,133877
7.389,180097,182,133872
7.394,180133,186,133894
7.399,180117,184,133903
7.404,180129,186,133930
7.409,180138,180,133942
7.413,180165,190,133971
7.418,180155,183,133985
7.423,180168,188,133986
7.428,180173,182,134019
7.433,180181,187,134017
7.438,180188,181,134037
7.443,180202,187,134052
7.448,180213,182,134078
7.453,180243,188,134087
7.458,180248,183,134108
7.463,180239,193,134134
7.468,180257,187,134131
7.473,180268,193,134140
7.478,180267,187,134157
7.483,180286,193,134178
7.488,180277,187,134177
7.493,180273,194,134183
7.498,180279,179,134187
7.503,180281,187,134194
7.508,180307,180,134211
7.513,180316,191,134211
7.518,180311,183,134219
7.523,180317,190,134222
7.528,180319,183,134226
7.533,180299,190,134215
7.538,180327,184,134226
7.543,180344,191,134229
7.547,180328,183,134243
7.552,180341,189,134225
7.557,180345,181,134239
7.562,180343,186,134258
7.567,180343,179,134264
7.572,180348,194,134266
7.577,180341,186,134265
7.582,180351,192,134255
7.587,180343,184,134262
7.592,180358,191,134276
7.597,180352,183,134273
7.602,180353,190,134273
7.607,180347,186,134274
7.612,180337,188,134278
7.617,180363,180,134292
7.622,180365,188,134308
7.627,180387,180,134314
7.632,180406,187,134328
7.637,180425,187,134350
7.642,180439,193,134352
7.647,180461,184,134353
7.652,180479,191,134374
7.657,180492,187,134372
7.662,180500,193,134388
7.667,180532,185,134386
7.672,180542,192,134392
7.677,180559,183,134406
7.681,180565,190,134386
7.686,180571,182,134402
7.691,180581,189,134414
7.696,180584,181,134402
7.701,180611,188,134408
7.706,180601,184,134396
7.711,180618,191,134401
7.716,180625,183,134388
7.721,180629,190,134373
7.726,180633,183,134374
7.731,180653,190,134362
7.736,180637,183,134358
7.741,180666,190,134351
7.746,180671,183,134328
7.751,180676,189,134329
7.756,180672,186,134329
7.761,180691,193,134321
7.766,180699,186,134307
7.771,180719,192,134305
7.776,180722,185,134299
7.781,180710,191,134286
7.786,180710,184,134282
7.791,180739,189,134273
7.796,180735,182,134266
7.801,180725,188,134241
7.806,180740,186,134246
7.811,180737,190,134218
7.815,180740,185,134213
7.820,180752,189,134206
7.825,180747,184,134201
7.830,180749,189,134184
7.835,180776,183,134193
7.840,180773,188,134182
7.845,180782,183,134188
7.850,180774,190,134189
7.855,180762,186,134148
7.860,180772,189,134145
7.865,180777,185,134141
7.870,180773,188,134129
7.875,180786,184,134131
7.880,180791,188,134117
7.885,180796,183,134095
7.890,180808,186,134086
7.895,180790,183,134073
7.900,180777,189,134068
7.905,180786,185,134054
7.910,180787,188,134050
7.915,180797,185,134050
7.920,180782,186,134032
7.925,180794,183,134019
7.930,180778,184,134001
7.935,180778,190,133995
7.940,180772,190,133988
7.945,180754,186,133960
7.950,180774,192,133942
7.954,180757,190,133929
7.959,180768,190,133923
7.964,180777,189,133906
7.969,180765,190,133887
7.974,180763,189,133872
7.979,180764,189,133853
7.984,180753,188,133838
7.989,180757,188,133825
7.994,180758,187,133802
7.999,180786,174,133815
8.004,180758,186,133792
8.009,180755,184,133796
8.014,180749,183,133776
8.019,180742,190,133757
8.024,180741,190,133754
8.029,180752,189,133744
8.034,180753,189,133742
8.039,180741,187,133706
8.044,180769,188,133701
8.049,180764,189,133704
8.054,180766,191,133702
8.059,180782,188,133694
8.064,180782,190,133683
8.069,180792,187,133659
8.074,180797,188,133663
8.079,180789,185,133650
8.084,180798,187,133643
8.088,180810,184,133616
8.093,180834,187,133630
8.098,180831,187,133621
8.103,180817,190,133610
8.108,180828,186,133591
8.113,180829,189,133584
8.118,180845,184,133579
8.123,180841,188,133565
8.128,180840,183,133566
8.133,180847,187,133548
8.138,180848,182,133542
8.143,180815,187,133514
8.148,180842,185,133519
8.153,180842,189,133516
8.158,180856,183,133503
8.163,180872,187,133516
8.168,180872,179,133518
8.173,180877,193,133495
8.178,180892,186,133492
8.183,180895,191,133498
8.188,180903,185,133497
8.193,180898,186,133508
8.198,180919,188,133498
8.203,180900,194,133483
8.208,180915,187,133481
8.213,180921,192,133489
8.218,180933,185,133478
8.222,180942,191,133484
8.227,180960,184,133470
8.232,180960,191,133497
8.237,180959,184,133489
8.242,180983,193,133480
8.247,180980,186,133497
8.252,180994,193,133523
8.257,180976,186,133531
8.262,180991,191,133538
8.267,180998,184,133563
8.272,180981,190,133588
8.277,180963,182,133609
8.282,180989,188,133616
8.287,180990,182,133639
8.292,180994,192,133656
8.297,180977,183,133648
8.302,180972,189,133663
8.307,180961,180,133647
8.312,180965,187,133649
8.317,180940,187,133652
8.322,180920,193,133652
8.327,180894,184,133640
8.332,180877,190,133639
8.337,180847,181,133625
8.342,180842,192,133620
8.347,180842,183,133620
8.352,180814,191,133606
8.356,180798,182,133623
8.361,180800,188,133626
8.366,180765,181,133614
8.371,180745,188,133606
8.376,180726,180,133605
8.381,180723,187,133607
8.386,180711,179,133608
8.391,180698,192,133608
8.396,180684,183,133620
8.401,180650,189,133603
8.406,180624,180,133619
8.411,180616,187,133617
8.416,180598,179,133643
8.421,180589,187,133625
8.426,180588,179,133643
8.431,180602,187,133636
8.436,180592,182,133629
8.441,180602,189,133619
8.446,180630,182,133637
8.451,180622,190,133621
8.456,180632,181,133608
8.461,180641,189,133602
8.466,180637,181,133593
8.471,180631,188,133596
8.476,180648,181,133587
8.481,180632,189,133589
8.486,180658,187,133551
8.490,180638,187,133573
8.495,180644,179,133559
8.500,180648,194,133561
8.505,180653,187,133545
8.510,180665,193,133547
8.515,180639,185,133546
8.520,180630,191,133538
8.525,180602,184,133540
8.530,180589,190,133538
8.535,180583,187,133526
8.540,180546,192,133485
8.545,180538,187,133491
8.550,180499,192,133479
8.555,180497,186,133476
8.560,180481,190,133470
8.565,180456,183,133470
8.570,180425,188,133478
8.575,180412,182,133468
8.580,180390,187,133464
8.585,180388,184,133467
8.590,180350,188,133460
8.595,180355,183,133479
8.600,180336,187,133483
8.605,180323,182,133480
8.610,180314,185,133479
8.615,180289,181,133483
8.620,180274,185,133490
8.624,180269,180,133485
8.629,180247,185,133459
8.634,180276,183,133494
8.639,180284,186,133504
8.644,180283,183,133515
8.649,180291,185,133534
8.654,180275,182,133535
8.659,180276,184,133553
8.664,180255,189,133555
8.669,180262,191,133564
8.674,180238,189,133585
8.679,180219,184,133626
8.684,180202,187,133626
8.689,180206,188,133630
8.694,180234,185,133644
8.699,180218,186,133652
8.704,180215,183,133669
8.709,180210,184,133683
8.714,180228,182,133694
8.719,180252,191,133700
8.724,180269,190,133717
8.729,180304,185,133706
8.734,180309,184,133703
8.739,180322,183,133704
8.744,180352,183,133706
8.749,180357,182,133708
8.754,180348,183,133723
8.758,180349,182,133701
8.763,180353,191,133706
8.768,180360,189,133708
8.773,180341,189,133683
8.778,180292,183,133653
8.783,180270,183,133622
8.788,180202,181,133551
8.793,180146,192,133510
8.798,180102,189,133452
8.803,180052,190,133392
8.808,179990,188,133309
8.813,179911,190,133193
8.818,179880,186,133066
8.823,179844,191,132881
8.828,179816,182,132713
8.833,179803,185,132537
8.838,179788,182,132407
8.843,179806,185,132258
8.848,179808,181,132175
8.853,179862,184,132108
8.858,179909,179,132045
8.863,179971,191,132004
8.868,180036,187,131968
8.873,180086,189,131946
8.878,180172,180,131944
8.883,180254,184,131942
8.888,180324,180,131956
8.892,180400,184,131966
8.897,180451,179,132014
8.902,180509,192,132059
8.907,180520,186,132114
8.912,180578,191,132157
8.917,180623,185,132226
8.922,180651,189,132279
8.927,180701,179,132370
8.932,180734,184,132451
8.937,180753,186,132519
8.942,180760,192,132610
8.947,180789,184,132717
8.952,180808,190,132814
8.957,180821,184,132949
8.962,180831,190,133049
8.967,180864,184,133170
8.972,180890,185,133256
8.977,180904,178,133316
8.982,180929,193,133388
8.987,180955,178,133419
8.992,180962,185,133449
8.997,180952,177,133495
9.002,180977,185,133529
9.007,180997,178,133552
9.012,181008,193,133574
9.017,181028,185,133595
9.022,181050,187,133619
9.027,181048,179,133652
9.031,181081,187,133682
9.036,181091,180,133714
9.041,181114,187,133739
9.046,181119,180,133748
9.051,181131,187,133761
9.056,181127,179,133771
9.061,181143,186,133786
9.066,181160,178,133782
9.071,181175,192,133810
9.076,181193,184,133826
9.081,181174,192,133829
9.086,181201,184,133859
9.091,181211,192,133857
9.096,181216,183,133870
9.101,181212,191,133870
9.106,181219,183,133889
9.111,181229,190,133872
9.116,181215,182,133880
9.121,181211,188,133871
9.126,181208,180,133873
9.131,181224,188,133878
9.136,181255,179,133877
9.141,181253,187,133843
9.146,181257,178,133820
9.151,181232,186,133833
9.156,181236,177,133817
9.161,181239,194,133796
9.165,181233,179,133908
9.170,181238,187,133798
9.175,181231,179,133815
9.180,181228,187,133805
9.185,181239,179,133787
9.190,181219,187,133773
9.195,181219,178,133766
9.200,181196,186,133736
9.205,181183,178,133745
9.210,181167,185,133722
9.215,181089,180,133718
9.220,181112,188,133692
9.225,181118,180,133679
9.230,181087,187,133672
9.235,181070,179,133654
9.240,181101,187,133648
9.245,181067,180,133626
9.250,181073,187,133590
9.255,181046,179,133592
9.260,181037,187,133566
9.265,181034,182,133546
9.270,181026,189,133535
9.275,181030,183,133534
9.280,181033,189,133527
9.285,181009,182,133511
9.290,181037,188,133494
9.295,181008,182,133475
9.299,181000,188,133448
9.304,181004,182,133447
9.309,180992,188,133413
9.314,180996,185,133402
9.319,180996,191,133389
9.324,181011,185,133371
9.329,181002,190,133374
9.334,180997,184,133385
9.339,180982,190,133367
9.344,180990,184,133380
9.349,180986,190,133385
9.354,180978,185,133384
9.359,180972,190,133400
9.364,180991,180,133406
9.369,180981,184,133416
9.374,180972,179,133397
9.379,180940,184,133394
9.384,180934,179,133377
9.389,180946,184,133363
9.394,180951,180,133354
9.399,180930,185,133335
9.404,180915,182,133321
9.409,180903,185,133320
9.414,180909,181,133294
9.419,180874,185,133279
9.424,180878,182,133260
9.429,180843,185,133243
9.433,180849,183,133227
9.438,180831,186,133215
9.443,180840,184,133205
9.448,180826,186,133205
9.453,180816,182,133194
9.458,180832,187,133199
9.463,180825,186,133184
9.468,180834,189,133191
9.473,180822,186,133198
9.478,180853,188,133204
9.483,180840,186,133186
9.488,180852,186,133194
9.493,180853,184,133193
9.498,180875,185,133204
9.503,180872,185,133215
9.508,180923,184,133214
9.513,180900,181,133232
9.518,180908,181,133228
9.523,180915,181,133219
9.528,180924,181,133236
9.533,180921,190,133240
9.538,180949,189,133254
9.543,180931,189,133243
9.548,180935,188,133251
9.553,180932,189,133246
9.558,180946,181,133256
9.563,180941,183,133246
9.567,180919,182,133248
9.572,180919,183,133243
9.577,180934,181,133225
9.582,180918,182,133229
9.587,180927,180,133204
9.592,180918,191,133200
9.597,180906,187,133196
9.602,180917,190,133187
9.607,180894,181,133180
9.612,180893,183,133185
9.617,180873,180,133167
9.622,180891,183,133162
9.627,180859,188,133149
9.632,180860,190,133154
9.637,180882,186,133148
9.642,180872,190,133156
9.647,180857,186,133136
9.652,180848,189,133136
9.657,180846,180,133130
9.662,180841,183,133114
9.667,180835,187,133082
9.672,180823,192,133075
9.677,180806,186,133054
9.682,180796,189,133034
9.687,180796,183,133034
9.692,180776,188,133008
9.697,180783,182,133012
9.701,180756,189,132998
9.706,180736,186,132961
9.711,180746,191,132958
9.716,180735,184,132947
9.721,180742,190,132940
9.726,180757,183,132921
9.731,180733,188,132906
9.736,180703,181,132902
9.741,180711,186,132888
9.746,180717,180,132878
9.751,180703,190,132841
9.756,180677,182,132834
9.761,180658,188,132804
9.766,180648,180,132770
9.771,180614,186,132770
9.776,180606,179,132756
9.781,180600,185,132713
9.786,180586,177,132694
9.791,180554,192,132670
9.796,180537,184,132638
9.801,180554,188,132559
9.806,180515,182,132581
9.811,180525,188,132566
9.816,180512,181,132543
9.821,180508,188,132513
9.826,180495,180,132499
9.831,180489,187,132484
9.835,180482,179,132448
9.840,180458,186,132429
9.845,180476,178,132416
9.850,180500,192,132407
9.855,180495,183,132394
9.860,180506,190,132393
9.865,180533,182,132391
9.870,180573,188,132387
9.875,180577,180,132396
9.880,180614,187,132395
9.885,180647,178,132413
9.890,180669,194,132416
9.895,180688,185,132430
9.900,180720,191,132434
9.905,180752,181,132455
9.910,180776,188,132470
9.915,180804,179,132470
9.920,180824,194,132484
9.925,180843,184,132495
9.930,180857,192,132504
9.935,180864,183,132500
9.940,180884,190,132506
9.945,180903,182,132490
9.950,180898,192,132484
9.955,180896,183,132473
9.960,180899,190,132464
9.965,180914,181,132476
9.969,180921,190,132456
9.974,180918,182,132445
9.979,180915,189,132435
9.984,180913,181,132412
9.989,180932,187,132419
9.994,180906,182,132415
9.999,180937,194,132399
10.004,180941,186,132409
10.009,180942,193,132393
10.014,180946,184,132390
10.019,180952,191,132382
10.024,180969,181,132374
10.029,180988,188,132377
10.034,180996,180,132379
10.039,180988,195,132371
10.044,180987,182,132337
10.049,181020,191,132349
10.054,181016,184,132355
10.059,181014,191,132348
10.064,181021,183,132349
10.069,181026,189,132343
10.074,181039,180,132333
10.079,181043,194,132318
10.084,181051,186,132334
10.089,181039,191,132319
10.094,181044,189,132315
10.099,181052,192,132309
10.104,181052,186,132303
10.108,181045,191,132294
10.113,181050,184,132287
10.118,181068,188,132293
10.123,181083,190,132293
10.128,181089,194,132270
10.133,181105,188,132272
10.138,181119,190,132255
10.143,181127,188,132249
10.148,181141,191,132259
10.153,181152,186,132236
10.158,181170,188,132229
10.163,181176,184,132219
10.168,181207,186,132194
10.173,181227,189,132188
10.178,181242,191,132150
10.183,181257,186,132135
10.188,181272,188,132128
10.193,181317,185,132110
10.198,181339,187,132091
10.203,181361,183,132083
10.208,181379,193,132068
10.213,181379,188,132049
10.218,181396,188,132046
10.223,181416,185,132034
10.228,181433,186,132025
10.233,181465,184,132037
10.238,181477,187,132019
10.242,181510,190,132022
10.247,181562,189,132026
10.252,181603,187,132038
10.257,181641,186,132039
10.262,181677,185,132059
10.267,181702,192,132064
10.272,181743,190,132074
10.277,181768,188,132091
10.282,181817,186,132094
10.287,181836,188,132117
10.292,181856,188,132139
10.297,181904,183,132114
10.302,181918,186,132128
10.307,181947,183,132131
10.312,181954,193,132123
10.317,181973,189,132110
10.322,181991,190,132120
10.327,182000,187,132112
10.332,182011,187,132123
10.337,182040,187,132130
10.342,182057,189,132121
10.347,182060,185,132160
10.352,182089,187,132173
10.357,182117,191,132178
10.362,182133,193,132205
10.367,182133,188,132220
10.372,182141,190,132243
10.376,182142,184,132248
10.381,182161,187,132254
10.386,182140,185,132272
10.391,182135,188,132285
10.396,182134,184,132280
10.401,182139,193,132328
10.406,182100,187,132294
10.411,182089,191,132284
10.416,182072,185,132267
10.421,182058,188,132262
10.426,182049,181,132267
10.431,182019,194,132238
10.436,182022,183,132237
10.441,181999,187,132226
10.446,181993,188,132230
10.451,181976,192,132223
10.456,181959,185,132203
10.461,181949,189,132205
10.466,181920,182,132188
10.471,181918,196,132188
10.476,181896,189,132182
10.481,181890,196,132199
10.486,181833,181,132181
10.491,181859,188,132172
10.496,181889,188,132183
10.501,181863,195,132187
10.506,181834,187,132187
10.510,181863,193,132175
10.515,181830,185,132179
10.520,181834,191,132191
10.525,181819,183,132180
10.530,181814,187,132175
10.535,181805,185,132181
10.540,181792,191,132183
10.545,181780,183,132184
10.550,181778,189,132178
10.555,181767,180,132190
10.560,181764,196,132196
10.565,181750,188,132189
10.570,181763,194,132200
10.575,181733,186,132209
10.580,181768,189,132213
10.585,181752,182,132220
10.590,181709,190,132205
10.595,181712,181,132220
10.600,181714,189,132222
10.605,181710,188,132217
10.610,181705,196,132217
10.615,181716,186,132223
10.620,181700,193,132238
10.625,181690,184,132245
10.630,181683,195,132250
10.635,181688,186,132246
10.640,181673,193,132264
10.644,181674,184,132267
10.649,181653,192,132268
10.654,181646,182,132286
10.659,181628,190,132285
10.664,181635,181,132300
10.669,181622,196,132300
10.674,181613,187,132328
10.679,181616,190,132328
10.684,181599,180,132355
10.689,181583,197,132366
10.694,181563,188,132378
10.699,181549,196,132375
10.704,181531,186,132384
10.709,181500,193,132393
10.714,181485,185,132403
10.719,181467,192,132404
10.724,181420,184,132413
10.729,181400,195,132418
10.734,181342,186,132437
10.739,181289,193,132450
10.744,181229,185,132479
10.749,181216,191,132512
10.754,181162,183,132553
10.759,181131,189,132598
10.764,181108,181,132647
10.769,181146,196,132692
10.774,181119,183,132683
10.778,181098,189,132697
10.783,181055,182,132720
10.788,181023,189,132734
10.793,181023,189,132743
10.798,180997,195,132768
10.803,180997,188,132793
10.808,181014,193,132788
10.813,181042,186,132797
10.818,181073,191,132809
10.823,181123,188,132812
10.828,181106,194,132805
10.833,181120,188,132803
10.838,181116,193,132811
10.843,181114,186,132823
10.848,181138,191,132874
10.853,181189,185,132923
10.858,181212,189,132968
10.863,181265,184,133006
10.868,181316,189,133040
10.873,181351,188,133077
10.878,181360,188,133096
10.883,181397,183,133134
10.888,181408,187,133157
10.893,181423,183,133164
10.898,181423,195,133177
10.903,181462,191,133206
10.908,181467,194,133204
10.912,181480,189,133223
10.917,181485,191,133241
10.922,181479,185,133266
10.927,181480,187,133284
10.932,181512,183,133300
10.937,181538,194,133330
10.942,181551,191,133328
10.947,181566,192,133336
10.952,181562,189,133338
10.957,181569,190,133346
10.962,181588,188,133340
10.967,181598,190,133342
10.972,181613,190,133348
10.977,181635,191,133362
10.982,181662,190,133373
10.987,181650,190,133370
10.992,181675,189,133367
10.997,181691,189,133366
11.002,181706,188,133373
11.007,181710,188,133338
11.012,181697,188,133346
11.017,181724,188,133374
11.022,181733,191,133360
11.027,181749,191,133368
11.032,181762,192,133368
11.037,181773,191,133360
11.042,181785,191,133365
11.046,181800,190,133344
11.051,181823,190,133345
11.056,181824,188,133335
11.061,181825,189,133346
11.066,181840,185,133333
11.071,181867,191,133329
11.076,181862,189,133333
11.081,181898,189,133332
11.086,181911,186,133337
11.091,181907,188,133343
11.096,181946,185,133345
11.101,181952,187,133327
11.106,181962,184,133322
11.111,181994,194,133338
11.116,182007,185,133334
11.121,182034,189,133343
11.126,182033,184,133342
11.131,182049,187,133333
11.136,182042,183,133348
11.141,182069,193,133361
11.146,182072,189,133364
11.151,182071,192,133359
11.156,182100,185,133358
11.161,182097,189,133373
11.166,182108,187,133370
11.171,182126,191,133371
11.176,182135,186,133368
11.181,182144,190,133369
11.185,182152,184,133372
11.190,182167,191,133376
11.195,182168,185,133371
11.200,182181,190,133360
11.205,182180,185,133367
11.210,182193,191,133366
11.215,182185,188,133354
11.220,182198,192,133356
11.225,182196,185,133359
11.230,182199,192,133356
11.235,182193,184,133359
11.240,182185,191,133359
11.245,182168,183,133357
11.250,182155,189,133362
11.255,182165,181,133355
11.260,182163,195,133347
11.265,182160,182,133348
11.270,182148,189,133349
11.275,182167,189,133367
11.280,182159,194,133371
11.285,182159,187,133372
11.290,182175,194,133373
11.295,182161,185,133362
11.300,182157,192,133361
11.305,182164,183,133368
11.310,182155,194,133359
11.315,182165,182,133336
11.319,182161,190,133327
11.324,182161,182,133306
11.329,182155,189,133295
11.334,182160,181,133279
11.339,182164,189,133254
11.344,182185,180,133261
11.349,182196,189,133244
11.354,182182,189,133232
11.359,182165,191,133226
11.364,182172,182,133227
11.369,182195,190,133249
11.374,182195,181,133261
11.379,182179,189,133273
11.384,182177,188,133284
11.389,182177,196,133295
11.394,182172,188,133313
11.399,182166,196,133327
11.404,182149,186,133342
11.409,182154,190,133360
11.414,182141,188,133360
11.419,182125,196,133368
11.424,182129,186,133374
11.429,182127,194,133374
11.434,182124,185,133366
11.439,182096,193,133371
11.444,182094,184,133371
11.449,182090,192,133368
11.453,182086,183,133355
11.458,182072,189,133359
11.463,182089,182,133355
11.468,182076,189,133363
11.473,182090,180,133368
11.478,182089,197,133376
11.483,182086,187,133390
11.488,182086,194,133393
11.493,182101,186,133395
11.498,182107,193,133392
11.503,182109,185,133382
11.508,182120,191,133406
11.513,182119,182,133414
11.518,182134,189,133406
11.523,182157,181,133420
11.528,182147,189,133423
11.533,182163,189,133412
11.538,182165,195,133422
11.543,182205,187,133433
11.548,182203,193,133444
11.553,182211,186,133435
11.558,182227,194,133457
11.563,182251,186,133459
11.568,182264,191,133467
11.573,182250,183,133465
11.578,182253,189,133472
11.583,182257,181,133465
11.587,182268,195,133457
11.592,182260,187,133482
11.597,182253,192,133481
11.602,182253,188,133478
11.607,182248,193,133493
11.612,182244,186,133494
11.617,182246,191,133487
11.622,182244,186,133490
11.627,182243,189,133487
11.632,182253,184,133498
11.637,182228,188,133497
11.642,182220,182,133505
11.647,182223,186,133518
11.652,182229,186,133544
11.657,182198,193,133532
11.662,182204,189,133531
11.667,182179,193,133549
11.672,182174,189,133537
11.677,182176,192,133555
11.682,182153,187,133553
11.687,182134,190,133574
11.692,182130,185,133587
11.697,182128,186,133588
11.702,182111,187,133617
11.707,182101,189,133621
11.712,182090,186,133607
11.717,182084,188,133633
11.721,182049,185,133637
11.726,182048,188,133642
11.731,182019,184,133655
11.736,182000,185,133646
11.741,181971,182,133640
11.746,181969,193,133652
11.751,181959,184,133657
11.756,181956,185,133660
11.761,181928,183,133675
11.766,181923,191,133662
11.771,181898,189,133674
11.776,181891,189,133696
11.781,181864,187,133698
11.786,181873,187,133704
11.791,181853,187,133717
11.796,181833,185,133716
11.801,181822,191,133736
11.806,181823,190,133745
11.811,181789,191,133750
11.816,181791,189,133760
11.821,181760,190,133776
11.826,181745,187,133788
11.831,181728,188,133791
11.836,181720,186,133783
11.841,181694,187,133794
11.846,181669,184,133771
11.851,181658,190,133783
11.855,181623,186,133791
11.860,181621,188,133798
11.865,181574,184,133803
11.870,181574,186,133801
11.875,181558,183,133809
11.880,181531,186,133794
11.885,181516,182,133817
11.890,181508,185,133838
11.895,181483,184,133838
11.900,181469,187,133850
11.905,181438,182,133854
11.910,181458,186,133868
11.915,181435,181,133869
11.920,181425,184,133885
11.925,181433,188,133902
11.930,181408,192,133895
11.935,181405,186,133888
11.940,181401,189,133900
11.945,181391,188,133893
11.950,181377,192,133900
11.955,181378,187,133896
11.960,181371,191,133890
11.965,181379,186,133894
11.970,181351,191,133885
11.975,181354,184,133899
11.980,181335,191,133877
11.985,181336,184,133864
11.989,181348,189,133884
11.994,181347,181,133867
11.999,181350,187,133870
12.004,181365,181,133850
12.009,181365,187,133843
12.014,181396,181,133840
12.019,181410,186,133832
12.024,181445,179,133835
12.029,181455,194,133835
12.034,181457,187,133839
12.039,181488,192,133839
12.044,181497,180,133838
12.049,181527,186,133845
12.054,181535,187,133865
12.059,181554,192,133849
12.064,181561,185,133853
12.069,181572,191,133843
12.074,181596,183,133857
12.079,181611,189,133851
12.084,181640,182,133836
12.089,181663,189,133793
12.094,181691,179,133815
12.099,181723,187,133806
12.104,181760,179,133804
12.109,181812,194,133779
12.114,181823,186,133770
12.119,181871,192,133759
12.123,181896,185,133741
12.128,181928,191,133728
12.133,181958,183,133702
12.138,182053,185,133690
12.143,182022,186,133676
12.148,182073,193,133678
12.153,182089,185,133660
12.158,182146,192,133642
12.163,182167,183,133626
12.168,182189,191,133602
12.173,182201,182,133605
12.178,182235,189,133587
12.183,182263,180,133569
12.188,182302,191,133554
12.193,182316,182,133531
12.198,182337,190,133528
12.203,182336,182,133508
12.208,182339,189,133490
12.213,182356,180,133478
12.218,182354,187,133465
12.223,182381,187,133451
12.228,182370,193,133444
12.233,182390,184,133433
12.238,182398,195,133419
12.243,182410,186,133407
12.248,182426,193,133404
12.253,182439,184,133388
12.258,182444,192,133385
12.262,182479,183,133368
12.267,182495,190,133355
12.272,182497,182,133333
12.277,182519,189,133319
12.282,182531,181,133293
12.287,182545,195,133283
12.292,182542,187,133261
12.297,182557,193,133247
12.302,182563,185,133243
12.307,182544,191,133212
12.312,182532,183,133200
12.317,182551,189,133200
12.322,182561,181,133179
12.327,182559,196,133174
12.332,182563,188,133160
12.337,182566,188,133151
12.342,182568,180,133151
12.347,182589,194,133147
12.352,182596,187,133162
12.357,182618,191,133167
12.362,182612,184,133154
12.367,182635,189,133171
12.372,182619,183,133196
12.377,182617,188,133213
12.382,182617,181,133232
12.387,182614,190,133247
12.392,182616,183,133266
12.396,182595,188,133265
12.401,182596,181,133287
12.406,182579,193,133293
12.411,182554,187,133307
12.416,182564,190,133299
12.421,182540,185,133293
12.426,182528,189,133285
12.431,182525,188,133277
12.436,182494,192,133275
12.441,182474,187,133262
12.446,182438,189,133253
12.451,182411,186,133246
12.456,182400,188,133240
12.461,182354,184,133213
12.466,182351,187,133205
12.471,182318,183,133206
12.476,182309,193,133200
12.481,182273,184,133193
12.486,182277,186,133178
12.491,182262,183,133177
12.496,182226,193,133171
12.501,182218,190,133159
12.506,182210,191,133186
12.511,182193,188,133156
12.516,182189,188,133173
12.521,182173,185,133183
12.526,182155,185,133192
12.530,182119,187,133176
12.535,182152,186,133190
12.540,182111,184,133186
12.545,182102,192,133202
12.550,182092,190,133196
12.555,182081,188,133197
12.560,182056,187,133198
12.565,182058,185,133203
12.570,182034,184,133203
12.575,182037,191,133204
12.580,182012,187,133209
12.585,182004,184,133196
12.590,181980,184,133196
12.595,181989,190,133196
12.600,181976,191,133180
12.605,181985,187,133199
12.610,181982,188,133191
12.615,181998,185,133198
12.620,181979,187,133186
12.625,182000,185,133166
12.630,181989,190,133192
12.635,181971,187,133198
12.640,181969,188,133201
12.645,181975,185,133203
12.650,181962,188,133204
12.655,181932,182,133202
12.660,181956,193,133209
12.664,181941,187,133214
12.669,181947,190,133219
12.674,181942,174,133228
12.679,181923,186,133237
12.684,181913,190,133253
12.689,181937,193,133264
12.694,181925,187,133278
12.699,181926,192,133293
12.704,181927,185,133305
12.709,181923,191,133314
12.714,181920,185,133321
12.719,181899,189,133320
12.724,181926,187,133335
12.729,181901,194,133351
12.734,181898,186,133366
12.739,181898,192,133372
12.744,181880,185,133377
12.749,181876,189,133379
12.754,181883,182,133405
12.759,181894,187,133425
12.764,181882,189,133437
12.769,181888,193,133467
12.774,181895,181,133473
12.779,181884,187,133488
12.784,181893,188,133500
12.789,181880,193,133512
12.794,181868,184,133507
12.798,181855,190,133490
12.803,181835,183,133487
12.808,181802,188,133497
12.813,181797,180,133459
12.818,181776,196,133466
12.823,181769,181,133455
12.828,181769,187,133446
12.833,181762,179,133440
12.838,181755,195,133428
12.843,181772,186,133422
12.848,181740,192,133422
12.853,181739,184,133422
12.858,181731,190,133418
12.863,181725,182,133425
12.868,181722,188,133409
12.873,181726,182,133419
12.878,181725,189,133423
12.883,181708,179,133410
12.888,181723,195,133423
12.893,181697,186,133419
12.898,181696,193,133428
12.903,181678,184,133434
12.908,181701,192,133434
12.913,181687,183,133456
12.918,181692,192,133464
12.923,181668,185,133469
12.928,181677,192,133484
12.932,181700,183,133499
12.937,181709,190,133510
12.942,181697,181,133509
12.947,181696,189,133505
12.952,181701,180,133537
12.957,181712,187,133531
12.962,181705,178,133550
12.967,181690,193,133549
12.972,181713,178,133571
12.977,181727,194,133583
12.982,181735,185,133578
12.987,181745,192,133596
12.992,181736,184,133585
12.997,181736,191,133585
13.002,181730,183,133591
13.007,181731,191,133578
13.012,181714,182,133586
13.017,181718,192,133582
13.022,181732,184,133609
13.027,181752,190,133600
13.032,181758,181,133611
13.037,181752,189,133601
13.042,181791,181,133597
13.047,181761,188,133582
13.052,181778,180,133594
13.057,181791,187,133580
13.062,181776,180,133576
13.066,181811,191,133585
13.071,181819,184,133567
13.076,181829,190,133569
13.081,181857,183,133576
13.086,181848,189,133572
13.091,181835,183,133563
13.096,181829,189,133566
13.101,181800,182,133569
13.106,181813,188,133561
13.111,181778,181,133562
13.116,181762,185,133546
13.121,181734,187,133549
13.126,181700,192,133561
13.131,181696,185,133557
13.136,181674,189,133543
13.141,181660,183,133545
13.146,181643,187,133511
13.151,181614,181,133488
13.156,181584,185,133468
13.161,181548,180,133395
13.166,181515,186,133448
13.171,181522,180,133440
13.176,181508,192,133461
13.181,181526,186,133475
13.186,181530,189,133500
13.191,181560,184,133507
13.196,181577,188,133543
13.200,181600,183,133556
13.205,181606,186,133586
13.210,181689,183,133599
13.215,181668,187,133642
13.220,181668,184,133670
13.225,181711,186,133700
13.230,181710,185,133725
13.235,181718,186,133748
13.240,181753,183,133792
13.245,181777,184,133817
13.250,181789,189,133848
13.255,181798,189,133903
13.260,181803,181,133925
13.265,181823,191,133970
13.270,181849,187,134002
13.275,181854,187,134051
13.280,181869,186,134078
13.285,181885,185,134130
13.290,181904,184,134155
13.295,181926,176,134206
13.300,181954,183,134239
13.305,181967,183,134286
13.310,182000,186,134328
13.315,182022,187,134348
13.320,182018,188,134375
13.325,182043,188,134411
13.330,182034,189,134416
13.335,182023,188,134445
13.339,181998,188,134471
13.344,182012,187,134486
13.349,181993,188,134496
13.354,181958,189,134524
13.359,181956,183,134526
13.364,181942,181,134535
13.369,181915,184,134514
13.374,181872,181,134500
13.379,181849,183,134492
13.384,181848,188,134476
13.389,181787,190,134445
13.394,181767,186,134426
13.399,181752,188,134410
13.404,181726,184,134380
13.409,181723,186,134370
13.414,181694,183,134343
13.419,181688,186,134340
13.424,181647,181,134316
13.429,181665,185,134302
13.434,181635,180,134283
13.439,181630,192,134262
13.444,181626,187,134241
13.449,181604,190,134221
13.454,181594,188,134215
13.459,181585,193,134185
13.464,181568,187,134159
13.469,181538,191,134156
13.473,181534,185,134128
13.478,181535,189,134116
13.483,181547,183,134111
13.488,181531,187,134086
13.493,181540,182,134070
13.498,181551,187,134054
13.503,181511,184,134052
13.508,181513,189,134027
13.513,181528,183,134009
13.518,181520,187,134013
13.523,181534,180,133982
13.528,181519,185,133968
13.533,181534,187,133948
13.538,181540,192,133941
13.543,181547,184,133937
13.548,181551,190,133930
13.553,181592,179,133887
13.558,181561,188,133916
13.563,181598,180,133896
13.568,181606,186,133870
13.573,181616,186,133862
13.578,181637,192,133844
13.583,181630,185,133862
13.588,181663,191,133830
13.593,181675,183,133839
13.598,181677,189,133847
13.603,181702,185,133829
13.607,181712,191,133818
13.612,181718,183,133841
13.617,181724,189,133834
13.622,181739,181,133841
13.627,181777,188,133840
13.632,181775,181,133858
13.637,181798,187,133870
13.642,181809,178,133880
13.647,181826,195,133896
13.652,181832,182,133902
13.657,181839,188,133910
13.662,181835,179,133921
13.667,181856,195,133933
13.672,181852,186,133938
13.677,181860,193,133938
13.682,181857,183,133953
13.687,181875,190,133955
13.692,181866,180,133965
13.697,181862,188,133938
13.702,181854,181,133978
13.707,181849,188,133965
13.712,181852,187,133979
13.717,181837,193,133982
13.722,181836,184,133993
13.727,181835,192,133975
13.732,181838,183,133983
13.737,181819,190,133974
13.741,181813,181,133974
13.746,181869,191,133965
13.751,181783,184,133964
13.756,181770,190,133938
13.761,181744,181,133934
13.766,181728,188,133921
13.771,181738,188,133914
13.776,181734,194,133908
13.781,181733,185,133911
13.786,181735,193,133903
13.791,181740,183,133896
13.796,181763,196,133907
13.801,181719,182,133905
13.806,181740,190,133886
13.811,181758,181,133882
13.816,181744,197,133887
13.821,181757,188,133884
13.826,181753,193,133888
13.831,181771,186,133861
13.836,181760,192,133874
13.841,181777,184,133861
13.846,181771,194,133853
13.851,181785,186,133865
13.856,181789,192,133857
13.861,181785,184,133853
13.866,181813,189,133848
13.871,181818,182,133848
13.875,181804,188,133865
13.880,181824,189,133853
13.885,181847,194,133871
13.890,181854,189,133868
13.895,181885,189,133868
13.900,181880,183,133868
13.905,181892,195,133869
13.910,181908,189,133877
13.915,181911,193,133891
13.920,181926,187,133902
13.925,181920,192,133884
13.930,181926,186,133885
13.935,181947,189,133896
13.940,181959,183,133891
13.945,181941,190,133884
13.950,181953,186,133896
13.955,181957,189,133907
13.960,181950,184,133904
13.965,181975,186,133913
13.970,181983,191,133921
13.975,181992,193,133903
13.980,181987,189,133920
13.985,181985,190,133910
13.990,181985,185,133905
13.995,181978,192,133909
14.000,181975,187,133899
14.005,181978,189,133899
14.009,181969,186,133890
14.014,181971,187,133902
14.019,181968,192,133893
14.024,181964,192,133892
14.029,181970,189,133901
14.034,181980,190,133891
14.039,181969,192,133888
14.044,181987,192,133869
14.049,181973,191,133871
14.054,181965,190,133884
14.059,181941,188,133863
14.064,181950,188,133844
14.069,181945,188,133840
14.074,181925,187,133832
14.079,181914,187,133823
14.084,181913,186,133827
14.089,181898,189,133818
14.094,181884,187,133798
14.099,181849,188,133807
14.104,181819,185,133778
14.109,181801,187,133784
14.114,181772,192,133777
14.119,181737,194,133754
14.124,181719,190,133750
14.129,181697,190,133734
14.134,181673,187,133752
14.139,181680,193,133719
14.143,181632,188,133714
14.148,181615,191,133701
14.153,181578,186,133688
14.158,181579,189,133679
14.163,181541,184,133683
14.168,181518,188,133669
14.173,181518,192,133692
14.178,181510,195,133699
14.183,181492,190,133699
14.188,181468,189,133691
14.193,181462,184,133703
14.198,181429,197,133710
14.203,181415,191,133735
14.208,181422,194,133765
14.213,181399,187,133805
14.218,181385,191,133830
14.223,181372,184,133870
14.228,181356,197,133891
14.233,181333,189,133905
14.238,181299,194,133928
14.243,181271,186,133945
14.248,181262,191,133932
14.253,181222,183,133937
14.258,181190,197,133939
14.263,181169,188,133915
14.268,181134,194,133896
14.273,181082,185,133893
14.277,181040,191,133868
14.282,181008,183,133863
14.287,180949,193,133858
14.292,180889,183,133856
14.297,180889,190,133848
14.302,180848,190,133859
14.307,180800,196,133845
14.312,180778,187,133851
14.317,180731,194,133831
14.322,180701,184,133851
14.327,180659,191,133844
14.332,180634,185,133868
14.337,180594,192,133877
14.342,180552,182,133896
14.347,180534,190,133903
14.352,180512,189,133901
14.357,180479,196,133881
14.362,180428,185,133871
14.367,180401,192,133861
14.372,180353,182,133853
14.377,180319,198,133844
14.382,180290,182,133837
14.387,180267,190,133838
14.392,180215,187,133837
14.397,180186,195,133826
14.402,180157,184,133823
14.407,180134,192,133827
14.412,180114,189,133817
14.416,180056,196,133812
14.421,180037,185,133796
14.426,179994,192,133757
14.431,179955,186,133739
14.436,179934,194,133729
14.441,179899,183,133707
14.446,179874,192,133688
14.451,179825,180,133653
14.456,179802,198,133629
14.461,179793,188,133629
14.466,179742,196,133584
14.471,179739,186,133567
14.476,179700,193,133567
14.481,179663,183,133545
14.486,179636,191,133530
14.491,179618,182,133517
14.496,179593,190,133487
14.501,179570,189,133469
14.506,179548,197,133429
14.511,179526,187,133406
14.516,179527,195,133390
14.521,179509,187,133358
14.526,179488,197,133350
14.531,179478,184,133319
14.536,179458,192,133296
14.541,179425,183,133305
14.546,179405,193,133279
14.550,179393,183,133275
14.555,179371,191,133249
14.560,179357,182,133262
14.565,179350,190,133228
14.570,179328,181,133236
14.575,179317,191,133242
14.580,179318,183,133245
14.585,179287,189,133264
14.590,179293,189,133260
14.595,179269,195,133245
14.600,179265,187,133239
14.605,179249,193,133224
14.610,179245,184,133211
14.615,179222,189,133200
14.620,179208,182,133158
14.625,179205,191,133165
14.630,179210,184,133161
14.635,179183,190,133134
14.640,179180,183,133132
14.645,179156,189,133152
14.650,179171,182,133148
14.655,179176,195,133155
14.660,179175,188,133164
14.665,179170,192,133188
14.670,179189,186,133174
14.675,179182,193,133199
14.680,179194,188,133201
14.684,179197,192,133194
14.689,179199,187,133217
14.694,179171,190,133208
14.699,179175,185,133208
14.704,179161,188,133190
14.709,179140,183,133184
14.714,179124,194,133172
14.719,179137,190,133142
14.724,179110,187,133120
14.729,179089,190,133111
14.734,179092,191,133112
14.739,179068,188,133093
14.744,179069,189,133070
14.749,179053,185,133054
14.754,179036,186,133030
14.759,179023,192,133038
14.764,179028,192,132997
14.769,178990,190,132989
14.774,178980,188,132970
14.779,178949,186,132951
14.784,178928,193,132962
14.789,178925,191,132957
14.794,178898,189,132945
14.799,178908,188,132942
14.804,178886,187,132933
14.809,178874,186,132899
14.814,178876,192,132896
14.818,178839,181,132876
14.823,178852,184,132867
14.828,178847,191,132853
14.833,178817,188,132858
14.838,178811,188,132869
14.843,178795,185,132864
14.848,178763,193,132856
14.853,178762,189,132868
14.858,178741,191,132865
14.863,178737,187,132893
14.868,178731,192,132904
14.873,178719,187,132907
14.878,178718,188,132919
14.883,178708,183,132930
14.888,178701,193,132935
14.893,178701,188,132962
14.898,178695,191,132960
14.903,178711,184,132958
14.908,178703,187,132962
14.913,178710,190,132949
14.918,178718,190,132953
14.923,178703,186,132972
14.928,178719,189,132986
14.933,178711,183,132994
14.938,178747,187,133006
14.943,178773,189,133022
14.948,178792,192,133031
14.952,178808,186,133036
14.957,178826,188,133032
14.962,178831,181,133053
14.967,178858,190,133047
14.972,178856,182,133052
14.977,178849,187,133064
14.982,178864,187,133064
14.987,178876,192,133093
14.992,178878,183,133094
14.997,178895,189,133083
15.002,178925,189,133123
15.007,178910,193,133131
15.012,178941,184,133137
15.017,178958,193,133156
15.022,178960,184,133169
15.027,178962,189,133199
15.032,178967,180,133206
15.037,178991,196,133205
15.042,178980,187,133208
15.047,178994,193,133207
15.052,178994,183,133214
15.057,179004,189,133213
15.062,179000,181,133242
15.067,179001,193,133211
15.072,179010,184,133229
15.077,179012,190,133218
15.082,179009,181,133219
15.086,179013,189,133226
15.091,179007,188,133231
15.096,179018,195,133228
15.101,179016,185,133221
15.106,179018,191,133214
15.111,178982,185,133209
15.116,179014,192,133220
15.121,179013,183,133210
15.126,179013,191,133219
15.131,178995,180,133205
15.136,178988,196,133210
15.141,178971,186,133185
15.146,178989,193,133186
15.151,178986,183,133188
15.156,178972,191,133188
15.161,179002,185,133165
15.166,178989,193,133162
15.171,179006,182,133176
15.176,179020,191,133174
15.181,179032,181,133184
15.186,179031,196,133173
15.191,179035,186,133169
15.196,179028,193,133175
15.201,179053,183,133164
15.206,179048,191,133167
15.211,179066,184,133182
15.216,179065,191,133176
15.220,179050,181,133180
15.225,179046,196,133174
15.230,179033,186,133167
15.235,179026,193,133147
15.240,179007,183,133149
15.245,179001,191,133113
15.250,178986,181,133093
15.255,178991,194,133104
15.260,178979,182,133097
15.265,178973,189,133092
15.270,178959,189,133080
15.275,178939,194,133056
15.280,178936,185,133063
15.285,178919,192,133055
15.290,178906,183,133042
15.295,178948,187,133050
15.300,178932,188,133044
15.305,178928,194,133033
15.310,178933,188,133045
15.315,178908,194,133039
15.320,178901,185,133021
15.325,178901,190,133013
15.330,178877,182,132996
15.335,178888,188,132993
15.340,178864,188,132992
15.345,178870,192,132978
15.350,178871,186,132976
15.354,178865,197,132958
15.359,178861,183,132942
15.364,178851,195,132929
15.369,178850,187,132911
15.374,178843,191,132924
15.379,178848,185,132919
15.384,178842,189,132925
15.389,178850,183,132927
15.394,178876,195,132928
15.399,178871,210,132930
15.404,178875,187,132937
15.409,178880,191,132942
15.414,178878,192,132960
15.419,178882,187,132947
15.424,178883,188,132939
15.429,178885,184,132946
15.434,178864,193,132935
15.439,178864,189,132928
15.444,178858,189,132911
15.449,178858,185,132927
15.454,178856,190,132913
15.459,178856,187,132913
15.464,178843,187,132901
15.469,178839,185,132906
15.474,178836,193,132899
15.479,178840,191,132911
15.484,178844,189,132900
15.489,178850,186,132889
15.493,178844,185,132886
15.498,178835,193,132900
15.503,178837,186,132888
15.508,178833,185,132887
15.513,178843,192,132872
15.518,178806,191,132870
15.523,178792,189,132869
15.528,178789,189,132862
15.533,178790,187,132855
15.538,178797,187,132868
15.543,178814,183,132882
15.548,178794,192,132875
15.553,178801,185,132888
15.558,178821,186,132907
15.563,178811,183,132907
15.568,178821,193,132910
15.573,178833,189,132917
15.578,178841,190,132934
15.583,178831,187,132929
15.588,178834,189,132935
15.593,178829,187,132923
15.598,178817,191,132888
15.603,178801,186,132926
15.608,178816,189,132899
15.613,178810,183,132902
15.618,178810,187,132883
15.623,178787,182,132882
15.627,178799,194,132880
15.632,178781,189,132861
15.637,178792,191,132860
15.642,178776,186,132869
15.647,178833,182,132837
15.652,178782,189,132871
15.657,178771,192,132871
15.662,178781,186,132865
15.667,178763,190,132872
15.672,178753,183,132877
15.677,178775,187,132899
15.682,178775,189,132922
15.687,178790,194,132931
15.692,178805,187,132954
15.697,178811,187,132985
15.702,178817,188,133017
15.707,178855,193,133042
15.712,178854,186,133065
15.717,178869,191,133102
15.722,178893,183,133141
15.727,178905,189,133190
15.732,178926,181,133211
15.737,178928,195,133246
15.742,178964,187,133286
15.747,178985,188,133323
15.752,178986,189,133354
15.757,179024,193,133372
15.761,179038,185,133397
15.766,179049,191,133426
15.771,179062,182,133472
15.776,179094,189,133511
15.781,179106,180,133554
15.786,179126,194,133580
15.791,179140,188,133624
15.796,179150,187,133644
15.801,179178,188,133661
15.806,179173,195,133704
15.811,179178,185,133699
15.816,179187,192,133708
15.821,179184,183,133697
15.826,179186,190,133692
15.831,179161,180,133681
15.836,179180,196,133678
15.841,179163,186,133657
15.846,179164,188,133633
15.851,179153,187,133619
15.856,179128,194,133597
15.861,179151,184,133564
15.866,179130,192,133555
15.871,179101,182,133544
15.876,179093,189,133523
15.881,179074,179,133507
15.886,179060,195,133499
15.891,179066,188,133488
15.895,179060,192,133486
15.900,179045,181,133469
15.905,179054,188,133453
15.910,179030,187,133438
15.915,179040,193,133427
15.920,179032,184,133404
15.925,179035,191,133417
15.930,179036,182,133403
15.935,179025,190,133386
15.940,179043,184,133390
15.945,179017,195,133378
15.950,179035,186,133371
15.955,179018,191,133376
15.960,179026,182,133376
15.965,179040,189,133369
15.970,179026,188,133354
15.975,179004,194,133341
15.980,179015,184,133329
15.985,178996,191,133330
15.990,178988,186,133323
15.995,178988,191,133309
16.000,178981,183,133304
16.005,178967,188,133296
16.010,178973,189,133259
16.015,178953,193,133233
16.020,178936,185,133191
16.025,178924,190,133173
16.029,178920,182,133158
16.034,178905,195,133121
16.039,178921,187,133121
16.044,178905,191,133097
16.049,178898,183,133074
16.054,178900,188,133075
16.059,178895,189,133047
16.064,178892,193,133053
16.069,178893,186,133059
16.074,178892,190,133063
16.079,178896,183,133048
16.084,178902,187,133048
16.089,178894,185,133015
16.094,178852,188,132994
16.099,178858,182,132982
16.104,178853,194,132962
16.109,178865,188,132946
16.114,178845,190,132926
16.119,178854,186,132935
16.124,178844,188,132930
16.129,178855,184,132929
16.134,178847,186,132940
16.139,178835,186,132921
16.144,178838,187,132919
16.149,178829,185,132890
16.154,178835,186,132904
16.159,178854,183,132901
16.163,178837,193,132892
16.168,178852,189,132895
16.173,178852,191,132899
16.178,178850,189,132892
16.183,178831,181,132882
16.188,178831,185,132866
16.193,178824,185,132868
16.198,178827,184,132843
16.203,178822,192,132822
16.208,178811,191,132814
16.213,178807,190,132797
16.218,178810,190,132775
16.223,178803,189,132785
16.228,178786,188,132765
16.233,178787,190,132757
16.238,178794,190,132765
16.243,178824,188,132774
16.248,178800,188,132792
16.253,178820,186,132792
16.258,178833,186,132798
16.263,178848,185,132820
16.268,178834,185,132820
16.273,178851,183,132821
16.278,178847,193,132790
16.283,178857,184,132788
16.288,178850,186,132772
16.293,178846,182,132752
16.297,178854,191,132746
16.302,178840,188,132736
16.307,178834,189,132739
16.312,178842,185,132728
16.317,178856,188,132725
16.322,178859,184,132730
16.327,178861,188,132735
16.332,178854,187,132731
16.337,178865,189,132738
16.342,178886,184,132726
16.347,178884,187,132739
16.352,178898,181,132739
16.357,178901,193,132738
16.362,178886,187,132731
16.367,178901,190,132741
16.372,178894,183,132725
16.377,178901,187,132731
16.382,178892,184,132715
16.387,178911,188,132717
16.392,178901,181,132706
16.397,178911,194,132703
16.402,178895,188,132701
16.407,178912,192,132707
16.412,178921,184,132688
16.417,178934,189,132688
16.422,178929,189,132692
16.427,178921,197,132663
16.431,178915,182,132650
16.436,178900,187,132615
16.441,178885,189,132620
16.446,178887,194,132599
16.451,178879,187,132601
16.456,178875,192,132593
16.461,178858,184,132576
16.466,178866,190,132557
16.471,178859,182,132540
16.476,178874,191,132520
16.481,178843,186,132514
16.486,178855,192,132495
16.491,178861,183,132464
16.496,178855,189,132432
16.501,178846,180,132425
16.506,178840,195,132395
16.511,178846,186,132381
16.516,178844,192,132335
16.521,178839,183,132340
16.526,178861,195,132354
16.531,178845,185,132310
16.536,178852,192,132304
16.541,178853,183,132314
16.546,178867,189,132322
16.551,178857,180,132329
16.556,178845,195,132336
16.561,178861,186,132347
16.566,178844,193,132343
16.570,178842,184,132367
16.575,178856,195,132373
16.580,178830,185,132386
16.585,178832,191,132393
16.590,178812,181,132395
16.595,178808,196,132383
16.600,178796,186,132383
16.605,178785,192,132386
16.610,178773,182,132379
16.615,178742,188,132373
16.620,178748,187,132372
16.625,178730,188,132377
16.630,178729,187,132378
16.635,178715,193,132376
16.640,178713,183,132379
16.645,178705,190,132371
16.650,178703,180,132373
16.655,178697,195,132375
16.660,178675,185,132378
16.665,178659,192,132369
16.670,178675,182,132360
16.675,178661,192,132367
16.680,178674,182,132356
16.685,178659,188,132350
16.690,178648,187,132357
16.695,178634,193,132359
16.700,178637,184,132348
16.704,178622,190,132352
16.709,178607,181,132329
16.714,178593,195,132323
16.719,178594,186,132314
16.724,178568,191,132317
16.729,178568,182,132317
16.734,178547,187,132301
16.739,178550,188,132304
16.744,178547,192,132309
16.749,178537,185,132300
16.754,178548,190,132309
16.759,178551,183,132301
16.764,178523,188,132302
16.769,178521,185,132306
16.774,178524,190,132298
16.779,178501,183,132301
16.784,178520,187,132282
16.789,178510,181,132264
16.794,178503,192,132268
16.799,178502,187,132250
16.804,178499,190,132234
16.809,178474,184,132230
16.814,178474,187,132204
16.819,178473,185,132199
16.824,178471,188,132197
16.829,178457,182,132196
16.834,178451,193,132183
16.838,178454,186,132193
16.843,178458,188,132170
16.848,178460,184,132196
16.853,178447,186,132194
16.858,178457,190,132198
16.863,178446,190,132188
16.868,178451,183,132229
16.873,178461,193,132220
16.878,178483,189,132229
16.883,178485,188,132237
16.888,178487,185,132239
16.893,178499,186,132258
16.898,178511,183,132258
16.903,178508,191,132280
16.908,178507,190,132270
16.913,178504,188,132286
16.918,178512,191,132300
16.923,178535,190,132309
16.928,178548,188,132306
16.933,178543,186,132343
16.938,178530,185,132343
16.943,178552,184,132345
16.948,178545,184,132340
16.953,178567,190,132353
16.958,178561,190,132341
16.963,178557,189,132333
16.968,178561,192,132337
16.972,178558,189,132330
16.977,178560,189,132320
16.982,178569,187,132299
16.987,178554,188,132312
16.992,178550,185,132306
16.997,178552,185,132314
17.002,178570,190,132312
17.007,178547,190,132309
17.012,178601,188,132306
17.017,178543,191,132303
17.022,178538,186,132300
17.027,178546,188,132299
17.032,178532,183,132287
17.037,178545,186,132301
17.042,178551,189,132284
17.047,178529,192,132283
17.052,178520,187,132278
17.057,178522,190,132273
17.062,178528,189,132275
17.067,178528,192,132275
17.072,178527,186,132289
17.077,178524,190,132301
17.082,178535,184,132325
17.087,178543,188,132342
17.092,178556,181,132365
17.097,178583,194,132384
17.102,178582,187,132414
17.106,178597,191,132434
17.111,178623,188,132463
17.116,178610,191,132497
17.121,178629,184,132495
17.126,178643,189,132526
17.131,178646,181,132538
17.136,178646,186,132558
17.141,178652,188,132585
17.146,178689,193,132604
17.151,178691,185,132628
17.156,178691,194,132644
17.161,178702,182,132656
17.166,178736,189,132675
17.171,178735,180,132685
17.176,178732,194,132693
17.181,178753,186,132714
17.186,178759,191,132723
17.191,178765,183,132730
17.196,178779,189,132740
17.201,178805,180,132745
17.206,178791,187,132750
17.211,178808,182,132758
17.216,178823,188,132764
17.221,178825,187,132757
17.226,178839,192,132778
17.231,178858,182,132784
17.236,178865,189,132785
17.240,178874,180,132789
17.245,178883,195,132801
17.250,178902,184,132821
17.255,178909,189,132829
17.260,178922,184,132845
17.265,178967,190,132863
17.270,178970,181,132878
17.275,178990,188,132897
17.280,179013,187,132918
17.285,179035,193,132945
17.290,179067,183,132958
17.295,179080,188,132983
17.300,179115,180,133008
17.305,179164,189,133030
17.310,179177,181,133059
17.315,179208,188,133085
17.320,179233,187,133105
17.325,179249,194,133133
17.330,179274,185,133174
17.335,179301,192,133189
17.340,179325,182,133209
17.345,179350,190,133224
17.350,179374,180,133252
17.355,179390,190,133261
17.360,179407,181,133296
17.365,179440,188,133321
17.370,179469,188,133363
17.374,179506,193,133385
17.379,179533,184,133426
17.384,179559,189,133458
17.389,179568,180,133496
17.394,179615,194,133525
17.399,179632,185,133560
17.404,179651,190,133595
17.409,179666,182,133655
17.414,179699,195,133715
17.419,179724,186,133753
17.424,179747,191,133793
17.429,179755,183,133843
17.434,179788,188,133876
17.439,179802,189,133897
17.444,179804,193,133919
17.449,179824,185,133939
17.454,179841,188,133932
17.459,179806,184,133955
17.464,179810,189,133934
17.469,179819,181,133938
17.474,179799,193,133925
17.479,179788,187,133927
17.484,179785,189,133918
17.489,179767,183,133904
17.494,179757,187,133909
17.499,179761,190,133897
17.504,179737,187,133883
17.508,179724,189,133873
17.513,179739,191,133850
17.518,179712,185,133855
17.523,179718,187,133847
17.528,179703,190,133844
17.533,179699,190,133844
17.538,179692,185,133810
17.543,179677,186,133829
17.548,179693,178,133830
17.553,179651,187,133826
17.558,179657,182,133816
17.563,179656,191,133811
17.568,179647,186,133807
17.573,179629,186,133796
17.578,179624,183,133809
17.583,179623,191,133775
17.588,179626,188,133780
17.593,179632,186,133781
17.598,179638,187,133778
17.603,179639,186,133779
17.608,179628,184,133776
17.613,179628,191,133779
17.618,179650,189,133779
17.623,179628,185,133792
17.628,179654,184,133785
17.633,179651,190,133791
17.638,179675,188,133805
17.643,179698,185,133814
17.647,179706,188,133829
17.652,179703,185,133822
17.657,179718,185,133829
17.662,179729,183,133833
17.667,179725,191,133840
17.672,179721,187,133862
17.677,179737,187,133844
17.682,179730,184,133856
17.687,179721,184,133854
17.692,179714,188,133848
17.697,179717,185,133864
17.702,179727,188,133866
17.707,179722,189,133859
17.712,179737,183,133888
17.717,179730,186,133864
17.722,179741,189,133880
17.727,179745,191,133894
17.732,179756,184,133880
17.737,179745,186,133883
17.742,179747,188,133884
17.747,179757,187,133888
17.752,179745,189,133878
17.757,179745,191,133877
17.762,179747,184,133877
17.767,179746,187,133880
17.772,179755,180,133883
17.777,179744,194,133875
17.781,179744,187,133883
17.786,179734,192,133879
17.791,179756,186,133916
17.796,179748,193,133872
17.801,179733,185,133865
17.806,179739,189,133865
17.811,179732,180,133870
17.816,179720,194,133860
17.821,179721,185,133864
17.826,179723,190,133855
17.831,179737,181,133846
17.836,179729,195,133827
17.841,179793,181,133829
17.846,179697,190,133811
17.851,179697,182,133801
17.856,179703,195,133810
17.861,179709,186,133775
17.866,179696,191,133782
17.871,179687,182,133778
17.876,179692,187,133790
17.881,179673,186,133793
17.886,179695,191,133782
17.891,179669,186,133777
17.896,179674,190,133764
17.901,179677,181,133759
17.906,179682,194,133766
17.911,179701,184,133761
17.915,179683,189,133764
17.920,179690,188,133745
17.925,179691,192,133739
17.930,179687,182,133732
17.935,179685,188,133729
17.940,179683,181,133724
17.945,179686,188,133719
17.950,179683,185,133712
17.955,179679,191,133696
17.960,179670,181,133700
17.965,179674,187,133691
17.970,179671,185,133701
17.975,179681,190,133706
17.980,179690,180,133704
17.985,179700,194,133711
17.990,179704,179,133725
17.995,179704,193,133712
18.000,179740,182,133723
18.005,179717,188,133720
18.010,179729,187,133711
18.015,179727,192,133715
18.020,179728,181,133684
18.025,179736,187,133690
18.030,179740,186,133681
18.035,179747,191,133683
18.040,179742,181,133679
18.045,179751,194,133682
18.049,179752,184,133675
18.054,179742,190,133681
18.059,179732,180,133678
18.064,179744,194,133668
18.069,179750,184,133660
18.074,179743,189,133645
18.079,179757,181,133633
18.084,179734,189,133616
18.089,179746,188,133593
18.094,179731,192,133561
18.099,179708,183,133536
18.104,179722,187,133515
18.109,179683,187,133487
18.114,179686,191,133458
18.119,179694,184,133422
18.124,179677,188,133398
18.129,179646,189,133390
18.134,179658,187,133364
18.139,179648,189,133355
18.144,179650,191,133335
18.149,179639,184,133321
18.154,179637,187,133311
18.159,179648,189,133305
18.164,179658,190,133299
18.169,179647,184,133300
18.174,179668,185,133298
18.179,179653,188,133293
18.183,179677,193,133299
18.188,179670,187,133304
18.193,179666,188,133307
18.198,179657,182,133288
18.203,179646,192,133273
18.208,179671,187,133275
18.213,179667,187,133268
18.218,179662,183,133275
18.223,179660,191,133269
18.228,179663,186,133283
18.233,179680,190,133277
18.238,179680,187,133285
18.243,179676,186,133296
18.248,179692,184,133281
18.253,179689,191,133285
18.258,179687,188,133281
18.263,179685,186,133273
18.268,179687,183,133277
18.273,179702,190,133269
18.278,179689,187,133261
18.283,179712,185,133247
18.288,179706,185,133248
18.293,179711,191,133238
18.298,179697,188,133214
18.303,179695,185,133203
18.308,179710,185,133192
18.313,179674,189,133177
18.317,179697,188,133168
18.322,179685,184,133164
18.327,179684,185,133162
18.332,179676,185,133163
18.337,179681,185,133163
18.342,179677,189,133158
18.347,179683,189,133144
18.352,179663,184,133131
18.357,179643,185,133119
18.362,179626,188,133096
18.367,179627,189,133078
18.372,179598,184,133040
18.377,179572,185,133008
18.382,179555,184,132992
18.387,179545,186,132984
18.392,179516,188,132937
18.397,179515,190,132905
18.402,179503,184,132869
18.407,179485,187,132842
18.412,179472,180,132836
18.417,179471,191,132814
18.422,179479,184,132802
18.427,179467,191,132773
18.432,179476,184,132767
18.437,179470,187,132750
18.442,179473,188,132749
18.447,179471,191,132736
18.451,179469,184,132733
18.456,179480,187,132722
18.461,179475,180,132714
18.466,179465,192,132722
18.471,179473,183,132737
18.476,179486,191,132753
18.481,179483,182,132779
18.486,179499,186,132784
18.491,179488,186,132803
18.496,179502,190,132828
18.501,179539,182,132854
18.506,179533,186,132870
18.511,179523,187,132883
18.516,179526,192,132886
18.521,179537,183,132904
18.526,179532,188,132924
18.531,179537,180,132934
18.536,179551,194,132953
18.541,179560,185,132956
18.546,179545,191,132961
18.551,179557,182,132947
18.556,179546,187,132952
18.561,179538,186,132935
18.566,179549,192,132935
18.571,179544,182,132946
18.576,179561,192,132960
18.581,179570,183,132970
18.585,179578,189,132986
18.590,179572,180,133002
18.595,179589,187,133036
18.600,179603,186,133074
18.605,179633,192,133089
18.610,179615,183,133109
18.615,179647,190,133136
18.620,179664,181,133153
18.625,179670,193,133163
18.630,179700,183,133206
18.635,179725,189,133241
18.640,179721,179,133259
18.645,179752,194,133292
18.650,179774,185,133307
18.655,179808,190,133346
18.660,179809,181,133373
18.665,179829,187,133420
18.670,179842,173,133435
18.675,179836,187,133447
18.680,179844,185,133477
18.685,179861,190,133473
18.690,179872,181,133506
18.695,179878,187,133531
18.700,179887,187,133528
18.705,179891,192,133535
18.710,179897,183,133556
18.715,179897,188,133559
18.720,179892,183,133584
18.724,179900,188,133586
18.729,179912,179,133607
18.734,179934,193,133614
18.739,179948,185,133641
18.744,179956,190,133654
18.749,179964,182,133678
18.754,179970,187,133709
18.759,179981,179,133725
18.764,180005,191,133717
18.769,180027,187,133731
18.774,180023,190,133736
18.779,180033,182,133763
18.784,180048,186,133771
18.789,180049,180,133791
18.794,180063,192,133798
18.799,180065,185,133811
18.804,180071,189,133807
18.809,180077,183,133823
18.814,180095,187,133818
18.819,180105,184,133837
18.824,180089,186,133846
18.829,180101,189,133836
18.834,180114,189,133829
18.839,180103,184,133847
18.844,180112,185,133858
18.849,180116,188,133882
18.854,180124,189,133875
18.858,180134,184,133886
18.863,180141,185,133891
18.868,180141,184,133871
18.873,180152,186,133905
18.878,180155,182,133884
18.883,180151,190,133906
18.888,180184,186,133905
18.893,180172,186,133895
18.898,180199,183,133905
18.903,180186,191,133929
18.908,180192,186,133924
18.913,180206,186,133902
18.918,180220,182,133949
18.923,180251,189,133943
18.928,180240,186,133944
18.933,180231,184,133949
18.938,180259,190,133948
18.943,180270,187,133963
18.948,180267,184,133968
18.953,180263,182,133985
18.958,180276,188,133980
18.963,180316,188,133983
18.968,180283,183,133980
18.973,180293,188,133974
18.978,180296,187,133979
18.983,180288,184,133986
18.988,180294,184,133987
18.992,180290,189,133982
18.997,180288,188,133979
19.002,180291,185,133981
19.007,180279,185,133974
19.012,180303,185,133968
19.017,180287,185,133965
19.022,180278,189,133965
19.027,180260,188,133973
19.032,180288,183,133947
19.037,180278,185,133948
19.042,180276,180,133938
19.047,180263,190,133927
19.052,180258,185,133942
19.057,180260,187,133939
19.062,180263,185,133945
19.067,180272,187,133954
19.072,180273,181,133947
19.077,180261,192,133950
19.082,180272,185,133952
19.087,180293,187,133943
19.092,180290,181,133958
19.097,180313,192,133955
19.102,180297,184,133946
19.107,180311,186,133957
19.112,180322,183,133938
19.117,180326,186,133943
19.122,180330,179,133930
19.126,180339,191,133955
19.131,180325,183,133951
19.136,180342,186,133961
19.141,180348,187,133955
19.146,180338,190,133975
19.151,180350,182,133984
19.156,180356,187,133991
19.161,180360,182,133998
19.166,180362,187,134002
19.171,180372,180,134025
19.176,180366,193,134022
19.181,180380,185,134033
19.186,180390,189,134029
19.191,180412,180,134049
19.196,180409,186,134048
19.201,180425,186,134060
19.206,180416,195,133961
19.211,180427,179,134060
19.216,180412,192,134091
19.221,180445,184,134113
19.226,180448,189,134129
19.231,180453,181,134157
19.236,180468,186,134187
19.241,180487,186,134237
19.246,180502,191,134292
19.251,180534,181,134362
19.256,180567,191,134444
19.260,180584,182,134546
19.265,180604,188,134611
19.270,180632,180,134676
19.275,180655,187,134754
19.280,180685,186,134813
19.285,180702,193,134880
19.290,180725,184,134929
19.295,180743,189,134979
19.300,180782,180,135010
19.305,180771,190,135052
19.310,180788,181,135103
19.315,180791,186,135126
19.320,180806,185,135138
19.325,180817,190,135166
19.330,180824,180,135179
19.335,180819,186,135201
19.340,180825,185,135219
19.345,180830,191,135242
19.350,180840,182,135263
19.355,180869,186,135261
19.360,180854,187,135277
19.365,180865,192,135291
19.370,180871,183,135307
19.375,180890,188,135322
19.380,180878,179,135339
19.385,180882,193,135350
19.390,180901,183,135358
19.394,180884,188,135353
19.399,180979,182,135358
19.404,180909,189,135374
19.409,180925,180,135380
19.414,180929,193,135369
19.419,180934,184,135376
19.424,180897,189,135369
19.429,180909,180,135353
19.434,180896,194,135341
19.439,180911,185,135332
19.444,180891,189,135320
19.449,180885,181,135314
19.454,180872,189,135295
19.459,180867,182,135291
19.464,180875,186,135297
19.469,180872,180,135282
19.474,180866,192,135268
19.479,180861,184,135266
19.484,180867,188,135269
19.489,180857,182,135251
19.494,180869,185,135257
19.499,180861,193,135266
19.504,180872,186,135256
19.509,180872,179,135248
19.514,180875,190,135257
19.519,180867,183,135266
19.524,180876,185,135270
19.528,180877,188,135267
19.533,180876,189,135267
19.538,180880,183,135280
19.543,180883,186,135284
19.548,180895,186,135283
19.553,180876,184,135278
19.558,180880,188,135274
19.563,180893,190,135278
19.568,180874,186,135282
19.573,180872,187,135263
19.578,180864,184,135273
19.583,180863,186,135251
19.588,180847,183,135251
19.593,180873,184,135246
19.598,180845,185,135238
19.603,180858,184,135247
19.608,180856,182,135235
19.613,180861,189,135249
19.618,180851,185,135250
19.623,180847,186,135255
19.628,180852,184,135257
19.633,180839,182,135256
19.638,180835,189,135247
19.643,180847,187,135267
19.648,180840,184,135279
19.653,180852,183,135264
19.658,180855,182,135264
19.662,180848,189,135255
19.667,180859,189,135265
19.672,180842,187,135271
19.677,180843,186,135250
19.682,180849,183,135245
19.687,180833,183,135221
19.692,180822,189,135218
19.697,180828,184,135199
19.702,180825,189,135185
19.707,180795,189,135166
19.712,180794,185,135158
19.717,180792,186,135126
19.722,180772,183,135119
19.727,180773,185,135108
19.732,180764,183,135080
19.737,180753,184,135063
19.742,180771,182,135007
19.747,180764,186,135035
19.752,180769,182,135019
19.757,180746,184,135009
19.762,180729,181,134982
19.767,180737,184,134969
19.772,180730,180,134965
19.777,180733,192,134951
19.782,180723,187,134932
19.787,180712,190,134931
19.792,180756,179,134914
19.797,180723,185,134899
19.801,180706,188,134878
19.806,180699,192,134858
19.811,180694,186,134836
19.816,180686,189,134813
19.821,180662,184,134798
19.826,180660,189,134789
19.831,180659,182,134786
19.836,180678,188,134775
19.841,180705,185,134779
19.846,180664,192,134760
19.851,180646,187,134751
19.856,180656,185,134738
19.861,180641,187,134717
19.866,180631,193,134722
19.871,180631,186,134711
19.876,180626,192,134708
19.881,180650,186,134710
19.886,180636,191,134698
19.891,180645,180,134711
19.896,180654,187,134699
19.901,180641,180,134695
19.906,180650,186,134694
19.911,180662,180,134697
19.916,180660,187,134679
19.921,180642,179,134680
19.926,180659,185,134675
19.931,180644,187,134653
19.935,180646,195,134642
19.940,180628,183,134637
19.945,180634,190,134631
19.950,180632,184,134628
19.955,180629,192,134604
19.960,180641,185,134607
19.965,180623,192,134581
19.970,180616,184,134574
19.975,180600,190,134557
19.980,180610,183,134549
19.985,180619,189,134539
19.990,180590,186,134528
19.995,180613,192,134532
20.000,180591,184,134505
20.005,180600,190,134508
20.010,180600,182,134504
20.015,180598,188,134506
20.020,180595,179,134497
20.025,180598,186,134484
20.030,180612,187,134492
20.035,180624,198,134490
20.040,180612,180,134507
20.045,180619,188,134501
20.050,180624,180,134520
20.055,180625,187,134540
20.060,180612,179,134554
20.065,180619,187,134567
20.069,180602,178,134574
20.074,180606,186,134590
20.079,180601,186,134592
20.084,180627,189,134627
20.089,180617,183,134629
20.094,180638,191,134623
20.099,180615,183,134627
20.104,180606,190,134634
20.109,180606,181,134630
20.114,180598,188,134633
20.119,180594,181,134623
20.124,180584,188,134637
20.129,180582,180,134631
20.134,180571,191,134626
20.139,180553,182,134615
20.144,180555,189,134612
20.149,180554,180,134620
20.154,180535,186,134599
20.159,180529,179,134613
20.164,180520,193,134607
20.169,180525,185,134601
20.174,180508,190,134597
20.179,180538,183,134602
20.184,180508,194,134586
20.189,180522,187,134587
20.194,180520,192,134601
20.199,180510,186,134600
20.203,180516,194,134590
20.208,180495,186,134600
20.213,180491,192,134602
20.218,180492,185,134586
20.223,180497,190,134586
20.228,180491,183,134575
20.233,180476,191,134560
20.238,180459,185,134560
20.243,180438,189,134550
20.248,180423,183,134544
20.253,180421,188,134529
20.258,180412,181,134534
20.263,180406,186,134518
20.268,180406,180,134496
20.273,180379,193,134489
20.278,180377,181,134547
20.283,180370,186,134470
20.288,180373,180,134475
20.293,180381,192,134495
20.298,180377,187,134457
20.303,180367,191,134451
20.308,180383,186,134462
20.313,180369,188,134459
20.318,180376,184,134450
20.323,180367,187,134455
20.328,180348,187,134457
20.333,180351,190,134440
20.337,180378,186,134457
20.342,180358,189,134456
20.347,180364,185,134451
20.352,180349,187,134446
20.357,180349,183,134458
20.362,180348,185,134438
20.367,180342,182,134451
20.372,180331,184,134449
20.377,180349,185,134449
20.382,180364,187,134458
20.387,180345,185,134454
20.392,180342,186,134441
20.397,180317,184,134429
20.402,180312,187,134429
20.407,180314,185,134403
20.412,180304,187,134410
20.417,180283,186,134393
20.422,180276,187,134382
20.427,180289,184,134314
20.432,180262,188,134367
20.437,180250,187,134367
20.442,180245,187,134353
20.447,180235,187,134348
20.452,180266,186,134349
20.457,180245,186,134351
20.462,180248,185,134330
20.467,180246,185,134331
20.471,180259,183,134335
20.476,180234,182,134336
20.481,180238,182,134319
20.486,180258,183,134325
20.491,180239,189,134313
20.496,180265,190,134320
20.501,180244,189,134309
20.506,180255,189,134314
20.511,180252,187,134325
20.516,180271,189,134323
20.521,180263,187,134336
20.526,180246,183,134320
20.531,180249,181,134333
20.536,180256,183,134336
20.541,180282,182,134331
20.546,180267,185,134342
20.551,180270,182,134335
20.556,180276,186,134341
20.561,180268,183,134328
20.566,180260,186,134332
20.571,180287,177,134339
20.576,180281,189,134335
20.581,180280,185,134331
20.586,180269,188,134348
20.591,180276,183,134338
20.596,180283,187,134326
20.601,180281,183,134332
20.605,180284,187,134316
20.610,180274,183,134338
20.615,180270,187,134321
20.620,180274,186,134330
20.625,180274,191,134317
20.630,180277,186,134308
20.635,180276,191,134321
20.640,180283,186,134302
20.645,180258,190,134314
20.650,180261,185,134316
20.655,180271,190,134311
20.660,180272,186,134305
20.665,180267,190,134284
20.670,180265,180,134277
20.675,180252,185,134280
20.680,180254,187,134275
20.685,180268,192,134254
20.690,180271,186,134258
20.695,180249,191,134258
20.700,180251,185,134245
20.705,180247,191,134250
20.710,180251,185,134217
20.715,180242,191,134223
20.720,180237,181,134222
20.725,180243,187,134209
20.730,180246,180,134205
20.735,180246,187,134204
20.739,180252,180,134204
20.744,180246,186,134200
20.749,180244,179,134189
20.754,180235,193,134185
20.759,180251,186,134174
20.764,180244,192,134164
20.769,180228,183,134165
20.774,180237,190,134172
20.779,180237,183,134161
20.784,180249,189,134151
20.789,180248,182,134164
20.794,180230,190,134152
20.799,180249,182,134148
20.804,180255,191,134161
20.809,180262,183,134152
20.814,180257,195,134162
20.819,180251,178,134120
20.824,180248,186,134123
20.829,180240,179,134108
20.834,180244,187,134097
20.839,180244,179,134099
20.844,180240,187,134091
20.849,180237,179,134082
20.854,180247,187,134094
20.859,180244,179,134073
20.864,180241,189,134080
20.869,180259,182,134074
20.874,180255,190,134061
20.878,180244,181,134060
20.883,180238,189,134037
20.888,180256,181,134042
20.893,180268,188,134042
20.898,180252,180,134045
20.903,180247,187,134033
20.908,180246,179,134027
20.913,180242,189,134010
20.918,180237,181,134007
20.923,180247,188,134003
20.928,180231,180,133983
20.933,180245,187,133991
20.938,180247,179,133988
20.943,180261,194,133976
20.948,180256,186,133989
20.953,180273,192,133993
20.958,180275,184,133998
20.963,180261,194,134013
20.968,180268,186,134038
20.973,180289,192,134054
20.978,180280,184,134073
20.983,180267,189,134085
20.988,180268,181,134100
20.993,180254,187,134108
20.998,180271,179,134124
21.003,180245,193,134142
21.008,180253,186,134147
21.012,180253,191,134149
21.017,180240,183,134150
21.022,180232,190,134146
21.027,180238,184,134135
21.032,180219,190,134125
21.037,180206,183,134128
21.042,180212,188,134109
21.047,180201,180,134104
21.052,180173,186,134100
21.057,180175,180,134088
21.062,180147,189,134087
21.067,180145,182,134067
21.072,180129,187,134064
21.077,180102,180,134048
21.082,180107,193,134043
21.087,180083,187,134018
21.092,180070,191,134006
21.097,180051,185,133985
21.102,180049,190,133971
21.107,180012,184,133979
21.112,180039,190,133960
21.117,180030,185,133948
21.122,180020,188,133947
21.127,180008,183,133954
21.132,180006,186,133958
21.137,179985,181,133943
21.142,180002,185,133952
21.146,179969,180,133946
21.151,179969,184,133937
21.156,179976,184,133912
21.161,179947,189,133928
21.166,179937,185,133913
21.171,179932,187,133913
21.176,179923,184,133905
21.181,179923,186,133891
21.186,179901,182,133893
21.191,179899,184,133884
21.196,179893,181,133887
21.201,179881,190,133867
21.206,179875,183,133854
21.211,179870,183,133840
21.216,179864,181,133849
21.221,179856,183,133843
21.226,179840,181,133821
21.231,179864,191,133826
21.236,179854,188,133819
21.241,179865,188,133811
21.246,179859,186,133801
21.251,179850,186,133788
21.256,179836,190,133780
21.261,179816,189,133768
21.266,179812,189,133754
21.271,179799,190,133751
21.276,179764,190,133733
21.280,179767,189,133741
21.285,179741,189,133729
21.290,179729,188,133709
21.295,179727,187,133707
21.300,179712,186,133693
21.305,179713,183,133699
21.310,179708,181,133689
21.315,179697,191,133694
21.320,179701,189,133668
21.325,179679,191,133679
21.330,179684,188,133682
21.335,179685,189,133670
21.340,179668,186,133658
21.345,179640,189,133657
21.350,179642,186,133659
21.355,179641,184,133651
21.360,179650,180,133636
21.365,179639,183,133640
21.370,179646,180,133636
21.375,179658,184,133641
21.380,179666,180,133630
21.385,179659,192,133624
21.390,179656,180,133633
21.395,179657,192,133635
21.400,179657,184,133647
21.405,179671,187,133640
21.410,179666,183,133635
21.414,179653,187,133643
21.419,179678,181,133643
21.424,179667,185,133646
21.429,179669,181,133625
21.434,179671,186,133638
21.439,179670,180,133629
21.444,179680,185,133631
21.449,179683,184,133637
21.454,179677,189,133638
21.459,179671,184,133626
21.464,179682,189,133631
21.469,179676,182,133640
21.474,179677,187,133625
21.479,179654,182,133628
21.484,179676,188,133629
21.489,179689,182,133628
21.494,179694,188,133646
21.499,179693,185,133634
21.504,179692,192,133635
21.509,179681,186,133627
21.514,179703,192,133629
21.519,179688,187,133635
21.524,179683,193,133637
21.529,179705,186,133629
21.534,179684,193,133628
21.539,179705,187,133624
21.544,179683,193,133622
21.548,179694,181,133618
21.553,179690,188,133623
21.558,179712,181,133617
21.563,179698,187,133600
21.568,179696,180,133613
21.573,179717,187,133600
21.578,179699,181,133610
21.583,179729,189,133596
21.588,179704,181,133584
21.593,179699,189,133568
21.598,179694,183,133571
21.603,179693,191,133561
21.608,179703,183,133566
21.613,179698,190,133576
21.618,179706,183,133560
21.623,179714,190,133565
21.628,179718,184,133543
21.633,179716,191,133550
21.638,179720,183,133538
21.643,179722,183,133553
21.648,179721,179,133543
21.653,179718,187,133531
21.658,179715,180,133524
21.663,179712,188,133517
21.668,179729,181,133513
21.673,179731,189,133510
21.678,179737,181,133491
21.682,179715,190,133503
21.687,179719,183,133483
21.692,179703,186,133481
21.697,179707,179,133478
21.702,179719,186,133475
21.707,179724,179,133455
21.712,179712,187,133472
21.717,179709,179,133467
21.722,179715,188,133463
21.727,179722,180,133461
21.732,179717,189,133440
21.737,179720,181,133468
21.742,179721,192,133452
21.747,179731,185,133460
21.752,179727,193,133438
21.757,179732,186,133453
21.762,179724,187,133446
21.767,179722,179,133444
21.772,179738,187,133445
21.777,179753,180,133426
21.782,179736,188,133425
21.787,179742,182,133423
21.792,179729,193,133424
21.797,179746,187,133417
21.802,179747,186,133414
21.807,179753,179,133407
21.812,179772,186,133396
21.816,179752,180,133404
21.821,179769,189,133407
21.826,179767,182,133422
21.831,179768,189,133417
21.836,179776,183,133412
21.841,179774,192,133407
21.846,179768,187,133399
21.851,179774,185,133392
21.856,179769,178,133382
21.861,179774,193,133376
21.866,179768,187,133369
21.871,179778,193,133378
21.876,179776,179,133375
21.881,179778,186,133370
21.886,179769,182,133378
21.891,179794,188,133377
21.896,179777,183,133374
21.901,179803,189,133372
21.906,179800,183,133366
21.911,179780,188,133365
21.916,179788,183,133367
21.921,179793,188,133358
21.926,179789,183,133361
21.931,179798,187,133351
21.936,179799,186,133344
21.941,179799,191,133344
21.946,179799,186,133340
21.951,179783,190,133333
21.955,179788,186,133318
21.960,179791,191,133315
21.965,179795,187,133319
21.970,179796,191,133301
21.975,179777,188,133307
21.980,179765,191,133304
21.985,179782,183,133286
21.990,179777,187,133281
21.995,179766,183,133286
22.000,179783,187,133273
22.005,179768,184,133275
22.010,179784,186,133275
22.015,179790,184,133275
22.020,179795,187,133295
22.025,179797,183,133289
22.030,179813,188,133305
22.035,179814,187,133337
22.040,179826,190,133346
22.045,179836,188,133358
22.050,179839,190,133370
22.055,179831,189,133380
22.060,179834,183,133413
22.065,179838,182,133429
22.070,179840,183,133450
22.075,179848,183,133460
22.080,179840,183,133455
22.085,179853,186,133468
22.089,179844,187,133478
22.094,179834,186,133465
22.099,179819,186,133460
22.104,179805,185,133454
22.109,179771,185,133449
22.114,179764,185,133440
22.119,179777,184,133444
22.124,179763,185,133437
22.129,179745,183,133423
22.134,179729,188,133431
22.139,179719,187,133411
22.144,179710,189,133420
22.149,179717,187,133402
22.154,179692,189,133394
22.159,179676,186,133389
22.164,179670,189,133394
22.169,179661,188,133385
22.174,179672,190,133375
22.179,179666,183,133373
22.184,179640,185,133368
22.189,179641,183,133360
22.194,179633,185,133361
22.199,179632,182,133348
22.204,179628,184,133348
22.209,179593,181,133350
22.214,179596,184,133358
22.219,179593,181,133357
22.223,179575,183,133360
22.228,179566,183,133356
22.233,179561,187,133353
22.238,179572,183,133356
22.243,179555,186,133362
22.248,179570,182,133373
22.253,179550,186,133374
22.258,179555,181,133372
22.263,179532,186,133375
22.268,179522,181,133355
22.273,179515,185,133328
22.278,179524,185,133330
22.283,179486,184,133324
22.288,179481,188,133306
22.293,179490,191,133306
22.298,179479,187,133300
22.303,179478,191,133290
22.308,179468,185,133288
22.313,179466,191,133278
22.318,179466,186,133298
22.323,179478,192,133283
22.328,179454,180,133281
22.333,179465,186,133276
22.338,179466,179,133286
22.343,179464,186,133278
22.348,179459,179,133289
22.353,179475,185,133295
22.357,179447,179,133299
22.362,179466,185,133302
22.367,179458,187,133312
22.372,179478,187,133397
22.377,179463,180,133309
22.382,179472,187,133306
22.387,179473,180,133316
22.392,179474,186,133308
22.397,179448,182,133320
22.402,179451,186,133316
22.407,179437,179,133307
22.412,179433,186,133303
22.417,179432,179,133309
22.422,179413,186,133306
22.427,179432,182,133322
22.432,179441,189,133302
22.437,179422,182,133313
22.442,179448,190,133309
22.447,179422,182,133302
22.452,179420,190,133296
22.457,179435,183,133309
22.462,179422,190,133295
22.467,179432,183,133297
22.472,179418,186,133295
22.477,179430,178,133276
22.482,179399,186,133270
22.487,179404,178,133280
22.491,179419,187,133259
22.496,179405,179,133262
22.501,179393,187,133273
22.506,179405,180,133268
22.511,179405,188,133262
22.516,179404,180,133253
22.521,179410,187,133246
22.526,179417,179,133243
22.531,179401,187,133253
22.536,179411,179,133256
22.541,179402,188,133257
22.546,179407,181,133246
22.551,179408,190,133248
22.556,179400,182,133230
22.561,179408,191,133239
22.566,179421,184,133253
22.571,179425,187,133248
22.576,179398,185,133242
22.581,179414,194,133231
22.586,179416,178,133228
22.591,179409,187,133234
22.596,179408,180,133225
22.601,179407,188,133222
22.606,179430,181,133215
22.611,179411,189,133206
22.616,179407,183,133235
22.621,179394,193,133204
22.625,179403,187,133204
22.630,179391,194,133192
22.635,179402,186,133186
22.640,179408,193,133197
22.645,179417,179,133184
22.650,179401,186,133182
22.655,179417,180,133177
22.660,179423,187,133184
22.665,179389,180,133175
22.670,179427,190,133171
22.675,179413,183,133171
22.680,179420,192,133168
22.685,179426,186,133168
22.690,179426,193,133158
22.695,179416,179,133153
22.700,179408,187,133153
22.705,179427,181,133146
22.710,179433,188,133150
22.715,179439,185,133154
22.720,179440,192,133147
22.725,179443,186,133143
22.730,179440,193,133138
22.735,179436,179,133135
22.740,179427,186,133125
22.745,179439,180,133132
22.750,179433,187,133127
22.755,179436,182,133108
22.759,179436,187,133109
22.764,179441,187,133106
22.769,179457,193,133100
22.774,179460,180,133094
22.779,179446,185,133089
22.784,179459,181,133081
22.789,179448,186,133062
22.794,179467,182,133068
22.799,179458,188,133074
22.804,179457,184,133062
22.809,179476,190,133071
22.814,179479,183,133063
22.819,179478,187,133062
22.824,179482,184,133064
22.829,179482,189,133072
22.834,179478,186,133067
22.839,179496,189,133079
22.844,179492,187,133073
22.849,179499,191,133091
22.854,179507,181,133090
22.859,179505,186,133102
22.864,179515,186,133122
22.869,179511,189,133128
22.874,179535,187,133127
22.879,179527,190,133123
22.884,179518,189,133146
22.889,179517,191,133142
22.893,179512,181,133142
22.898,179532,183,133138
22.903,179522,189,133140
22.908,179526,184,133134
22.913,179516,184,133135
22.918,179507,185,133141
22.923,179526,184,133140
22.928,179525,185,133151
22.933,179528,183,133156
22.938,179558,184,133160
22.943,179530,183,133156
22.948,179523,183,133162
22.953,179554,182,133164
22.958,179523,186,133151
22.963,179528,187,133158
22.968,179522,186,133153
22.973,179521,187,133154
22.978,179526,187,133151
22.983,179507,187,133140
22.988,179485,186,133126
22.993,179481,188,133106
22.998,179461,187,133099
23.003,179481,187,133100
23.008,179513,183,133111
23.013,179489,186,133111
23.018,179496,185,133114
23.023,179496,187,133103
23.028,179498,185,133105
23.032,179503,188,133103
23.037,179516,186,133112
23.042,179514,188,133120
23.047,179540,185,133129
23.052,179546,188,133152
23.057,179522,181,133153
23.062,179538,184,133163
23.067,179556,181,133185
23.072,179570,185,133210
23.077,179565,181,133243
23.082,179593,185,133275
23.087,179611,181,133285
23.092,179609,186,133314
23.097,179624,182,133298
23.102,179632,186,133319
23.107,179635,186,133319
23.112,179629,191,133339
23.117,179622,186,133346
23.122,179613,191,133344
23.127,179625,187,133344
23.132,179600,192,133341
23.137,179596,187,133347
23.142,179577,192,133337
23.147,179569,188,133324
23.152,179552,188,133324
23.157,179547,182,133309
23.162,179524,187,133315
23.166,179523,182,133308
23.171,179514,188,133312
23.176,179488,183,133322
23.181,179505,189,133295
23.186,179487,183,133288
23.191,179482,190,133283
23.196,179475,185,133267
23.201,179467,186,133269
23.206,179480,181,133251
23.211,179463,187,133254
23.216,179460,182,133252
23.221,179441,189,133251
23.226,179447,183,133236
23.231,179461,189,133228
23.236,179472,183,133205
23.241,179455,191,133227
23.246,179450,185,133224
23.251,179454,187,133219
23.256,179441,180,133215
23.261,179459,188,133217
23.266,179439,181,133226
23.271,179433,188,133220
23.276,179443,181,133195
23.281,179420,189,133219
23.286,179417,181,133220
23.291,179455,186,133216
23.296,179419,182,133239
23.300,179415,192,133226
23.305,179408,186,133230
23.310,179406,193,133233
23.315,179409,186,133229
23.320,179410,186,133239
23.325,179421,178,133226
23.330,179418,186,133231
23.335,179427,179,133241
23.340,179428,187,133264
23.345,179430,179,133249
23.350,179436,190,133254
23.355,179439,183,133255
23.360,179429,190,133248
23.365,179455,183,133255
23.370,179446,190,133275
23.375,179437,183,133280
23.380,179455,191,133285
23.385,179467,183,133301
23.390,179471,193,133312
23.395,179465,185,133283
23.400,179504,182,133311
23.405,179495,180,133334
23.410,179501,188,133362
23.415,179491,180,133352
23.420,179496,188,133361
23.425,179497,180,133358
23.430,179499,188,133374
23.434,179493,179,133373
23.439,179507,187,133369
23.444,179512,182,133371
23.449,179506,190,133364
23.454,179495,183,133379
23.459,179505,191,133378
23.464,179498,184,133386
23.469,179509,191,133393
23.474,179510,184,133398
23.479,179497,192,133410
23.484,179497,184,133408
23.489,179493,191,133418
23.494,179512,179,133429
23.499,179509,186,133428
23.504,179492,179,133432
23.509,179503,185,133437
23.514,179487,179,133415
23.519,179476,187,133441
23.524,179477,179,133441
23.529,179483,186,133441
23.534,179475,179,133425
23.539,179475,185,133427
23.544,179477,182,133433
23.549,179472,188,133431
23.554,179463,182,133430
23.559,179461,189,133417
23.564,179468,183,133421
23.568,179461,190,133425
23.573,179472,185,133420
23.578,179474,191,133413
23.583,179480,187,133415
23.588,179474,184,133414
23.593,179478,183,133413
23.598,179472,188,133395
23.603,179484,182,133403
23.608,179488,189,133408
23.613,179478,184,133402
23.618,179492,189,133398
23.623,179503,185,133401
23.628,179490,190,133411
23.633,179495,186,133398
23.638,179487,191,133396
23.643,179502,182,133408
23.648,179500,186,133397
23.653,179492,182,133396
23.658,179498,186,133402
23.663,179505,182,133395
23.668,179493,187,133407
23.673,179499,184,133412
23.678,179501,187,133422
23.683,179507,184,133436
23.688,179512,192,133386
23.693,179507,188,133453
23.698,179516,191,133446
23.702,179515,189,133466
23.707,179531,183,133458
23.712,179537,182,133471
23.717,179535,184,133469
23.722,179532,183,133467
23.727,179539,186,133461
23.732,179556,184,133481
23.737,179544,190,133468
23.742,179549,188,133478
23.747,179567,190,133474
23.752,179561,189,133483
23.757,179571,191,133478
23.762,179576,190,133483
23.767,179566,183,133463
23.772,179569,182,133465
23.777,179569,183,133467
23.782,179566,182,133467
23.787,179562,185,133463
23.792,179575,185,133457
23.797,179570,184,133461
23.802,179580,183,133453
23.807,179582,183,133459
23.812,179582,184,133472
23.817,179583,183,133452
23.822,179596,182,133444
23.827,179593,182,133440
23.832,179601,184,133442
23.836,179617,186,133448
23.841,179617,188,133444
23.846,179620,187,133440
23.851,179621,188,133440
23.856,179638,187,133436
23.861,179657,188,133430
23.866,179653,187,133442
23.871,179656,189,133440
23.876,179662,187,133458
23.881,179668,189,133456
23.886,179672,181,133460
23.891,179685,185,133459
23.896,179671,182,133447
23.901,179693,185,133446
23.906,179684,182,133462
23.911,179669,186,133462
23.916,179703,183,133463
23.921,179693,186,133450
23.926,179712,182,133470
23.931,179711,186,133397
23.936,179713,180,133470
23.941,179727,184,133476
23.946,179737,181,133497
23.951,179738,185,133515
23.956,179760,181,133535
23.961,179783,185,133547
23.966,179799,181,133577
23.970,179815,186,133589
23.975,179820,182,133622
23.980,179843,191,133655
23.985,179824,181,133696
23.990,179856,187,133709
23.995,179837,182,133744
24.000,179864,187,133763
24.005,179857,182,133766
24.010,179853,188,133778
24.015,179859,182,133798
24.020,179843,188,133810
24.025,179834,184,133809
24.030,179837,185,133804
24.035,179834,179,133802
24.040,179828,186,133804
24.045,179805,180,133800
24.050,179810,186,133809
24.055,179802,181,133818
24.060,179803,188,133830
24.065,179814,182,133831
24.070,179804,189,133834
24.075,179816,184,133837
24.080,179852,187,133831
24.085,179799,183,133840
24.090,179800,191,133833
24.095,179784,185,133839
24.100,179784,192,133843
24.105,179792,186,133843
24.109,179770,186,133846
24.114,179774,179,133842
24.119,179785,187,133858
24.124,179760,180,133848
24.129,179757,191,133858
24.134,179738,184,133852
24.139,179750,192,133846
24.144,179744,185,133857
24.149,179738,193,133866
24.154,179747,186,133856
24.159,179741,193,133862
24.164,179736,186,133859
24.169,179741,185,133859
24.174,179728,181,133832
24.179,179746,189,133887
24.184,179738,183,133903
24.189,179749,191,133931
24.194,179775,184,133968
24.199,179798,192,133989
24.204,179827,185,134036
24.209,179846,193,134051
24.214,179851,178,134071
24.219,179866,186,134117
24.224,179884,183,134122
24.229,179891,191,134138
24.234,179899,185,134149
24.239,179903,193,134161
24.243,179916,186,134191
24.248,179938,194,134199
24.253,179931,178,134216
24.258,179934,186,134259
24.263,179951,178,134270
24.268,179964,187,134280
24.273,179971,183,134299
24.278,179971,191,134315
24.283,179993,184,134341
24.288,180003,191,134343
24.293,180017,185,134373
24.298,180018,194,134386
24.303,180012,186,134403
24.308,180018,187,134412
24.313,180021,180,134419
24.318,180038,188,134426
24.323,180019,185,134444
24.328,180037,193,134449
24.333,180038,178,134457
24.338,180050,188,134467
24.343,180041,180,134490
24.348,180068,189,134496
24.353,180065,183,134522
24.358,180055,192,134538
24.363,180085,186,134547
24.368,180060,186,134555
24.373,180052,182,134567
24.377,180060,190,134583
24.382,180081,183,134600
24.387,180079,190,134610
24.392,180095,184,134627
24.397,180097,190,134656
24.402,180120,185,134658
24.407,180124,192,134676
24.412,180127,187,134660
24.417,180132,186,134644
24.422,180127,183,134682
24.427,180132,190,134689
24.432,180138,184,134706
24.437,180131,190,134690
24.442,180151,185,134695
24.447,180152,191,134696
24.452,180149,186,134713
24.457,180148,192,134716
24.462,180155,188,134720
24.467,180197,187,134716
24.472,180171,183,134711
24.477,180168,189,134710
24.482,180178,184,134728
24.487,180199,190,134723
24.492,180199,185,134731
24.497,180233,191,134731
24.502,180223,187,134732
24.507,180236,191,134732
24.511,180236,188,134725
24.516,180246,188,134733
24.521,180229,188,134733
24.526,180226,191,134736
24.531,180239,188,134746
24.536,180231,192,134736
24.541,180247,188,134726
24.546,180245,184,134728
24.551,180262,181,134730
24.556,180241,184,134733
24.561,180280,181,134738
24.566,180276,188,134738
24.571,180292,186,134740
24.576,180286,189,134732
24.581,180320,187,134734
24.586,180314,189,134736
24.591,180309,187,134728
24.596,180315,190,134732
24.601,180311,188,134733
24.606,180330,190,134723
24.611,180316,189,134717
24.616,180311,187,134698
24.621,180301,187,134688
24.626,180319,189,134658
24.631,180292,189,134651
24.636,180306,189,134665
24.641,180295,190,134638
24.645,180293,182,134638
24.650,180291,183,134640
24.655,180288,183,134622
24.660,180303,184,134630
24.665,180280,187,134624
24.670,180306,187,134615
24.675,180304,188,134619
24.680,180295,189,134633
24.685,180302,188,134628
24.690,180303,189,134650
24.695,180301,189,134648
24.700,180336,182,134647
24.705,180312,183,134641
24.710,180346,181,134651
24.715,180342,187,134649
24.720,180356,188,134661
24.725,180359,188,134672
24.730,180365,191,134670
24.735,180359,182,134675
24.740,180377,185,134673
24.745,180382,184,134676
24.750,180367,187,134704
24.755,180391,185,134703
24.760,180391,184,134723
24.765,180386,182,134731
24.770,180400,185,134743
24.775,180386,183,134765
24.779,180416,187,134771
24.784,180399,184,134804
24.789,180390,189,134800
24.794,180391,187,134803
24.799,180368,191,134809
24.804,180383,188,134804
24.809,180307,202,134808
24.814,180357,180,134818
24.819,180360,186,134805
24.824,180357,181,134811
24.829,180353,187,134807
24.834,180348,183,134818
24.839,180349,189,134805
24.844,180348,186,134792
24.849,180329,190,134783
24.854,180326,187,134775
24.859,180316,187,134754
24.864,180313,182,134754
24.869,180293,188,134732
24.874,180298,184,134719
24.879,180298,190,134712
24.884,180285,186,134705
24.889,180290,190,134689
24.894,180300,186,134702
24.899,180295,192,134705
24.904,180275,180,134680
24.909,180267,191,134683
24.913,180289,186,134688
24.918,180275,193,134685
24.923,180269,179,134679
24.928,180269,186,134674
24.933,180273,180,134672
24.938,180272,188,134677
24.943,180271,182,134680
24.948,180277,189,134670
24.953,180273,196,134666
24.958,180261,185,134668
24.963,180263,179,134658
24.968,180237,187,134650
24.973,180226,181,134652
24.978,180232,188,134643
24.983,180229,182,134624
24.988,180232,190,134625
24.993,180220,184,134628
24.998,180239,192,134607
25.003,180240,180,134605
25.008,180244,188,134590
25.013,180249,182,134613
25.018,180247,189,134612
25.023,180253,183,134595
25.028,180236,191,134598
25.033,180234,185,134594
25.038,180243,193,134592
25.043,180226,179,134590
25.047,180233,187,134591
25.052,180274,184,134585
25.057,180243,187,134614
25.062,180220,180,134607
25.067,180245,188,134612
25.072,180243,181,134634
25.077,180250,189,134615
25.082,180261,182,134619
25.087,180263,190,134617
25.092,180233,183,134616
25.097,180242,192,134605
25.102,180244,180,134625
25.107,180239,188,134621
25.112,180254,180,134619
25.117,180235,189,134608
25.122,180234,182,134638
25.127,180250,190,134627
25.132,180236,183,134639
25.137,180262,191,134639
25.142,180255,183,134644
25.147,180262,192,134644
25.152,180246,179,134652
25.157,180261,186,134646
25.162,180255,179,134649
25.167,180266,187,134645
25.172,180263,180,134657
25.177,180262,187,134663
25.182,180265,180,134661
25.186,180285,188,134652
25.191,180283,181,134658
25.196,180299,190,134659
25.201,180282,180,134673
25.206,180287,188,134682
25.211,180319,181,134674
25.216,180321,189,134676
25.221,180332,182,134688
25.226,180329,190,134673
25.231,180352,184,134688
25.236,180354,191,134679
25.241,180350,185,134683
25.246,180364,187,134681
25.251,180365,181,134674
25.256,180355,188,134692
25.261,180375,182,134692
25.266,180382,190,134706
25.271,180385,183,134703
25.276,180401,191,134706
25.281,180389,186,134707
25.286,180411,194,134710
25.291,180430,187,134722
25.296,180426,189,134731
25.301,180427,183,134733
25.306,180416,189,134734
25.311,180428,184,134724
25.316,180427,191,134728
25.320,180438,187,134730
25.325,180416,185,134727
25.330,180450,181,134721
25.335,180447,187,134718
25.340,180447,182,134705
25.345,180451,191,134718
25.350,180472,186,134731
25.355,180463,192,134710
25.360,180480,187,134728
25.365,180475,192,134710
25.370,180478,187,134722
25.375,180481,192,134722
25.380,180487,188,134725
25.385,180491,185,134734
25.390,180491,181,134748
25.395,180491,189,134745
25.400,180503,185,134747
25.405,180507,190,134750
25.410,180514,187,134736
25.415,180512,190,134737
25.420,180518,186,134737
25.425,180503,190,134733
25.430,180509,186,134731
25.435,180519,191,134718
25.440,180525,183,134763
25.445,180530,187,134733
25.450,180548,184,134734
25.454,180550,187,134734
25.459,180543,186,134732
25.464,180545,188,134733
25.469,180565,186,134722
25.474,180572,188,134737
25.479,180554,186,134748
25.484,180564,189,134739
25.489,180593,182,134751
25.494,180562,187,134735
25.499,180579,185,134743
25.504,180583,187,134754
25.509,180591,185,134757
25.514,180599,187,134752
25.519,180592,186,134747
25.524,180602,187,134762
25.529,180603,186,134773
25.534,180588,187,134792
25.539,180607,190,134792
25.544,180610,191,134796
25.549,180611,191,134821
25.554,180598,190,134839
25.559,180617,183,134839
25.564,180610,183,134854
25.569,180624,183,134873
25.574,180623,183,134881
25.579,180624,183,134887
25.584,180616,182,134877
25.588,180612,187,134872
25.593,180594,185,134874
25.598,180597,187,134864
25.603,180595,185,134846
25.608,180581,187,134847
25.613,180579,185,134841
25.618,180580,187,134842
25.623,180557,185,134830
25.628,180545,188,134832
25.633,180558,185,134835
25.638,180538,186,134828
25.643,180543,184,134814
25.648,180552,189,134830
25.653,180536,186,134815
25.658,180528,190,134810
25.663,180541,187,134834
25.668,180521,191,134835
25.673,180532,188,134840
25.678,180524,191,134832
25.683,180516,181,134835
25.688,180525,187,134828
25.693,180522,183,134828
25.698,180541,187,134825
25.703,180523,183,134826
25.708,180527,188,134831
25.713,180515,183,134844
25.718,180510,187,134833
25.722,180518,183,134826
25.727,180514,187,134827
25.732,180510,185,134815
25.737,180494,192,134820
25.742,180493,187,134820
25.747,180493,193,134819
25.752,180482,187,134816
25.757,180474,192,134796
25.762,180470,187,134817
25.767,180467,192,134795
25.772,180474,187,134786
25.777,180450,193,134763
25.782,180509,181,134757
25.787,180449,189,134736
25.792,180455,183,134695
25.797,180432,190,134657
25.802,180409,184,134627
25.807,180391,191,134596
25.812,180375,184,134553
25.817,180379,191,134516
25.822,180359,183,134489
25.827,180344,190,134480
25.832,180352,187,134444
25.837,180337,193,134440
25.842,180332,187,134441
25.847,180346,186,134428
25.852,180336,180,134415
25.856,180339,188,134430
25.861,180347,181,134412
25.866,180329,190,134401
25.871,180317,183,134402
25.876,180309,192,134391
25.881,180294,183,134381
25.886,180288,191,134368
25.891,180302,185,134352
25.896,180296,192,134344
25.901,180288,186,134323
25.906,180283,192,134303
25.911,180278,186,134279
25.916,180257,193,134264
25.921,180259,185,134249
25.926,180264,194,134224
25.931,180265,180,134231
25.936,180263,189,134225
25.941,180266,181,134217
25.946,180267,189,134199
25.951,180253,182,134202
25.956,180255,190,134179
25.961,180266,183,134171
25.966,180234,191,134158
25.971,180233,183,134156
25.976,180237,207,134142
25.981,180231,179,134138
25.986,180212,187,134128
25.990,180213,180,134119
25.995,180223,188,134116
26.000,180215,180,134124
26.005,180219,189,134117
26.010,180210,181,134148
26.015,180212,190,134112
26.020,180225,182,134140
26.025,180223,193,134160
26.030,180236,186,134160
26.035,180233,194,134185
26.040,180252,186,134197
26.045,180256,194,134193
26.050,180275,187,134197
26.055,180291,186,134219
26.060,180277,179,134204
26.065,180280,187,134203
26.070,180273,179,134204
26.075,180306,190,134214
26.080,180342,183,134234
26.085,180341,191,134236
26.090,180343,185,134242
26.095,180342,194,134225
26.100,180338,179,134227
26.105,180350,187,134242
26.110,180371,180,134249
26.115,180376,188,134258
26.120,180392,182,134285
26.124,180393,194,134288
26.129,180398,187,134308
26.134,180411,195,134321
26.139,180426,179,134340
26.144,180415,187,134358
26.149,180425,179,134360
26.154,180418,187,134370
26.159,180430,181,134374
26.164,180458,188,134385
26.169,180461,182,134392
26.174,180485,192,134412
26.179,180499,187,134421
26.184,180518,193,134427
26.189,180506,187,134431
26.194,180531,185,134461
26.199,180551,180,134458
26.204,180564,194,134474
26.209,180573,180,134493
26.214,180576,186,134499
26.219,180573,183,134556
26.224,180588,190,134545
26.229,180610,185,134556
26.234,180624,190,134556
26.239,180642,184,134557
26.244,180638,189,134551
26.249,180654,184,134572
26.254,180669,189,134569
26.259,180663,185,134581
26.263,180671,190,134572
26.268,180665,180,134593
26.273,180694,186,134570
26.278,180671,181,134565
26.283,180679,186,134572
26.288,180683,183,134590
26.293,180682,187,134599
26.298,180720,183,134593
26.303,180717,188,134580
26.308,180704,185,134596
26.313,180742,189,134598
26.318,180776,183,134598
26.323,180745,190,134620
26.328,180753,188,134625
26.333,180763,192,134637
26.338,180755,189,134627
26.343,180773,184,134648
26.348,180785,183,134659
26.353,180795,186,134686
26.358,180819,183,134686
26.363,180830,185,134731
26.368,180838,182,134730
26.373,180828,185,134752
26.378,180842,184,134759
26.383,180827,186,134776
26.388,180833,185,134794
26.393,180812,186,134807
26.397,180840,186,134811
26.402,180823,188,134828
26.407,180830,187,134823
26.412,180830,188,134846
26.417,180817,184,134830
26.422,180840,186,134834
26.427,180834,185,134841
26.432,180834,186,134831
26.437,180834,187,134837
26.442,180812,186,134830
26.447,180823,187,134826
26.452,180804,187,134823
26.457,180802,188,134808
26.462,180796,190,134884
26.467,180797,184,134813
26.472,180781,183,134805
26.477,180765,184,134813
26.482,180764,184,134794
26.487,180751,185,134800
26.492,180742,184,134799
26.497,180746,185,134774
26.502,180745,184,134778
26.507,180727,186,134788
26.512,180685,186,134778
26.517,180732,189,134770
26.522,180720,186,134776
26.527,180744,189,134771
26.531,180729,187,134762
26.536,180703,190,134763
26.541,180725,188,134774
26.546,180724,192,134773
26.551,180733,189,134784
26.556,180714,184,134797
26.561,180743,184,134801
26.566,180740,188,134812
26.571,180742,185,134795
26.576,180757,190,134812
26.581,180749,187,134804
26.586,180735,191,134824
26.591,180726,188,134818
26.596,180725,193,134802
26.601,180734,180,134794
26.606,180718,186,134799
26.611,180734,185,134799
26.616,180713,190,134796
26.621,180731,187,134786
26.626,180743,192,134776
26.631,180746,187,134772
26.636,180745,192,134770
26.641,180752,186,134755
26.646,180753,192,134763
26.651,180755,187,134761
26.656,180738,185,134752
26.661,180762,185,134747
26.665,180735,191,134760
26.670,180731,186,134759
26.675,180742,192,134759
26.680,180752,187,134760
26.685,180737,194,134766
26.690,180724,180,134755
26.695,180729,186,134767
26.700,180749,181,134766
26.705,180747,189,134786
26.710,180756,187,134757
26.715,180747,186,134752
26.720,180750,181,134765
26.725,180742,189,134756
26.730,180758,184,134762
26.735,180745,190,134760
26.740,180738,184,134763
26.745,180744,191,134759
26.750,180735,185,134739
26.755,180726,188,134768
26.760,180747,185,134745
26.765,180747,193,134727
26.770,180755,187,134742
26.775,180750,194,134728
26.780,180750,187,134730
26.785,180744,187,134722
26.790,180755,180,134726
26.795,180744,188,134711
26.799,180754,180,134714
26.804,180762,191,134716
26.809,180760,183,134713
26.814,180759,191,134707
26.819,180763,184,134717
26.824,180765,192,134715
26.829,180755,185,134714
26.834,180761,193,134712
26.839,180772,185,134710
26.844,180777,192,134716
26.849,180776,184,134707
26.854,180779,187,134719
26.859,180770,180,134700
26.864,180767,188,134701
26.869,180785,180,134698
26.874,180786,188,134698
26.879,180783,180,134693
26.884,180781,188,134684
26.889,180785,180,134690
26.894,180789,188,134679
26.899,180783,179,134671
26.904,180788,191,134669
26.909,180793,183,134678
26.914,180794,190,134649
26.919,180789,183,134636
26.924,180812,190,134636
26.929,180803,182,134649
26.933,180801,191,134627
26.938,180790,183,134616
26.943,180794,192,134636
26.948,180796,184,134610
26.953,180800,190,134612
26.958,180812,182,134611
26.963,180805,190,134600
26.968,180809,183,134596
26.973,180803,191,134599
26.978,180811,184,134599
26.983,180816,192,134570
26.988,180817,184,134569
26.993,180816,191,134569
26.998,180841,199,134615
27.003,180838,190,134561
27.008,180844,182,134562
27.013,180843,189,134560
27.018,180849,181,134565
27.023,180845,189,134563
27.028,180859,180,134569
27.033,180852,188,134575
27.038,180863,181,134571
27.043,180879,188,134559
27.048,180876,184,134576
27.053,180860,191,134571
27.058,180867,185,134573
27.063,180872,192,134564
27.067,180884,185,134568
27.072,180880,193,134578
27.077,180911,187,134576
27.082,180921,193,134563
27.087,180925,187,134575
27.092,180923,193,134590
27.097,180945,181,134578
27.102,180928,187,134597
27.107,180927,182,134593
27.112,180942,188,134598
27.117,180937,182,134604
27.122,180942,186,134618
27.127,180949,182,134611
27.132,180955,187,134630
27.137,180986,181,134646
27.142,180971,186,134640
27.147,180980,185,134656
27.152,180984,189,134658
27.157,181014,184,134664
27.162,180995,188,134661
27.167,181014,184,134675
27.172,181019,188,134663
27.177,181021,184,134671
27.182,181012,188,134674
27.187,181018,184,134670
27.192,181019,188,134666
27.197,181027,189,134679
27.201,181030,184,134693
27.206,181044,181,134690
27.211,181042,184,134692
27.216,181057,189,134700
27.221,181053,192,134700
27.226,181057,189,134705
27.231,181062,191,134697
27.236,181054,188,134699
27.241,181057,186,134684
27.246,181079,183,134697
27.251,181063,185,134685
27.256,181065,183,134684
27.261,181055,185,134692
27.266,181055,184,134671
27.271,181079,186,134684
27.276,181074,186,134700
27.281,181098,188,134708
27.286,181110,186,134719
27.291,181092,192,134724
27.296,181103,183,134750
27.301,181110,183,134735
27.306,181128,184,134725
27.311,181133,185,134740
27.316,181150,186,134746
27.321,181153,187,134764
27.326,181150,187,134782
27.331,181160,187,134794
27.336,181178,188,134786
27.340,181192,183,134789
27.345,181184,184,134812
27.350,181192,183,134839
27.355,181180,185,134852
27.360,181196,184,134871
27.365,181190,186,134872
27.370,181188,185,134878
27.375,181187,187,134898
27.380,181214,186,134913
27.385,181203,188,134919
27.390,181190,184,134943
27.395,181198,184,134934
27.400,181191,182,134936
27.405,181167,185,134941
27.410,181167,183,134929
27.415,181151,186,134926
27.420,181138,184,134912
27.425,181127,188,134895
27.430,181137,186,134885
27.435,181110,190,134885
27.440,181110,187,134883
27.445,181115,191,134869
27.450,181093,189,134854
27.455,181105,185,134852
27.460,181094,182,134835
27.465,181092,187,134835
27.470,181082,184,134836
27.474,181072,188,134818
27.479,181055,186,134794
27.484,181058,191,134790
27.489,181057,181,134787
27.494,181048,186,134773
27.499,181057,182,134771
27.504,181036,187,134764
27.509,181049,182,134764
27.514,181028,188,134771
27.519,181033,183,134759
27.524,181030,189,134744
27.529,181024,184,134750
27.534,181002,192,134746
27.539,181009,179,134741
27.544,181015,185,134739
27.549,181014,180,134735
27.554,181000,186,134735
27.559,181012,181,134742
27.564,181017,188,134745
27.569,181001,182,134725
27.574,180978,187,134724
27.579,180971,183,134718
27.584,180967,186,134707
27.589,180978,180,134685
27.594,180978,186,134696
27.599,180980,181,134695
27.604,180982,187,134687
27.608,180986,181,134675
27.613,180973,187,134665
27.618,180979,180,134668
27.623,180979,188,134653
27.628,180980,182,134659
27.633,180976,192,134654
27.638,180972,186,134647
27.643,180975,193,134634
27.648,180949,179,134655
27.653,180973,187,134647
27.658,180969,180,134658
27.663,180977,188,134667
27.668,180963,182,134662
27.673,180979,190,134640
27.678,180973,182,134657
27.683,180983,186,134650
27.688,180975,179,134648
27.693,180975,187,134642
27.698,180994,180,134655
27.703,180994,189,134646
27.708,180994,182,134648
27.713,180983,190,134650
27.718,180990,183,134668
27.723,180993,191,134686
27.728,180978,184,134698
27.733,181016,190,134692
27.738,181004,182,134697
27.742,181025,191,134706
27.747,181017,183,134720
27.752,181017,192,134721
27.757,181026,186,134725
27.762,181000,195,134723
27.767,181017,179,134710
27.772,181011,188,134720
27.777,180954,180,134727
27.782,181043,186,134734
27.787,181004,194,134723
27.792,181013,179,134736
27.797,181022,186,134731
27.802,181014,179,134730
27.807,181004,188,134736
27.812,181017,180,134721
27.817,181014,187,134739
27.822,181014,184,134736
27.827,180999,192,134725
27.832,181010,186,134730
27.837,181016,187,134718
27.842,181017,181,134738
27.847,181026,190,134742
27.852,181054,183,134734
27.857,181056,192,134738
27.862,181040,186,134743
27.867,181033,194,134737
27.872,181074,179,134734
27.876,181061,193,134744
27.881,181066,187,134750
27.886,181077,186,134739
27.891,181086,179,134751
27.896,181072,187,134764
27.901,181103,180,134764
27.906,181095,187,134762
27.911,181110,180,134767
27.916,181087,186,134787
27.921,181112,183,134789
27.926,181106,190,134775
27.931,181109,183,134763
27.936,181103,189,134772
27.941,181114,183,134774
27.946,181111,190,134771
27.951,181116,184,134781
27.956,181115,191,134766
27.961,181125,185,134775
27.966,181144,191,134764
27.971,181128,180,134782
27.976,181123,187,134757
27.981,181133,181,134776
27.986,181134,187,134775
27.991,181130,181,134778
27.996,181165,187,134794
28.001,181147,182,134802
28.006,181157,187,134793
28.010,181161,182,134811
28.015,181162,202,134823
28.020,181170,185,134833
28.025,181190,190,134843
28.030,181197,186,134833
28.035,181199,191,134851
28.040,181204,187,134842
28.045,181203,192,134858
28.050,181208,188,134860
28.055,181199,192,134866
28.060,181198,188,134856
28.065,181200,187,134849
28.070,181213,183,134846
28.075,181207,187,134845
28.080,181218,183,134845
28.085,181213,187,134840
28.090,181205,184,134831
28.095,181221,187,134836
28.100,181217,185,134825
28.105,181252,188,134837
28.110,181253,187,134849
28.115,181269,187,134846
28.120,181256,186,134843
28.125,181242,189,134834
28.130,181252,188,134833
28.135,181259,191,134854
28.140,181271,188,134854
28.144,181274,191,134850
28.149,181283,189,134855
28.154,181303,191,134852
28.159,181300,189,134876
28.164,181291,185,134862
28.169,181310,184,134869
28.174,181288,186,134857
28.179,181291,185,134851
28.184,181304,186,134861
28.189,181307,185,134867
28.194,181308,186,134871
28.199,181319,186,134864
28.204,181327,187,134861
28.209,181326,188,134878
28.214,181336,183,134892
28.219,181339,183,134894
28.224,181374,183,134893
28.229,181379,183,134909
28.234,181379,183,134921
28.239,181377,184,134911
28.244,181384,183,134908
28.249,181388,184,134916
28.254,181391,183,134905
28.259,181389,188,134893
28.264,181386,186,134892
28.269,181404,188,134903
28.274,181401,186,134907
28.278,181416,186,134909
28.283,181422,186,134927
28.288,181430,188,134942
28.293,181444,186,134942
28.298,181436,190,134956
28.303,181461,188,134975
28.308,181486,185,134987
28.313,181491,183,135001
28.318,181509,186,135017
28.323,181532,183,135034
28.328,181539,187,135054
28.333,181554,184,135068
28.338,181571,187,135090
28.343,181615,184,135098
28.348,181611,187,135102
28.353,181603,183,135106
28.358,181621,191,135122
28.363,181652,187,135142
28.368,181645,191,135136
28.373,181666,187,135156
28.378,181653,192,135165
28.383,181666,188,135178
28.388,181672,185,135202
28.393,181676,180,135211
28.398,181672,185,135219
28.403,181665,180,135263
28.408,181674,189,135265
28.413,181657,184,135284
28.417,181674,190,135312
28.422,181690,184,135314
28.427,181685,191,135329
28.432,181677,185,135347
28.437,181694,192,135336
28.442,181661,186,135334
28.447,181653,192,135327
28.452,181656,187,135309
28.457,181636,191,135306
28.462,181620,186,135304
28.467,181604,192,135296
28.472,181589,186,135278
28.477,181586,192,135267
28.482,181567,187,135268
28.487,181560,193,135260
28.492,181545,179,135264
28.497,181548,186,135263
28.502,181529,181,135253
28.507,181522,189,135230
28.512,181496,183,135233
28.517,181510,190,135237
28.522,181485,184,135229
28.527,181482,191,135219
28.532,181494,184,135218
28.537,181484,192,135214
28.542,181460,185,135199
28.547,181478,192,135202
28.551,181499,179,135197
28.556,181477,191,135195
28.561,181466,184,135188
28.566,181459,191,135200
28.571,181477,183,135195
28.576,181461,191,135197
28.581,181449,183,135190
28.586,181443,191,135194
28.591,181438,184,135185
28.596,181429,191,135174
28.601,181419,179,135177
28.606,181418,187,135184
28.611,181403,180,135178
28.616,181414,189,135178
28.621,181399,182,135165
28.626,181403,190,135167
28.631,181393,182,135168
28.636,181392,190,135151
28.641,181399,183,135163
28.646,181399,191,135162
28.651,181393,179,135165
28.656,181410,187,135160
28.661,181406,180,135159
28.666,181407,188,135156
28.671,181405,181,135165
28.676,181410,189,135170
28.681,181414,182,135168
28.685,181421,190,135151
28.690,181413,183,135159
28.695,181394,191,135172
28.700,181402,178,135176
28.705,181425,186,135182
28.710,181419,179,135174
28.715,181435,187,135181
28.720,181431,179,135186
28.725,181423,187,135178
28.730,181416,180,135161
28.735,181412,187,135172
28.740,181435,180,135170
28.745,181426,188,135163
28.750,181411,186,135171
28.755,181397,186,135176
28.760,181396,179,135165
28.765,181405,187,135181
28.770,181407,181,135175
28.775,181406,190,135175
28.780,181389,183,135176
28.785,181396,192,135175
28.790,181415,184,135190
28.795,181399,183,135180
28.800,181414,181,135198
28.805,181405,188,135199
28.810,181394,181,135186
28.815,181404,189,135188
28.819,181427,183,135202
28.824,181412,190,135199
28.829,181427,183,135213
28.834,181403,191,135210
28.839,181426,185,135213
28.844,181437,187,135228
28.849,181432,184,135216
28.854,181435,191,135210
28.859,181452,186,135223
28.864,181461,192,135234
28.869,181451,179,135231
28.874,181467,185,135243
28.879,181466,179,135237
28.884,181459,187,135241
28.889,181459,181,135248
28.894,181470,191,135250
28.899,181473,186,135250
28.904,181475,193,135255
28.909,181490,179,135255
28.914,181495,185,135277
28.919,181509,181,135276
28.924,181515,186,135295
28.929,181512,182,135320
28.934,181545,188,135325
28.939,181529,187,135318
28.944,181537,184,135324
28.949,181563,180,135326
28.953,181562,185,135339
28.958,181562,181,135345
28.963,181568,186,135338
28.968,181571,182,135338
28.973,181594,185,135357
28.978,181584,181,135356
28.983,181600,184,135349
28.988,181608,181,135371
28.993,181609,187,135382
28.998,181602,183,135387
29.003,181620,187,135370
29.008,181618,185,135381
29.013,181616,187,135390
29.018,181635,185,135381
29.023,181639,187,135376
29.028,181635,185,135357
29.033,181632,186,135349
29.038,181643,184,135335
29.043,181650,188,135329
29.048,181650,185,135315
29.053,181649,184,135318
29.058,181640,190,135307
29.063,181643,188,135276
29.068,181645,185,135290
29.073,181639,184,135275
29.078,181648,182,135282
29.083,181640,189,135278
29.087,181641,182,135283
29.092,181637,189,135274
29.097,181650,187,135274
29.102,181645,185,135280
29.107,181653,185,135273
29.112,181663,182,135268
29.117,181659,190,135270
29.122,181666,187,135271
29.127,181658,187,135272
29.132,181675,184,135265
29.137,181667,188,135258
29.142,181689,184,135253
29.147,181702,185,135241
29.152,181705,189,135250
29.157,181721,189,135250
29.162,181712,184,135262
29.167,181736,185,135254
29.172,181745,189,135275
29.177,181767,189,135274
29.182,181761,184,135261
29.187,181775,189,135293
29.192,181774,184,135289
29.197,181796,186,135290
29.202,181798,181,135284
29.207,181803,191,135292
29.212,181813,186,135301
29.217,181831,189,135298
29.221,181831,183,135309
29.226,181848,187,135296
29.231,181862,181,135322
29.236,181869,185,135337
29.241,181881,187,135324
