df_hash,22ZHK4.6M747Q
device,HZ2X61
project_hash,29R7
project_name,istanbul_aydin_university
person_hash,29R7.CN3T
person_label,V72
date_time_start,2025-11-03_12-57-37.237000_+03
date_time_start_unix,1762160257.237
date_time_end,2025-11-03_13-06-23.614000_+03
length_difference_noticed,no

time,ppg_ir,ppg_ambient,ppg_red
5.293,177323,189,186047
5.298,177307,190,186048
5.303,177321,191,186045
5.307,177298,190,186055
5.312,177314,195,186053
5.317,177331,189,186046
5.322,177317,190,186040
5.327,177307,190,186050
5.332,177311,191,186044
5.337,177313,191,186042
5.342,177318,191,186048
5.347,177329,191,186047
5.352,177320,192,186049
5.357,177327,192,186040
5.362,177328,196,186061
5.367,177329,196,186051
5.372,177325,197,186071
5.377,177343,197,186068
5.382,177331,198,186065
5.387,177339,198,186073
5.392,177351,199,186052
5.397,177358,189,186065
5.402,177336,189,186062
5.407,177346,191,186068
5.412,177363,195,186047
5.417,177362,195,186068
5.422,177378,196,186074
5.427,177383,197,186073
5.432,177381,198,186087
5.437,177396,198,186070
5.442,177388,188,186091
5.447,177393,188,186093
5.452,177402,189,186096
5.457,177404,190,186096
5.461,177399,197,186103
5.466,177406,198,186094
5.471,177406,189,186105
5.476,177406,190,186099
5.481,177405,191,186116
5.486,177405,191,186099
5.491,177421,192,186119
5.496,177409,194,186107
5.501,177398,195,186099
5.506,177412,195,186111
5.511,177425,194,186108
5.516,177437,195,186103
5.521,177441,196,186105
5.526,177429,196,186098
5.531,177434,196,186110
5.536,177437,197,186101
5.541,177431,197,186092
5.546,177432,196,186095
5.551,177445,198,186096
5.556,177419,192,186097
5.561,177420,192,186080
5.566,177404,192,186076
5.571,177404,193,186077
5.576,177407,193,186057
5.581,177387,195,186070
5.586,177379,195,186062
5.591,177367,196,186050
5.596,177342,198,186038
5.601,177339,199,186032
5.606,177343,192,186041
5.611,177336,193,186036
5.615,177332,193,186054
5.620,177328,193,186060
5.625,177349,192,186050
5.630,177350,191,186081
5.635,177336,192,186069
5.640,177353,192,186079
5.645,177354,192,186073
5.650,177352,193,186074
5.655,177354,196,186081
5.660,177358,198,186090
5.665,177348,197,186090
5.670,177356,198,186094
5.675,177350,198,186090
5.680,177334,189,186090
5.685,177335,188,186089
5.690,177341,189,186091
5.695,177337,190,186089
5.700,177336,191,186075
5.705,177325,194,186086
5.710,177331,194,186089
5.715,177338,195,186097
5.720,177327,196,186099
5.725,177331,197,186106
5.730,177335,198,186108
5.735,177324,192,186118
5.740,177320,190,186119
5.745,177338,190,186110
5.750,177338,194,186123
5.755,177355,191,186134
5.760,177337,193,186143
5.765,177356,193,186155
5.770,177351,194,186168
5.774,177351,195,186151
5.779,177359,197,186163
5.784,177367,197,186163
5.789,177371,199,186179
5.794,177380,189,186182
5.799,177377,194,186197
5.804,177394,193,186190
5.809,177386,194,186196
5.814,177388,195,186193
5.819,177389,197,186194
5.824,177402,196,186216
5.829,177393,197,186215
5.834,177416,197,186219
5.839,177426,199,186218
5.844,177435,199,186226
5.849,177411,193,186243
5.854,177417,193,186238
5.859,177417,194,186239
5.864,177420,194,186248
5.869,177425,196,186255
5.874,177438,196,186250
5.879,177429,196,186258
5.884,177433,197,186264
5.889,177430,198,186262
5.894,177433,198,186273
5.899,177446,192,186281
5.904,177436,193,186300
5.909,177462,194,186299
5.914,177471,194,186288
5.919,177477,195,186302
5.924,177486,196,186323
5.928,177467,196,186301
5.933,177476,197,186314
5.938,177495,197,186335
5.943,177475,197,186330
5.948,177490,192,186349
5.953,177514,193,186337
5.958,177502,194,186348
5.963,177524,194,186349
5.968,177511,196,186366
5.973,177525,198,186354
5.978,177526,190,186349
5.983,177530,191,186361
5.988,177548,193,186362
5.993,177527,196,186406
5.998,177552,190,186365
6.003,177538,191,186369
6.008,177557,192,186386
6.013,177555,195,186386
6.018,177564,197,186395
6.023,177570,199,186394
6.028,177578,189,186406
6.033,177590,190,186398
6.038,177575,190,186410
6.043,177556,194,186422
6.048,177600,195,186421
6.053,177575,197,186433
6.058,177589,197,186425
6.063,177602,189,186445
6.068,177597,190,186432
6.073,177592,191,186433
6.078,177602,191,186431
6.082,177599,192,186444
6.087,177619,192,186436
6.092,177621,198,186443
6.097,177605,198,186444
6.102,177627,188,186449
6.107,177622,189,186448
6.112,177610,190,186451
6.117,177618,192,186432
6.122,177623,193,186433
6.127,177628,194,186421
6.132,177640,195,186436
6.137,177639,196,186425
6.142,177602,201,186441
6.147,177630,189,186433
6.152,177624,191,186427
6.157,177635,192,186426
6.162,177631,193,186433
6.167,177634,193,186430
6.172,177637,194,186424
6.177,177640,195,186414
6.182,177644,195,186409
6.187,177653,196,186415
6.192,177636,191,186411
6.197,177637,193,186409
6.202,177657,195,186416
6.207,177657,195,186413
6.212,177662,198,186433
6.217,177656,189,186406
6.222,177653,189,186418
6.227,177670,190,186404
6.232,177666,191,186406
6.236,177656,193,186399
6.241,177672,198,186416
6.246,177663,197,186422
6.251,177665,188,186403
6.256,177664,189,186414
6.261,177656,190,186389
6.266,177649,192,186392
6.271,177641,194,186367
6.276,177606,194,186362
6.281,177603,194,186365
6.286,177636,197,186347
6.291,177594,189,186353
6.296,177575,192,186366
6.301,177592,191,186367
6.306,177608,191,186365
6.311,177622,193,186363
6.316,177591,193,186382
6.321,177611,194,186386
6.326,177615,195,186394
6.331,177624,197,186399
6.336,177610,191,186406
6.341,177608,192,186402
6.346,177631,193,186422
6.351,177607,194,186420
6.356,177621,195,186434
6.361,177622,196,186422
6.366,177621,197,186432
6.371,177620,199,186442
6.376,177632,189,186447
6.381,177637,189,186439
6.386,177646,194,186447
6.391,177637,194,186446
6.395,177629,194,186463
6.400,177631,195,186473
6.405,177651,195,186479
6.410,177650,195,186470
6.415,177644,195,186481
6.420,177645,195,186498
6.425,177658,195,186505
6.430,177652,193,186512
6.435,177668,193,186517
6.440,177658,194,186519
6.445,177668,194,186519
6.450,177670,195,186515
6.455,177674,195,186538
6.460,177663,195,186530
6.465,177678,195,186533
6.470,177686,196,186544
6.475,177686,196,186540
6.480,177691,197,186544
6.485,177705,189,186561
6.490,177707,190,186576
6.495,177701,191,186564
6.500,177710,192,186562
6.505,177736,192,186595
6.510,177727,192,186568
6.515,177733,193,186593
6.520,177755,193,186605
6.525,177751,193,186601
6.530,177773,191,186609
6.535,177756,198,186613
6.540,177753,199,186620
6.545,177757,197,186627
6.549,177765,198,186610
6.554,177768,199,186633
6.559,177773,190,186636
6.564,177777,188,186649
6.569,177777,189,186658
6.574,177794,189,186661
6.579,177796,193,186678
6.584,177790,192,186694
6.589,177812,193,186691
6.594,177815,193,186692
6.599,177823,194,186708
6.604,177817,192,186715
6.609,177836,193,186722
6.614,177860,193,186732
6.619,177848,194,186726
6.624,177840,194,186751
6.629,177852,196,186746
6.634,177857,197,186766
6.639,177871,188,186752
6.644,177885,188,186774
6.649,177869,190,186762
6.654,177905,190,186782
6.659,177892,190,186775
6.664,177896,190,186787
6.669,177893,190,186788
6.674,177907,190,186804
6.679,177910,195,186803
6.684,177925,195,186830
6.689,177934,196,186826
6.694,177930,196,186839
6.699,177946,196,186824
6.703,177952,196,186834
6.708,177958,197,186855
6.713,177972,197,186863
6.718,177971,198,186862
6.723,177958,198,186867
6.728,177993,192,186884
6.733,178061,206,186890
6.738,177992,195,186898
6.743,178021,196,186905
6.748,178013,197,186893
6.753,178015,198,186899
6.758,178022,198,186921
6.763,178052,199,186928
6.768,178052,189,186955
6.773,178071,190,186932
6.778,178077,196,186982
6.783,178084,196,186983
6.788,178109,196,186990
6.793,178095,197,186988
6.798,178115,199,187006
6.803,178130,189,187017
6.808,178142,189,187027
6.813,178123,190,187023
6.818,178130,191,187045
6.823,178164,194,187035
6.828,178164,195,187048
6.833,178175,195,187052
6.838,178184,197,187062
6.843,178193,195,187073
6.848,178216,196,187076
6.853,178213,196,187094
6.857,178218,196,187095
6.862,178233,197,187109
6.867,178227,197,187114
6.872,178246,192,187122
6.877,178221,195,187130
6.882,178243,196,187142
6.887,178233,197,187131
6.892,178227,197,187135
6.897,178236,197,187130
6.902,178218,197,187130
6.907,178210,198,187136
6.912,178226,198,187141
6.917,178218,198,187145
6.922,178226,192,187150
6.927,178234,192,187184
6.932,178235,192,187186
6.937,178256,193,187199
6.942,178255,193,187208
6.947,178257,194,187222
6.952,178260,194,187213
6.957,178259,194,187240
6.962,178270,195,187239
6.967,178285,195,187230
6.972,178290,190,187249
6.977,178288,189,187248
6.982,178275,189,187242
6.987,178284,189,187252
6.992,178283,190,187249
6.997,178274,190,187235
7.002,178295,189,187245
7.007,178279,189,187249
7.012,178278,190,187254
7.016,178286,194,187323
7.021,178286,189,187262
7.026,178290,189,187268
7.031,178285,190,187272
7.036,178291,190,187277
7.041,178282,190,187279
7.046,178292,190,187284
7.051,178298,191,187299
7.056,178295,192,187286
7.061,178296,191,187300
7.066,178299,194,187290
7.071,178291,189,187290
7.076,178290,189,187293
7.081,178296,189,187285
7.086,178294,188,187288
7.091,178299,189,187303
7.096,178301,189,187276
7.101,178302,189,187305
7.106,178303,189,187287
7.111,178294,190,187300
7.116,178307,195,187294
7.121,178311,195,187303
7.126,178315,195,187307
7.131,178317,195,187286
7.136,178317,196,187301
7.141,178331,196,187311
7.146,178325,195,187325
7.151,178312,195,187306
7.156,178323,194,187304
7.161,178321,194,187297
7.166,178317,197,187318
7.170,178313,198,187293
7.175,178322,199,187306
7.180,178330,188,187326
7.185,178329,199,187321
7.190,178348,189,187341
7.195,178342,189,187343
7.200,178339,189,187351
7.205,178341,188,187356
7.210,178365,189,187351
7.215,178369,193,187351
7.220,178356,194,187357
7.225,178361,194,187383
7.230,178368,195,187363
7.235,178362,195,187368
7.240,178380,195,187365
7.245,178381,195,187367
7.250,178378,196,187380
7.255,178381,196,187366
7.260,178366,197,187419
7.265,178381,195,187388
7.270,178367,196,187372
7.275,178397,196,187379
7.280,178391,196,187394
7.285,178407,195,187384
7.290,178395,196,187387
7.295,178405,197,187411
7.300,178393,198,187399
7.305,178405,199,187404
7.310,178399,189,187406
7.315,178425,192,187416
7.320,178414,194,187405
7.324,178416,194,187431
7.329,178437,196,187429
7.334,178442,197,187430
7.339,178438,198,187415
7.344,178431,188,187447
7.349,178440,190,187443
7.354,178454,189,187438
7.359,178460,194,187448
7.364,178473,195,187452
7.369,178477,197,187462
7.374,178499,198,187475
7.379,178488,199,187485
7.384,178495,190,187490
7.389,178516,191,187479
7.394,178534,191,187489
7.399,178529,192,187487
7.404,178535,193,187510
7.409,178541,198,187502
7.414,178552,199,187510
7.419,178550,199,187518
7.424,178573,198,187529
7.429,178580,199,187539
7.434,178580,189,187556
7.439,178596,189,187535
7.444,178600,189,187553
7.449,178596,189,187555
7.454,178601,188,187554
7.459,178608,194,187539
7.464,178577,194,187544
7.469,178580,194,187534
7.474,178571,194,187543
7.478,178577,195,187539
7.483,178563,194,187519
7.488,178558,194,187555
7.493,178547,194,187514
7.498,178543,195,187532
7.503,178547,195,187534
7.508,178534,189,187545
7.513,178549,189,187539
7.518,178547,189,187547
7.523,178556,189,187547
7.528,178558,189,187557
7.533,178577,189,187569
7.538,178570,189,187583
7.543,178575,188,187585
7.548,178580,199,187596
7.553,178592,197,187599
7.558,178582,196,187598
7.563,178589,196,187617
7.568,178587,196,187619
7.573,178600,196,187616
7.578,178598,197,187626
7.583,178606,196,187629
7.588,178588,196,187616
7.593,178605,197,187639
7.598,178588,197,187625
7.603,178597,190,187642
7.608,178596,194,187634
7.613,178589,194,187625
7.618,178599,195,187649
7.623,178605,194,187643
7.628,178576,177,187672
7.633,178598,194,187664
7.637,178590,195,187655
7.642,178601,194,187668
7.647,178616,194,187675
7.652,178597,198,187673
7.657,178608,198,187677
7.662,178614,198,187674
7.667,178630,199,187683
7.672,178600,189,187672
7.677,178629,190,187696
7.682,178621,190,187694
7.687,178630,192,187693
7.692,178642,192,187709
7.697,178652,193,187725
7.702,178655,197,187699
7.707,178642,198,187714
7.712,178646,199,187723
7.717,178659,199,187721
7.722,178667,198,187733
7.727,178657,198,187717
7.732,178668,188,187637
7.737,178647,190,187711
7.742,178651,190,187714
7.747,178669,189,187722
7.752,178637,194,187706
7.757,178629,193,187696
7.762,178638,194,187695
7.767,178632,195,187694
7.772,178629,195,187684
7.777,178618,196,187685
7.782,178628,196,187687
7.787,178617,197,187681
7.791,178620,198,187688
7.796,178613,191,187705
7.801,178633,191,187681
7.806,178631,192,187683
7.811,178631,193,187674
7.816,178619,193,187688
7.821,178619,193,187687
7.826,178608,194,187673
7.831,178617,193,187671
7.836,178601,195,187649
7.841,178607,195,187655
7.846,178581,189,187636
7.851,178592,190,187627
7.856,178583,190,187606
7.861,178561,190,187612
7.866,178555,191,187602
7.871,178561,191,187589
7.876,178549,192,187588
7.881,178553,192,187573
7.886,178546,192,187585
7.891,178547,193,187569
7.896,178539,189,187578
7.901,178535,189,187568
7.906,178522,189,187568
7.911,178529,189,187557
7.916,178525,190,187562
7.921,178517,191,187540
7.926,178512,191,187536
7.931,178511,191,187527
7.936,178513,192,187506
7.941,178501,192,187504
7.945,178518,196,187497
7.950,178491,197,187497
7.955,178503,197,187494
7.960,178485,197,187496
7.965,178493,197,187497
7.970,178496,198,187497
7.975,178478,197,187481
7.980,178490,198,187455
7.985,178470,198,187460
7.990,178464,199,187448
7.995,178467,198,187449
8.000,178476,198,187447
8.005,178483,198,187443
8.010,178464,199,187447
8.015,178465,199,187421
8.020,178471,198,187429
8.025,178470,199,187404
8.030,178444,189,187404
8.035,178459,190,187392
8.040,178433,191,187434
8.045,178415,195,187405
8.050,178421,196,187379
8.055,178409,198,187371
8.060,178394,197,187345
8.065,178381,197,187334
8.070,178372,199,187331
8.075,178363,190,187318
8.080,178366,190,187323
8.085,178364,190,187328
8.090,178312,195,187326
8.095,178350,196,187329
8.100,178359,197,187345
8.104,178332,198,187345
8.109,178347,189,187333
8.114,178350,190,187325
8.119,178330,191,187333
8.124,178348,190,187322
8.129,178345,191,187332
8.134,178345,191,187322
8.139,178341,195,187313
8.144,178322,195,187304
8.149,178329,195,187319
8.154,178312,195,187307
8.159,178322,195,187287
8.164,178327,195,187288
8.169,178303,195,187303
8.174,178310,195,187263
8.179,178305,195,187277
8.184,178298,195,187298
8.189,178288,189,187290
8.194,178287,199,187272
8.199,178283,198,187287
8.204,178290,198,187295
8.209,178287,198,187300
8.214,178280,199,187296
8.219,178284,198,187303
8.224,178278,188,187296
8.229,178270,189,187290
8.234,178265,189,187310
8.239,178265,193,187289
8.244,178281,192,187300
8.249,178269,192,187291
8.254,178290,193,187313
8.258,178273,192,187293
8.263,178282,192,187310
8.268,178306,192,187309
8.273,178290,192,187323
8.278,178298,192,187330
8.283,178305,193,187334
8.288,178299,197,187328
8.293,178302,196,187331
8.298,178322,196,187340
8.303,178318,196,187352
8.308,178316,195,187347
8.313,178317,195,187352
8.318,178341,193,187355
8.323,178339,192,187357
8.328,178331,192,187367
8.333,178344,193,187362
8.338,178352,195,187387
8.343,178359,195,187365
8.348,178339,195,187369
8.353,178352,195,187384
8.358,178362,195,187378
8.363,178355,196,187397
8.368,178367,197,187396
8.373,178370,196,187389
8.378,178375,196,187388
8.383,178377,190,187405
8.388,178363,195,187390
8.393,178376,195,187394
8.398,178369,196,187407
8.403,178374,195,187413
8.408,178387,195,187414
8.412,178405,196,187405
8.417,178396,196,187413
8.422,178404,195,187411
8.427,178413,195,187432
8.432,178396,189,187423
8.437,178405,188,187405
8.442,178395,188,187437
8.447,178414,190,187440
8.452,178411,191,187422
8.457,178422,191,187429
8.462,178404,191,187423
8.467,178415,193,187447
8.472,178420,194,187449
8.477,178444,195,187451
8.482,178416,192,187437
8.487,178414,193,187446
8.492,178432,195,187461
8.497,178445,195,187476
8.502,178436,196,187461
8.507,178450,196,187462
8.512,178445,196,187453
8.517,178459,196,187458
8.522,178439,195,187462
8.527,178445,197,187448
8.532,178445,191,187457
8.537,178445,193,187464
8.542,178446,193,187450
8.547,178444,194,187451
8.552,178443,194,187446
8.557,178443,195,187446
8.562,178447,195,187459
8.566,178448,196,187461
8.571,178463,197,187463
8.576,178451,191,187446
8.581,178456,191,187456
8.586,178461,191,187452
8.591,178471,192,187463
8.596,178452,193,187450
8.601,178458,194,187445
8.606,178457,193,187451
8.611,178452,193,187450
8.616,178462,194,187424
8.621,178469,194,187444
8.626,178464,198,187441
8.631,178494,197,187451
8.636,178482,197,187465
8.641,178489,188,187445
8.646,178488,189,187449
8.651,178488,190,187465
8.656,178488,191,187446
8.661,178468,191,187454
8.666,178497,192,187461
8.671,178489,192,187432
8.676,178499,199,187433
8.681,178483,191,187421
8.686,178474,193,187429
8.691,178457,193,187423
8.696,178444,194,187428
8.701,178438,194,187390
8.706,178429,195,187385
8.711,178415,193,187381
8.716,178401,195,187362
8.721,178395,193,187351
8.725,178389,198,187355
8.730,178378,199,187345
8.735,178378,200,187350
8.740,178364,190,187345
8.745,178366,191,187348
8.750,178371,191,187343
8.755,178368,192,187343
8.760,178379,193,187353
8.765,178386,195,187339
8.770,178356,197,187362
8.775,178362,192,187341
8.780,178360,192,187356
8.785,178364,193,187346
8.790,178356,195,187345
8.795,178348,196,187339
8.800,178325,197,187319
8.805,178334,197,187329
8.810,178336,199,187325
8.815,178318,189,187322
8.820,178311,195,187309
8.825,178302,197,187321
8.830,178306,199,187310
8.835,178297,200,187297
8.840,178315,188,187298
8.845,178294,189,187316
8.850,178301,189,187302
8.855,178292,190,187303
8.860,178308,191,187320
8.865,178298,192,187325
8.870,178287,197,187321
8.875,178276,198,187331
8.879,178292,198,187339
8.884,178284,198,187329
8.889,178276,199,187330
8.894,178301,198,187349
8.899,178300,188,187347
8.904,178287,189,187348
8.909,178307,190,187357
8.914,178317,191,187369
8.919,178312,196,187385
8.924,178301,197,187378
8.929,178313,197,187375
8.934,178317,198,187402
8.939,178318,189,187411
8.944,178341,190,187383
8.949,178333,192,187389
8.954,178326,193,187404
8.959,178329,195,187391
8.964,178322,195,187405
8.969,178347,189,187407
8.974,178334,190,187415
8.979,178353,191,187404
8.984,178326,191,187407
8.989,178326,193,187404
8.994,178356,194,187402
8.999,178344,195,187405
9.004,178325,195,187418
9.009,178351,196,187409
9.014,178332,197,187407
9.019,178361,191,187429
9.024,178354,191,187419
9.029,178348,193,187421
9.033,178350,194,187458
9.038,178379,194,187452
9.043,178361,194,187437
9.048,178364,195,187450
9.053,178365,196,187461
9.058,178373,198,187456
9.063,178380,189,187484
9.068,178376,198,187467
9.073,178412,199,187470
9.078,178387,199,187475
9.083,178399,188,187481
9.088,178400,188,187482
9.093,178413,189,187482
9.098,178407,189,187486
9.103,178408,188,187498
9.108,178409,188,187492
9.113,178404,193,187509
9.118,178409,199,187512
9.123,178408,188,187498
9.128,178416,189,187493
9.133,178421,189,187504
9.138,178404,191,187504
9.143,178407,192,187522
9.148,178416,194,187522
9.153,178412,195,187507
9.158,178415,195,187504
9.163,178430,189,187513
9.168,178407,190,187518
9.173,178429,192,187510
9.178,178430,192,187505
9.183,178428,192,187516
9.187,178439,194,187517
9.192,178424,194,187531
9.197,178421,196,187508
9.202,178441,197,187511
9.207,178436,198,187508
9.212,178437,192,187515
9.217,178445,193,187505
9.222,178446,193,187498
9.227,178441,194,187501
9.232,178434,195,187508
9.237,178453,195,187519
9.242,178442,195,187495
9.247,178443,196,187505
9.252,178450,196,187495
9.257,178438,196,187494
9.262,178474,191,187499
9.267,178456,191,187497
9.272,178453,191,187493
9.277,178461,192,187500
9.282,178454,193,187509
9.287,178480,193,187495
9.292,178475,194,187502
9.297,178471,194,187520
9.302,178475,192,187508
9.307,178474,193,187543
9.312,178463,196,187515
9.317,178481,196,187498
9.322,178468,196,187504
9.327,178484,196,187509
9.332,178483,196,187525
9.337,178472,198,187494
9.342,178496,196,187503
9.346,178478,197,187503
9.351,178479,198,187493
9.356,178446,188,187499
9.361,178484,193,187496
9.366,178495,193,187501
9.371,178478,195,187497
9.376,178474,196,187484
9.381,178484,197,187488
9.386,178479,198,187484
9.391,178488,199,187488
9.396,178488,199,187483
9.401,178492,189,187484
9.406,178492,193,187495
9.411,178492,194,187471
9.416,178476,195,187464
9.421,178487,194,187458
9.426,178483,195,187444
9.431,178449,195,187426
9.436,178454,197,187426
9.441,178448,197,187415
9.446,178432,198,187400
9.451,178389,198,187400
9.456,178388,192,187397
9.461,178396,192,187366
9.466,178368,193,187369
9.471,178350,193,187378
9.476,178356,195,187374
9.481,178351,194,187370
9.486,178356,194,187372
9.491,178367,194,187375
9.496,178344,195,187378
9.500,178355,195,187379
9.505,178344,193,187383
9.510,178355,194,187393
9.515,178347,194,187408
9.520,178361,193,187400
9.525,178333,193,187382
9.530,178334,194,187389
9.535,178336,195,187380
9.540,178325,195,187391
9.545,178318,197,187376
9.550,178317,198,187368
9.555,178311,192,187361
9.560,178297,192,187340
9.565,178283,192,187348
9.570,178287,193,187340
9.575,178287,194,187337
9.580,178283,194,187331
9.585,178255,196,187325
9.590,178264,196,187349
9.595,178270,197,187324
9.600,178256,195,187339
9.605,178261,191,187346
9.610,178252,192,187334
9.615,178246,193,187321
9.620,178231,192,187309
9.625,178246,192,187317
9.630,178229,192,187318
9.635,178222,194,187308
9.640,178212,194,187305
9.645,178211,196,187316
9.650,178214,190,187315
9.654,178204,190,187310
9.659,178217,191,187330
9.664,178215,193,187331
9.669,178221,194,187330
9.674,178217,195,187343
9.679,178226,195,187343
9.684,178212,196,187334
9.689,178233,196,187357
9.694,178234,198,187351
9.699,178214,193,187339
9.704,178230,195,187334
9.709,178218,195,187332
9.714,178210,196,187325
9.719,178222,195,187342
9.724,178223,197,187346
9.729,178202,197,187341
9.734,178190,200,187335
9.739,178204,190,187342
9.744,178201,191,187339
9.749,178218,195,187330
9.754,178196,198,187340
9.759,178220,198,187338
9.764,178203,198,187330
9.769,178207,199,187327
9.774,178221,189,187334
9.779,178214,189,187347
9.784,178204,190,187363
9.789,178216,191,187359
9.794,178228,191,187353
9.799,178244,192,187371
9.804,178228,194,187360
9.808,178223,194,187355
9.813,178231,194,187359
9.818,178225,194,187373
9.823,178228,195,187380
9.828,178223,195,187378
9.833,178231,196,187383
9.838,178238,197,187383
9.843,178222,198,187385
9.848,178236,190,187384
9.853,178246,190,187400
9.858,178240,190,187392
9.863,178250,189,187399
9.868,178252,191,187390
9.873,178261,191,187404
9.878,178251,193,187418
9.883,178250,193,187401
9.888,178258,196,187413
9.893,178270,190,187427
9.898,178264,192,187427
9.903,178269,192,187425
9.908,178273,194,187425
9.913,178266,196,187434
9.918,178278,196,187426
9.923,178287,197,187428
9.928,178275,197,187428
9.933,178274,198,187416
9.938,178286,199,187448
9.943,178284,192,187416
9.948,178297,192,187432
9.953,178292,192,187440
9.958,178297,193,187442
9.963,178312,193,187446
9.967,178312,194,187457
9.972,178319,195,187467
9.977,178322,197,187478
9.982,178338,197,187464
9.987,178341,198,187496
9.992,178332,195,187481
9.997,178339,197,187478
10.002,178333,197,187492
10.007,178341,199,187484
10.012,178346,189,187491
10.017,178358,191,187492
10.022,178357,190,187496
10.027,178359,192,187521
10.032,178373,193,187505
10.037,178391,195,187506
10.042,178370,188,187519
10.047,178381,191,187502
10.052,178372,192,187502
10.057,178392,193,187512
10.062,178387,192,187518
10.067,178383,193,187512
10.072,178392,194,187526
10.077,178389,195,187511
10.082,178376,195,187519
10.087,178381,200,187536
10.092,178380,191,187510
10.097,178400,192,187513
10.102,178400,193,187513
10.107,178416,193,187512
10.112,178410,193,187524
10.117,178412,194,187528
10.121,178405,194,187532
10.126,178396,194,187527
10.131,178407,195,187540
10.136,178428,198,187524
10.141,178412,189,187535
10.146,178419,190,187528
10.151,178438,191,187540
10.156,178434,192,187523
10.161,178422,193,187513
10.166,178416,194,187540
10.171,178399,195,187514
10.176,178400,196,187504
10.181,178378,196,187474
10.186,178398,193,187481
10.191,178360,196,187470
10.196,178343,198,187479
10.201,178329,198,187468
10.206,178323,198,187456
10.211,178308,189,187446
10.216,178303,190,187458
10.221,178299,190,187468
10.226,178312,192,187461
10.231,178311,193,187462
10.236,178297,198,187469
10.241,178322,198,187468
10.246,178311,189,187471
10.251,178312,190,187487
10.256,178316,191,187487
10.261,178319,192,187499
10.266,178306,193,187511
10.271,178332,194,187492
10.275,178311,195,187504
10.280,178317,195,187516
10.285,178307,190,187508
10.290,178296,190,187504
10.295,178304,191,187509
10.300,178287,190,187509
10.305,178311,191,187513
10.310,178293,192,187504
10.315,178298,193,187514
10.320,178278,194,187515
10.325,178290,195,187517
10.330,178297,197,187497
10.335,178299,189,187526
10.340,178309,190,187537
10.345,178294,191,187539
10.350,178292,191,187542
10.355,178288,193,187535
10.360,178289,193,187523
10.365,178279,194,187546
10.370,178268,195,187530
10.375,178297,197,187545
10.380,178308,190,187548
10.385,178293,191,187556
10.390,178303,192,187557
10.395,178298,192,187571
10.400,178294,193,187565
10.405,178304,194,187577
10.410,178308,195,187569
10.415,178320,196,187579
10.420,178317,196,187575
10.425,178304,199,187569
10.430,178326,193,187589
10.434,178330,194,187592
10.439,178325,195,187590
10.444,178339,196,187608
10.449,178338,198,187606
10.454,178321,190,187592
10.459,178311,190,187593
10.464,178325,192,187600
10.469,178317,193,187612
10.474,178320,195,187600
10.479,178348,192,187616
10.484,178340,194,187594
10.489,178332,196,187607
10.494,178340,197,187612
10.499,178336,197,187607
10.504,178348,199,187639
10.509,178345,190,187635
10.514,178342,192,187639
10.519,178337,192,187646
10.524,178347,194,187637
10.529,178360,199,187655
10.534,178358,189,187650
10.539,178354,190,187661
10.544,178353,193,187643
10.549,178354,194,187649
10.554,178341,195,187657
10.559,178356,196,187644
10.564,178371,198,187649
10.569,178350,189,187659
10.574,178370,191,187678
10.579,178360,199,187642
10.584,178354,189,187661
10.588,178374,190,187649
10.593,178370,191,187671
10.598,178379,192,187666
10.603,178378,193,187661
10.608,178382,193,187671
10.613,178372,194,187683
10.618,178377,194,187670
10.623,178359,196,187685
10.628,178405,188,187693
10.633,178390,189,187691
10.638,178406,190,187700
10.643,178408,191,187686
10.648,178395,192,187686
10.653,178417,193,187677
10.658,178395,193,187698
10.663,178412,194,187694
10.668,178399,195,187702
10.673,178406,190,187697
10.678,178416,190,187699
10.683,178418,192,187696
10.688,178424,193,187709
10.693,178420,194,187706
10.698,178421,194,187696
10.703,178429,195,187714
10.708,178424,196,187728
10.713,178439,197,187715
10.718,178432,199,187725
10.723,178439,193,187714
10.728,178451,193,187707
10.733,178438,196,187721
10.738,178451,197,187699
10.742,178449,198,187700
10.747,178443,199,187713
10.752,178456,190,187705
10.757,178446,191,187712
10.762,178451,193,187710
10.767,178437,192,187710
10.772,178448,191,187708
10.777,178438,191,187699
10.782,178441,193,187710
10.787,178455,194,187712
10.792,178464,195,187699
10.797,178444,196,187698
10.802,178459,198,187696
10.807,178460,199,187698
10.812,178460,189,187684
10.817,178433,191,187694
10.822,178421,195,187688
10.827,178410,195,187677
10.832,178402,197,187654
10.837,178395,199,187647
10.842,178374,189,187644
10.847,178368,191,187627
10.852,178354,192,187620
10.857,178352,192,187612
10.862,178344,194,187621
10.867,178356,201,187576
10.872,178340,195,187631
10.877,178345,197,187619
10.882,178337,198,187614
10.887,178340,190,187638
10.892,178337,192,187628
10.896,178330,193,187609
10.901,178324,194,187636
10.906,178315,195,187631
10.911,178318,197,187645
10.916,178348,192,187636
10.921,178334,188,187637
10.926,178329,190,187627
10.931,178304,191,187628
10.936,178300,192,187640
10.941,178305,192,187637
10.946,178308,194,187636
10.951,178287,196,187616
10.956,178307,198,187625
10.961,178291,188,187624
10.966,178297,192,187624
10.971,178287,193,187623
10.976,178292,193,187630
10.981,178277,193,187623
10.986,178282,194,187623
10.991,178283,196,187630
10.996,178279,197,187628
11.001,178275,197,187633
11.006,178261,199,187632
11.011,178269,192,187639
11.016,178276,199,187624
11.021,178282,189,187638
11.026,178267,193,187647
11.031,178273,192,187634
11.036,178270,194,187649
11.041,178272,194,187645
11.046,178273,196,187649
11.051,178269,197,187657
11.055,178283,197,187653
11.060,178299,197,187656
11.065,178296,193,187653
11.070,178288,194,187655
11.075,178290,194,187661
11.080,178291,195,187665
11.085,178299,196,187685
11.090,178302,198,187680
11.095,178285,199,187666
11.100,178293,189,187677
11.105,178298,190,187678
11.110,178288,200,187692
11.115,178300,189,187689
11.120,178288,189,187690
11.125,178305,190,187686
11.130,178287,191,187683
11.135,178298,192,187682
11.140,178294,192,187689
11.145,178298,193,187667
11.150,178284,194,187696
11.155,178287,193,187696
11.160,178315,197,187707
11.165,178313,197,187717
11.170,178320,198,187727
11.175,178314,189,187727
11.180,178323,189,187720
11.185,178341,189,187726
11.190,178324,190,187726
11.195,178325,190,187743
11.200,178344,190,187730
11.205,178328,190,187739
11.209,178341,195,187721
11.214,178347,194,187722
11.219,178338,195,187730
11.224,178345,194,187732
11.229,178343,195,187761
11.234,178344,195,187736
11.239,178343,195,187735
11.244,178349,196,187755
11.249,178357,197,187761
11.254,178362,197,187765
11.259,178358,190,187780
11.264,178369,191,187779
11.269,178368,191,187783
11.274,178378,191,187793
11.279,178395,191,187791
11.284,178369,191,187799
11.289,178378,191,187776
11.294,178399,192,187796
11.299,178380,192,187794
11.304,178402,193,187780
11.309,178406,192,187790
11.314,178394,193,187799
11.319,178401,193,187801
11.324,178400,193,187790
11.329,178413,194,187796
11.334,178418,194,187793
11.339,178401,194,187803
11.344,178421,194,187803
11.349,178429,194,187812
11.354,178410,199,187810
11.359,178433,188,187802
11.363,178415,189,187818
11.368,178432,189,187818
11.373,178438,189,187836
11.378,178449,188,187823
11.383,178453,189,187836
11.388,178442,189,187830
11.393,178453,189,187840
11.398,178461,189,187833
11.403,178453,193,187836
11.408,178491,195,187829
11.413,178457,196,187826
11.418,178458,196,187861
11.423,178479,198,187846
11.428,178473,198,187847
11.433,178487,199,187851
11.438,178508,198,187851
11.443,178508,199,187858
11.448,178488,198,187861
11.453,178494,192,187836
11.458,178483,192,187835
11.463,178476,192,187827
11.468,178476,191,187838
11.473,178449,191,187819
11.478,178437,189,187805
11.483,178433,190,187796
11.488,178417,190,187775
11.493,178410,190,187786
11.498,178397,190,187785
11.503,178396,194,187771
11.508,178374,189,187774
11.513,178374,190,187776
11.517,178381,189,187788
11.522,178375,191,187790
11.527,178378,191,187785
11.532,178386,192,187804
11.537,178366,191,187805
11.542,178372,192,187810
11.547,178376,192,187824
11.552,178385,196,187820
11.557,178384,195,187811
11.562,178382,196,187833
11.567,178373,196,187818
11.572,178398,195,187819
11.577,178379,194,187824
11.582,178378,194,187805
11.587,178379,195,187838
11.592,178382,194,187836
11.597,178375,195,187795
11.602,178369,193,187831
11.607,178370,191,187848
11.612,178358,191,187843
11.617,178363,191,187843
11.622,178361,192,187846
11.627,178355,191,187843
11.632,178352,193,187837
11.637,178350,193,187849
11.642,178357,193,187842
11.647,178349,198,187845
11.652,178341,199,187837
11.657,178332,189,187837
11.662,178333,189,187827
11.667,178339,191,187841
11.672,178336,192,187844
11.676,178339,191,187846
11.681,178333,192,187839
11.686,178334,192,187858
11.691,178340,192,187865
11.696,178347,196,187852
11.701,178337,195,187869
11.706,178350,194,187866
11.711,178338,194,187870
11.716,178353,193,187869
11.721,178347,192,187880
11.726,178372,192,187878
11.731,178353,198,187877
11.736,178358,193,187881
11.741,178371,192,187884
11.746,178364,196,187897
11.751,178372,196,187896
11.756,178373,196,187915
11.761,178385,196,187902
11.766,178384,196,187892
11.771,178379,195,187888
11.776,178374,195,187918
11.781,178390,194,187903
11.786,178373,194,187911
11.791,178399,192,187915
11.796,178394,190,187932
11.801,178384,189,187953
11.806,178401,190,187947
11.811,178411,189,187950
11.816,178437,189,187949
11.821,178440,190,187954
11.826,178422,190,187976
11.830,178430,190,187978
11.835,178448,190,187993
11.840,178445,190,187988
11.845,178445,194,187985
11.850,178458,194,187994
11.855,178461,194,187993
11.860,178445,193,188004
11.865,178463,194,188001
11.870,178455,192,188016
11.875,178473,193,188032
11.880,178485,192,188028
11.885,178493,192,188030
11.890,178512,189,188049
11.895,178502,195,188059
11.900,178510,194,188038
11.905,178515,194,188066
11.910,178522,195,188061
11.915,178522,196,188067
11.920,178537,196,188089
11.925,178538,197,188082
11.930,178541,199,188094
11.935,178544,189,188100
11.940,178553,194,188109
11.945,178550,193,188120
11.950,178571,193,188115
11.955,178554,194,188125
11.960,178583,192,188132
11.965,178578,192,188140
11.970,178590,192,188132
11.975,178600,192,188150
11.980,178598,191,188150
11.984,178599,190,188153
11.989,178625,197,188168
11.994,178606,189,188168
11.999,178612,189,188165
12.004,178621,189,188185
12.009,178626,199,188181
12.014,178617,198,188187
12.019,178652,196,188180
12.024,178635,196,188201
12.029,178656,195,188194
12.034,178653,194,188182
12.039,178650,198,188210
12.044,178653,198,188209
12.049,178650,198,188216
12.054,178670,199,188195
12.059,178681,198,188219
12.064,178686,198,188217
12.069,178684,197,188223
12.074,178686,196,188221
12.079,178692,195,188224
12.084,178703,196,188225
12.089,178693,193,188222
12.094,178693,193,188228
12.099,178707,192,188215
12.104,178693,192,188216
12.109,178668,192,188204
12.114,178672,191,188203
12.119,178658,192,188191
12.124,178663,191,188188
12.129,178620,192,188180
12.134,178615,194,188178
12.138,178616,195,188168
12.143,178593,195,188147
12.148,178588,195,188149
12.153,178595,194,188155
12.158,178576,193,188149
12.163,178577,193,188158
12.168,178581,193,188167
12.173,178590,193,188155
12.178,178571,194,188163
12.183,178579,198,188161
12.188,178580,188,188153
12.193,178575,189,188171
12.198,178561,189,188173
12.203,178559,189,188161
12.208,178547,189,188147
12.213,178556,189,188153
12.218,178556,189,188145
12.223,178533,189,188145
12.228,178537,190,188144
12.233,178530,193,188135
12.238,178515,193,188136
12.243,178509,193,188115
12.248,178509,193,188110
12.253,178507,192,188120
12.258,178493,192,188115
12.263,178494,192,188115
12.268,178489,192,188130
12.273,178501,192,188118
12.278,178493,192,188135
12.283,178490,196,188117
12.288,178483,196,188124
12.293,178484,196,188132
12.297,178494,196,188132
12.302,178488,197,188125
12.307,178491,197,188148
12.312,178486,197,188146
12.317,178500,197,188137
12.322,178495,197,188158
12.327,178471,198,188160
12.332,178491,191,188149
12.337,178482,191,188167
12.342,178498,192,188162
12.347,178512,192,188172
12.352,178518,192,188201
12.357,178520,192,188202
12.362,178535,192,188203
12.367,178523,192,188188
12.372,178533,193,188186
12.377,178538,195,188163
12.382,178522,199,188192
12.387,178517,189,188193
12.392,178515,189,188195
12.397,178509,190,188191
12.402,178525,191,188190
12.407,178534,191,188182
12.412,178516,192,188199
12.417,178519,194,188190
12.422,178521,194,188183
12.427,178534,199,188200
12.432,178517,193,188186
12.437,178511,192,188185
12.442,178525,193,188198
12.447,178520,193,188186
12.451,178522,192,188196
12.456,178526,192,188206
12.461,178525,193,188213
12.466,178535,193,188217
12.471,178520,193,188215
12.476,178548,197,188227
12.481,178543,196,188245
12.486,178534,197,188232
12.491,178556,197,188235
12.496,178555,196,188233
12.501,178553,197,188235
12.506,178550,197,188238
12.511,178567,198,188245
12.516,178577,197,188252
12.521,178565,197,188242
12.526,178565,191,188247
12.531,178567,191,188264
12.536,178582,191,188232
12.541,178576,191,188249
12.546,178578,192,188261
12.551,178577,193,188256
12.556,178586,193,188249
12.561,178588,193,188252
12.566,178574,194,188261
12.571,178587,195,188259
12.576,178578,198,188259
12.581,178589,199,188267
12.586,178592,199,188265
12.591,178591,199,188259
12.596,178577,199,188266
12.601,178594,198,188263
12.605,178600,198,188274
12.610,178618,197,188259
12.615,178608,197,188266
12.620,178606,198,188271
12.625,178646,181,188270
12.630,178612,190,188282
12.635,178613,190,188265
12.640,178621,190,188269
12.645,178612,189,188276
12.650,178637,189,188276
12.655,178629,188,188292
12.660,178636,199,188288
12.665,178640,189,188283
12.670,178637,187,188290
12.675,178642,193,188281
12.680,178646,194,188289
12.685,178642,193,188289
12.690,178661,194,188274
12.695,178648,193,188279
12.700,178659,193,188283
12.705,178648,193,188295
12.710,178652,193,188297
12.715,178673,192,188295
12.720,178719,194,188287
12.725,178680,197,188279
12.730,178648,195,188357
12.735,178669,196,188286
12.740,178688,196,188290
12.745,178676,195,188276
12.750,178691,196,188270
12.755,178682,195,188281
12.760,178678,195,188270
12.764,178659,195,188275
12.769,178652,192,188256
12.774,178654,191,188242
12.779,178628,192,188232
12.784,178639,191,188232
12.789,178601,191,188215
12.794,178590,190,188203
12.799,178581,190,188181
12.804,178574,190,188173
12.809,178563,189,188189
12.814,178559,199,188185
12.819,178546,191,188192
12.824,178531,191,188178
12.829,178559,190,188184
12.834,178545,189,188202
12.839,178546,199,188209
12.844,178550,198,188213
12.849,178551,197,188205
12.854,178550,197,188208
12.859,178560,196,188217
12.864,178570,196,188214
12.869,178556,189,188204
12.874,178534,199,188197
12.879,178545,198,188203
12.884,178529,197,188194
12.889,178547,197,188181
12.894,178535,198,188193
12.899,178524,189,188197
12.904,178536,189,188196
12.909,178524,190,188200
12.914,178515,192,188189
12.918,178508,196,188196
12.923,178517,196,188195
12.928,178519,197,188206
12.933,178506,198,188197
12.938,178529,197,188211
12.943,178516,198,188211
12.948,178515,198,188263
12.953,178532,199,188215
12.958,178523,199,188235
12.963,178542,192,188232
12.968,178512,196,188238
12.973,178536,197,188242
12.978,178520,197,188252
12.983,178529,197,188247
12.988,178519,198,188246
12.993,178538,198,188243
12.998,178537,196,188269
13.003,178526,198,188281
13.008,178549,198,188286
13.013,178542,191,188293
13.018,178550,191,188299
13.023,178547,191,188300
13.028,178567,192,188294
13.033,178546,192,188301
13.038,178564,191,188283
13.043,178577,192,188298
13.048,178560,193,188302
13.053,178576,194,188308
13.058,178569,194,188320
13.063,178584,199,188318
13.068,178578,189,188307
13.072,178581,189,188312
13.077,178578,189,188320
13.082,178591,189,188323
13.087,178598,189,188332
13.092,178596,189,188324
13.097,178588,199,188343
13.102,178599,198,188346
13.107,178597,198,188359
13.112,178598,196,188338
13.117,178619,196,188359
13.122,178606,197,188364
13.127,178618,197,188364
13.132,178633,198,188363
13.137,178621,197,188377
13.142,178640,197,188375
13.147,178646,198,188387
13.152,178651,197,188391
13.157,178637,199,188450
13.162,178645,191,188402
13.167,178653,191,188424
13.172,178669,192,188426
13.177,178679,191,188417
13.182,178690,192,188426
13.187,178682,191,188437
13.192,178689,190,188424
13.197,178677,190,188450
13.202,178690,189,188445
13.207,178671,192,188442
13.212,178713,192,188465
13.217,178700,193,188460
13.222,178719,194,188471
13.226,178717,194,188492
13.231,178732,195,188478
13.236,178729,195,188483
13.241,178736,195,188480
13.246,178723,196,188481
13.251,178727,196,188495
13.256,178734,190,188488
13.261,178742,190,188497
13.266,178754,191,188505
13.271,178756,191,188488
13.276,178752,191,188504
13.281,178759,192,188508
13.286,178769,193,188516
13.291,178787,194,188515
13.296,178779,193,188509
13.301,178777,193,188528
13.306,178782,199,188522
13.311,178786,189,188532
13.316,178795,189,188527
13.321,178785,190,188528
13.326,178791,189,188535
13.331,178796,190,188528
13.336,178808,190,188530
13.341,178813,191,188551
13.346,178819,191,188568
13.351,178809,191,188543
13.356,178828,194,188545
13.361,178830,195,188564
13.366,178842,195,188556
13.371,178817,196,188566
13.376,178847,197,188574
13.381,178846,198,188569
13.385,178847,199,188576
13.390,178854,199,188565
13.395,178844,188,188585
13.400,178863,190,188583
13.405,178859,194,188566
13.410,178839,194,188558
13.415,178843,194,188545
13.420,178831,194,188551
13.425,178809,194,188540
13.430,178794,195,188508
13.435,178785,195,188523
13.440,178783,195,188487
13.445,178760,196,188505
13.450,178748,187,188500
13.455,178752,190,188496
13.460,178742,191,188503
13.465,178742,190,188503
13.470,178751,190,188503
13.475,178748,190,188499
13.480,178752,190,188502
13.485,178762,190,188507
13.490,178753,190,188514
13.495,178749,190,188522
13.500,178747,194,188527
13.505,178753,195,188526
13.510,178743,197,188515
13.515,178745,198,188513
13.520,178747,199,188528
13.525,178742,198,188532
13.530,178770,200,188527
13.535,178746,198,188532
13.539,178738,189,188536
13.544,178763,189,188532
13.549,178755,196,188489
13.554,178750,193,188532
13.559,178752,193,188538
13.564,178734,194,188526
13.569,178745,195,188540
13.574,178745,194,188556
13.579,178734,194,188548
13.584,178748,194,188550
13.589,178749,193,188552
13.594,178756,196,188567
13.599,178746,199,188564
13.604,178742,189,188564
13.609,178749,189,188571
13.614,178757,189,188568
13.619,178759,189,188557
13.624,178750,189,188657
13.629,178760,188,188583
13.634,178749,189,188590
13.639,178748,190,188572
13.644,178780,190,188574
13.649,178772,196,188588
13.654,178753,196,188588
13.659,178772,197,188581
13.664,178773,198,188582
13.669,178773,189,188604
13.674,178795,189,188595
13.679,178774,190,188601
13.684,178773,190,188596
13.689,178776,191,188586
13.693,178783,201,188600
13.698,178780,196,188598
13.703,178778,196,188603
13.708,178775,196,188607
13.713,178787,195,188592
13.718,178779,195,188597
13.723,178775,194,188606
13.728,178786,194,188613
13.733,178799,195,188609
13.738,178788,195,188623
13.743,178801,199,188625
13.748,178799,198,188643
13.753,178811,198,188624
13.758,178811,198,188642
13.763,178817,199,188646
13.768,178814,189,188652
13.773,178831,189,188646
13.778,178827,188,188653
13.783,178835,199,188659
13.788,178813,198,188655
13.793,178847,194,188657
13.798,178833,196,188667
13.803,178835,195,188653
13.808,178825,195,188643
13.813,178823,196,188659
13.818,178815,196,188665
13.823,178841,196,188659
13.828,178832,196,188652
13.833,178842,196,188652
13.838,178836,197,188655
13.843,178835,190,188672
13.847,178853,191,188675
13.852,178842,192,188660
13.857,178842,193,188672
13.862,178850,192,188661
13.867,178848,193,188657
13.872,178856,193,188652
13.877,178844,193,188666
13.882,178860,192,188642
13.887,178861,194,188644
13.892,178841,189,188654
13.897,178853,188,188639
13.902,178863,189,188646
13.907,178867,199,188634
13.912,178862,198,188653
13.917,178876,198,188656
13.922,178869,199,188657
13.927,178874,199,188657
13.932,178876,199,188677
13.937,178878,192,188653
13.942,178885,192,188668
13.947,178887,192,188653
13.952,178885,192,188670
13.957,178894,190,188663
13.962,178907,191,188667
13.967,178899,191,188661
13.972,178892,191,188671
13.977,178889,190,188670
13.982,178904,190,188671
13.987,178903,194,188739
13.992,178913,196,188667
13.997,178908,195,188675
14.002,178912,195,188663
14.006,178907,195,188663
14.011,178906,193,188652
14.016,178894,193,188633
14.021,178893,193,188640
14.026,178883,192,188639
14.031,178881,192,188610
14.036,178861,195,188618
14.041,178852,194,188590
14.046,178853,193,188577
14.051,178814,191,188572
14.056,178792,190,188556
14.061,178800,189,188570
14.066,178788,189,188551
14.071,178782,199,188554
14.076,178786,198,188560
14.081,178782,197,188557
14.086,178784,191,188559
14.091,178782,190,188568
14.096,178773,189,188566
14.101,178779,189,188555
14.106,178771,189,188570
14.111,178788,189,188584
14.116,178761,198,188563
14.121,178768,198,188557
14.126,178774,197,188571
14.131,178777,197,188564
14.136,178781,190,188563
14.141,178765,191,188540
14.146,178753,190,188548
14.151,178773,190,188556
14.156,178748,189,188552
14.160,178742,189,188556
14.165,178746,190,188552
14.170,178765,190,188534
14.175,178748,190,188549
14.180,178745,190,188556
14.185,178746,193,188553
14.190,178721,193,188537
14.195,178742,193,188547
14.200,178726,194,188538
14.205,178736,193,188526
14.210,178738,193,188543
14.215,178721,192,188546
14.220,178733,192,188541
14.225,178744,192,188535
14.230,178697,193,188621
14.235,178731,190,188543
14.240,178731,190,188568
14.245,178738,191,188549
14.250,178744,191,188553
14.255,178751,190,188567
14.260,178731,191,188558
14.265,178754,190,188562
14.270,178753,189,188550
14.275,178748,189,188549
14.280,178759,194,188548
14.285,178761,199,188547
14.290,178766,198,188567
14.295,178769,197,188562
14.300,178763,198,188564
14.305,178763,198,188559
14.310,178763,198,188556
14.314,178749,197,188552
14.319,178759,196,188556
14.324,178759,197,188556
14.329,178760,191,188549
14.334,178760,191,188570
14.339,178770,190,188559
14.344,178768,191,188562
14.349,178753,191,188579
14.354,178770,190,188571
14.359,178775,191,188577
14.364,178789,190,188587
14.369,178788,190,188582
14.374,178781,189,188588
14.379,178790,192,188598
14.384,178794,191,188581
14.389,178797,190,188595
14.394,178793,189,188582
14.399,178805,189,188575
14.404,178790,189,188574
14.409,178802,199,188600
14.414,178807,198,188573
14.419,178781,197,188575
14.424,178806,196,188588
14.429,178814,191,188578
14.434,178811,190,188581
14.439,178814,190,188596
14.444,178817,190,188593
14.449,178830,191,188598
14.454,178825,189,188596
14.459,178821,190,188603
14.464,178836,190,188610
14.468,178839,189,188609
14.473,178824,190,188613
14.478,178830,198,188607
14.483,178852,198,188593
14.488,178864,198,188612
14.493,178853,198,188623
14.498,178856,197,188591
14.503,178861,197,188618
14.508,178862,197,188592
14.513,178861,197,188623
14.518,178859,196,188600
14.523,178847,190,188606
14.528,178852,191,188622
14.533,178859,191,188619
14.538,178866,190,188623
14.543,178851,190,188618
14.548,178869,191,188608
14.553,178880,190,188616
14.558,178880,190,188616
14.563,178877,190,188616
14.568,178863,190,188595
14.573,178889,192,188599
14.578,178882,193,188608
14.583,178883,193,188598
14.588,178881,193,188584
14.593,178888,192,188596
14.598,178882,192,188598
14.603,178898,191,188609
14.608,178903,191,188602
14.613,178877,190,188589
14.618,178896,190,188600
14.623,178885,194,188586
14.627,178894,194,188578
14.632,178872,193,188566
14.637,178852,195,188562
14.642,178858,195,188555
14.647,178848,195,188551
14.652,178823,195,188527
14.657,178809,195,188501
14.662,178797,195,188496
14.667,178786,195,188482
14.672,178768,193,188460
14.677,178747,194,188465
14.682,178744,193,188463
14.687,178746,193,188476
14.692,178749,193,188463
14.697,178749,192,188489
14.702,178753,192,188481
14.707,178760,192,188484
14.712,178736,191,188460
14.717,178747,194,188506
14.722,178743,194,188478
14.727,178739,193,188472
14.732,178734,194,188478
14.737,178742,192,188477
14.742,178740,193,188472
14.747,178721,192,188458
14.752,178727,193,188454
14.757,178729,192,188455
14.762,178703,192,188446
14.767,178715,196,188435
14.772,178710,190,188449
14.777,178689,191,188447
14.781,178700,190,188454
14.786,178691,190,188416
14.791,178690,190,188433
14.796,178688,189,188418
14.801,178664,189,188425
14.806,178669,190,188431
14.811,178683,191,188431
14.816,178663,194,188418
14.821,178676,194,188414
14.826,178670,194,188421
14.831,178662,195,188405
14.836,178657,195,188410
14.841,178646,195,188419
14.846,178665,194,188415
14.851,178663,193,188408
14.856,178665,192,188421
14.861,178646,193,188410
14.866,178657,197,188415
14.871,178656,196,188430
14.876,178667,195,188439
14.881,178669,195,188442
14.886,178657,195,188434
14.891,178658,195,188421
14.896,178668,194,188423
14.901,178657,195,188430
14.906,178661,194,188422
14.911,178666,194,188425
14.916,178667,191,188431
14.921,178688,191,188412
14.926,178675,191,188428
14.931,178682,191,188418
14.935,178673,190,188426
14.940,178676,190,188404
14.945,178685,190,188406
14.950,178669,189,188419
14.955,178683,188,188412
14.960,178665,189,188424
14.965,178667,192,188422
14.970,178673,192,188413
14.975,178678,190,188439
14.980,178659,190,188437
14.985,178688,189,188448
14.990,178694,189,188463
14.995,178706,199,188446
15.000,178699,199,188434
15.005,178690,197,188448
15.010,178695,185,188433
15.015,178714,188,188460
15.020,178712,199,188442
15.025,178693,198,188456
15.030,178712,197,188464
15.035,178701,196,188474
15.040,178717,197,188465
15.045,178725,196,188469
15.050,178714,196,188473
15.055,178726,195,188468
15.060,178722,189,188492
15.065,178715,194,188465
15.070,178720,193,188463
15.075,178737,192,188472
15.080,178724,193,188458
15.085,178719,193,188464
15.090,178732,193,188466
15.094,178728,193,188447
15.099,178723,194,188462
15.104,178721,195,188456
15.109,178728,190,188448
15.114,178743,189,188441
15.119,178729,189,188456
15.124,178738,189,188458
15.129,178735,189,188464
15.134,178737,188,188456
15.139,178738,188,188445
15.144,178735,199,188438
15.149,178750,199,188451
15.154,178744,199,188450
15.159,178757,192,188441
15.164,178733,191,188442
15.169,178736,189,188438
15.174,178721,189,188439
15.179,178747,198,188448
15.184,178738,197,188424
15.189,178741,196,188426
15.194,178731,196,188415
15.199,178739,196,188428
15.204,178729,195,188421
15.209,178727,189,188422
15.214,178723,188,188410
15.219,178733,198,188393
15.224,178723,198,188415
15.229,178731,198,188389
15.234,178717,197,188388
15.239,178722,197,188399
15.244,178735,197,188394
15.248,178739,197,188383
15.253,178734,197,188385
15.258,178738,189,188385
15.263,178724,189,188381
15.268,178730,199,188374
15.273,178748,197,188375
15.278,178730,197,188380
15.283,178728,196,188369
15.288,178717,196,188359
15.293,178722,194,188350
15.298,178703,195,188366
15.303,178711,199,188348
15.308,178682,197,188329
15.313,178667,196,188339
15.318,178665,196,188324
15.323,178649,195,188323
15.328,178635,195,188323
15.333,178646,193,188310
15.338,178644,193,188312
15.343,178646,192,188309
15.348,178643,191,188329
15.353,178657,197,188308
15.358,178648,198,188324
15.363,178645,197,188322
15.368,178641,196,188316
15.373,178644,194,188319
15.378,178638,193,188331
15.383,178651,193,188324
15.388,178641,192,188331
15.393,178643,190,188311
15.398,178638,188,188337
15.402,178622,191,188315
15.407,178618,189,188306
15.412,178620,197,188298
15.417,178612,195,188307
15.422,178606,193,188293
15.427,178594,192,188295
15.432,178605,190,188285
15.437,178598,189,188295
15.442,178588,199,188284
15.447,178590,198,188296
15.452,178598,191,188293
15.457,178611,190,188303
15.462,178588,189,188307
15.467,178588,198,188294
15.472,178606,197,188292
15.477,178570,196,188303
15.482,178579,195,188313
15.487,178578,194,188303
15.492,178580,192,188318
15.497,178591,192,188295
15.502,178569,195,188310
15.507,178589,194,188303
15.512,178589,193,188315
15.517,178590,192,188314
15.522,178592,191,188318
15.527,178597,191,188318
15.532,178597,190,188318
15.537,178592,189,188319
15.542,178610,199,188313
15.547,178615,189,188319
15.552,178611,191,188319
15.556,178596,191,188315
15.561,178612,191,188318
15.566,178606,190,188335
15.571,178616,199,188313
15.576,178606,198,188325
15.581,178607,197,188324
15.586,178617,196,188318
15.591,178600,195,188309
15.596,178601,189,188323
15.601,178598,188,188314
15.606,178595,188,188298
15.611,178610,198,188309
15.616,178602,197,188315
15.621,178591,197,188321
15.626,178626,194,188328
15.631,178640,195,188339
15.636,178624,195,188315
15.641,178615,194,188336
15.646,178645,193,188387
15.651,178615,194,188354
15.656,178631,193,188364
15.661,178630,192,188354
15.666,178640,192,188369
15.671,178648,191,188365
15.676,178641,189,188367
15.681,178646,198,188354
15.686,178641,196,188362
15.691,178660,197,188349
15.696,178666,198,188365
15.701,178661,196,188368
15.706,178668,195,188358
15.711,178665,194,188379
15.715,178677,194,188367
15.720,178660,193,188382
15.725,178671,192,188380
15.730,178640,201,188374
15.735,178679,191,188378
15.740,178670,190,188361
15.745,178685,198,188377
15.750,178707,197,188386
15.755,178694,195,188388
15.760,178692,195,188397
15.765,178693,194,188396
15.770,178701,193,188389
15.775,178715,192,188400
15.780,178710,191,188397
15.785,178711,191,188388
15.790,178723,191,188400
15.795,178726,192,188377
15.800,178725,192,188396
15.805,178723,191,188392
15.810,178734,190,188395
15.815,178729,188,188385
15.820,178729,198,188415
15.825,178732,198,188409
15.830,178747,198,188405
15.835,178743,197,188424
15.840,178734,190,188418
15.845,178743,189,188418
15.850,178747,188,188411
15.855,178757,198,188413
15.860,178763,197,188434
15.865,178765,196,188433
15.869,178785,195,188437
15.874,178781,194,188415
15.879,178773,194,188438
15.884,178773,193,188439
15.889,178779,196,188418
15.894,178775,196,188433
15.899,178771,196,188430
15.904,178788,196,188415
15.909,178782,196,188415
15.914,178801,195,188425
15.919,178785,196,188433
15.924,178789,196,188414
15.929,178783,196,188421
15.934,178781,196,188414
15.939,178791,194,188399
15.944,178793,195,188399
15.949,178802,194,188391
15.954,178805,194,188395
15.959,178796,193,188398
15.964,178805,193,188385
15.969,178810,192,188398
15.974,178803,191,188405
15.979,178809,191,188399
15.984,178824,191,188389
15.989,178797,188,188397
15.994,178792,188,188358
15.999,178796,198,188385
16.004,178777,198,188384
16.009,178776,196,188371
16.014,178768,196,188345
16.019,178766,197,188354
16.023,178733,196,188349
16.028,178735,196,188332
16.033,178726,198,188363
16.038,178716,193,188318
16.043,178699,193,188334
16.048,178713,194,188314
16.053,178690,193,188332
16.058,178699,192,188324
16.063,178702,192,188313
16.068,178701,192,188337
16.073,178692,191,188323
16.078,178696,191,188344
16.083,178661,194,188335
16.088,178717,195,188337
16.093,178700,194,188349
16.098,178695,195,188348
16.103,178698,196,188359
16.108,178713,196,188333
16.113,178693,196,188345
16.118,178712,195,188349
16.123,178696,195,188347
16.128,178702,195,188371
16.133,178713,188,188358
16.138,178701,189,188374
16.143,178688,190,188384
16.148,178701,190,188383
16.153,178691,191,188386
16.158,178680,191,188366
16.163,178700,193,188387
16.168,178705,193,188383
16.173,178696,193,188387
16.177,178698,193,188388
16.182,178688,198,188391
16.187,178705,199,188406
16.192,178691,198,188394
16.197,178703,197,188408
16.202,178689,198,188396
16.207,178693,198,188408
16.212,178690,198,188405
16.217,178689,188,188419
16.222,178716,199,188410
16.227,178696,199,188437
16.232,178706,191,188435
16.237,178720,192,188424
16.242,178711,193,188438
16.247,178746,194,188439
16.252,178739,194,188446
16.257,178722,195,188463
16.262,178735,194,188449
16.267,178753,194,188454
16.272,178753,193,188463
16.277,178740,194,188474
16.282,178745,197,188458
16.287,178741,197,188465
16.292,178740,197,188430
16.297,178746,197,188434
16.302,178738,196,188443
16.307,178730,196,188439
16.312,178729,195,188450
16.317,178740,195,188452
16.322,178722,194,188440
16.327,178726,194,188430
16.332,178722,196,188451
16.336,178742,196,188429
16.341,178746,195,188436
16.346,178749,194,188451
16.351,178725,193,188449
16.356,178738,192,188461
16.361,178752,190,188463
16.366,178735,189,188454
16.371,178744,188,188472
16.376,178744,192,188440
16.381,178730,192,188441
16.386,178744,191,188443
16.391,178744,190,188451
16.396,178727,189,188440
16.401,178709,199,188421
16.406,178726,198,188420
16.411,178726,197,188427
16.416,178728,197,188434
16.421,178725,196,188430
16.426,178722,190,188421
16.431,178721,189,188424
16.436,178736,190,188439
16.441,178721,189,188431
16.446,178741,199,188440
16.451,178754,196,188428
16.456,178746,196,188448
16.461,178756,195,188430
16.466,178748,195,188446
16.471,178732,195,188435
16.476,178759,189,188454
16.481,178734,198,188437
16.486,178739,197,188416
16.490,178735,196,188430
16.495,178758,196,188424
16.500,178750,196,188436
16.505,178748,196,188430
16.510,178751,197,188429
16.515,178746,196,188424
16.520,178761,196,188439
16.525,178757,196,188448
16.530,178768,196,188445
16.535,178767,196,188429
16.540,178751,195,188429
16.545,178774,194,188433
16.550,178758,194,188428
16.555,178758,193,188429
16.560,178777,192,188420
16.565,178792,191,188438
16.570,178763,192,188431
16.575,178779,189,188446
16.580,178799,189,188445
16.585,178780,199,188463
16.590,178793,198,188448
16.595,178777,197,188454
16.600,178797,195,188451
16.605,178797,194,188454
16.610,178796,194,188469
16.615,178793,192,188464
16.620,178812,196,188458
16.625,178809,168,188481
16.630,178820,194,188470
16.635,178828,193,188477
16.640,178803,192,188466
16.644,178798,191,188456
16.649,178807,190,188435
16.654,178776,188,188442
16.659,178770,188,188430
16.664,178750,197,188406
16.669,178760,191,188403
16.674,178724,190,188389
16.679,178725,189,188381
16.684,178730,190,188385
16.689,178701,189,188379
16.694,178697,189,188385
16.699,178704,189,188378
16.704,178702,189,188361
16.709,178682,198,188360
16.714,178708,196,188396
16.719,178725,194,188383
16.724,178695,198,188363
16.729,178685,197,188388
16.734,178696,197,188395
16.739,178686,197,188382
16.744,178684,197,188381
16.749,178694,197,188384
16.754,178677,196,188373
16.759,178671,197,188377
16.764,178663,196,188393
16.769,178667,190,188385
16.774,178676,189,188364
16.779,178668,188,188376
16.784,178669,199,188377
16.789,178656,198,188379
16.794,178670,197,188373
16.798,178664,198,188367
16.803,178653,198,188387
16.808,178660,197,188387
16.813,178660,198,188355
16.818,178646,190,188388
16.823,178661,189,188387
16.828,178662,189,188387
16.833,178659,188,188380
16.838,178639,198,188386
16.843,178642,198,188379
16.848,178656,197,188376
16.853,178645,197,188377
16.858,178647,197,188379
16.863,178688,189,188378
16.868,178644,194,188365
16.873,178658,194,188372
16.878,178642,194,188365
16.883,178647,194,188361
16.888,178657,194,188382
16.893,178651,193,188367
16.898,178659,193,188384
16.903,178656,193,188382
16.908,178645,194,188376
16.913,178653,198,188373
16.918,178662,198,188373
16.923,178643,198,188368
16.928,178630,197,188358
16.933,178643,198,188343
16.938,178633,198,188362
16.943,178638,198,188343
16.948,178647,198,188350
16.953,178634,197,188358
16.957,178645,196,188352
16.962,178629,191,188367
16.967,178622,191,188357
16.972,178649,191,188349
16.977,178641,191,188357
16.982,178640,190,188373
16.987,178622,191,188354
16.992,178637,190,188366
16.997,178649,190,188369
17.002,178636,191,188371
17.007,178648,189,188374
17.012,178648,194,188379
17.017,178646,193,188375
17.022,178631,193,188377
17.027,178637,193,188369
17.032,178652,192,188372
17.037,178657,192,188358
17.042,178651,192,188370
17.047,178654,192,188356
17.052,178644,191,188359
17.057,178660,191,188360
17.062,178650,195,188359
17.067,178650,195,188361
17.072,178674,194,188363
17.077,178665,193,188366
17.082,178668,192,188384
17.087,178659,192,188381
17.092,178660,190,188391
17.097,178665,190,188379
17.102,178667,191,188369
17.107,178663,190,188368
17.111,178669,193,188381
17.116,178680,192,188375
17.121,178675,191,188381
17.126,178670,191,188382
17.131,178679,190,188382
17.136,178672,190,188376
17.141,178657,189,188380
17.146,178671,198,188381
17.151,178686,196,188372
17.156,178697,190,188382
17.161,178696,193,188387
17.166,178700,193,188375
17.171,178693,191,188385
17.176,178702,191,188377
17.181,178695,190,188378
17.186,178694,190,188389
17.191,178701,189,188377
17.196,178703,189,188371
17.201,178701,189,188374
17.206,178707,194,188363
17.211,178711,193,188380
17.216,178723,194,188385
17.221,178699,193,188385
17.226,178702,193,188381
17.231,178696,191,188373
17.236,178721,191,188357
17.241,178686,191,188359
17.246,178678,191,188348
17.251,178649,190,188348
17.256,178652,195,188322
17.261,178642,194,188328
17.265,178624,195,188288
17.270,178619,194,188300
17.275,178599,193,188283
17.280,178599,193,188299
17.285,178595,193,188300
17.290,178605,192,188309
17.295,178585,193,188308
17.300,178599,192,188328
17.305,178587,196,188310
17.310,178597,195,188335
17.315,178568,195,188323
17.320,178586,195,188321
17.325,178586,194,188321
17.330,178585,193,188321
17.335,178586,192,188310
17.340,178572,192,188321
17.345,178572,192,188316
17.350,178576,196,188278
17.355,178569,195,188296
17.360,178545,194,188301
17.365,178548,194,188308
17.370,178552,194,188316
17.375,178538,193,188298
17.380,178529,192,188313
17.385,178537,191,188301
17.390,178534,190,188307
17.395,178546,190,188307
17.400,178556,192,188324
17.405,178531,192,188289
17.410,178532,191,188301
17.415,178545,189,188308
17.420,178554,188,188313
17.424,178550,198,188330
17.429,178538,197,188315
17.434,178534,197,188323
17.439,178555,197,188323
17.444,178541,196,188326
17.449,178558,192,188332
17.454,178549,193,188334
17.459,178549,193,188348
17.464,178550,192,188343
17.469,178560,192,188348
17.474,178557,190,188356
17.479,178570,189,188360
17.484,178583,188,188354
17.489,178577,198,188352
17.494,178584,196,188372
17.499,178586,191,188375
17.504,178588,190,188357
17.509,178576,189,188390
17.514,178575,188,188373
17.519,178567,188,188376
17.524,178569,198,188367
17.529,178581,197,188373
17.534,178587,196,188376
17.539,178599,195,188383
17.544,178582,195,188395
17.549,178595,193,188392
17.554,178585,192,188384
17.559,178597,192,188397
17.564,178611,192,188396
17.569,178594,192,188418
17.574,178612,191,188432
17.578,178610,191,188424
17.583,178616,190,188429
17.588,178630,189,188434
17.593,178623,189,188441
17.598,178630,192,188431
17.603,178621,191,188435
17.608,178627,190,188454
17.613,178638,190,188451
17.618,178626,190,188450
17.623,178648,190,188453
17.628,178640,188,188460
17.633,178649,188,188466
17.638,178666,188,188457
17.643,178610,187,188459
17.648,178654,191,188467
17.653,178665,191,188469
17.658,178661,191,188459
17.663,178676,191,188471
17.668,178660,192,188475
17.673,178680,190,188466
17.678,178679,190,188463
17.683,178684,191,188496
17.688,178681,191,188482
17.693,178685,195,188483
17.698,178691,196,188492
17.703,178698,196,188491
17.708,178692,196,188494
17.713,178682,195,188489
17.718,178703,195,188487
17.723,178713,195,188486
17.728,178698,194,188488
17.732,178700,195,188484
17.737,178716,194,188505
17.742,178717,191,188503
17.747,178713,191,188512
17.752,178720,190,188509
17.757,178716,190,188503
17.762,178713,190,188492
17.767,178715,190,188503
17.772,178729,189,188510
17.777,178738,189,188525
17.782,178725,188,188516
17.787,178758,201,188531
17.792,178757,190,188539
17.797,178755,190,188549
17.802,178751,189,188544
17.807,178755,198,188542
17.812,178745,197,188526
17.817,178744,197,188525
17.822,178760,198,188529
17.827,178751,198,188506
17.832,178721,197,188511
17.837,178711,196,188502
17.842,178714,194,188497
17.847,178697,193,188475
17.852,178675,193,188474
17.857,178668,193,188471
17.862,178651,193,188449
17.867,178640,192,188443
17.872,178637,192,188439
17.877,178643,191,188460
17.882,178654,191,188458
17.886,178629,193,188463
17.891,178642,193,188444
17.896,178616,192,188468
17.901,178624,191,188472
17.906,178644,189,188456
17.911,178611,197,188451
17.916,178645,197,188477
17.921,178627,196,188480
17.926,178623,196,188487
17.931,178617,194,188476
17.936,178628,198,188474
17.941,178619,197,188484
17.946,178614,196,188473
17.951,178624,195,188471
17.956,178598,193,188495
17.961,178590,193,188471
17.966,178603,193,188476
17.971,178602,191,188470
17.976,178600,191,188485
17.981,178608,190,188489
17.986,178606,193,188491
17.991,178596,191,188496
17.996,178586,190,188519
18.001,178595,188,188514
18.006,178601,198,188483
18.011,178591,196,188518
18.016,178600,196,188514
18.021,178603,196,188492
18.026,178601,195,188510
18.031,178605,193,188524
18.036,178592,191,188528
18.041,178608,191,188531
18.045,178596,191,188528
18.050,178612,189,188528
18.055,178611,188,188535
18.060,178604,198,188539
18.065,178606,197,188549
18.070,178609,196,188541
18.075,178614,195,188531
18.080,178593,194,188543
18.085,178608,198,188544
18.090,178610,198,188549
18.095,178618,196,188548
18.100,178615,196,188531
18.105,178635,195,188546
18.110,178605,193,188548
18.115,178611,192,188555
18.120,178617,192,188552
18.125,178613,192,188545
18.130,178619,191,188552
18.135,178624,193,188545
18.140,178629,192,188536
18.145,178631,191,188565
18.150,178631,188,188550
18.155,178617,188,188542
18.160,178612,198,188559
18.165,178627,197,188558
18.170,178613,195,188563
18.175,178617,194,188561
18.180,178686,197,188572
18.185,178639,197,188582
18.190,178640,196,188592
18.195,178658,195,188602
18.199,178647,194,188593
18.204,178669,192,188598
18.209,178652,192,188601
18.214,178651,191,188595
18.219,178660,191,188597
18.224,178655,191,188606
18.229,178651,194,188604
18.234,178655,193,188603
18.239,178665,193,188599
18.244,178658,193,188609
18.249,178630,192,188594
18.254,178644,190,188578
18.259,178631,189,188565
18.264,178649,198,188562
18.269,178632,196,188560
18.274,178638,195,188573
18.279,178645,191,188549
18.284,178605,194,188543
18.289,178613,192,188534
18.294,178604,191,188520
18.299,178601,190,188525
18.304,178583,189,188516
18.309,178584,197,188497
18.314,178589,196,188506
18.319,178582,194,188495
18.324,178573,191,188479
18.329,178571,197,188493
18.334,178566,196,188474
18.339,178558,195,188464
18.344,178574,194,188475
18.349,178569,192,188470
18.353,178549,191,188450
18.358,178562,190,188450
18.363,178558,189,188455
18.368,178559,198,188444
18.373,178547,197,188448
18.378,178568,191,188438
18.383,178553,190,188454
18.388,178568,189,188439
18.393,178551,188,188439
18.398,178571,197,188435
18.403,178565,195,188433
18.408,178579,195,188437
18.413,178573,194,188437
18.418,178568,192,188445
18.423,178569,201,188431
18.428,178571,194,188441
18.433,178587,192,188440
18.438,178591,191,188448
18.443,178588,189,188444
18.448,178565,198,188443
18.453,178568,196,188423
18.458,178577,194,188412
18.463,178563,192,188428
18.468,178559,191,188421
18.473,178527,194,188406
18.478,178546,193,188392
18.483,178532,191,188385
18.488,178510,189,188359
18.493,178492,197,188354
18.498,178469,196,188335
18.503,178459,194,188330
18.507,178455,192,188328
18.512,178445,189,188340
18.517,178434,188,188320
18.522,178445,194,188311
18.527,178443,193,188321
18.532,178435,190,188335
18.537,178435,189,188317
18.542,178446,188,188335
18.547,178440,197,188331
18.552,178433,195,188328
18.557,178416,193,188329
18.562,178434,192,188335
18.567,178417,190,188343
18.572,178406,192,188331
18.577,178407,191,188330
18.582,178404,190,188322
18.587,178387,198,188292
18.592,178400,196,188310
18.597,178378,194,188300
18.602,178375,193,188302
18.607,178371,192,188302
18.612,178379,190,188303
18.617,178354,189,188309
18.622,178365,196,188299
18.627,178347,193,188302
18.632,178334,192,188285
18.637,178337,192,188283
18.642,178325,190,188279
18.647,178319,188,188267
18.652,178328,197,188269
18.657,178314,197,188274
18.662,178296,195,188261
18.666,178277,195,188239
18.671,178295,194,188268
18.676,178306,193,188259
18.681,178272,192,188254
18.686,178281,190,188253
18.691,178276,188,188269
18.696,178273,197,188264
18.701,178280,196,188261
18.706,178291,194,188262
18.711,178300,193,188262
18.716,178347,195,188258
18.721,178287,196,188263
18.726,178284,194,188255
18.731,178272,197,188243
18.736,178280,192,188248
18.741,178276,191,188251
18.746,178284,189,188251
18.751,178276,197,188255
18.756,178271,195,188257
18.761,178260,193,188250
18.766,178258,197,188247
18.771,178250,195,188234
18.776,178275,193,188244
18.781,178251,192,188235
18.786,178268,189,188230
18.791,178272,197,188232
18.796,178250,195,188234
18.801,178259,194,188234
18.806,178262,192,188233
18.811,178259,188,188242
18.816,178262,191,188257
18.820,178260,189,188249
18.825,178268,199,188241
18.830,178277,197,188259
18.835,178277,196,188242
18.840,178282,194,188272
18.845,178276,193,188279
18.850,178273,192,188284
18.855,178268,191,188266
18.860,178285,192,188280
18.865,178285,194,188281
18.870,178278,193,188273
18.875,178281,192,188265
18.880,178295,192,188269
18.885,178301,191,188270
18.890,178292,189,188268
18.895,178288,188,188276
18.900,178275,197,188263
18.905,178279,196,188269
18.910,178284,193,188275
18.915,178291,197,188264
18.920,178288,196,188274
18.925,178283,195,188280
18.930,178319,193,188286
18.935,178295,193,188280
18.940,178297,192,188297
18.945,178307,192,188274
18.950,178317,191,188292
18.955,178309,191,188289
18.960,178306,188,188276
18.965,178318,192,188277
18.970,178312,194,188277
18.974,178311,194,188288
18.979,178311,194,188286
18.984,178305,194,188281
18.989,178309,192,188269
18.994,178327,191,188290
18.999,178315,189,188279
19.004,178320,189,188294
19.009,178331,191,188288
19.014,178317,190,188287
19.019,178318,190,188278
19.024,178330,189,188282
19.029,178326,188,188292
19.034,178331,198,188300
19.039,178343,195,188294
19.044,178336,194,188285
19.049,178332,193,188292
19.054,178356,192,188281
19.059,178338,195,188296
19.064,178342,193,188294
19.069,178355,191,188305
19.074,178361,190,188294
19.079,178342,189,188309
19.084,178364,198,188310
19.089,178385,197,188306
19.094,178343,196,188313
19.099,178366,195,188303
19.104,178365,194,188322
19.109,178370,197,188295
19.114,178360,195,188292
19.119,178362,193,188307
19.124,178388,192,188287
19.128,178378,189,188285
19.133,178354,198,188283
19.138,178371,196,188278
19.143,178356,194,188273
19.148,178327,193,188253
19.153,178312,192,188244
19.158,178299,194,188232
19.163,178283,192,188214
19.168,178262,192,188201
19.173,178248,192,188191
19.178,178243,190,188177
19.183,178221,190,188173
19.188,178242,190,188187
19.193,178234,189,188182
19.198,178236,189,188191
19.203,178248,189,188170
19.208,178272,191,188211
19.213,178240,191,188218
19.218,178238,190,188203
19.223,178241,190,188215
19.228,178235,189,188199
19.233,178231,188,188227
19.238,178228,198,188219
19.243,178234,197,188220
19.248,178234,196,188210
19.253,178274,188,188229
19.258,178227,190,188212
19.263,178226,190,188239
19.268,178207,190,188219
19.273,178214,189,188219
19.278,178214,190,188221
19.283,178205,188,188211
19.287,178215,198,188219
19.292,178208,197,188222
19.297,178219,195,188227
19.302,178191,198,188224
19.307,178204,196,188239
19.312,178204,195,188227
19.317,178210,195,188247
19.322,178209,194,188239
19.327,178217,192,188248
19.332,178200,190,188257
19.337,178207,189,188265
19.342,178209,198,188270
19.347,178208,195,188272
19.352,178217,188,188263
19.357,178219,197,188287
19.362,178231,195,188280
19.367,178223,194,188299
19.372,178240,193,188289
19.377,178256,192,188308
19.382,178252,190,188301
19.387,178265,190,188323
19.392,178268,198,188332
19.397,178274,199,188336
19.402,178289,188,188358
19.407,178280,197,188364
19.412,178296,195,188377
19.417,178282,194,188363
19.422,178298,193,188366
19.427,178291,192,188370
19.432,178285,190,188385
19.437,178303,190,188376
19.441,178310,189,188374
19.446,178302,189,188389
19.451,178318,187,188392
19.456,178328,197,188398
19.461,178309,196,188413
19.466,178316,194,188420
19.471,178325,192,188429
19.476,178325,192,188426
19.481,178329,191,188452
19.486,178348,190,188446
19.491,178346,190,188442
19.496,178357,191,188465
19.501,178375,193,188469
19.506,178388,192,188490
19.511,178380,191,188498
19.516,178381,190,188485
19.521,178394,189,188486
19.526,178406,188,188505
19.531,178393,197,188516
19.536,178403,197,188529
19.541,178414,196,188531
19.546,178413,189,188539
19.551,178417,188,188551
19.556,178435,197,188565
19.561,178454,197,188556
19.566,178439,197,188571
19.571,178431,195,188573
19.576,178454,195,188576
19.581,178452,193,188573
19.586,178465,193,188596
19.591,178473,192,188581
19.595,178481,188,188601
19.600,178485,189,188612
19.605,178474,188,188617
19.610,178466,197,188605
19.615,178475,196,188611
19.620,178479,195,188623
19.625,178506,194,188624
19.630,178510,193,188628
19.635,178514,191,188621
19.640,178506,191,188639
19.645,178518,196,188625
19.650,178511,195,188631
19.655,178535,195,188629
19.660,178534,195,188653
19.665,178541,195,188651
19.670,178532,194,188659
19.675,178533,194,188663
19.680,178552,193,188676
19.685,178546,193,188679
19.690,178554,192,188664
19.695,178571,196,188672
19.700,178594,195,188683
19.705,178582,194,188656
19.710,178577,192,188687
19.715,178598,190,188691
19.720,178592,189,188689
19.725,178584,189,188687
19.730,178598,188,188694
19.735,178592,198,188682
19.740,178602,199,188645
19.745,178619,191,188681
19.750,178617,190,188690
19.754,178619,190,188697
19.759,178615,189,188688
19.764,178611,188,188707
19.769,178602,197,188721
19.774,178618,196,188694
19.779,178597,195,188678
19.784,178602,193,188676
19.789,178612,195,188675
19.794,178558,190,188651
19.799,178552,189,188647
19.804,178541,189,188634
19.809,178522,198,188614
19.814,178515,197,188621
19.819,178514,196,188610
19.824,178505,194,188610
19.829,178516,192,188630
19.834,178509,193,188619
19.839,178517,198,188633
19.844,178514,188,188645
19.849,178497,198,188639
19.854,178508,197,188654
19.859,178499,196,188643
19.864,178513,196,188631
19.869,178499,194,188648
19.874,178505,193,188655
19.879,178500,193,188645
19.884,178495,192,188640
19.889,178475,195,188636
19.894,178487,195,188627
19.899,178501,194,188619
19.904,178484,193,188619
19.908,178460,192,188622
19.913,178495,190,188622
19.918,178473,189,188624
19.923,178462,188,188636
19.928,178478,197,188639
19.933,178470,195,188635
19.938,178478,190,188650
19.943,178483,190,188634
19.948,178489,189,188632
19.953,178478,188,188636
19.958,178479,198,188621
19.963,178467,197,188642
19.968,178474,196,188632
19.973,178490,196,188660
19.978,178497,194,188664
19.983,178485,193,188647
19.988,178498,196,188660
19.993,178489,196,188641
19.998,178500,195,188669
20.003,178513,195,188663
20.008,178504,193,188654
20.013,178512,193,188666
20.018,178521,192,188672
20.023,178528,192,188684
20.028,178538,191,188671
20.033,178528,200,188675
20.038,178540,193,188685
20.043,178539,193,188692
20.048,178537,192,188677
20.053,178534,191,188690
20.058,178542,190,188684
20.062,178529,189,188687
20.067,178537,197,188682
20.072,178513,195,188699
20.077,178540,195,188697
20.082,178566,196,188694
20.087,178545,192,188697
20.092,178544,190,188693
20.097,178552,189,188730
20.102,178573,189,188733
20.107,178559,188,188742
20.112,178565,197,188739
20.117,178577,196,188744
20.122,178577,195,188753
20.127,178571,194,188752
20.132,178598,197,188770
20.137,178588,195,188756
20.142,178594,194,188768
20.147,178596,192,188759
20.152,178620,191,188765
20.157,178604,190,188763
20.162,178624,188,188774
20.167,178620,197,188773
20.172,178625,196,188783
20.177,178642,195,188761
20.182,178634,199,188790
20.187,178650,197,188804
20.192,178656,196,188813
20.197,178675,196,188801
20.202,178672,197,188821
20.207,178676,196,188818
20.212,178681,195,188827
20.216,178688,195,188849
20.221,178680,194,188849
20.226,178707,193,188841
20.231,178692,196,188857
20.236,178716,196,188855
20.241,178700,196,188851
20.246,178685,196,188865
20.251,178701,194,188866
20.256,178724,194,188887
20.261,178724,193,188884
20.266,178717,192,188869
20.271,178724,190,188880
20.276,178723,192,188919
20.281,178745,192,188875
20.286,178734,191,188866
20.291,178741,189,188869
20.296,178747,189,188877
20.301,178759,189,188876
20.306,178745,197,188884
20.311,178740,196,188873
20.316,178762,195,188873
20.321,178765,195,188900
20.326,178775,197,188871
20.331,178780,196,188877
20.336,178757,196,188878
20.341,178760,195,188882
20.346,178764,195,188891
20.351,178756,194,188877
20.356,178751,194,188865
20.361,178762,194,188861
20.366,178725,192,188865
20.371,178746,191,188846
20.375,178732,196,188839
20.380,178711,195,188835
20.385,178697,194,188818
20.390,178679,193,188818
20.395,178685,192,188793
20.400,178675,190,188803
20.405,178678,188,188790
20.410,178666,197,188796
20.415,178669,196,188790
20.420,178670,195,188798
20.425,178681,190,188791
20.430,178654,191,188806
20.435,178653,191,188804
20.440,178664,190,188795
20.445,178660,189,188791
20.450,178642,197,188790
20.455,178651,196,188802
20.460,178658,195,188818
20.465,178631,196,188792
20.470,178648,192,188805
20.475,178636,192,188788
20.480,178639,192,188788
20.485,178646,191,188790
20.490,178626,189,188776
20.495,178635,188,188792
20.500,178634,189,188790
20.505,178633,197,188794
20.510,178639,197,188783
20.515,178622,197,188786
20.520,178628,196,188770
20.525,178633,189,188775
20.529,178621,198,188799
20.534,178614,197,188781
20.539,178627,197,188797
20.544,178621,196,188786
20.549,178641,194,188803
20.554,178625,193,188802
20.559,178626,192,188812
20.564,178621,192,188807
20.569,178646,201,188797
20.574,178632,188,188810
20.579,178638,188,188801
20.584,178639,197,188808
20.589,178650,197,188817
20.594,178634,196,188810
20.599,178655,195,188831
20.604,178635,195,188811
20.609,178631,194,188805
20.614,178671,193,188825
20.619,178663,197,188828
20.624,178670,196,188828
20.629,178660,195,188839
20.634,178675,194,188823
20.639,178663,194,188823
20.644,178670,193,188824
20.649,178656,192,188820
20.654,178657,191,188816
20.659,178665,189,188816
20.664,178677,188,188829
20.669,178664,191,188827
20.674,178673,190,188835
20.679,178668,189,188828
20.683,178680,189,188823
20.688,178673,188,188857
20.693,178679,197,188818
20.698,178698,197,188840
20.703,178675,196,188842
20.708,178690,194,188843
20.713,178705,193,188834
20.718,178699,188,188860
20.723,178705,198,188848
20.728,178720,196,188858
20.733,178704,196,188853
20.738,178703,194,188887
20.743,178709,194,188883
20.748,178733,192,188882
20.753,178718,191,188883
20.758,178726,190,188893
20.763,178735,190,188887
20.768,178747,189,188891
20.773,178736,189,188881
20.778,178736,198,188879
20.783,178756,197,188880
20.788,178757,196,188912
20.793,178749,194,188888
20.798,178744,193,188903
20.803,178757,191,188898
20.808,178754,190,188912
20.813,178764,191,188905
20.818,178769,191,188908
20.823,178760,190,188899
20.828,178756,189,188926
20.833,178772,188,188906
20.837,178772,199,188918
20.842,178780,198,188902
20.847,178772,197,188920
20.852,178785,196,188913
20.857,178782,195,188906
20.862,178794,198,188903
20.867,178775,197,188923
20.872,178785,196,188917
20.877,178806,195,188916
20.882,178792,194,188919
20.887,178803,193,188906
20.892,178806,192,188907
20.897,178814,190,188929
20.902,178811,189,188913
20.907,178805,188,188920
20.912,178819,192,188918
20.917,178815,190,188912
20.922,178818,190,188910
20.927,178823,188,188916
20.932,178814,196,188917
20.937,178823,196,188906
20.942,178818,195,188900
20.947,178809,193,188895
20.952,178800,192,188890
20.957,178784,191,188887
20.962,178804,194,188872
20.967,178793,193,188852
20.972,178776,191,188855
20.977,178750,192,188844
20.982,178736,191,188859
20.987,178732,190,188830
20.992,178717,189,188810
20.996,178712,188,188818
21.001,178711,197,188808
21.006,178679,195,188811
21.011,178690,193,188820
21.016,178696,192,188811
21.021,178684,192,188831
21.026,178690,191,188816
21.031,178693,190,188817
21.036,178693,189,188815
21.041,178702,198,188816
21.046,178679,196,188828
21.051,178687,195,188830
21.056,178697,195,188825
21.061,178684,188,188815
21.066,178690,197,188818
21.071,178679,196,188817
21.076,178665,196,188810
21.081,178680,194,188807
21.086,178678,193,188793
21.091,178647,193,188801
21.096,178645,193,188793
21.101,178654,191,188791
21.106,178657,188,188783
21.111,178645,193,188783
21.116,178648,194,188800
21.121,178642,194,188794
21.126,178666,193,188801
21.131,178643,191,188797
21.136,178653,192,188806
21.141,178635,192,188800
21.146,178654,192,188821
21.150,178645,191,188817
21.155,178635,195,188828
21.160,178652,196,188836
21.165,178652,195,188839
21.170,178647,194,188826
21.175,178650,193,188830
21.180,178632,193,188828
21.185,178648,192,188831
21.190,178641,190,188858
21.195,178670,189,188845
21.200,178661,188,188845
21.205,178685,194,188870
21.210,178673,192,188849
21.215,178677,192,188851
21.220,178674,190,188848
21.225,178673,189,188852
21.230,178675,199,188829
21.235,178666,196,188842
21.240,178669,195,188848
21.245,178680,194,188835
21.250,178678,192,188841
21.255,178685,190,188845
21.260,178672,190,188852
21.265,178685,188,188839
21.270,178683,197,188855
21.275,178696,195,188844
21.280,178687,194,188857
21.285,178680,193,188853
21.290,178692,192,188865
21.295,178702,191,188877
21.300,178705,190,188882
21.304,178716,193,188886
21.309,178696,191,188903
21.314,178707,190,188874
21.319,178700,189,188906
21.324,178729,188,188895
21.329,178712,197,188905
21.334,178732,197,188911
21.339,178734,196,188911
21.344,178730,195,188929
21.349,178742,196,188901
21.354,178736,188,188914
21.359,178751,198,188919
21.364,178735,198,188920
21.369,178747,187,188936
21.374,178763,198,188949
21.379,178750,197,188934
21.384,178769,198,188934
21.389,178758,197,188945
21.394,178758,189,188957
21.399,178791,193,188945
21.404,178774,195,188946
21.409,178781,195,188962
21.414,178763,196,188963
21.419,178781,198,188959
21.424,178772,188,188968
21.429,178778,189,188982
21.434,178796,190,188953
21.439,178802,191,188966
21.444,178785,191,188980
21.449,178791,196,188967
21.454,178796,198,188973
21.458,178794,189,188982
21.463,178804,190,188963
21.468,178808,190,188977
21.473,178826,191,188963
21.478,178804,191,188979
21.483,178807,192,188984
21.488,178819,192,188987
21.493,178829,192,188977
21.498,178834,197,188981
21.503,178832,197,188983
21.508,178827,198,188998
21.513,178829,198,188975
21.518,178847,188,188990
21.523,178838,198,188981
21.528,178840,187,188999
21.533,178841,188,189007
21.538,178847,189,188991
21.543,178859,189,189002
21.548,178869,193,189011
21.553,178848,193,189009
21.558,178856,193,189004
21.563,178856,194,188981
21.568,178862,194,189007
21.573,178876,195,189006
21.578,178856,196,189019
21.583,178855,196,189007
21.588,178870,196,188981
21.593,178876,198,188956
21.598,178868,195,188987
21.603,178869,196,188968
21.608,178847,195,188974
21.613,178841,196,188960
21.617,178848,197,188940
21.622,178829,188,188951
21.627,178823,186,188935
21.632,178811,188,188921
21.637,178778,190,188910
21.642,178810,190,188877
21.647,178771,188,188877
21.652,178738,189,188856
21.657,178735,190,188870
21.662,178742,190,188859
21.667,178720,191,188875
21.672,178729,191,188860
21.677,178724,193,188859
21.682,178741,194,188871
21.687,178735,194,188876
21.692,178749,189,188876
21.697,178731,190,188883
21.702,178728,192,188877
21.707,178754,193,188885
21.712,178739,194,188886
21.717,178722,196,188869
21.722,178734,188,188859
21.727,178728,190,188862
21.732,178697,197,188861
21.737,178715,194,188850
21.742,178717,190,188850
21.747,178712,190,188848
21.752,178698,191,188843
21.757,178705,192,188859
21.762,178692,194,188867
21.767,178698,195,188851
21.771,178702,196,188845
21.776,178679,196,188867
21.781,178678,198,188840
21.786,178676,198,188848
21.791,178691,192,188844
21.796,178681,193,188858
21.801,178666,195,188858
21.806,178689,195,188856
21.811,178682,197,188871
21.816,178701,199,188858
21.821,178676,189,188862
21.826,178673,191,188867
21.831,178693,192,188874
21.836,178682,195,188873
21.841,178685,189,188881
21.846,178680,189,188886
21.851,178692,190,188910
21.856,178692,191,188911
21.861,178698,192,188914
21.866,178694,192,188908
21.871,178703,193,188908
21.876,178705,194,188906
21.881,178702,195,188897
21.886,178678,189,188916
21.891,178719,195,188911
21.896,178711,195,188912
21.901,178710,197,188924
21.906,178717,198,188923
21.911,178730,188,188920
21.916,178720,189,188931
21.921,178704,190,188928
21.925,178712,191,188925
21.930,178713,192,188936
21.935,178706,188,188938
21.940,178720,190,188932
21.945,178717,191,188926
21.950,178737,192,188931
21.955,178748,193,188948
21.960,178741,193,188954
21.965,178750,195,188974
21.970,178734,196,188959
21.975,178754,197,188957
21.980,178753,197,188979
21.985,178767,195,188988
21.990,178762,187,189002
21.995,178761,189,188975
22.000,178788,190,188993
22.005,178769,190,188990
22.010,178795,190,189003
22.015,178780,191,189009
22.020,178782,192,189016
22.025,178792,193,189009
22.030,178775,191,189025
22.035,178804,198,189016
22.040,178794,198,189029
22.045,178811,188,189024
22.050,178814,188,189036
22.055,178808,189,189039
22.060,178822,189,189042
22.065,178835,190,189036
22.070,178829,190,189057
22.075,178848,192,189063
22.080,178853,193,189061
22.084,178848,198,189075
22.089,178838,196,189069
22.094,178842,197,189062
22.099,178861,195,189077
22.104,178846,194,189065
22.109,178866,193,189090
22.114,178855,192,189088
22.119,178862,192,189090
22.124,178872,192,189097
22.129,178875,197,189105
22.134,178870,194,189088
22.139,178872,194,189087
22.144,178866,194,189107
22.149,178886,191,189098
22.154,178885,190,189097
22.159,178872,189,189116
22.164,178909,198,189121
22.169,178906,197,189111
22.174,178903,195,189105
22.179,178908,188,189101
22.184,178897,197,189102
22.189,178912,195,189111
22.194,178915,194,189146
22.199,178914,193,189111
22.204,178922,192,189123
22.209,178930,192,189125
22.214,178926,192,189109
22.219,178929,191,189125
22.224,178925,190,189140
22.229,178927,193,189118
22.234,178927,193,189133
22.238,178956,192,189138
22.243,178941,191,189133
22.248,178956,190,189149
22.253,178960,189,189161
22.258,178964,198,189145
22.263,178960,197,189139
22.268,178976,195,189144
22.273,178971,194,189152
22.278,178976,191,189139
22.283,178947,190,189148
22.288,178952,188,189134
22.293,178951,198,189150
22.298,178939,196,189127
22.303,178942,194,189126
22.308,178925,193,189102
22.313,178901,192,189098
22.318,178899,192,189072
22.323,178895,190,189091
22.328,178892,193,189096
22.333,178882,192,189077
22.338,178876,191,189088
22.343,178880,190,189115
22.348,178884,189,189114
22.353,178893,188,189112
22.358,178901,199,189126
22.363,178886,197,189131
22.368,178901,196,189128
22.373,178887,199,189193
22.378,178884,189,189136
22.383,178889,198,189136
22.388,178879,196,189116
22.392,178868,195,189117
22.397,178866,194,189097
22.402,178884,193,189113
22.407,178855,191,189112
22.412,178843,191,189089
22.417,178836,190,189095
22.422,178803,192,189083
22.427,178822,190,189081
22.432,178831,189,189071
22.437,178821,188,189076
22.442,178814,198,189092
22.447,178806,196,189093
22.452,178818,195,189080
22.457,178814,195,189091
22.462,178808,194,189089
22.467,178808,192,189107
22.472,178789,196,189098
22.477,178798,194,189096
22.482,178815,193,189102
22.487,178791,191,189102
22.492,178794,190,189111
22.497,178801,189,189118
22.502,178817,198,189106
22.507,178809,196,189109
22.512,178821,195,189116
22.517,178815,194,189124
22.522,178841,191,189134
22.527,178824,191,189136
22.532,178842,190,189138
22.537,178823,189,189139
22.542,178820,198,189129
22.546,178841,196,189131
22.551,178817,196,189110
22.556,178828,194,189116
22.561,178813,193,189125
22.566,178821,190,189138
22.571,178822,194,189136
22.576,178823,193,189130
22.581,178836,192,189120
22.586,178825,192,189148
22.591,178812,190,189128
22.596,178818,189,189119
22.601,178827,198,189137
22.606,178819,196,189137
22.611,178828,195,189140
22.616,178825,193,189139
22.621,178827,196,189156
22.626,178798,182,189173
22.631,178837,193,189164
22.636,178826,192,189168
22.641,178839,191,189169
22.646,178855,190,189173
22.651,178852,189,189177
22.656,178848,188,189196
22.661,178860,189,189210
22.666,178881,193,189214
22.671,178895,192,189211
22.676,178886,191,189231
22.681,178891,191,189238
22.686,178906,190,189252
22.691,178889,190,189225
22.696,178911,189,189257
22.701,178918,188,189261
22.705,178916,198,189259
22.710,178929,197,189273
22.715,178897,197,189286
22.720,178922,196,189284
22.725,178927,197,189285
22.730,178952,197,189217
22.735,178951,198,189293
22.740,178963,197,189290
22.745,178948,197,189301
22.750,178968,197,189298
22.755,178960,197,189322
22.760,178950,198,189317
22.765,178960,191,189322
22.770,178986,191,189320
22.775,178995,191,189324
22.780,178988,191,189329
22.785,179000,191,189325
22.790,178988,191,189332
22.795,178983,190,189336
22.800,178995,189,189333
22.805,178982,189,189324
22.810,178994,188,189334
22.815,178999,194,189324
22.820,179005,193,189330
22.825,178991,193,189343
22.830,178999,192,189334
22.835,179008,192,189351
22.840,179011,191,189335
22.845,179018,191,189344
22.850,179015,190,189328
22.855,179004,190,189335
22.859,179026,189,189344
22.864,179011,194,189360
22.869,179019,194,189355
22.874,179032,194,189369
22.879,179028,193,189342
22.884,179034,193,189352
22.889,179030,192,189355
22.894,179029,191,189370
22.899,179035,190,189366
22.904,179043,190,189360
22.909,179027,194,189348
22.914,179060,193,189379
22.919,179047,193,189379
22.924,179046,192,189377
22.929,179060,192,189376
22.934,179059,191,189365
22.939,179046,191,189405
22.944,179074,191,189378
22.949,179067,190,189382
22.954,179071,189,189391
22.959,179073,193,189393
22.964,179077,191,189410
22.969,179083,190,189389
22.974,179066,190,189380
22.979,179044,189,189397
22.984,179047,188,189388
22.989,179033,197,189373
22.994,179027,196,189364
22.999,179012,197,189371
23.004,179003,196,189342
23.009,178999,191,189344
23.013,178984,194,189333
23.018,178973,193,189351
23.023,178976,193,189326
23.028,178978,192,189336
23.033,178969,192,189336
23.038,178952,192,189350
23.043,178972,191,189351
23.048,178968,190,189350
23.053,178954,190,189337
23.058,178966,193,189345
23.063,178969,193,189334
23.068,178961,193,189358
23.073,178959,193,189335
23.078,178961,194,189341
23.083,178964,193,189343
23.088,178951,193,189341
23.093,178946,192,189341
23.098,178943,192,189348
23.103,178926,190,189347
23.108,178941,194,189336
23.113,178940,194,189353
23.118,178933,192,189366
23.123,178937,191,189352
23.128,178930,190,189354
23.133,178932,190,189359
23.138,178947,189,189362
23.143,178939,198,189365
23.148,178934,197,189366
23.153,178931,197,189390
23.158,178945,190,189384
23.163,178938,189,189379
23.167,178930,188,189386
23.172,178944,188,189374
23.177,178936,197,189383
23.182,178934,196,189389
23.187,178937,196,189409
23.192,178962,195,189389
23.197,178954,195,189411
23.202,178913,196,189413
23.207,178960,188,189418
23.212,178943,198,189413
23.217,178961,197,189413
23.222,178968,195,189426
23.227,178972,193,189429
23.232,178959,193,189426
23.237,178975,192,189423
23.242,178974,190,189423
23.247,178979,190,189422
23.252,178973,194,189422
23.257,178985,194,189432
23.262,178974,194,189419
23.267,178969,194,189446
23.272,178984,193,189434
23.277,178990,193,189425
23.282,178967,192,189435
23.287,178970,190,189435
23.292,178967,190,189440
23.297,178982,190,189432
23.302,178999,193,189455
23.307,178984,191,189446
23.312,178993,191,189456
23.317,178999,190,189482
23.322,179000,190,189481
23.326,179003,189,189488
23.331,179001,188,189482
23.336,179023,188,189500
23.341,179015,197,189495
23.346,179030,196,189501
23.351,179024,191,189511
23.356,179030,190,189516
23.361,179034,190,189528
23.366,179034,189,189526
23.371,179031,189,189520
23.376,179036,189,189521
23.381,179056,188,189535
23.386,179050,197,189525
23.391,179056,196,189533
23.396,179061,195,189530
23.401,179065,195,189536
23.406,179059,198,189526
23.411,179059,196,189536
23.416,179068,195,189525
23.421,179066,194,189535
23.426,179067,192,189540
23.431,179056,191,189553
23.436,179070,190,189538
23.441,179069,188,189538
23.446,179075,187,189546
23.451,179084,196,189546
23.456,179075,195,189554
23.461,179080,194,189550
23.466,179091,192,189546
23.471,179108,190,189574
23.476,179083,189,189571
23.480,179103,188,189570
23.485,179088,197,189574
23.490,179094,197,189574
23.495,179104,190,189577
23.500,179101,189,189585
23.505,179101,187,189588
23.510,179125,197,189601
23.515,179103,195,189601
23.520,179131,194,189593
23.525,179132,192,189608
23.530,179132,191,189613
23.535,179126,190,189618
23.540,179149,189,189612
23.545,179141,191,189617
23.550,179142,190,189601
23.555,179142,188,189619
23.560,179153,197,189598
23.565,179147,196,189606
23.570,179158,194,189597
23.575,179157,193,189595
23.580,179164,192,189603
23.585,179158,190,189591
23.590,179151,190,189614
23.595,179165,192,189584
23.600,179144,192,189584
23.605,179139,191,189584
23.610,179126,191,189552
23.615,179122,189,189567
23.620,179110,188,189554
23.625,179090,197,189536
23.630,179073,194,189517
23.634,179068,193,189473
23.639,179044,192,189486
23.644,179039,195,189480
23.649,179025,194,189472
23.654,179013,192,189439
23.659,179013,190,189469
23.664,179005,189,189441
23.669,179006,198,189460
23.674,179000,196,189484
23.679,179018,194,189463
23.684,179003,192,189452
23.689,178999,191,189467
23.694,178991,196,189464
23.699,178997,193,189464
23.704,178984,191,189471
23.709,178987,189,189454
23.714,178990,188,189460
23.719,178985,197,189460
23.724,178980,195,189449
23.729,178965,193,189438
23.734,178956,194,189431
23.739,178956,191,189429
23.744,178954,195,189418
23.749,178925,193,189427
23.754,178947,192,189415
23.759,178937,190,189420
23.764,178939,189,189431
23.769,178942,188,189436
23.774,178936,198,189419
23.779,178921,196,189419
23.784,178929,195,189412
23.789,178924,188,189419
23.793,178918,197,189421
23.798,178915,196,189421
23.803,178914,196,189421
23.808,178911,193,189421
23.813,178917,193,189391
23.818,178904,192,189395
23.823,178923,189,189400
23.828,178918,198,189415
23.833,178914,196,189413
23.838,178944,187,189409
23.843,178905,191,189418
23.848,178904,189,189399
23.853,178918,198,189416
23.858,178916,196,189416
23.863,178902,194,189417
23.868,178912,192,189438
23.873,178920,191,189414
23.878,178932,191,189427
23.883,178924,190,189425
23.888,178924,192,189422
23.893,178929,191,189418
23.898,178912,189,189396
23.903,178906,197,189391
23.908,178910,195,189403
23.913,178915,193,189415
23.918,178920,192,189414
23.923,178912,190,189422
23.928,178904,188,189408
23.933,178905,198,189413
23.938,178909,191,189421
23.943,178909,190,189431
23.947,178923,189,189424
23.952,178930,189,189437
23.957,178928,188,189434
23.962,178926,198,189422
23.967,178919,196,189429
23.972,178930,196,189439
23.977,178932,195,189441
23.982,178927,196,189435
23.987,178915,192,189429
23.992,178937,192,189428
23.997,178941,191,189425
24.002,178929,190,189432
24.007,178935,188,189426
24.012,178927,199,189434
24.017,178927,197,189426
24.022,178956,196,189430
24.027,178926,194,189425
24.032,178941,197,189432
24.037,178937,196,189436
24.042,178938,195,189430
24.047,178924,192,189426
24.052,178931,190,189425
24.057,178932,189,189431
24.062,178935,198,189422
24.067,178923,196,189419
24.072,178938,194,189409
24.077,178935,191,189411
24.082,178933,195,189409
24.087,178918,193,189403
24.092,178920,192,189388
24.097,178924,190,189406
24.101,178918,188,189398
24.106,178930,196,189402
24.111,178913,194,189395
24.116,178904,192,189381
24.121,178913,191,189381
24.126,178909,189,189387
24.131,178919,196,189374
24.136,178905,196,189377
24.141,178909,194,189374
24.146,178902,192,189381
24.151,178906,191,189369
24.156,178909,190,189361
24.161,178899,188,189371
24.166,178896,197,189340
24.171,178899,195,189347
24.176,178897,194,189350
24.181,178888,197,189327
24.186,178874,195,189336
24.191,178874,193,189311
24.196,178875,192,189308
24.201,178861,190,189297
24.206,178862,188,189278
24.211,178837,198,189266
24.216,178828,195,189274
24.221,178810,195,189217
24.226,178816,194,189223
24.231,178794,198,189212
24.236,178763,197,189185
24.241,178766,196,189155
24.246,178739,194,189143
24.251,178719,194,189134
24.255,178690,193,189099
24.260,178661,193,189091
24.265,178659,192,189077
24.270,178656,191,189066
24.275,178616,193,189071
24.280,178629,194,189064
24.285,178623,192,189027
24.290,178614,191,189062
24.295,178613,191,189052
24.300,178612,190,189044
24.305,178605,189,189053
24.310,178604,198,189033
24.315,178609,197,189044
24.320,178590,197,189024
24.325,178625,190,189048
24.330,178581,188,189043
24.335,178572,198,189053
24.340,178570,196,189031
24.345,178560,195,189012
24.350,178565,194,189019
24.355,178570,193,189016
24.360,178568,192,188992
24.365,178561,190,189004
24.370,178547,189,188985
24.375,178538,193,188992
24.380,178521,192,188994
24.385,178543,191,188990
24.390,178531,191,188977
24.395,178534,191,188992
24.400,178529,190,188985
24.405,178520,188,188981
24.410,178534,197,188999
24.414,178521,196,188989
24.419,178505,195,188989
24.424,178510,188,188978
24.429,178511,197,188995
24.434,178512,196,189002
24.439,178524,195,189014
24.444,178510,193,189008
24.449,178511,191,189007
24.454,178515,190,189005
24.459,178534,188,189013
24.464,178532,197,189036
24.469,178538,196,189032
24.474,178544,189,189038
24.479,178537,188,189027
24.484,178549,197,189027
24.489,178531,196,189003
24.494,178546,195,189028
24.499,178546,195,189027
24.504,178530,194,189027
24.509,178550,192,189036
24.514,178527,191,189014
24.519,178520,194,189022
24.524,178546,188,189012
24.529,178534,197,189018
24.534,178551,196,189022
24.539,178534,195,189016
24.544,178550,193,189016
24.549,178538,191,189018
24.554,178540,191,189029
24.559,178540,189,189028
24.564,178532,188,189029
24.568,178543,190,189036
24.573,178558,190,189035
24.578,178559,188,189043
24.583,178558,197,189054
24.588,178548,195,189051
24.593,178562,193,189074
24.598,178564,192,189067
24.603,178570,192,189065
24.608,178575,190,189076
24.613,178587,189,189073
24.618,178592,194,189067
24.623,178590,194,189091
24.628,178593,190,189099
24.633,178604,190,189097
24.638,178617,190,189114
24.643,178603,188,189113
24.648,178626,197,189108
24.653,178628,195,189117
24.658,178636,194,189111
24.663,178637,192,189131
24.668,178650,196,189136
24.673,178644,194,189152
24.678,178652,193,189132
24.683,178662,191,189149
24.688,178652,190,189152
24.693,178683,189,189149
24.698,178680,187,189161
24.703,178684,196,189155
24.708,178694,193,189171
24.713,178693,193,189158
24.718,178690,196,189180
24.722,178713,195,189182
24.727,178710,194,189176
24.732,178713,199,189166
24.737,178704,193,189186
24.742,178714,192,189190
24.747,178712,191,189185
24.752,178728,189,189174
24.757,178718,198,189200
24.762,178743,198,189196
24.767,178743,190,189203
24.772,178737,189,189205
24.777,178731,189,189200
24.782,178750,189,189219
24.787,178741,189,189210
24.792,178742,189,189202
24.797,178768,189,189234
24.802,178757,189,189209
24.807,178758,188,189222
24.812,178761,191,189211
24.817,178773,190,189210
24.822,178769,190,189216
24.827,178765,189,189221
24.832,178769,189,189206
24.837,178781,189,189212
24.842,178793,190,189194
24.847,178774,190,189203
24.852,178761,191,189209
24.857,178769,192,189191
24.862,178753,198,189175
24.867,178752,188,189179
24.872,178738,189,189173
24.876,178715,190,189159
24.881,178719,191,189142
24.886,178679,192,189127
24.891,178677,193,189118
24.896,178666,194,189108
24.901,178644,195,189087
24.906,178648,196,189088
24.911,178636,190,189094
24.916,178624,195,189102
24.921,178621,196,189100
24.926,178640,188,189098
24.931,178615,189,189081
24.936,178612,190,189097
24.941,178623,191,189084
24.946,178629,191,189076
24.951,178609,192,189083
24.956,178595,194,189084
24.961,178598,192,189075
24.966,178587,192,189088
24.971,178593,193,189051
24.976,178570,193,189064
24.981,178574,194,189079
24.986,178567,194,189044
24.991,178551,195,189039
24.996,178554,196,189025
25.001,178546,196,189035
25.006,178545,197,189026
25.011,178539,194,189026
25.016,178527,195,189024
25.021,178530,196,189029
25.026,178534,196,189041
25.031,178529,196,189034
25.035,178527,196,189032
25.040,178517,197,189027
25.045,178519,196,189015
25.050,178505,197,189035
25.055,178503,192,189025
25.060,178507,191,189020
25.065,178505,191,189021
25.070,178505,192,189015
25.075,178506,192,189034
25.080,178508,193,189030
25.085,178498,193,189012
25.090,178500,194,189027
25.095,178504,195,189031
25.100,178502,195,189036
25.105,178500,188,189030
25.110,178506,190,189038
25.115,178507,192,189042
25.120,178506,194,189032
25.125,178511,194,189003
25.130,178500,195,189019
25.135,178510,195,189018
25.140,178512,197,189018
25.145,178505,196,189029
25.150,178509,197,189016
25.155,178505,192,189026
25.160,178517,193,189024
25.165,178505,194,189020
25.170,178516,194,189038
25.175,178503,195,189011
25.180,178517,195,189038
25.185,178506,196,189017
25.189,178505,197,189050
25.194,178512,189,189037
25.199,178504,190,189051
25.204,178501,189,189030
25.209,178519,190,189029
25.214,178526,191,189036
25.219,178528,193,189038
25.224,178525,194,189043
25.229,178520,196,189056
25.234,178531,198,189048
25.239,178539,189,189048
25.244,178530,190,189052
25.249,178542,192,189058
25.254,178551,197,189068
25.259,178556,188,189074
25.264,178558,189,189076
25.269,178545,190,189076
25.274,178555,191,189079
25.279,178545,193,189088
25.284,178542,194,189072
25.289,178562,197,189090
25.294,178568,188,189076
25.299,178574,189,189087
25.304,178574,195,189083
25.309,178581,197,189085
25.314,178577,190,189109
25.319,178588,191,189096
25.324,178582,193,189104
25.329,178597,193,189111
25.334,178598,196,189105
25.339,178607,188,189096
25.343,178603,189,189099
25.348,178589,194,189116
25.353,178597,196,189122
25.358,178593,197,189124
25.363,178591,188,189101
25.368,178613,190,189106
25.373,178621,192,189105
25.378,178603,193,189113
25.383,178622,195,189128
25.388,178625,196,189124
25.393,178640,197,189130
25.398,178623,192,189140
25.403,178638,192,189137
25.408,178634,193,189121
25.413,178631,194,189140
25.418,178642,196,189145
25.423,178642,197,189155
25.428,178659,188,189141
25.433,178643,189,189126
25.438,178659,191,189143
25.443,178668,191,189146
25.448,178667,197,189155
25.453,178685,197,189147
25.458,178679,198,189166
25.463,178671,188,189151
25.468,178689,189,189171
25.473,178692,191,189161
25.478,178691,191,189169
25.483,178701,192,189165
25.488,178695,193,189158
25.493,178695,195,189157
25.497,178713,192,189166
25.502,178700,194,189157
25.507,178701,195,189169
25.512,178707,198,189142
25.517,178704,188,189135
25.522,178703,189,189135
25.527,178666,190,189121
25.532,178663,192,189095
25.537,178631,193,189098
25.542,178602,198,189076
25.547,178606,189,189056
25.552,178580,190,189046
25.557,178563,192,189031
25.562,178551,194,189025
25.567,178538,195,189007
25.572,178532,197,189000
25.577,178523,189,189005
25.582,178529,190,188995
25.587,178518,191,188986
25.592,178499,196,189005
25.597,178508,188,189004
25.602,178508,190,189006
25.607,178492,191,189002
25.612,178485,193,188985
25.617,178495,194,188996
25.622,178495,195,188978
25.627,178495,192,188997
25.632,178487,197,188973
25.637,178469,189,188976
25.642,178479,196,188982
25.647,178476,189,188976
25.652,178468,191,188960
25.656,178468,193,188975
25.661,178468,197,188965
25.666,178456,187,188962
25.671,178448,189,188980
25.676,178461,189,188982
25.681,178463,191,188972
25.686,178451,192,188960
25.691,178447,188,188987
25.696,178457,189,188990
25.701,178449,191,188983
25.706,178463,191,188991
25.711,178472,193,189000
25.716,178456,194,188998
25.721,178447,195,188997
25.726,178447,196,188999
25.731,178438,230,188997
25.736,178467,190,189021
25.741,178463,195,189028
25.746,178481,194,189036
25.751,178471,196,189032
25.756,178486,198,189041
25.761,178488,189,189059
25.766,178473,190,189036
25.771,178492,192,189056
25.776,178488,193,189059
25.781,178508,193,189065
25.786,178523,195,189039
25.791,178499,189,189062
25.796,178498,190,189070
25.801,178514,190,189070
25.806,178521,190,189062
25.810,178502,192,189083
25.815,178510,192,189093
25.820,178508,194,189081
25.825,178504,193,189077
25.830,178514,194,189086
25.835,178543,191,189059
25.840,178525,191,189086
25.845,178523,192,189102
25.850,178522,193,189099
25.855,178517,195,189105
25.860,178537,197,189105
25.865,178542,188,189134
25.870,178550,188,189153
25.875,178554,190,189131
25.880,178545,190,189146
25.885,178578,195,189151
25.890,178580,196,189156
25.895,178571,198,189151
25.900,178566,188,189173
25.905,178570,189,189159
25.910,178567,189,189174
25.915,178588,191,189169
25.920,178594,192,189177
25.925,178586,193,189197
25.930,178603,196,189196
25.935,178615,189,189186
25.940,178609,198,189207
25.945,178593,188,189214
25.950,178626,190,189208
25.955,178621,191,189223
25.960,178622,192,189223
25.964,178646,195,189224
25.969,178641,196,189223
25.974,178654,196,189242
25.979,178640,197,189252
25.984,178664,191,189250
25.989,178665,192,189247
25.994,178665,193,189251
25.999,178674,194,189242
26.004,178657,194,189260
26.009,178668,196,189261
26.014,178668,196,189257
26.019,178669,196,189256
26.024,178682,198,189240
26.029,178685,189,189245
26.034,178666,193,189263
26.039,178661,195,189269
26.044,178682,194,189249
26.049,178680,194,189239
26.054,178670,195,189258
26.059,178689,196,189245
26.064,178682,198,189232
26.069,178681,188,189254
26.074,178683,190,189263
26.079,178668,194,189261
26.084,178688,196,189253
26.089,178683,197,189241
26.094,178676,189,189259
26.099,178685,189,189260
26.104,178688,189,189260
26.109,178705,190,189251
26.114,178696,191,189271
26.119,178718,191,189259
26.123,178728,192,189255
26.128,178711,196,189258
26.133,178720,198,189262
26.138,178701,198,189277
26.143,178708,188,189273
26.148,178709,188,189271
26.153,178716,189,189272
26.158,178727,191,189276
26.163,178734,191,189288
26.168,178730,193,189261
26.173,178729,193,189292
26.178,178745,188,189287
26.183,178735,188,189272
26.188,178745,189,189294
26.193,178734,189,189292
26.198,178743,189,189271
26.203,178736,189,189265
26.208,178730,190,189269
26.213,178738,191,189251
26.218,178723,192,189243
26.223,178716,192,189241
26.228,178693,197,189228
26.233,178677,197,189222
26.238,178677,198,189225
26.243,178659,187,189200
26.248,178657,188,189216
26.253,178636,189,189209
26.258,178656,190,189210
26.263,178633,190,189213
26.268,178644,191,189218
26.273,178638,193,189236
26.277,178640,198,189212
26.282,178658,188,189245
26.287,178629,189,189231
26.292,178648,190,189212
26.297,178642,191,189223
26.302,178642,190,189259
26.307,178637,192,189242
26.312,178634,193,189250
26.317,178635,194,189242
26.322,178593,198,189256
26.327,178642,194,189253
26.332,178637,196,189251
26.337,178638,198,189249
26.342,178639,188,189248
26.347,178652,189,189265
26.352,178641,190,189258
26.357,178631,193,189256
26.362,178635,195,189283
26.367,178647,196,189263
26.372,178644,192,189290
26.377,178634,195,189286
26.382,178651,196,189294
26.387,178638,198,189290
26.392,178641,188,189296
26.397,178636,189,189289
26.402,178653,190,189304
26.407,178638,191,189278
26.412,178645,192,189285
26.417,178632,193,189293
26.422,178647,189,189291
26.427,178654,192,189315
26.431,178648,194,189326
26.436,178646,195,189327
26.441,178646,196,189325
26.446,178665,188,189308
26.451,178662,190,189335
26.456,178675,192,189343
26.461,178680,194,189340
26.466,178676,194,189348
26.471,178683,190,189351
26.476,178689,192,189361
26.481,178688,194,189365
26.486,178679,196,189356
26.491,178694,188,189348
26.496,178686,190,189355
26.501,178692,191,189361
26.506,178678,192,189343
26.511,178666,194,189362
26.516,178681,196,189368
26.521,178692,189,189366
26.526,178679,190,189345
26.531,178694,192,189370
26.536,178695,193,189371
26.541,178709,194,189372
26.546,178707,195,189371
26.551,178694,197,189381
26.556,178707,188,189368
26.561,178704,190,189390
26.566,178714,191,189393
26.571,178712,197,189394
26.576,178711,198,189413
26.581,178722,189,189423
26.585,178725,191,189396
26.590,178723,192,189411
26.595,178724,193,189422
26.600,178732,195,189406
26.605,178739,197,189424
26.610,178748,197,189421
26.615,178752,192,189430
26.620,178754,194,189418
26.625,178743,181,189439
26.630,178756,195,189445
26.635,178753,196,189446
26.640,178769,188,189440
26.645,178769,189,189462
26.650,178760,192,189454
26.655,178778,194,189463
26.660,178774,197,189467
26.665,178793,192,189475
26.670,178810,194,189481
26.675,178818,197,189478
26.680,178794,188,189491
26.685,178795,189,189496
26.690,178793,191,189481
26.695,178816,193,189492
26.700,178815,195,189488
26.705,178810,198,189509
26.710,178819,188,189496
26.715,178838,196,189505
26.720,178821,187,189506
26.725,178830,189,189515
26.730,178873,191,189512
26.735,178833,194,189518
26.740,178848,196,189513
26.744,178833,197,189501
26.749,178851,198,189517
26.754,178842,190,189512
26.759,178864,191,189538
26.764,178900,187,189513
26.769,178861,195,189540
26.774,178862,198,189534
26.779,178872,189,189522
26.784,178868,191,189539
26.789,178879,193,189538
26.794,178886,194,189532
26.799,178895,196,189542
26.804,178892,197,189556
26.809,178897,186,189535
26.814,178889,194,189545
26.819,178876,195,189531
26.824,178867,196,189512
26.829,178859,198,189511
26.834,178869,190,189505
26.839,178841,191,189495
26.844,178833,191,189482
26.849,178840,194,189466
26.854,178814,195,189467
26.859,178792,189,189451
26.864,178803,190,189461
26.869,178788,192,189454
26.874,178808,192,189462
26.879,178798,194,189470
26.884,178798,194,189479
26.889,178809,195,189469
26.894,178799,195,189481
26.898,178815,196,189504
26.903,178810,197,189491
26.908,178810,191,189507
26.913,178812,192,189514
26.918,178809,195,189511
26.923,178811,196,189493
26.928,178814,188,189510
26.933,178791,189,189514
26.938,178801,191,189504
26.943,178797,192,189495
26.948,178806,194,189499
26.953,178784,197,189503
26.958,178804,190,189508
26.963,178800,191,189496
26.968,178793,192,189509
26.973,178796,194,189518
26.978,178791,195,189524
26.983,178799,197,189499
26.988,178798,188,189519
26.993,178819,189,189526
26.998,178797,191,189534
27.003,178794,192,189534
27.008,178835,195,189534
27.013,178791,189,189528
27.018,178802,190,189523
27.023,178796,191,189529
27.028,178801,192,189539
27.033,178806,194,189521
27.038,178797,195,189527
27.043,178796,196,189540
27.048,178813,197,189517
27.052,178798,197,189534
27.057,178787,192,189540
27.062,178802,192,189519
27.067,178818,191,189524
27.072,178820,190,189536
27.077,178796,190,189533
27.082,178820,189,189552
27.087,178820,189,189534
27.092,178802,188,189538
27.097,178801,197,189519
27.102,178810,190,189507
27.107,178794,189,189507
27.112,178802,189,189506
27.117,178797,189,189506
27.122,178806,187,189503
27.127,178790,198,189519
27.132,178803,197,189514
27.137,178784,197,189517
27.142,178799,196,189506
27.147,178800,196,189520
27.152,178828,190,189515
27.157,178813,190,189525
27.162,178839,189,189547
27.167,178821,189,189555
27.172,178827,189,189540
27.177,178844,189,189558
27.182,178835,188,189567
27.187,178837,188,189558
27.192,178847,188,189565
27.197,178844,188,189556
27.202,178842,192,189556
27.206,178864,191,189574
27.211,178870,190,189569
27.216,178867,189,189572
27.221,178871,189,189574
27.226,178877,198,189580
27.231,178882,197,189580
27.236,178875,195,189568
27.241,178888,193,189591
27.246,178908,193,189587
27.251,178890,198,189592
27.256,178913,198,189581
27.261,178897,197,189607
27.266,178901,196,189609
27.271,178907,197,189606
27.276,178916,196,189621
27.281,178917,196,189617
27.286,178922,195,189616
27.291,178920,195,189610
27.296,178928,199,189658
27.301,178911,191,189603
27.306,178935,191,189625
27.311,178948,191,189612
27.316,178933,191,189627
27.321,178939,189,189624
27.326,178957,189,189603
27.331,178946,188,189628
27.336,178959,199,189620
27.341,178953,197,189630
27.346,178967,190,189640
27.351,178964,191,189648
27.356,178973,191,189638
27.361,178967,190,189630
27.365,178972,190,189629
27.370,178982,190,189633
27.375,178972,190,189646
27.380,178992,190,189651
27.385,178985,189,189648
27.390,178996,190,189647
27.395,178984,194,189658
27.400,179007,194,189648
27.405,178987,193,189638
27.410,178983,194,189616
27.415,178988,193,189622
27.420,178960,195,189600
27.425,178944,195,189602
27.430,178926,196,189570
27.435,178919,196,189546
27.440,178900,195,189538
27.445,178866,192,189530
27.450,178875,193,189536
27.455,178868,194,189527
27.460,178870,193,189531
27.465,178873,193,189532
27.470,178862,192,189537
27.475,178847,193,189532
27.480,178869,192,189546
27.485,178858,192,189540
27.490,178854,191,189567
27.495,178871,194,189554
27.500,178865,193,189556
27.505,178865,194,189548
27.510,178858,192,189558
27.515,178870,192,189561
27.519,178862,191,189557
27.524,178859,192,189577
27.529,178864,191,189572
27.534,178866,192,189556
27.539,178849,192,189566
27.544,178855,196,189560
27.549,178843,195,189558
27.554,178861,193,189565
27.559,178836,194,189555
27.564,178841,194,189551
27.569,178842,193,189561
27.574,178846,193,189562
27.579,178842,192,189562
27.584,178833,192,189563
27.589,178836,195,189545
27.594,178848,196,189571
27.599,178853,195,189566
27.604,178845,195,189547
27.609,178847,195,189557
27.614,178840,194,189576
27.619,178840,192,189556
27.624,178830,192,189627
27.629,178830,192,189580
27.634,178820,192,189559
27.639,178855,197,189560
27.644,178849,196,189579
27.649,178858,196,189590
27.654,178865,197,189591
27.659,178846,196,189591
27.664,178876,196,189587
27.669,178867,197,189594
27.673,178867,196,189594
27.678,178864,197,189590
27.683,178884,188,189610
27.688,178873,194,189608
27.693,178883,196,189600
27.698,178862,188,189597
27.703,178872,189,189600
27.708,178882,191,189613
27.713,178873,193,189594
27.718,178884,194,189600
27.723,178877,196,189591
27.728,178871,188,189607
27.733,178881,191,189602
27.738,178869,195,189593
27.743,178878,196,189596
27.748,178878,189,189596
27.753,178869,190,189605
27.758,178871,192,189603
27.763,178880,193,189599
27.768,178868,194,189600
27.773,178869,195,189602
27.778,178885,197,189587
27.783,178856,188,189601
27.788,178887,193,189608
27.793,178896,195,189620
27.798,178892,197,189597
27.803,178891,188,189608
27.808,178888,189,189616
27.813,178891,191,189620
27.818,178894,193,189610
27.823,178896,194,189605
27.827,178885,196,189628
27.832,178904,191,189614
27.837,178905,192,189620
27.842,178912,193,189640
27.847,178910,196,189622
27.852,178911,198,189619
27.857,178908,190,189622
27.862,178946,190,189620
27.867,178937,191,189626
27.872,178915,193,189632
27.877,178940,195,189626
27.882,178951,183,189592
27.887,178938,189,189626
27.892,178944,191,189639
27.897,178939,192,189614
27.902,178947,192,189637
27.907,178936,194,189651
27.912,178955,195,189655
27.917,178952,196,189642
27.922,178955,197,189646
27.927,178971,189,189656
27.932,178977,192,189648
27.937,178977,189,189639
27.942,178969,191,189647
27.947,178970,193,189660
27.952,178985,195,189653
27.957,178986,196,189653
27.962,178985,187,189660
27.967,179005,189,189655
27.972,179007,190,189674
27.977,179001,191,189678
27.982,178998,196,189668
27.986,179013,197,189677
27.991,179012,188,189672
27.996,179013,189,189673
28.001,179011,190,189667
28.006,179006,191,189674
28.011,179005,192,189650
28.016,178983,192,189656
28.021,178983,194,189631
28.026,178964,195,189617
28.031,178965,190,189601
28.036,178939,192,189593
28.041,178941,193,189581
28.046,178933,194,189564
28.051,178914,194,189564
28.056,178905,194,189545
28.061,178902,193,189548
28.066,178883,192,189540
28.071,178896,191,189554
28.076,178879,189,189549
28.081,178875,194,189566
28.086,178883,193,189552
28.091,178886,192,189567
28.096,178885,191,189555
28.101,178890,190,189560
28.106,178890,189,189555
28.111,178882,189,189562
28.116,178864,189,189572
28.121,178873,198,189568
28.126,178866,191,189573
28.131,178872,194,189565
28.136,178857,193,189549
28.140,178859,193,189556
28.145,178851,193,189548
28.150,178845,193,189528
28.155,178845,192,189544
28.160,178855,191,189549
28.165,178833,191,189543
28.170,178821,189,189537
28.175,178853,196,189556
28.180,178828,198,189541
28.185,178825,197,189541
28.190,178820,197,189554
28.195,178817,196,189557
28.200,178824,195,189534
28.205,178827,193,189541
28.210,178827,194,189535
28.215,178834,194,189531
28.220,178814,193,189545
28.225,178827,197,189565
28.230,178808,196,189551
28.235,178825,196,189550
28.240,178833,196,189564
28.245,178823,196,189566
28.250,178831,195,189590
28.255,178828,193,189571
28.260,178836,192,189571
28.265,178846,192,189588
28.270,178851,191,189569
28.275,178862,195,189596
28.280,178842,194,189588
28.285,178858,193,189575
28.290,178859,191,189579
28.294,178839,190,189580
28.299,178864,189,189597
28.304,178850,188,189575
28.309,178869,197,189580
28.314,178859,197,189586
28.319,178844,197,189571
28.324,178872,189,189573
28.329,178855,189,189577
28.334,178851,189,189588
28.339,178858,188,189568
28.344,178842,189,189574
28.349,178849,190,189588
28.354,178851,189,189594
28.359,178857,188,189582
28.364,178854,198,189597
28.369,178862,190,189599
28.374,178886,189,189607
28.379,178880,188,189602
28.384,178876,197,189616
28.389,178882,196,189628
28.394,178901,196,189599
28.399,178899,195,189623
28.404,178900,195,189622
28.409,178893,194,189626
28.414,178909,194,189615
28.419,178897,198,189638
28.424,178900,196,189621
28.429,178895,195,189618
28.434,178904,193,189605
28.439,178900,193,189631
28.444,178907,192,189632
28.448,178916,192,189635
28.453,178912,190,189637
28.458,178912,188,189624
28.463,178907,198,189631
28.468,178914,194,189620
28.473,178922,195,189631
28.478,178931,192,189634
28.483,178908,191,189645
28.488,178921,190,189639
28.493,178932,189,189644
28.498,178934,188,189661
28.503,178934,198,189654
28.508,178923,197,189647
28.513,178940,194,189649
28.518,178965,189,189659
28.523,178940,188,189652
28.528,178966,198,189659
28.533,178960,196,189674
28.538,178950,195,189669
28.543,178953,194,189660
28.548,178962,193,189664
28.553,178966,192,189668
28.558,178953,191,189659
28.563,178964,190,189667
28.568,178959,189,189667
28.573,178973,188,189658
28.578,178970,188,189665
28.583,178977,188,189677
28.588,178969,198,189662
28.593,178978,197,189660
28.598,178975,197,189638
28.603,178980,195,189660
28.607,178970,195,189663
28.612,178968,203,189621
28.617,178953,197,189619
28.622,178950,196,189621
28.627,178939,194,189612
28.632,178924,193,189602
28.637,178924,193,189586
28.642,178898,192,189576
28.647,178893,192,189560
28.652,178870,192,189550
28.657,178873,191,189554
28.662,178856,194,189538
28.667,178849,192,189549
28.672,178842,191,189543
28.677,178835,190,189542
28.682,178836,189,189539
28.687,178828,188,189543
28.692,178824,197,189560
28.697,178833,195,189536
28.702,178824,193,189549
28.707,178829,192,189537
28.712,178835,196,189552
28.717,178816,195,189547
28.722,178814,194,189545
28.727,178826,193,189530
28.732,178806,194,189525
28.737,178798,192,189512
28.742,178804,191,189514
28.747,178784,189,189510
28.752,178802,188,189519
28.757,178780,198,189496
28.761,178791,194,189490
28.766,178787,193,189514
28.771,178785,192,189502
28.776,178783,191,189499
28.781,178770,190,189506
28.786,178761,190,189521
28.791,178775,189,189483
28.796,178766,188,189502
28.801,178755,196,189490
28.806,178776,196,189505
28.811,178754,189,189500
28.816,178773,189,189508
28.821,178757,188,189510
28.826,178766,199,189501
28.831,178752,197,189510
28.836,178765,196,189522
28.841,178756,194,189526
28.846,178766,192,189517
28.851,178766,191,189535
28.856,178761,194,189584
28.861,178773,193,189530
28.866,178776,192,189550
28.871,178796,192,189529
28.876,178793,191,189538
28.881,178770,189,189535
28.886,178773,188,189537
28.891,178793,197,189534
28.896,178775,196,189531
28.901,178774,194,189551
28.906,178758,197,189550
28.911,178787,196,189537
28.915,178789,195,189553
28.920,178760,194,189560
28.925,178755,192,189532
28.930,178784,192,189529
28.935,178785,190,189539
28.940,178780,188,189551
28.945,178794,188,189560
28.950,178778,197,189547
28.955,178797,192,189552
28.960,178788,194,189548
28.965,178816,193,189556
28.970,178807,192,189560
28.975,178820,191,189564
28.980,178805,189,189569
28.985,178822,188,189583
28.990,178817,188,189588
28.995,178823,198,189579
29.000,178821,196,189581
29.005,178829,189,189599
29.010,178831,188,189589
29.015,178836,198,189602
29.020,178832,196,189617
29.025,178840,195,189611
29.030,178839,194,189608
29.035,178848,192,189620
29.040,178863,191,189620
29.045,178870,190,189617
29.050,178869,187,189645
29.055,178879,191,189638
29.060,178883,189,189641
29.065,178893,188,189657
29.070,178889,196,189663
29.074,178884,195,189683
29.079,178897,193,189663
29.084,178902,192,189686
29.089,178904,191,189705
29.094,178916,189,189683
29.099,178910,198,189694
29.104,178911,190,189700
29.109,178919,188,189704
29.114,178915,198,189698
29.119,178937,197,189706
29.124,178937,197,189712
29.129,178948,196,189705
29.134,178935,195,189725
29.139,178950,194,189709
29.144,178954,193,189721
29.149,178970,202,189731
29.154,178967,197,189729
29.159,178976,195,189734
29.164,178983,195,189729
29.169,178980,193,189736
29.174,178982,192,189735
29.179,178987,192,189708
29.184,178999,192,189737
29.189,178987,192,189742
29.194,178968,190,189726
29.199,178993,194,189737
29.204,178981,192,189740
29.209,178965,191,189732
29.214,178997,191,189737
29.219,178994,190,189732
29.224,178986,188,189742
29.228,178999,189,189723
29.233,178972,189,189709
29.238,178986,188,189708
29.243,178975,188,189709
29.248,178983,193,189711
29.253,178950,196,189676
29.258,178935,195,189668
