df_hash,22ZHK4.Z3TLDX
device,HZ2X61
project_hash,29R7
project_name,istanbul_aydin_university
person_hash,29R7.MMAJ
person_label,V101
date_time_start,2025-11-04_19-44-37.931000_+03
date_time_start_unix,1762271077.931
date_time_end,2025-11-04_19-53-23.400000_+03
length_difference_noticed,no

time,ppg_ir,ppg_ambient,ppg_red
5.325,173178,351,113008
5.330,173168,353,112990
5.335,173175,352,113012
5.340,173185,351,113014
5.345,173183,360,113009
5.350,173165,351,113007
5.355,173178,352,113007
5.360,173180,352,113004
5.365,173198,353,113009
5.370,173211,353,113016
5.375,173215,353,113003
5.380,173209,353,113004
5.385,173218,354,113011
5.390,173233,360,113009
5.395,173236,352,113021
5.400,173238,351,113016
5.405,173243,351,113035
5.410,173253,351,113035
5.414,173268,353,113031
5.419,173278,353,113023
5.424,173286,354,113024
5.429,173275,354,113034
5.434,173266,354,113027
5.439,173279,354,113039
5.444,173300,359,113028
5.449,173306,361,113035
5.454,173311,360,113041
5.459,173320,359,113037
5.464,173333,360,113037
5.469,173345,361,113035
5.474,173349,348,113047
5.479,173351,349,113039
5.484,173375,350,113045
5.489,173367,348,113056
5.494,173377,355,113062
5.499,173394,356,113061
5.504,173404,357,113059
5.509,173393,357,113065
5.514,173421,357,113070
5.519,173423,359,113066
5.524,173434,359,113072
5.529,173456,345,113072
5.534,173443,347,113084
5.539,173454,353,113091
5.544,173465,346,113078
5.549,173456,347,113082
5.554,173477,347,113089
5.559,173480,349,113090
5.563,173503,350,113091
5.568,173504,350,113101
5.573,173515,352,113101
5.578,173512,353,113097
5.583,173539,354,113095
5.588,173556,348,113107
5.593,173541,351,113103
5.598,173575,352,113106
5.603,173585,352,113105
5.608,173583,353,113092
5.613,173582,353,113112
5.618,173581,355,113106
5.623,173580,354,113115
5.628,173591,355,113119
5.633,173586,355,113109
5.638,173558,346,113113
5.643,173553,348,113119
5.648,173544,350,113100
5.653,173510,350,113111
5.658,173476,351,113102
5.663,173471,352,113090
5.668,173425,353,113079
5.673,173418,353,113066
5.678,173427,353,113065
5.683,173389,353,113058
5.688,173338,343,113056
5.693,173359,343,113048
5.698,173329,343,113039
5.703,173309,343,113032
5.708,173291,342,113025
5.713,173291,342,113033
5.717,173249,342,113006
5.722,173258,343,113007
5.727,173250,344,113010
5.732,173248,349,113053
5.737,173237,350,112997
5.742,173216,350,112991
5.747,173219,350,112989
5.752,173206,349,112983
5.757,173210,349,112981
5.762,173191,349,112977
5.767,173175,349,112980
5.772,173183,349,112974
5.777,173175,350,112971
5.782,173154,342,112964
5.787,173172,350,112969
5.792,173144,350,112973
5.797,173148,350,112964
5.802,173154,351,112954
5.807,173134,353,112958
5.812,173128,353,112956
5.817,173124,339,112958
5.822,173109,340,112951
5.827,173120,340,112948
5.832,173124,345,112954
5.837,173118,344,112943
5.842,173115,344,112953
5.847,173126,344,112953
5.852,173120,345,112953
5.857,173118,344,112949
5.862,173121,344,112942
5.866,173116,344,112940
5.871,173128,344,112951
5.876,173131,344,112938
5.881,173128,351,112943
5.886,173121,350,112944
5.891,173112,348,112947
5.896,173122,350,112937
5.901,173126,351,112940
5.906,173128,350,112939
5.911,173127,350,112945
5.916,173118,351,112948
5.921,173138,336,112938
5.926,173152,351,112947
5.931,173136,341,112945
5.936,173134,343,112943
5.941,173125,342,112947
5.946,173139,343,112946
5.951,173131,345,112943
5.956,173129,344,112947
5.961,173130,344,112945
5.966,173153,344,112942
5.971,173146,345,112939
5.976,173147,346,112976
5.981,173160,338,112956
5.986,173161,338,112936
5.991,173150,338,112953
5.996,173160,341,112932
6.001,173170,342,112944
6.006,173164,343,112943
6.011,173175,344,112943
6.015,173178,344,112950
6.020,173169,344,112939
6.025,173166,334,112955
6.030,173184,337,112951
6.035,173208,339,112959
6.040,173204,338,112947
6.045,173218,339,112954
6.050,173204,340,112950
6.055,173234,342,112960
6.060,173232,343,112965
6.065,173245,343,112957
6.070,173238,343,112963
6.075,173241,336,112969
6.080,173247,336,112961
6.085,173266,334,112977
6.090,173279,335,112961
6.095,173276,336,112976
6.100,173287,336,112979
6.105,173298,335,112975
6.110,173304,336,112986
6.115,173311,336,112988
6.120,173313,336,112993
6.125,173335,341,112991
6.130,173346,340,112993
6.135,173344,340,112988
6.140,173363,341,113005
6.145,173358,341,112991
6.150,173361,342,113001
6.155,173382,343,112995
6.160,173384,342,113000
6.164,173409,343,112988
6.169,173405,350,113004
6.174,173409,342,113012
6.179,173432,334,113014
6.184,173448,335,113016
6.189,173436,337,113012
6.194,173458,338,113026
6.199,173470,338,113024
6.204,173480,340,113034
6.209,173472,342,113033
6.214,173500,345,113033
6.219,173502,344,113028
6.224,173511,335,113049
6.229,173525,336,113047
6.234,173530,336,113044
6.239,173540,336,113060
6.244,173557,336,113048
6.249,173560,337,113052
6.254,173568,338,113059
6.259,173583,339,113059
6.264,173568,341,113052
6.269,173563,339,113056
6.274,173558,336,113060
6.279,173551,337,113064
6.284,173532,333,113045
6.289,173514,337,113060
6.294,173504,339,113039
6.299,173486,340,113029
6.304,173450,327,113008
6.309,173426,327,113035
6.313,173409,328,113026
6.318,173385,335,113005
6.323,173366,335,113010
6.328,173352,337,113012
6.333,173337,339,112998
6.338,173334,340,113001
6.343,173303,341,112987
6.348,173299,326,112977
6.353,173290,328,112979
6.358,173283,331,112970
6.363,173274,332,112966
6.368,173265,341,112958
6.373,173260,328,112975
6.378,173250,330,112962
6.383,173241,331,112950
6.388,173239,337,112952
6.393,173231,336,112951
6.398,173217,335,112943
6.403,173211,338,112951
6.408,173213,338,112935
6.413,173210,339,112947
6.418,173192,331,112940
6.423,173201,334,112943
6.428,173196,336,112950
6.433,173195,336,112940
6.438,173193,337,112932
6.443,173176,338,112922
6.448,173171,340,112926
6.453,173181,341,112925
6.458,173179,327,112931
6.463,173175,328,112937
6.467,173182,328,112933
6.472,173193,329,112927
6.477,173169,330,112926
6.482,173196,332,112923
6.487,173186,334,112930
6.492,173192,336,112922
6.497,173201,336,112930
6.502,173214,340,112934
6.507,173192,340,112937
6.512,173210,324,112928
6.517,173199,333,112922
6.522,173190,336,112941
6.527,173201,336,112933
6.532,173188,338,112929
6.537,173201,339,112943
6.542,173194,328,112931
6.547,173207,329,112927
6.552,173189,329,112941
6.557,173187,330,112941
6.562,173201,336,112944
6.567,173196,338,112937
6.572,173218,339,112936
6.577,173218,326,112937
6.582,173222,327,112920
6.587,173211,329,112929
6.592,173215,328,112936
6.597,173215,330,112945
6.602,173207,331,112948
6.607,173219,330,112952
6.612,173217,338,112938
6.616,173235,339,112944
6.621,173225,326,112946
6.626,173238,328,112943
6.631,173265,330,112952
6.636,173248,330,112944
6.641,173243,331,112954
6.646,173245,331,112941
6.651,173267,332,112948
6.656,173281,333,112947
6.661,173278,324,112956
6.666,173280,326,112960
6.671,173304,327,112960
6.676,173313,328,112965
6.681,173306,330,112966
6.686,173323,330,112967
6.691,173334,331,112967
6.696,173333,333,112968
6.701,173339,336,112965
6.706,173345,336,112964
6.711,173352,327,112978
6.716,173370,329,112973
6.721,173374,331,112986
6.726,173382,333,112986
6.731,173379,336,112975
6.736,173409,338,112997
6.741,173417,324,112997
6.746,173419,324,112995
6.751,173430,325,113000
6.756,173446,329,112935
6.761,173434,332,112998
6.765,173442,332,113001
6.770,173448,334,112999
6.775,173461,335,112995
6.780,173480,336,113007
6.785,173479,337,113005
6.790,173490,336,113022
6.795,173504,323,113020
6.800,173506,324,113013
6.805,173523,330,113020
6.810,173517,331,113016
6.815,173550,334,113021
6.820,173567,334,113029
6.825,173570,337,113038
6.830,173564,322,113037
6.835,173582,325,113046
6.840,173594,325,113042
6.845,173585,326,113048
6.850,173604,327,113046
6.855,173608,334,113055
6.860,173628,336,113051
6.865,173633,338,113059
6.870,173643,323,113063
6.875,173657,324,113070
6.880,173658,325,113065
6.885,173659,327,113072
6.890,173653,328,113075
6.895,173674,328,113068
6.900,173637,328,113068
6.905,173633,325,113069
6.910,173614,328,113073
6.914,173598,329,113070
6.919,173582,332,113053
6.924,173567,332,113054
6.929,173546,335,113048
6.934,173527,336,113044
6.939,173496,323,113037
6.944,173475,324,113018
6.949,173475,325,113018
6.954,173463,332,113021
6.959,173444,334,113012
6.964,173436,336,113017
6.969,173412,323,112998
6.974,173410,325,112983
6.979,173409,327,112981
6.984,173387,327,112989
6.989,173375,329,112987
6.994,173365,330,112975
6.999,173368,332,112936
7.004,173364,323,112979
7.009,173345,324,112961
7.014,173358,326,112966
7.019,173340,328,112953
7.024,173326,329,112958
7.029,173316,329,112962
7.034,173306,330,112971
7.039,173299,331,112958
7.044,173290,332,112953
7.049,173320,322,112950
7.054,173288,328,112952
7.059,173295,329,112945
7.063,173283,330,112947
7.068,173284,332,112963
7.073,173280,334,112938
7.078,173268,319,112948
7.083,173272,321,112947
7.088,173290,321,112940
7.093,173272,322,112942
7.098,173266,329,112942
7.103,173279,330,112939
7.108,173274,331,112949
7.113,173295,333,112942
7.118,173296,334,112942
7.123,173287,334,112941
7.128,173279,333,112942
7.133,173278,334,112942
7.138,173295,334,112935
7.143,173302,320,112939
7.148,173295,326,112934
7.153,173297,326,112939
7.158,173305,326,112940
7.163,173305,326,112948
7.168,173292,326,112944
7.173,173304,324,112953
7.178,173298,325,112946
7.183,173284,324,112944
7.188,173288,323,112938
7.193,173295,322,112949
7.198,173301,328,112949
7.203,173304,327,112939
7.208,173301,328,112945
7.213,173315,327,112953
7.217,173310,326,112951
7.222,173307,328,112955
7.227,173310,329,112951
7.232,173322,329,112953
7.237,173328,329,112953
7.242,173323,330,112947
7.247,173338,321,112954
7.252,173344,320,112955
7.257,173337,319,112950
7.262,173345,320,112952
7.267,173354,320,112960
7.272,173375,321,112959
7.277,173371,322,112960
7.282,173373,316,112968
7.287,173366,319,112971
7.292,173388,322,112965
7.297,173379,316,112970
7.302,173393,317,112967
7.307,173379,318,112974
7.312,173396,319,112976
7.317,173419,320,112981
7.322,173404,321,112972
7.327,173412,321,112970
7.332,173413,321,112984
7.337,173416,321,112976
7.342,173432,328,112975
7.347,173433,327,112984
7.352,173453,327,112989
7.357,173452,326,112984
7.362,173455,325,112992
7.366,173460,326,113004
7.371,173470,325,112991
7.376,173483,326,112997
7.381,173491,325,113011
7.386,173493,333,113002
7.391,173500,322,113009
7.396,173504,321,113003
7.401,173510,321,113009
7.406,173520,322,113016
7.411,173541,324,113027
7.416,173553,324,113024
7.421,173555,326,113023
7.426,173574,326,113033
7.431,173580,328,113040
7.436,173570,330,113044
7.441,173601,320,113041
7.446,173599,320,113046
7.451,173593,320,113045
7.456,173622,320,113048
7.461,173629,321,113051
7.466,173643,323,113055
7.471,173658,344,113054
7.476,173663,344,113055
7.481,173671,343,113058
7.486,173681,345,113066
7.491,173700,337,113068
7.496,173696,337,113078
7.501,173711,337,113072
7.506,173715,339,113075
7.511,173724,338,113090
7.515,173720,340,113079
7.520,173715,339,113095
7.525,173709,340,113077
7.530,173699,339,113086
7.535,173683,336,113076
7.540,173658,345,113075
7.545,173639,346,113073
7.550,173606,345,113057
7.555,173593,345,113039
7.560,173556,344,113047
7.565,173557,343,113041
7.570,173538,343,113042
7.575,173512,344,113028
7.580,173512,344,113019
7.585,173485,335,113018
7.590,173471,341,113008
7.595,173438,339,113009
7.600,173431,340,112995
7.605,173424,339,112978
7.610,173399,337,112984
7.615,173389,338,112982
7.620,173377,338,112976
7.625,173363,336,112972
7.630,173374,336,112976
7.635,173365,346,112964
7.640,173344,333,112967
7.645,173335,333,112971
7.650,173330,332,112965
7.655,173330,346,112962
7.660,173302,331,112951
7.664,173311,332,112959
7.669,173298,332,112953
7.674,173286,331,112942
7.679,173278,331,112932
7.684,173273,343,112953
7.689,173282,343,112951
7.694,173258,343,112951
7.699,173260,342,112934
7.704,173258,342,112944
7.709,173246,344,112928
7.714,173251,330,112928
7.719,173241,331,112934
7.724,173248,332,112927
7.729,173241,332,112931
7.734,173246,339,112937
7.739,173235,340,112940
7.744,173240,341,112935
7.749,173259,341,112942
7.754,173253,340,112934
7.759,173258,341,112923
7.764,173262,341,112942
7.769,173260,341,112933
7.774,173280,341,112933
7.779,173270,346,112974
7.784,173276,332,112944
7.789,173271,334,112933
7.794,173282,333,112939
7.799,173269,333,112930
7.804,173270,333,112944
7.809,173262,332,112940
7.813,173264,332,112939
7.818,173277,333,112933
7.823,173258,334,112934
7.828,173261,340,112938
7.833,173278,339,112933
7.838,173304,341,112929
7.843,173272,342,112934
7.848,173282,342,112939
7.853,173273,342,112929
7.858,173281,340,112941
7.863,173287,340,112930
7.868,173288,339,112939
7.873,173296,339,112953
7.878,173299,329,112945
7.883,173309,331,112936
7.888,173317,333,112952
7.893,173314,334,112957
7.898,173304,334,112952
7.903,173345,335,112954
7.908,173328,336,112953
7.913,173349,336,112955
7.918,173337,336,112948
7.923,173338,335,112957
7.928,173354,342,112954
7.933,173356,341,112967
7.938,173371,342,112967
7.943,173370,328,112969
7.948,173375,328,112972
7.953,173386,328,112977
7.958,173399,328,112984
7.963,173393,329,112964
7.967,173399,329,112971
7.972,173424,328,112980
7.977,173404,335,112982
7.982,173417,336,112985
7.987,173433,336,112981
7.992,173450,337,112980
7.997,173444,339,112999
8.002,173458,341,112996
8.007,173463,340,112994
8.012,173469,327,112998
8.017,173469,326,113003
8.022,173480,329,113008
8.027,173485,327,112997
8.032,173500,327,113014
8.037,173515,327,113016
8.042,173515,326,113012
8.047,173523,326,113010
8.052,173528,326,113024
8.057,173543,341,113030
8.062,173536,326,113029
8.067,173566,325,113034
8.072,173568,326,113030
8.077,173568,330,113032
8.082,173581,330,113029
8.087,173572,331,113035
8.092,173594,331,113039
8.097,173601,330,113052
8.102,173627,330,113060
8.107,173607,330,113054
8.112,173624,327,113059
8.116,173626,331,113042
8.121,173652,335,113056
8.126,173663,337,113063
8.131,173680,337,113068
8.136,173677,337,113072
8.141,173687,338,113073
8.146,173686,336,113080
8.151,173691,336,113070
8.156,173708,337,113083
8.161,173667,338,113075
8.166,173682,338,113076
8.171,173664,329,113068
8.176,173647,329,113073
8.181,173615,330,113063
8.186,173608,330,113061
8.191,173576,330,113054
8.196,173563,329,113059
8.201,173534,331,113036
8.206,173512,331,113037
8.211,173504,331,113034
8.216,173481,336,113029
8.221,173465,339,113026
8.226,173456,324,113029
8.231,173435,325,113014
8.236,173434,325,113017
8.241,173409,325,113004
8.246,173401,339,112998
8.251,173383,335,112989
8.256,173367,337,112976
8.261,173362,337,112986
8.265,173366,337,112974
8.270,173360,328,112971
8.275,173352,327,112971
8.280,173350,312,112968
8.285,173312,314,112957
8.290,173329,314,112962
8.295,173292,313,112952
8.300,173270,314,112957
8.305,173284,329,112953
8.310,173273,328,112953
8.315,173280,331,112950
8.320,173259,318,112938
8.325,173246,319,112947
8.330,173244,318,112930
8.335,173250,320,112934
8.340,173238,321,112937
8.345,173226,321,112946
8.350,173226,321,112931
8.355,173223,321,112930
8.360,173223,321,112931
8.365,173220,328,112933
8.370,173232,315,112934
8.375,173222,315,112930
8.380,173230,315,112920
8.385,173211,333,112920
8.390,173226,326,112923
8.395,173229,325,112934
8.400,173243,325,112936
8.405,173220,324,112928
8.410,173229,323,112937
8.414,173245,333,112931
8.419,173245,338,112936
8.424,173234,337,112930
8.429,173247,338,112940
8.434,173228,337,112936
8.439,173245,338,112926
8.444,173236,338,112929
8.449,173243,323,112934
8.454,173242,325,112940
8.459,173258,325,112923
8.464,173248,333,112945
8.469,173244,335,112934
8.474,173240,336,112938
8.479,173239,338,112929
8.484,173239,324,112930
8.489,173236,325,112933
8.494,173245,326,112943
8.499,173260,327,112939
8.504,173259,329,112941
8.509,173260,330,112936
8.514,173258,323,112933
8.519,173264,322,112949
8.524,173273,323,112939
8.529,173257,323,112936
8.534,173271,326,112927
8.539,173267,325,112950
8.544,173273,326,112937
8.549,173279,326,112943
8.554,173306,326,112947
8.559,173304,336,112930
8.563,173310,324,112956
8.568,173307,326,112944
8.573,173300,327,112959
8.578,173321,328,112958
8.583,173320,329,112953
8.588,173335,328,112949
8.593,173346,327,112955
8.598,173343,328,112953
8.603,173348,330,112961
8.608,173357,335,112956
8.613,173359,323,112958
8.618,173372,324,112971
8.623,173371,323,112963
8.628,173391,324,112969
8.633,173398,325,112972
8.638,173390,325,112977
8.643,173425,326,112980
8.648,173421,326,112977
8.653,173428,326,112963
8.658,173436,333,112987
8.663,173432,334,112979
8.668,173455,320,112992
8.673,173464,322,113008
8.678,173452,323,113004
8.683,173492,323,112990
8.688,173487,324,112997
8.693,173495,324,112995
8.698,173506,325,112999
8.703,173510,326,113006
8.708,173524,317,113004
8.713,173533,327,113011
8.717,173531,328,113009
8.722,173562,329,113012
8.727,173550,330,113028
8.732,173573,332,113019
8.737,173577,334,113031
8.742,173572,321,113031
8.747,173589,321,113036
8.752,173590,320,113024
8.757,173606,326,113045
8.762,173633,328,113039
8.767,173622,328,113045
8.772,173635,329,113035
8.777,173648,329,113042
8.782,173670,330,113037
8.787,173674,330,113051
8.792,173673,332,113056
8.797,173677,334,113054
8.802,173653,320,113050
8.807,173677,323,113064
8.812,173649,325,113047
8.817,173627,326,113053
8.822,173610,327,113044
8.827,173582,327,113044
8.832,173573,326,113029
8.837,173545,326,113024
8.842,173512,325,113016
8.847,173497,326,113006
8.852,173474,331,113011
8.857,173460,333,112999
8.862,173442,333,112987
8.866,173432,332,112983
8.871,173396,331,112982
8.876,173402,330,112979
8.881,173386,331,112956
8.886,173378,332,112961
8.891,173362,331,112956
8.896,173357,331,112954
8.901,173322,322,112944
8.906,173336,322,112950
8.911,173316,322,112939
8.916,173310,324,112948
8.921,173307,323,112934
8.926,173288,324,112924
8.931,173284,324,112923
8.936,173271,323,112925
8.941,173257,323,112910
8.946,173256,322,112929
8.951,173258,329,112904
8.956,173258,330,112915
8.961,173237,330,112908
8.966,173243,330,112899
8.971,173221,329,112900
8.976,173224,328,112900
8.981,173208,329,112893
8.986,173197,329,112888
8.991,173196,327,112889
8.996,173206,325,112898
9.001,173205,333,112889
9.006,173196,333,112887
9.011,173186,333,112882
9.015,173197,333,112895
9.020,173207,332,112895
9.025,173200,333,112889
9.030,173205,332,112885
9.035,173208,318,112898
9.040,173209,318,112890
9.045,173227,318,112892
9.050,173211,324,112897
9.055,173221,325,112900
9.060,173206,325,112894
9.065,173207,326,112886
9.070,173212,325,112894
9.075,173215,327,112898
9.080,173204,326,112888
9.085,173222,326,112898
9.090,173211,326,112909
9.095,173230,332,112888
9.100,173202,325,112896
9.105,173221,326,112889
9.110,173211,327,112893
9.115,173217,328,112889
9.120,173233,328,112888
9.125,173208,329,112886
9.130,173217,328,112893
9.135,173225,329,112889
9.140,173238,328,112896
9.145,173227,321,112893
9.150,173231,324,112895
9.155,173229,326,112890
9.160,173244,325,112893
9.164,173253,326,112904
9.169,173267,326,112898
9.174,173258,326,112891
9.179,173277,326,112903
9.184,173267,326,112899
9.189,173263,325,112896
9.194,173278,332,112892
9.199,173289,318,112908
9.204,173283,317,112908
9.209,173285,317,112898
9.214,173298,319,112908
9.219,173315,319,112904
9.224,173315,319,112914
9.229,173322,319,112893
9.234,173330,321,112910
9.239,173333,320,112919
9.244,173342,327,112910
9.249,173333,327,112931
9.254,173359,327,112922
9.259,173378,328,112919
9.264,173371,328,112941
9.269,173375,329,112936
9.274,173392,328,112930
9.279,173405,310,112930
9.284,173396,317,112931
9.289,173428,318,112934
9.294,173422,309,112951
9.299,173436,309,112949
9.304,173441,310,112953
9.309,173445,310,112959
9.313,173462,310,112960
9.318,173460,311,112963
9.323,173475,312,112965
9.328,173485,311,112966
9.333,173484,312,112967
9.338,173507,313,112971
9.343,173516,321,112976
9.348,173537,323,112978
9.353,173540,308,112971
9.358,173548,308,112985
9.363,173558,323,112986
9.368,173555,321,112991
9.373,173571,320,112988
9.378,173581,319,112984
9.383,173587,371,112989
9.388,173607,323,113003
9.393,173607,323,113006
9.398,173624,323,113018
9.403,173637,324,113012
9.408,173639,325,113013
9.413,173647,325,113005
9.418,173649,325,113016
9.423,173661,327,113009
9.428,173648,327,113018
9.433,173634,329,113011
9.438,173631,320,113000
9.443,173615,321,113007
9.448,173583,322,113005
9.453,173567,323,112997
9.458,173557,325,112999
9.463,173521,326,112977
9.467,173512,327,112982
9.472,173487,328,112979
9.477,173479,328,112969
9.482,173456,329,112967
9.487,173422,319,112958
9.492,173416,321,112962
9.497,173413,321,112952
9.502,173412,320,112954
9.507,173392,322,112943
9.512,173369,323,112934
9.517,173381,324,112925
9.522,173359,325,112929
9.527,173367,326,112920
9.532,173347,326,112916
9.537,173318,325,112921
9.542,173341,326,112908
9.547,173314,327,112915
9.552,173304,326,112909
9.557,173307,327,112903
9.562,173289,326,112894
9.567,173286,326,112890
9.572,173283,325,112901
9.577,173284,324,112898
9.582,173266,330,112967
9.587,173274,330,112891
9.592,173261,329,112893
9.597,173261,328,112887
9.602,173258,328,112906
9.607,173256,327,112885
9.612,173258,326,112881
9.616,173253,326,112895
9.621,173257,328,112887
9.626,173260,329,112878
9.631,173233,320,112890
9.636,173270,323,112883
9.641,173283,324,112892
9.646,173266,329,112879
9.651,173266,315,112879
9.656,173272,317,112883
9.661,173295,320,112889
9.666,173285,320,112893
9.671,173295,320,112895
9.676,173283,319,112891
9.681,173294,326,112900
9.686,173284,326,112895
9.691,173292,327,112889
9.696,173293,328,112886
9.701,173299,329,112911
9.706,173290,328,112905
9.711,173294,328,112900
9.716,173292,328,112905
9.721,173286,327,112897
9.726,173306,327,112894
9.731,173306,319,112897
9.736,173307,318,112905
9.741,173313,318,112892
9.746,173311,319,112909
9.751,173326,319,112901
9.756,173336,319,112914
9.761,173334,320,112904
9.765,173329,318,112911
9.770,173318,319,112904
9.775,173314,320,112912
9.780,173328,327,112897
9.785,173349,327,112909
9.790,173360,326,112905
9.795,173360,328,112901
9.800,173368,327,112907
9.805,173356,327,112929
9.810,173372,329,112915
9.815,173380,329,112919
9.820,173378,315,112920
9.825,173388,316,112937
9.830,173416,329,112920
9.835,173408,314,112939
9.840,173412,315,112941
9.845,173414,317,112931
9.850,173430,316,112939
9.855,173427,317,112944
9.860,173443,318,112945
9.865,173423,318,112933
9.870,173448,318,112954
9.875,173415,318,112948
9.880,173471,326,112954
9.885,173457,329,112960
9.890,173468,314,112953
9.895,173485,316,112958
9.900,173494,317,112970
9.905,173503,318,112961
9.910,173498,320,112966
9.914,173518,322,112974
9.919,173520,324,112960
9.924,173533,316,112978
9.929,173551,315,112979
9.934,173550,317,112981
9.939,173566,318,112981
9.944,173566,319,112986
9.949,173570,320,112982
9.954,173588,319,112996
9.959,173599,320,112996
9.964,173603,322,112999
9.969,173603,322,113001
9.974,173601,314,113006
9.979,173628,315,113010
9.984,173628,315,113008
9.989,173645,315,113013
9.994,173649,317,113019
9.999,173677,318,113016
10.004,173663,319,113018
10.009,173699,319,113022
10.014,173706,321,113035
10.019,173706,320,113035
10.024,173705,320,113029
10.029,173714,320,113034
10.034,173713,321,113036
10.039,173705,322,113038
10.044,173706,324,113037
10.049,173703,326,113033
10.054,173685,327,113034
10.059,173668,327,113032
10.063,173644,314,113038
10.068,173627,315,113026
10.073,173599,321,113009
10.078,173600,322,113013
10.083,173562,323,112995
10.088,173554,324,112993
10.093,173534,325,112992
10.098,173520,326,112986
10.103,173504,313,112985
10.108,173492,312,112976
10.113,173463,315,112980
10.118,173464,329,112970
10.123,173462,322,112964
10.128,173442,322,112954
10.133,173447,324,112954
10.138,173410,324,112951
10.143,173409,326,112957
10.148,173412,326,112950
10.153,173412,312,112949
10.158,173398,314,112943
10.163,173389,316,112944
10.168,173402,322,112943
10.173,173401,323,112934
10.178,173383,324,112936
10.183,173380,325,112931
10.188,173376,325,112932
10.193,173369,326,112938
10.198,173353,325,112929
10.203,173351,328,112925
10.208,173347,326,112921
10.213,173337,325,112924
10.217,173384,316,112912
10.222,173341,315,112933
10.227,173347,313,112915
10.232,173333,314,112920
10.237,173350,314,112927
10.242,173359,315,112924
10.247,173361,314,112927
10.252,173353,315,112930
10.257,173368,315,112919
10.262,173377,316,112936
10.267,173373,321,112942
10.272,173380,321,112942
10.277,173392,232,112958
10.282,173393,311,112940
10.287,173383,312,112937
10.292,173380,312,112939
10.297,173389,314,112932
10.302,173391,314,112945
10.307,173381,314,112948
10.312,173387,314,112941
10.317,173373,304,112940
10.322,173404,305,112950
10.327,173401,304,112939
10.332,173377,304,112944
10.337,173391,302,112959
10.342,173385,304,112927
10.347,173394,318,112951
10.352,173404,317,112956
10.357,173401,317,112943
10.362,173398,306,112966
10.366,173415,306,112948
10.371,173406,306,112953
10.376,173400,306,112942
10.381,173416,306,112945
10.386,173409,317,112942
10.391,173422,316,112950
10.396,173416,314,112958
10.401,173440,315,112943
10.406,173423,314,112952
10.411,173410,320,112957
10.416,173453,324,112966
10.421,173441,324,112963
10.426,173468,323,112966
10.431,173461,323,112957
10.436,173476,322,112955
10.441,173474,322,112969
10.446,173471,322,112967
10.451,173484,321,112965
10.456,173492,322,112966
10.461,173486,312,112977
10.466,173513,312,112973
10.471,173501,328,112982
10.476,173504,324,112984
10.481,173527,325,112982
10.486,173527,324,112977
10.491,173535,322,112990
10.496,173535,323,112989
10.501,173555,321,113000
10.506,173546,321,112984
10.511,173579,317,113008
10.515,173572,318,112994
10.520,173578,317,113005
10.525,173588,317,113004
10.530,173601,314,113016
10.535,173608,313,113019
10.540,173607,326,113010
10.545,173616,323,113000
10.550,173630,322,113012
10.555,173645,322,113015
10.560,173652,312,113015
10.565,173641,313,113023
10.570,173662,311,113028
10.575,173669,311,113037
10.580,173675,326,113041
10.585,173676,324,113037
10.590,173687,322,113033
10.595,173703,323,113044
10.600,173703,321,113055
10.605,173704,322,113041
10.610,173727,318,113046
10.615,173751,315,113059
10.620,173744,316,113038
10.625,173744,316,113058
10.630,173768,314,113051
10.635,173764,314,113054
10.640,173758,313,113057
10.645,173769,312,113068
10.650,173762,311,113063
10.655,173773,312,113066
10.660,173734,314,113055
10.664,173705,313,113049
10.669,173703,313,113056
10.674,173688,312,113051
10.679,173648,310,113047
10.684,173638,325,113043
10.689,173605,322,113030
10.694,173592,322,113012
10.699,173573,320,113015
10.704,173559,312,113016
10.709,173528,325,113012
10.714,173529,322,112996
10.719,173522,321,113000
10.724,173496,321,112991
10.729,173493,319,112995
10.734,173479,317,112989
10.739,173447,316,112980
10.744,173458,315,112973
10.749,173433,313,112971
10.754,173423,320,112968
10.759,173414,320,112967
10.764,173407,319,112969
10.769,173412,318,112970
10.774,173397,317,112953
10.779,173383,317,112963
10.784,173378,315,112958
10.789,173382,314,112945
10.794,173377,313,112952
10.799,173354,313,112948
10.804,173374,318,112940
10.809,173355,316,112944
10.813,173354,317,112926
10.818,173350,316,112931
10.823,173339,316,112937
10.828,173327,315,112937
10.833,173324,316,112928
10.838,173327,315,112922
10.843,173311,316,112928
10.848,173310,316,112936
10.853,173301,321,112928
10.858,173325,321,112923
10.863,173313,322,112952
10.868,173308,321,112925
10.873,173345,321,112938
10.878,173333,320,112935
10.883,173335,319,112939
10.888,173327,319,112934
10.893,173336,317,112951
10.898,173329,322,112942
10.903,173352,310,112943
10.908,173354,310,112937
10.913,173341,310,112941
10.918,173347,325,112936
10.923,173341,323,112934
10.928,173334,322,112948
10.933,173333,322,112938
10.938,173346,320,112943
10.943,173341,320,112945
10.948,173334,312,112933
10.953,173340,316,112942
10.958,173352,317,112938
10.963,173333,316,112935
10.967,173332,315,112935
10.972,173348,315,112955
10.977,173333,315,112955
10.982,173345,313,112954
10.987,173349,313,112954
10.992,173355,313,112955
10.997,173346,318,112948
11.002,173353,318,112955
11.007,173366,318,112944
11.012,173369,316,112960
11.017,173366,315,112952
11.022,173381,315,112962
11.027,173368,314,112947
11.032,173376,312,112963
11.037,173386,315,112958
11.042,173403,315,112943
11.047,173397,322,112975
11.052,173411,321,112965
11.057,173407,322,112959
11.062,173412,321,112977
11.067,173436,322,112959
11.072,173433,321,112979
11.077,173457,322,112980
11.082,173455,323,112971
11.087,173465,324,112984
11.092,173484,323,112994
11.097,173473,314,112980
11.102,173492,314,112984
11.107,173492,313,112989
11.112,173510,312,113001
11.116,173501,313,112990
11.121,173520,311,112997
11.126,173531,311,113001
11.131,173538,310,113015
11.136,173541,309,113006
11.141,173550,317,113086
11.146,173557,316,113003
11.151,173574,315,113020
11.156,173568,314,113019
11.161,173575,314,113025
11.166,173604,314,113028
11.171,173609,314,113024
11.176,173612,314,113046
11.181,173618,316,113029
11.186,173632,315,113038
11.191,173655,320,113030
11.196,173634,309,113046
11.201,173645,309,113055
11.206,173667,308,113044
11.211,173671,323,113055
11.216,173697,323,113055
11.221,173687,319,113063
11.226,173701,318,113075
11.231,173713,317,113063
11.236,173734,316,113083
11.241,173726,321,113075
11.246,173732,320,113080
11.251,173760,319,113076
11.256,173761,319,113089
11.261,173763,319,113073
11.265,173745,318,113081
11.270,173751,316,113084
11.275,173744,316,113074
11.280,173728,304,113075
11.285,173707,304,113080
11.290,173683,309,113079
11.295,173664,310,113065
11.300,173631,309,113057
11.305,173629,308,113053
11.310,173585,306,113069
11.315,173569,305,113041
11.320,173562,305,113042
11.325,173537,306,113028
11.330,173514,305,113024
11.335,173494,304,113020
11.340,173498,302,113017
11.345,173481,303,113009
11.350,173449,301,113001
11.355,173432,301,112995
11.360,173421,301,113001
11.365,173427,300,113000
11.370,173408,300,112998
11.375,173400,301,112981
11.380,173383,301,112974
11.385,173384,313,112976
11.390,173371,316,112981
11.395,173366,315,112965
11.400,173346,315,112959
11.405,173342,314,112963
11.410,173324,313,112948
11.414,173319,315,112955
11.419,173320,314,112965
11.424,173329,312,112960
11.429,173300,311,112950
11.434,173311,308,112949
11.439,173297,316,112943
11.444,173281,315,112946
11.449,173290,313,112956
11.454,173276,314,112942
11.459,173262,314,112940
11.464,173273,315,112935
11.469,173262,314,112924
11.474,173290,314,112942
11.479,173278,314,112937
11.484,173269,319,112939
11.489,173281,319,112946
11.494,173277,317,112938
11.499,173295,317,112939
11.504,173282,316,112935
11.509,173283,317,112945
11.514,173302,317,112943
11.519,173298,317,112934
11.524,173280,316,112936
11.529,173297,316,112943
11.534,173278,312,112928
11.539,173293,315,112953
11.544,173294,314,112939
11.549,173313,314,112932
11.554,173298,313,112949
11.559,173299,313,112937
11.563,173304,313,112953
11.568,173300,313,112947
11.573,173305,313,112951
11.578,173314,312,112948
11.583,173305,319,112950
11.588,173310,319,112946
11.593,173308,319,112952
11.598,173304,319,112957
11.603,173306,318,112945
11.608,173316,318,112948
11.613,173325,316,112956
11.618,173324,316,112945
11.623,173338,316,112961
11.628,173329,317,112967
11.633,173338,316,112966
11.638,173342,316,112965
11.643,173341,316,112968
11.648,173338,316,112976
11.653,173364,316,112977
11.658,173355,316,112957
11.663,173367,316,112953
11.668,173372,317,112972
11.673,173397,317,112981
11.678,173380,317,112972
11.683,173411,308,112971
11.688,173405,323,112986
11.693,173418,321,112989
11.698,173419,321,112984
11.703,173415,321,112989
11.708,173426,321,112989
11.713,173446,322,113006
11.717,173439,322,112994
11.722,173444,321,113006
11.727,173455,313,112994
11.732,173455,311,113005
11.737,173472,310,113008
11.742,173468,309,113014
11.747,173497,309,113012
11.752,173499,308,113015
11.757,173497,308,113022
11.762,173527,321,113016
11.767,173537,321,113035
11.772,173535,321,113039
11.777,173536,312,113030
11.782,173552,311,113032
11.787,173561,311,113049
11.792,173579,311,113045
11.797,173577,311,113045
11.802,173598,311,113047
11.807,173594,311,113052
11.812,173611,311,113056
11.817,173631,311,113062
11.822,173635,312,113075
11.827,173642,317,113059
11.832,173646,318,113063
11.837,173667,318,113071
11.842,173678,318,113065
11.847,173686,319,113080
11.852,173687,318,113081
11.857,173683,317,113080
11.862,173700,316,113086
11.866,173728,313,113093
11.871,173752,314,113091
11.876,173752,320,113100
11.881,173750,319,113102
11.886,173761,317,113103
11.891,173751,317,113093
11.896,173758,319,113108
11.901,173746,319,113101
11.906,173720,318,113107
11.911,173723,319,113106
11.916,173702,320,113097
11.921,173689,321,113054
11.926,173640,308,113091
11.931,173621,307,113078
11.936,173589,307,113078
11.941,173579,307,113064
11.946,173562,306,113069
11.951,173551,307,113043
11.956,173518,307,113048
11.961,173496,309,113037
11.966,173486,309,113048
11.971,173514,315,113038
11.976,173454,316,113032
11.981,173453,316,113025
11.986,173430,315,113008
11.991,173427,316,113005
11.996,173401,314,113008
12.001,173390,314,113005
12.006,173381,312,113000
12.011,173370,314,112992
12.015,173361,313,112995
12.020,173367,322,112980
12.025,173357,310,112996
12.030,173347,310,112982
12.035,173344,309,112982
12.040,173332,310,112971
12.045,173316,310,112974
12.050,173319,310,112971
12.055,173296,310,112976
12.060,173308,310,112979
12.065,173302,308,112967
12.070,173294,314,112954
12.075,173279,314,112972
12.080,173274,313,112963
12.085,173273,316,112952
12.090,173288,313,112969
12.095,173270,313,112951
12.100,173269,315,112957
12.105,173271,315,112944
12.110,173286,315,112955
12.115,173287,313,112963
12.120,173281,315,112959
12.125,173283,314,112956
12.130,173290,313,112958
12.135,173310,314,112960
12.140,173315,314,112964
12.145,173309,312,112970
12.150,173319,312,112966
12.155,173303,312,112964
12.160,173303,312,112964
12.164,173305,311,112960
12.169,173308,315,112964
12.174,173320,314,112970
12.179,173301,314,112971
12.184,173302,314,112969
12.189,173317,313,112972
12.194,173314,312,112971
12.199,173310,311,112976
12.204,173300,312,112967
12.209,173323,312,112958
12.214,173343,301,112962
12.219,173324,318,112968
12.224,173321,318,112976
12.229,173327,317,112972
12.234,173319,316,112972
12.239,173325,315,112971
12.244,173341,315,112976
12.249,173330,316,112974
12.254,173343,318,112980
12.259,173339,319,112983
12.264,173354,310,112982
12.269,173360,309,112984
12.274,173346,308,112977
12.279,173381,294,112988
12.284,173372,297,113002
12.289,173372,301,112977
12.294,173373,302,112991
12.299,173381,303,113000
12.304,173402,303,113006
12.309,173408,303,113000
12.313,173414,311,112999
12.318,173417,308,113001
12.323,173425,309,113001
12.328,173420,309,113010
12.333,173424,309,113008
12.338,173437,308,113016
12.343,173466,308,113009
12.348,173446,308,113012
12.353,173468,307,113014
12.358,173471,309,113023
12.363,173474,300,113024
12.368,173483,298,113026
12.373,173497,299,113026
12.378,173493,300,113025
12.383,173496,315,113022
12.388,173487,309,113024
12.393,173493,308,113025
12.398,173496,310,113022
12.403,173511,310,113034
12.408,173504,311,113029
12.413,173499,317,113020
12.418,173521,318,113022
12.423,173521,321,113018
12.428,173528,306,113031
12.433,173524,307,113028
12.438,173527,309,113030
12.443,173531,310,113024
12.448,173537,312,113042
12.453,173550,313,113038
12.458,173549,316,113053
12.463,173559,314,113038
12.467,173577,314,113040
12.472,173575,316,113047
12.477,173576,317,113046
12.482,173583,319,113043
12.487,173601,306,113050
12.492,173600,308,113047
12.497,173613,307,113054
12.502,173644,308,113054
12.507,173645,313,113062
12.512,173639,314,113067
12.517,173645,315,113065
12.522,173656,316,113069
12.527,173652,317,113065
12.532,173651,317,113072
12.537,173677,319,113080
12.542,173637,319,113070
12.547,173618,321,113069
12.552,173620,305,113066
12.557,173588,311,113056
12.562,173567,312,113054
12.567,173548,314,113051
12.572,173521,317,113046
12.577,173519,317,113024
12.582,173489,317,113019
12.587,173476,318,113033
12.592,173470,319,113011
12.597,173420,320,113012
12.602,173420,306,113001
12.607,173411,311,113008
12.612,173412,310,112996
12.616,173377,311,112992
12.621,173376,311,112985
12.626,173356,311,112981
12.631,173351,311,112980
12.636,173351,312,112978
12.641,173353,312,112967
12.646,173322,312,112968
12.651,173321,313,112960
12.656,173308,305,112967
12.661,173313,305,112944
12.666,173309,306,112950
12.671,173296,307,112954
12.676,173281,307,112937
12.681,173292,310,112934
12.686,173293,310,112945
12.691,173279,311,112942
12.696,173279,312,112944
12.701,173270,318,113017
12.706,173262,306,112946
12.711,173271,305,112936
12.716,173279,308,112931
12.721,173262,308,112936
12.726,173265,308,112933
12.731,173263,310,112939
12.736,173274,311,112938
12.741,173269,312,112935
12.746,173288,314,112942
12.751,173266,306,112950
12.756,173278,313,112942
12.761,173274,315,112945
12.765,173277,316,112948
12.770,173280,317,112940
12.775,173304,318,112955
12.780,173304,305,112951
12.785,173295,305,112948
12.790,173297,306,112961
12.795,173282,307,112945
12.800,173307,315,112951
12.805,173315,315,112954
12.810,173310,317,112948
12.815,173298,318,112956
12.820,173307,318,112953
12.825,173293,305,112953
12.830,173317,306,112960
12.835,173325,307,112949
12.840,173319,308,112952
12.845,173334,308,112966
12.850,173329,315,112962
12.855,173336,315,112974
12.860,173329,316,112955
12.865,173348,317,112964
12.870,173349,318,112956
12.875,173350,319,112961
12.880,173361,305,112983
12.885,173378,306,112967
12.890,173380,306,112972
12.895,173391,308,112970
12.900,173385,313,112968
12.905,173378,315,112971
12.910,173387,316,112973
12.914,173393,315,112972
12.919,173402,316,112977
12.924,173414,317,112981
12.929,173408,318,112986
12.934,173426,319,112993
12.939,173429,305,112991
12.944,173441,307,112999
12.949,173455,313,112997
12.954,173463,314,112994
12.959,173455,315,113012
12.964,173495,315,112998
12.969,173481,316,113004
12.974,173498,318,113021
12.979,173477,317,113007
12.984,173501,319,113008
12.989,173503,305,113007
12.994,173514,295,112992
12.999,173527,305,113018
13.004,173537,305,113016
13.009,173561,305,113029
13.014,173562,306,113030
13.019,173585,307,113031
13.024,173586,308,113027
13.029,173589,308,113032
13.034,173597,309,113033
13.039,173589,309,113043
13.044,173622,315,113034
13.049,173624,315,113048
13.054,173629,315,113049
13.059,173652,316,113041
13.063,173660,317,113062
13.068,173643,317,113052
13.073,173671,318,113053
13.078,173671,305,113068
13.083,173685,304,113073
13.088,173700,319,113062
13.093,173717,310,113074
13.098,173707,311,113087
13.103,173748,313,113074
13.108,173760,313,113083
13.113,173749,313,113086
13.118,173765,311,113096
13.123,173746,314,113097
13.128,173785,314,113089
13.133,173789,315,113095
13.138,173779,311,113094
13.143,173779,312,113099
13.148,173773,315,113097
13.153,173775,314,113105
13.158,173759,314,113093
13.163,173745,314,113100
13.168,173717,314,113081
13.173,173702,313,113084
13.178,173682,314,113077
13.183,173663,315,113079
13.188,173643,316,113060
13.193,173622,307,113062
13.198,173595,305,113050
13.203,173599,307,113044
13.208,173575,308,113029
13.213,173560,309,113040
13.217,173539,312,113030
13.222,173541,314,113036
13.227,173518,314,113015
13.232,173532,314,113013
13.237,173508,319,113021
13.242,173508,306,113007
13.247,173504,306,113015
13.252,173509,307,113009
13.257,173488,307,113006
13.262,173472,310,113001
13.267,173466,311,112997
13.272,173468,311,112994
13.277,173479,297,113003
13.282,173455,304,112990
13.287,173461,297,112998
13.292,173463,298,112995
13.297,173463,297,112986
13.302,173458,299,112988
13.307,173455,299,112991
13.312,173456,299,112992
13.317,173460,300,112992
13.322,173449,301,112997
13.327,173465,300,112996
13.332,173451,301,112989
13.337,173454,306,112990
13.342,173464,308,112986
13.347,173476,309,112994
13.352,173470,309,112994
13.357,173475,311,112985
13.362,173488,297,112988
13.366,173497,297,112994
13.371,173475,298,112987
13.376,173505,298,113002
13.381,173403,335,112987
13.386,173488,317,113002
13.391,173497,317,113006
13.396,173507,316,113005
13.401,173492,317,112977
13.406,173490,316,113000
13.411,173490,316,113013
13.416,173516,317,112997
13.421,173501,317,113005
13.426,173512,316,113007
13.431,173511,317,113011
13.436,173511,307,113010
13.441,173534,308,113017
13.446,173521,307,113000
13.451,173542,305,113019
13.456,173526,306,113019
13.461,173530,307,113008
13.466,173534,307,113012
13.471,173543,306,113017
13.476,173549,304,113014
13.481,173547,307,113039
13.486,173552,310,113018
13.491,173548,310,113014
13.496,173553,310,113021
13.501,173570,307,113023
13.506,173564,308,113020
13.511,173568,307,113020
13.515,173578,306,113028
13.520,173581,305,113030
13.525,173609,305,113029
13.530,173619,308,113031
13.535,173611,308,113037
13.540,173626,308,113037
13.545,173625,307,113036
13.550,173629,307,113052
13.555,173640,305,113034
13.560,173643,306,113047
13.565,173660,306,113051
13.570,173643,306,113050
13.575,173655,306,113060
13.580,173670,315,113035
13.585,173670,303,113067
13.590,173685,304,113063
13.595,173702,305,113064
13.600,173702,305,113073
13.605,173701,306,113075
13.610,173725,307,113076
13.615,173729,308,113078
13.620,173725,310,113086
13.625,173733,312,113097
13.630,173740,313,113094
13.635,173755,304,113092
13.640,173764,305,113096
13.645,173795,306,113095
13.650,173799,305,113104
13.655,173806,307,113103
13.660,173808,308,113115
13.664,173813,310,113116
13.669,173844,311,113111
13.674,173851,312,113116
13.679,173862,304,113120
13.684,173857,306,113132
13.689,173876,306,113134
13.694,173892,306,113132
13.699,173902,307,113140
13.704,173902,307,113145
13.709,173922,308,113148
13.714,173932,310,113154
13.719,173949,312,113156
13.724,173949,318,113219
13.729,173961,305,113158
13.734,173969,307,113154
13.739,173975,307,113151
13.744,173976,309,113159
13.749,173969,310,113163
13.754,173962,311,113166
13.759,173940,313,113165
13.764,173920,315,113166
13.769,173913,316,113157
13.774,173859,307,113167
13.779,173875,309,113151
13.784,173861,311,113149
13.789,173843,311,113140
13.794,173810,313,113127
13.799,173804,315,113134
13.804,173785,315,113120
13.809,173768,316,113119
13.813,173768,315,113123
13.818,173746,317,113118
13.823,173728,311,113125
13.828,173734,315,113100
13.833,173703,316,113105
13.838,173712,318,113090
13.843,173704,318,113090
13.848,173677,303,113092
13.853,173691,305,113089
13.858,173673,305,113081
13.863,173666,305,113087
13.868,173669,305,113078
13.873,173662,310,113081
13.878,173661,310,113076
13.883,173654,310,113083
13.888,173660,310,113074
13.893,173647,309,113076
13.898,173648,308,113072
13.903,173634,309,113062
13.908,173633,310,113061
13.913,173611,312,113070
13.918,173643,312,113078
13.923,173622,304,113068
13.928,173620,319,113074
13.933,173633,317,113059
13.938,173637,316,113065
13.943,173636,315,113073
13.948,173628,315,113068
13.953,173640,312,113081
13.958,173639,314,113067
13.963,173648,315,113068
13.967,173665,316,113081
13.972,173666,306,113075
13.977,173651,303,113076
13.982,173658,304,113072
13.987,173678,318,113061
13.992,173671,317,113068
13.997,173661,316,113084
14.002,173664,317,113073
14.007,173673,303,113077
14.012,173680,304,113082
14.017,173653,301,113084
14.022,173671,309,113079
14.027,173678,308,113087
14.032,173678,309,113077
14.037,173671,309,113082
14.042,173674,309,113072
14.047,173671,310,113070
14.052,173697,310,113078
14.057,173689,311,113088
14.062,173687,310,113089
14.067,173701,317,113087
14.072,173711,317,113084
14.077,173692,317,113098
14.082,173690,317,113080
14.087,173708,316,113082
14.092,173708,316,113087
14.097,173696,316,113063
14.102,173720,316,113092
14.107,173722,315,113092
14.112,173712,316,113095
14.116,173743,307,113093
14.121,173737,307,113102
14.126,173745,306,113098
14.131,173747,307,113096
14.136,173746,306,113097
14.141,173758,308,113099
14.146,173760,307,113091
14.151,173781,308,113116
14.156,173788,306,113110
14.161,173787,308,113101
14.166,173792,312,113117
14.171,173821,312,113117
14.176,173814,309,113119
14.181,173826,309,113109
14.186,173827,308,113114
14.191,173842,307,113116
14.196,173847,305,113131
14.201,173850,304,113116
14.206,173854,304,113125
14.211,173865,302,113135
14.216,173870,307,113129
14.221,173881,308,113147
14.226,173900,307,113146
14.231,173905,306,113150
14.236,173913,307,113155
14.241,173899,306,113147
14.246,173915,306,113150
14.251,173930,306,113141
14.256,173942,305,113147
14.261,173950,303,113127
14.265,173974,304,113161
14.270,173963,304,113169
14.275,173969,210,113177
14.280,173984,307,113172
14.285,173993,307,113180
14.290,174007,307,113181
14.295,174020,308,113178
14.300,174038,294,113188
14.305,174031,295,113188
14.310,174043,302,113203
14.315,174047,295,113194
14.320,174056,296,113193
14.325,174067,295,113204
14.330,174070,295,113204
14.335,174078,294,113207
14.340,174066,310,113198
14.345,174046,309,113190
14.350,174053,308,113199
14.355,174022,308,113200
14.360,174006,298,113191
14.365,173969,299,113189
14.370,173965,298,113191
14.375,173932,300,113145
14.380,173924,301,113171
14.385,173895,312,113168
14.390,173884,309,113154
14.395,173875,309,113148
14.400,173845,309,113143
14.405,173849,308,113142
14.410,173828,313,113135
14.414,173815,314,113130
14.419,173800,314,113124
14.424,173786,315,113116
14.429,173781,313,113114
14.434,173773,313,113117
14.439,173760,313,113098
14.444,173759,313,113113
14.449,173742,314,113102
14.454,173742,315,113094
14.459,173729,305,113090
14.464,173708,306,113094
14.469,173723,305,113086
14.474,173700,306,113089
14.479,173695,307,113085
14.484,173692,308,113071
14.489,173674,306,113081
14.494,173672,306,113084
14.499,173672,304,113075
14.504,173674,310,113116
14.509,173654,303,113074
14.514,173664,302,113069
14.519,173651,302,113056
14.524,173654,302,113062
14.529,173655,301,113076
14.534,173649,302,113059
14.539,173642,302,113070
14.544,173651,303,113077
14.549,173661,302,113070
14.554,173642,308,113074
14.559,173672,315,113069
14.563,173679,314,113062
14.568,173679,314,113070
14.573,173683,315,113058
14.578,173682,315,113083
14.583,173676,316,113068
14.588,173690,302,113074
14.593,173680,303,113067
14.598,173685,303,113077
14.603,173689,308,113065
14.608,173668,308,113072
14.613,173687,309,113075
14.618,173684,307,113068
14.623,173684,307,113071
14.628,173678,309,113069
14.633,173668,309,113075
14.638,173700,310,113060
14.643,173678,310,113071
14.648,173688,307,113077
14.653,173692,315,113074
14.658,173707,316,113067
14.663,173698,301,113068
14.668,173693,302,113083
14.673,173699,303,113084
14.678,173709,304,113073
14.683,173704,302,113070
14.688,173706,305,113075
14.693,173708,303,113087
14.698,173709,304,113083
14.703,173728,301,113077
14.708,173729,301,113080
14.713,173739,301,113079
14.717,173753,302,113101
14.722,173754,303,113089
14.727,173750,302,113099
14.732,173773,302,113082
14.737,173756,301,113092
14.742,173766,316,113095
14.747,173783,316,113094
14.752,173764,305,113093
14.757,173783,305,113103
14.762,173783,303,113105
14.767,173803,304,113097
14.772,173806,305,113112
14.777,173822,303,113100
14.782,173828,303,113113
14.787,173834,302,113113
14.792,173837,303,113130
14.797,173846,307,113159
14.802,173857,314,113124
14.807,173864,313,113121
14.812,173860,313,113124
14.817,173879,312,113112
14.822,173888,312,113131
14.827,173902,311,113142
14.832,173906,311,113130
14.837,173921,310,113143
14.842,173925,310,113143
14.847,173914,301,113153
14.852,173944,301,113143
14.857,173942,316,113147
14.862,173966,315,113150
14.866,173966,315,113162
14.871,173970,315,113161
14.876,173987,314,113160
14.881,174003,316,113161
14.886,174007,301,113179
14.891,174026,303,113173
14.896,174012,308,113169
14.901,174031,310,113175
14.906,174024,309,113184
14.911,174055,310,113179
14.916,174068,310,113196
14.921,174070,313,113179
14.926,174057,313,113194
14.931,174064,315,113208
14.936,174041,314,113187
14.941,174032,317,113189
14.946,174032,314,113183
14.951,174002,314,113182
14.956,173984,315,113178
14.961,173952,301,113173
14.966,173924,301,113162
14.971,173917,303,113167
14.976,173894,303,113156
14.981,173864,304,113145
14.986,173845,303,113146
14.991,173829,304,113139
14.996,173802,310,113134
15.001,173799,311,113134
15.006,173791,311,113117
15.011,173777,311,113108
15.015,173763,311,113106
15.020,173743,313,113107
15.025,173736,314,113105
15.030,173725,314,113087
15.035,173713,318,113090
15.040,173724,301,113091
15.045,173710,306,113079
15.050,173694,306,113080
15.055,173675,306,113065
15.060,173693,306,113068
15.065,173665,306,113077
15.070,173652,307,113069
15.075,173650,307,113068
15.080,173645,309,113058
15.085,173636,310,113054
15.090,173629,304,113056
15.095,173617,308,113055
15.100,173620,309,113048
15.105,173605,309,113052
15.110,173606,307,113048
15.115,173606,308,113033
15.120,173590,309,113037
15.125,173594,309,113048
15.130,173605,310,113046
15.135,173569,309,113043
15.140,173601,301,113038
15.145,173584,301,113049
15.150,173593,302,113055
15.155,173601,302,113042
15.160,173602,302,113046
15.164,173605,303,113032
15.169,173603,302,113035
15.174,173632,301,113038
15.179,173609,301,113046
15.184,173613,302,113037
15.189,173603,307,113045
15.194,173610,308,113043
15.199,173613,308,113053
15.204,173616,307,113058
15.209,173612,309,113034
15.214,173611,311,113046
15.219,173618,312,113052
15.224,173598,311,113037
15.229,173614,311,113041
15.234,173617,311,113044
15.239,173617,302,113041
15.244,173624,303,113049
15.249,173637,303,113054
15.254,173623,304,113035
15.259,173642,304,113043
15.264,173648,304,113055
15.269,173626,305,113048
15.274,173641,305,113048
15.279,173654,298,113047
15.284,173663,305,113030
15.289,173656,294,113057
15.294,173654,296,113066
15.299,173671,297,113058
15.304,173686,298,113062
15.309,173669,299,113070
15.313,173685,299,113065
15.318,173688,300,113060
15.323,173681,300,113070
15.328,173698,302,113059
15.333,173721,308,113071
15.338,173703,293,113071
15.343,173734,295,113080
15.348,173712,295,113084
15.353,173720,296,113083
15.358,173739,298,113078
15.363,173746,300,113088
15.368,173746,300,113080
15.373,173756,300,113094
15.378,173764,302,113089
15.383,173763,308,113088
15.388,173770,311,113092
15.393,173782,310,113083
15.398,173779,309,113095
15.403,173801,309,113106
15.408,173801,310,113104
15.413,173820,310,113117
15.418,173809,310,113113
15.423,173832,311,113105
15.428,173853,313,113108
15.433,173848,305,113114
15.438,173856,308,113125
15.443,173892,309,113115
15.448,173884,310,113138
15.453,173890,311,113122
15.458,173903,311,113137
15.463,173909,312,113130
15.467,173915,310,113138
15.472,173945,311,113141
15.477,173960,312,113157
15.482,173951,303,113164
15.487,173955,303,113172
15.492,173960,303,113154
15.497,173974,303,113164
15.502,174008,304,113165
15.507,174013,304,113162
15.512,174010,305,113173
15.517,174033,306,113171
15.522,174026,308,113176
15.527,174020,310,113156
15.532,174028,301,113179
15.537,174026,301,113178
15.542,174012,302,113173
15.547,174004,301,113175
15.552,173988,301,113167
15.557,173982,303,113169
15.562,173951,304,113159
15.567,173922,303,113155
15.572,173907,305,113155
15.577,173940,309,113146
15.582,173871,312,113139
15.587,173852,314,113128
15.592,173833,300,113136
15.597,173808,301,113125
15.602,173795,302,113113
15.607,173788,302,113116
15.612,173759,304,113100
15.616,173738,305,113107
15.621,173732,304,113097
15.626,173723,313,113083
15.631,173708,313,113087
15.636,173694,312,113078
15.641,173679,313,113067
15.646,173664,314,113063
15.651,173671,300,113060
15.656,173661,300,113068
15.661,173658,301,113051
15.666,173657,301,113047
15.671,173638,301,113053
15.676,173637,312,113081
15.681,173614,305,113044
15.686,173613,304,113039
15.691,173609,304,113039
15.696,173607,305,113028
15.701,173602,304,113027
15.706,173582,303,113030
15.711,173561,304,113033
15.716,173573,303,113034
15.721,173570,302,113026
15.726,173552,310,113025
15.731,173552,309,113033
15.736,173561,309,113026
15.741,173554,311,113018
15.746,173545,311,113019
15.751,173561,310,113017
15.756,173538,309,113023
15.761,173560,309,113033
15.765,173574,312,113002
15.770,173559,314,113020
15.775,173572,304,113024
15.780,173564,305,113021
15.785,173561,305,113025
15.790,173579,304,113017
15.795,173574,304,113023
15.800,173585,305,113030
15.805,173584,304,113024
15.810,173585,303,113032
15.815,173582,304,113020
15.820,173579,294,113031
15.825,173579,311,113023
15.830,173586,311,113017
15.835,173587,313,113020
15.840,173585,313,113031
15.845,173594,312,113027
15.850,173591,313,113033
15.855,173605,314,113026
15.860,173587,300,113031
15.865,173597,300,113035
15.870,173599,306,113022
15.875,173598,306,113030
15.880,173622,307,113031
15.885,173619,307,113034
15.890,173625,309,113033
15.895,173634,309,113033
15.900,173639,309,113041
15.905,173635,311,113044
15.910,173641,312,113039
15.914,173646,312,113035
15.919,173643,302,113041
15.924,173660,303,113050
15.929,173655,303,113040
15.934,173667,303,113048
15.939,173674,303,113050
15.944,173696,302,113049
15.949,173687,301,113052
15.954,173718,301,113061
15.959,173702,302,113066
15.964,173721,302,113066
15.969,173714,314,113060
15.974,173722,314,113066
15.979,173731,313,113075
15.984,173753,312,113068
15.989,173761,311,113064
15.994,173763,309,113074
15.999,173783,307,113086
16.004,173780,306,113077
16.009,173776,307,113082
16.014,173785,305,113086
16.019,173798,312,113087
16.024,173798,311,113079
16.029,173805,311,113091
16.034,173829,311,113094
16.039,173830,309,113103
16.044,173835,310,113098
16.049,173852,310,113105
16.054,173855,310,113110
16.059,173862,309,113101
16.063,173869,317,113120
16.068,173879,310,113115
16.073,173885,309,113116
16.078,173901,309,113124
16.083,173904,308,113126
16.088,173913,308,113125
16.093,173913,307,113120
16.098,173930,307,113135
16.103,173933,305,113143
16.108,173955,304,113140
16.113,173954,310,113149
16.118,173976,311,113138
16.123,173985,309,113144
16.128,174002,307,113144
16.133,174016,306,113147
16.138,174017,306,113162
16.143,174025,307,113155
16.148,174016,307,113171
16.153,174026,307,113157
16.158,174024,307,113160
16.163,173992,314,113166
16.168,173987,299,113164
16.173,173978,299,113145
16.178,173952,298,113153
16.183,173925,299,113133
16.188,173908,299,113141
16.193,173896,314,113127
16.198,173860,313,113124
16.203,173856,311,113111
16.208,173831,311,113109
16.213,173812,301,113113
16.217,173805,302,113108
16.222,173787,301,113094
16.227,173769,302,113094
16.232,173758,302,113091
16.237,173736,301,113075
16.242,173718,301,113076
16.247,173734,299,113071
16.252,173714,299,113059
16.257,173710,314,113070
16.262,173702,303,113070
16.267,173691,303,113054
16.272,173671,302,113046
16.277,173670,290,113047
16.282,173674,293,113047
16.287,173658,292,113038
16.292,173662,292,113041
16.297,173642,291,113050
16.302,173638,304,113034
16.307,173646,305,113021
16.312,173631,295,113032
16.317,173628,294,113043
16.322,173642,296,113040
16.327,173615,296,113047
16.332,173626,296,113021
16.337,173604,296,113034
16.342,173623,298,113025
16.347,173597,297,113029
16.352,173607,299,113013
16.357,173662,303,113034
16.362,173633,307,113024
16.366,173616,306,113033
16.371,173635,292,113041
16.376,173632,292,113029
16.381,173634,306,113025
16.386,173660,302,113035
16.391,173659,302,113033
16.396,173666,302,113024
16.401,173648,303,113032
16.406,173660,310,113027
16.411,173657,308,113042
16.416,173648,308,113035
16.421,173653,309,113029
16.426,173659,309,113032
16.431,173672,309,113044
16.436,173649,308,113028
16.441,173652,309,113034
16.446,173665,308,113036
16.451,173659,308,113037
16.456,173665,299,113037
16.461,173663,299,113037
16.466,173662,300,113037
16.471,173672,300,113030
16.476,173667,300,113050
16.481,173665,300,113035
16.486,173673,314,113039
16.491,173686,313,113038
16.496,173683,313,113035
16.501,173702,307,113045
16.506,173689,308,113043
16.511,173692,308,113050
16.515,173714,309,113048
16.520,173722,308,113045
16.525,173719,308,113056
16.530,173711,307,113049
16.535,173730,307,113053
16.540,173726,308,113042
16.545,173748,307,113056
16.550,173766,306,113061
16.555,173767,303,113055
16.560,173770,302,113061
16.565,173767,302,113061
16.570,173787,300,113072
16.575,173780,301,113078
16.580,173795,301,113060
16.585,173792,302,113075
16.590,173793,302,113073
16.595,173825,301,113077
16.600,173808,312,113073
16.605,173822,302,113072
16.610,173828,302,113091
16.615,173833,302,113083
16.620,173837,302,113085
16.625,173843,302,113080
16.630,173842,302,113090
16.635,173864,304,113102
16.640,173887,305,113098
16.645,173894,306,113101
16.650,173906,312,113097
16.655,173895,313,113106
16.660,173917,299,113101
16.664,173926,298,113116
16.669,173929,299,113123
16.674,173940,299,113125
16.679,173956,299,113119
16.684,173969,300,113119
16.689,173993,299,113126
16.694,173981,300,113132
16.699,173992,305,113129
16.704,173994,305,113134
16.709,173998,304,113135
16.714,174005,304,113141
16.719,174025,304,113138
16.724,174035,304,113146
16.729,174054,303,113137
16.734,174051,302,113152
16.739,174078,305,113164
16.744,174069,305,113159
16.749,174055,304,113154
16.754,174057,304,113160
16.759,174073,305,113149
16.764,174079,304,113165
16.769,174053,305,113144
16.774,174051,306,113161
16.779,174021,305,113144
16.784,174005,306,113139
16.789,173991,305,113143
16.794,173963,307,113131
16.799,173935,300,113134
16.804,173940,300,113119
16.809,173913,300,113123
16.813,173898,301,113113
16.818,173884,301,113105
16.823,173872,300,113104
16.828,173858,303,113103
16.833,173831,303,113093
16.838,173831,304,113095
16.843,173843,309,113104
16.848,173827,313,113084
16.853,173820,299,113088
16.858,173798,300,113077
16.863,173812,301,113075
16.868,173791,302,113072
16.873,173791,301,113078
16.878,173777,306,113042
16.883,173773,308,113041
16.888,173779,310,113062
16.893,173762,300,113052
16.898,173763,306,113046
16.903,173762,307,113057
16.908,173745,310,113048
16.913,173750,314,113048
16.918,173761,299,113055
16.923,173750,299,113057
16.928,173745,299,113048
16.933,173756,299,113052
16.938,173744,299,113045
16.943,173742,305,113028
16.948,173750,305,113045
16.953,173755,305,113044
16.958,173744,305,113055
16.963,173764,306,113058
16.967,173766,305,113058
16.972,173770,304,113059
16.977,173778,304,113053
16.982,173779,302,113059
16.987,173780,302,113078
16.992,173798,307,113055
16.997,173783,307,113048
17.002,173800,305,113058
17.007,173805,304,113067
17.012,173808,302,113058
17.017,173797,303,113057
17.022,173812,303,113054
17.027,173806,302,113056
17.032,173790,302,113067
17.037,173786,301,113068
17.042,173805,306,113066
17.047,173799,305,113065
17.052,173823,304,113075
17.057,173805,302,113062
17.062,173831,303,113063
17.067,173802,301,113068
17.072,173833,299,113069
17.077,173835,298,113077
17.082,173838,312,113062
17.087,173836,299,113049
17.092,173826,301,113071
17.097,173848,300,113071
17.102,173859,301,113072
17.107,173857,300,113074
17.112,173860,300,113071
17.116,173878,300,113071
17.121,173877,301,113085
17.126,173874,300,113082
17.131,173889,300,113089
17.136,173937,303,113083
17.141,173892,305,113084
17.146,173898,304,113087
17.151,173909,303,113099
17.156,173919,303,113092
17.161,173940,305,113093
17.166,173927,304,113101
17.171,173943,304,113113
17.176,173964,304,113121
17.181,173969,305,113110
17.186,173964,299,113112
17.191,173988,303,113120
17.196,173972,303,113125
17.201,173992,304,113129
17.206,174013,303,113134
17.211,174003,305,113130
17.216,174003,304,113130
17.221,174021,305,113136
17.226,174051,307,113130
17.231,174049,307,113139
17.236,174050,298,113142
17.241,174061,299,113151
17.246,174081,299,113149
17.251,174080,301,113160
17.256,174100,301,113150
17.261,174099,303,113163
17.265,174122,302,113161
17.270,174116,301,113167
17.275,174144,288,113164
17.280,174143,291,113166
17.285,174145,300,113175
17.290,174149,302,113169
17.295,174155,302,113187
17.300,174176,302,113182
17.305,174192,302,113187
17.310,174178,302,113184
17.315,174201,304,113182
17.320,174214,304,113195
17.325,174218,304,113199
17.330,174225,304,113203
17.335,174228,296,113199
17.340,174247,296,113216
17.345,174242,297,113206
17.350,174248,297,113205
17.355,174231,298,113204
17.360,174217,298,113202
17.365,174205,299,113198
17.370,174183,298,113211
17.375,174157,297,113198
17.380,174145,325,113190
17.385,174124,314,113194
17.390,174128,299,113178
17.395,174096,298,113177
17.400,174081,299,113170
17.405,174076,299,113170
17.410,174070,299,113176
17.414,174052,299,113153
17.419,174031,300,113161
17.424,174021,299,113131
17.429,174035,305,113146
17.434,174001,303,113152
17.439,173993,304,113138
17.444,174002,304,113136
17.449,173989,304,113134
17.454,173962,304,113121
17.459,173966,304,113126
17.464,173967,303,113138
17.469,173963,303,113123
17.474,173962,303,113129
17.479,173961,292,113124
17.484,173963,300,113131
17.489,173959,300,113112
17.494,173940,300,113120
17.499,173951,299,113120
17.504,173938,299,113116
17.509,173928,299,113122
17.514,173919,300,113113
17.519,173929,301,113113
17.524,173928,301,113116
17.529,173935,299,113114
17.534,173927,300,113110
17.539,173943,300,113108
17.544,173932,301,113104
17.549,173926,301,113108
17.554,173932,301,113114
17.559,173940,300,113110
17.563,173941,300,113112
17.568,173955,299,113122
17.573,173965,300,113118
17.578,173963,298,113121
17.583,173964,298,113114
17.588,173970,297,113115
17.593,173965,312,113120
17.598,173979,311,113121
17.603,173966,310,113120
17.608,173971,310,113111
17.613,173977,310,113119
17.618,173960,310,113112
17.623,173970,295,113117
17.628,173963,300,113127
17.633,173963,301,113127
17.638,173980,301,113142
17.643,173976,301,113122
17.648,173989,302,113122
17.653,173992,302,113141
17.658,173991,302,113124
17.663,173982,302,113124
17.668,173998,302,113129
17.673,173999,308,113131
17.678,173996,308,113142
17.683,173993,309,113126
17.688,174002,308,113129
17.693,174011,308,113136
17.698,174011,307,113131
17.703,174016,308,113139
17.708,174016,306,113136
17.713,174008,307,113135
17.717,174026,306,113144
17.722,174033,298,113137
17.727,174055,297,113149
17.732,174055,298,113150
17.737,174056,298,113143
17.742,174073,298,113160
17.747,174064,299,113155
17.752,174088,299,113155
17.757,174075,298,113148
17.762,174075,297,113152
17.767,174097,311,113168
17.772,174097,305,113162
17.777,174117,304,113175
17.782,174114,305,113167
17.787,174141,304,113170
17.792,174125,305,113165
17.797,174136,305,113182
17.802,174152,306,113179
17.807,174155,305,113182
17.812,174176,304,113184
17.817,174160,304,113181
17.822,174179,312,113181
17.827,174186,311,113183
17.832,174181,310,113191
17.837,174201,310,113188
17.842,174215,309,113198
17.847,174225,308,113202
17.852,174246,310,113209
17.857,174241,310,113209
17.862,174243,310,113218
17.866,174242,312,113208
17.871,174253,310,113208
17.876,174276,311,113222
17.881,174287,312,113218
17.886,174310,298,113232
17.891,174303,298,113235
17.896,174313,313,113221
17.901,174338,311,113225
17.906,174340,298,113235
17.911,174351,298,113240
17.916,174303,304,113259
17.921,174348,304,113245
17.926,174357,305,113237
17.931,174374,305,113246
17.936,174355,306,113240
17.941,174348,306,113255
17.946,174325,306,113242
17.951,174308,307,113244
17.956,174282,307,113237
17.961,174272,307,113225
17.966,174263,298,113214
17.971,174221,298,113211
17.976,174207,297,113213
17.981,174208,311,113210
17.986,174180,310,113219
17.991,174166,297,113187
17.996,174160,299,113192
18.001,174133,299,113190
18.006,174127,300,113187
18.011,174119,299,113181
18.015,174114,305,113183
18.020,174088,304,113175
18.025,174080,305,113162
18.030,174067,305,113166
18.035,174064,305,113156
18.040,174057,303,113155
18.045,174078,304,113149
18.050,174034,302,113162
18.055,174040,302,113145
18.060,174023,300,113140
18.065,174015,299,113151
18.070,174026,299,113153
18.075,174025,299,113143
18.080,174003,299,113143
18.085,173992,298,113126
18.090,174004,298,113130
18.095,174010,299,113142
18.100,173982,298,113130
18.105,173995,298,113123
18.110,173986,299,113137
18.115,173973,303,113133
18.120,173975,302,113134
18.125,173989,302,113133
18.130,173965,303,113144
18.135,173974,304,113124
18.140,173958,305,113126
18.145,173977,307,113119
18.150,173987,307,113119
18.155,173979,306,113127
18.160,173986,306,113127
18.164,173999,297,113136
18.169,174003,298,113146
18.174,173998,297,113150
18.179,173993,312,113123
18.184,173992,311,113137
18.189,174006,310,113128
18.194,174005,309,113129
18.199,174010,308,113137
18.204,174008,308,113134
18.209,174003,299,113136
18.214,173994,299,113139
18.219,174012,299,113137
18.224,174006,299,113148
18.229,174002,298,113132
18.234,174003,297,113145
18.239,174019,312,113135
18.244,173993,311,113139
18.249,174031,298,113135
18.254,174018,298,113141
18.259,174032,303,113143
18.264,174028,302,113152
18.269,174020,302,113147
18.274,174076,260,113162
18.279,174048,290,113148
18.284,174040,304,113150
18.289,174044,303,113147
18.294,174035,302,113157
18.299,174063,301,113149
18.304,174064,302,113158
18.309,174052,298,113146
18.313,174075,298,113157
18.318,174086,298,113148
18.323,174094,297,113155
18.328,174098,296,113161
18.333,174093,296,113164
18.338,174105,295,113173
18.343,174104,294,113166
18.348,174117,294,113164
18.353,174116,293,113170
18.358,174129,298,113173
18.363,174145,296,113170
18.368,174143,295,113170
18.373,174149,295,113189
18.378,174179,295,113182
18.383,174177,302,113181
18.388,174159,301,113183
18.393,174181,300,113180
18.398,174177,299,113184
18.403,174188,297,113177
18.408,174210,302,113185
18.413,174206,302,113198
18.418,174211,301,113196
18.423,174230,299,113195
18.428,174228,299,113201
18.433,174234,298,113199
18.438,174255,298,113213
18.443,174261,297,113203
18.448,174274,311,113208
18.453,174263,302,113214
18.458,174272,302,113219
18.463,174298,302,113222
18.467,174300,301,113219
18.472,174302,301,113236
18.477,174324,301,113231
18.482,174326,300,113233
18.487,174343,299,113224
18.492,174352,299,113234
18.497,174358,297,113237
18.502,174361,301,113241
18.507,174379,301,113237
18.512,174368,300,113239
18.517,174381,299,113235
18.522,174363,298,113236
18.527,174365,297,113244
18.532,174347,298,113242
18.537,174348,297,113245
18.542,174316,311,113245
18.547,174296,311,113233
18.552,174279,302,113223
18.557,174245,300,113214
18.562,174228,301,113204
18.567,174219,300,113199
18.572,174205,301,113196
18.577,174182,302,113202
18.582,174159,304,113192
18.587,174138,304,113171
18.592,174108,305,113169
18.597,174098,306,113167
18.602,174104,297,113165
18.607,174082,298,113151
18.612,174071,299,113153
18.616,174048,299,113141
18.621,174060,301,113133
18.626,174044,303,113144
18.631,174034,304,113132
18.636,174030,306,113131
18.641,174024,309,113132
18.646,174019,298,113140
18.651,173993,303,113119
18.656,174004,302,113120
18.661,173987,303,113124
18.666,173987,302,113118
18.671,173954,302,113114
18.676,173973,302,113118
18.681,173968,301,113114
18.686,173957,302,113114
18.691,173960,301,113118
18.696,173974,309,113133
18.701,173934,303,113101
18.706,173922,303,113102
18.711,173945,305,113098
18.716,173926,306,113100
18.721,173940,307,113096
18.726,173947,307,113101
18.731,173937,307,113096
18.736,173946,306,113101
18.741,173940,306,113092
18.746,173943,300,113111
18.751,173936,303,113110
18.756,173948,304,113101
18.761,173971,305,113102
18.765,173945,304,113096
18.770,173969,304,113103
18.775,173969,305,113114
18.780,173955,306,113117
18.785,173967,306,113107
18.790,173970,306,113105
18.795,173971,297,113108
18.800,173976,299,113108
18.805,173964,299,113108
18.810,173976,299,113102
18.815,173969,300,113102
18.820,173975,299,113120
18.825,173982,301,113116
18.830,173984,301,113117
18.835,173979,301,113113
18.840,173976,302,113114
18.845,173983,307,113115
18.850,173984,306,113117
18.855,174003,305,113106
18.860,173987,304,113103
18.865,173989,303,113114
18.870,173975,303,113114
18.875,174013,301,113109
18.880,174011,302,113114
18.885,174015,302,113121
18.890,174016,303,113113
18.895,174023,309,113120
18.900,174030,309,113129
18.905,174018,310,113119
18.910,174026,309,113121
18.914,174026,309,113134
18.919,174046,308,113126
18.924,174054,308,113119
18.929,174061,307,113122
18.934,174059,306,113130
18.939,174089,299,113130
18.944,174081,298,113126
18.949,174073,297,113136
18.954,174083,297,113135
18.959,174100,296,113158
18.964,174108,297,113150
18.969,174110,297,113142
18.974,174111,297,113164
18.979,174132,310,113147
18.984,174143,309,113156
18.989,174153,301,113186
18.994,174150,302,113163
18.999,174146,303,113166
19.004,174176,302,113174
19.009,174180,301,113174
19.014,174204,300,113172
19.019,174183,300,113170
19.024,174211,300,113178
19.029,174214,299,113177
19.034,174222,300,113188
19.039,174226,306,113180
19.044,174230,306,113180
19.049,174231,305,113189
19.054,174233,305,113180
19.059,174265,305,113192
19.063,174242,306,113201
19.068,174280,305,113194
19.073,174276,307,113191
19.078,174287,308,113204
19.083,174301,308,113198
19.088,174295,299,113211
19.093,174311,301,113218
19.098,174314,299,113234
19.103,174343,302,113222
19.108,174345,301,113231
19.113,174359,303,113232
19.118,174376,304,113240
19.123,174377,304,113236
19.128,174384,302,113234
19.133,174385,301,113237
19.138,174386,306,113233
19.143,174379,305,113236
19.148,174392,304,113241
19.153,174360,303,113247
19.158,174354,303,113238
19.163,174325,302,113230
19.168,174310,302,113217
19.173,174282,302,113207
19.178,174253,301,113206
19.183,174226,303,113198
19.188,174222,308,113193
19.193,174223,306,113195
19.198,174197,306,113196
19.203,174169,307,113189
19.208,174164,307,113177
19.213,174146,308,113170
19.217,174136,308,113161
19.222,174134,308,113155
19.227,174104,307,113147
19.232,174106,297,113157
19.237,174097,299,113154
19.242,174072,299,113138
19.247,174078,298,113143
19.252,174061,298,113135
19.257,174063,298,113131
19.262,174050,299,113117
19.267,174058,298,113117
19.272,174014,298,113122
19.277,174034,288,113116
19.282,174011,295,113119
19.287,174015,294,113115
19.292,174010,293,113105
19.297,174019,292,113106
19.302,174001,292,113109
19.307,173983,292,113103
19.312,173981,294,113104
19.317,173983,295,113093
19.322,173977,296,113096
19.327,173957,297,113124
19.332,173952,304,113094
19.337,173967,289,113094
19.342,173956,291,113087
19.347,173958,289,113085
19.352,173950,289,113073
19.357,173951,304,113076
19.362,173962,303,113083
19.366,173966,304,113075
19.371,173964,304,113086
19.376,173973,289,113083
19.381,173979,295,113089
19.386,173964,295,113091
19.391,173971,304,113084
19.396,173986,302,113083
19.401,173981,302,113089
19.406,173968,301,113092
19.411,173992,301,113094
19.416,173991,301,113085
19.421,173978,301,113087
19.426,173976,304,113089
19.431,173973,306,113085
19.436,173976,305,113076
19.441,173964,306,113086
19.446,173980,305,113099
19.451,173979,304,113087
19.456,173966,303,113096
19.461,173985,301,113087
19.466,173996,300,113093
19.471,173997,298,113095
19.476,174019,303,113087
19.481,173997,296,113097
19.486,174001,310,113099
19.491,174010,310,113090
19.496,174003,309,113092
19.501,174023,308,113099
19.506,174020,306,113090
19.511,174012,304,113100
19.515,174029,303,113107
19.520,174037,304,113099
19.525,174044,311,113097
19.530,174039,311,113109
19.535,174049,310,113099
19.540,174065,310,113103
19.545,174058,310,113106
19.550,174056,311,113110
19.555,174068,310,113117
19.560,174069,310,113109
19.565,174082,311,113118
19.570,174089,295,113116
19.575,174101,307,113127
19.580,174112,310,113121
19.585,174115,310,113120
19.590,174124,309,113130
19.595,174128,309,113132
19.600,174158,309,113135
19.605,174150,306,113139
19.610,174155,304,113144
19.615,174163,303,113151
19.620,174170,302,113140
19.625,174177,307,113135
19.630,174179,307,113141
19.635,174172,307,113140
19.640,174192,307,113152
19.645,174198,307,113141
19.650,174207,307,113142
19.655,174211,306,113160
19.660,174217,308,113148
19.664,174227,309,113135
19.669,174246,309,113158
19.674,174217,301,113156
19.679,174253,300,113149
19.684,174258,300,113160
19.689,174264,300,113167
19.694,174273,301,113181
19.699,174285,302,113179
19.704,174281,300,113174
19.709,174309,299,113166
19.714,174315,298,113181
19.719,174343,289,113191
19.724,174320,301,113187
19.729,174345,302,113191
19.734,174354,301,113189
19.739,174374,301,113195
19.744,174368,301,113198
19.749,174380,298,113202
19.754,174393,298,113200
19.759,174390,298,113212
19.764,174399,297,113205
19.769,174398,302,113197
19.774,174372,301,113195
19.779,174375,300,113205
19.784,174348,301,113195
19.789,174325,300,113192
19.794,174299,299,113201
19.799,174273,301,113181
19.804,174278,300,113175
19.809,174264,301,113167
19.813,174221,301,113166
19.818,174209,293,113153
19.823,174195,299,113154
19.828,174182,299,113136
19.833,174179,299,113146
19.838,174147,299,113132
19.843,174156,300,113119
19.848,174136,299,113125
19.853,174126,299,113120
19.858,174114,299,113117
19.863,174106,299,113116
19.868,174093,308,113105
19.873,174101,309,113100
19.878,174085,308,113097
19.883,174082,308,113094
19.888,174086,308,113099
19.893,174061,307,113091
19.898,174052,306,113088
19.903,174049,307,113086
19.908,174062,306,113072
19.913,174045,306,113078
19.918,174033,297,113073
19.923,174028,296,113078
19.928,174033,296,113072
19.933,174024,309,113076
19.938,174013,310,113061
19.943,174006,310,113064
19.948,174009,310,113058
19.953,174018,309,113060
19.958,174001,310,113053
19.963,174006,298,113068
19.967,174016,300,113055
19.972,174008,301,113057
19.977,174015,301,113054
19.982,174018,301,113050
19.987,174007,302,113059
19.992,174022,302,113048
19.997,174018,302,113052
20.002,174030,301,113055
20.007,174035,301,113051
20.012,174022,306,113048
20.017,174029,305,113052
20.022,174020,305,113051
20.027,174028,303,113060
20.032,174049,303,113058
20.037,174030,301,113051
20.042,174032,300,113059
20.047,174039,300,113046
20.052,174045,300,113060
20.057,174035,300,113062
20.062,174041,305,113053
20.067,174040,304,113059
20.072,174042,304,113059
20.077,174062,306,113066
20.082,174039,306,113060
20.087,174055,306,113045
20.092,174053,305,113055
20.097,174049,306,113058
20.102,174077,306,113049
20.107,174055,305,113072
20.112,174080,303,113063
20.116,174086,302,113059
20.121,174064,302,113055
20.126,174083,302,113059
20.131,174091,303,113054
20.136,174103,303,113065
20.141,174082,303,113060
20.146,174103,303,113071
20.151,174092,305,113066
20.156,174096,303,113065
20.161,174116,303,113070
20.166,174121,304,113062
20.171,174133,304,113069
20.176,174133,304,113070
20.181,174138,303,113074
20.186,174148,304,113063
20.191,174144,305,113070
20.196,174159,306,113077
20.201,174173,309,113084
20.206,174163,296,113117
20.211,174183,300,113090
20.216,174205,302,113076
20.221,174185,302,113083
20.226,174200,302,113082
20.231,174216,303,113087
20.236,174221,305,113077
20.241,174224,306,113089
20.246,174253,309,113089
20.251,174247,295,113091
20.256,174239,295,113097
20.261,174260,301,113103
20.265,174285,302,113113
20.270,174278,303,113099
20.275,174299,292,113114
20.280,174306,295,113118
20.285,174301,296,113123
20.290,174311,296,113121
20.295,174322,296,113125
20.300,174344,297,113126
20.305,174364,290,113134
20.310,174345,291,113131
20.315,174358,293,113132
20.320,174367,295,113132
20.325,174383,296,113139
20.330,174397,297,113136
20.335,174393,299,113139
20.340,174417,299,113151
20.345,174417,300,113159
20.350,174429,300,113159
20.355,174446,294,113162
20.360,174449,294,113143
20.365,174454,296,113144
20.370,174474,297,113162
20.375,174468,299,113153
20.380,174466,314,113157
20.385,174460,311,113154
20.390,174481,297,113168
20.395,174475,298,113167
20.400,174456,299,113168
20.405,174456,307,113163
20.410,174433,307,113158
20.414,174415,308,113153
20.419,174404,308,113149
20.424,174392,309,113143
20.429,174377,310,113130
20.434,174360,309,113125
20.439,174350,297,113120
20.444,174322,296,113123
20.449,174303,298,113135
20.454,174294,310,113105
20.459,174278,296,113094
20.464,174261,298,113092
20.469,174269,298,113088
20.474,174247,300,113090
20.479,174242,302,113079
20.484,174222,304,113079
20.489,174224,303,113083
20.494,174220,305,113074
20.499,174168,310,113070
20.504,174208,302,113059
20.509,174204,303,113064
20.514,174187,304,113058
20.519,174208,306,113062
20.524,174184,306,113048
20.529,174173,307,113046
20.534,174194,307,113056
20.539,174168,308,113050
20.544,174172,308,113058
20.549,174165,301,113056
20.554,174159,300,113040
20.559,174164,300,113045
20.563,174173,300,113041
20.568,174146,301,113044
20.573,174150,300,113039
20.578,174165,299,113041
20.583,174145,299,113040
20.588,174161,298,113037
20.593,174172,299,113038
20.598,174172,304,113050
20.603,174168,305,113034
20.608,174167,304,113043
20.613,174185,306,113044
20.618,174178,306,113047
20.623,174190,307,113029
20.628,174190,306,113046
20.633,174194,308,113037
20.638,174202,311,113043
20.643,174194,299,113046
20.648,174198,303,113059
20.653,174180,302,113041
20.658,174202,303,113049
20.663,174191,303,113041
20.668,174193,304,113039
20.673,174203,305,113038
20.678,174194,307,113045
20.683,174204,308,113043
20.688,174199,308,113036
20.693,174204,310,113043
20.698,174217,300,113051
20.703,174219,301,113047
20.708,174233,301,113048
20.713,174213,301,113043
20.717,174217,302,113051
20.722,174224,303,113065
20.727,174242,304,113051
20.732,174227,305,113046
20.737,174221,305,113044
20.742,174236,320,113067
20.747,174243,298,113064
20.752,174247,300,113057
20.757,174259,300,113051
20.762,174261,300,113053
20.767,174282,299,113067
20.772,174269,301,113072
20.777,174285,302,113069
20.782,174290,301,113066
20.787,174304,303,113065
20.792,174304,311,113051
20.797,174303,302,113080
20.802,174320,302,113071
20.807,174322,302,113078
20.812,174321,301,113075
20.817,174332,300,113073
20.822,174334,301,113071
20.827,174339,303,113085
20.832,174350,303,113079
20.837,174362,303,113080
20.842,174364,309,113087
20.847,174387,296,113096
20.852,174384,297,113092
20.857,174382,298,113091
20.862,174404,298,113095
20.866,174423,298,113097
20.871,174419,300,113105
20.876,174425,300,113109
20.881,174440,300,113112
20.886,174453,300,113117
20.891,174466,306,113115
20.896,174469,307,113117
20.901,174487,308,113108
20.906,174489,298,113110
20.911,174483,297,113115
20.916,174477,298,113126
20.921,174515,298,113121
20.926,174512,299,113125
20.931,174520,300,113129
20.936,174539,300,113145
20.941,174544,306,113138
20.946,174557,308,113150
20.951,174584,309,113143
20.956,174580,296,113159
20.961,174578,296,113156
20.966,174595,297,113156
20.971,174608,297,113171
20.976,174625,297,113181
20.981,174641,298,113167
20.986,174638,303,113189
20.991,174635,305,113171
20.996,174644,305,113180
21.001,174634,306,113168
21.006,174633,306,113176
21.011,174623,305,113173
21.015,174609,306,113162
21.020,174595,307,113172
21.025,174572,306,113161
21.030,174568,307,113157
21.035,174544,298,113160
21.040,174520,304,113156
21.045,174508,304,113146
21.050,174491,306,113119
21.055,174468,306,113134
21.060,174463,307,113133
21.065,174439,307,113129
21.070,174456,309,113126
21.075,174432,309,113111
21.080,174433,309,113106
21.085,174428,300,113104
21.090,174403,301,113101
21.095,174414,301,113096
21.100,174403,302,113096
21.105,174395,303,113091
21.110,174378,306,113094
21.115,174366,307,113088
21.120,174354,308,113077
21.125,174360,307,113085
21.130,174351,310,113085
21.135,174362,300,113080
21.140,174348,300,113077
21.145,174338,302,113072
21.150,174329,302,113072
21.155,174334,304,113068
21.160,174319,305,113067
21.164,174329,306,113066
21.169,174320,307,113069
21.174,174325,308,113067
21.179,174328,308,113067
21.184,174334,300,113064
21.189,174324,298,113064
21.194,174324,299,113057
21.199,174324,300,113056
21.204,174340,299,113062
21.209,174337,300,113066
21.214,174349,300,113054
21.219,174334,300,113064
21.224,174350,300,113058
21.229,174351,302,113036
21.234,174348,297,113059
21.239,174345,299,113066
21.244,174357,299,113062
21.249,174354,301,113059
21.254,174343,301,113063
21.259,174361,303,113057
21.264,174347,305,113058
21.269,174350,305,113060
21.274,174356,294,113053
21.279,174316,288,113062
21.284,174353,290,113053
21.289,174361,292,113068
21.294,174353,293,113065
21.299,174365,294,113065
21.304,174367,293,113074
21.309,174351,295,113074
21.313,174361,295,113060
21.318,174376,296,113061
21.323,174377,297,113072
21.328,174385,290,113068
21.333,174380,289,113069
21.338,174379,290,113064
21.343,174399,289,113067
21.348,174384,289,113073
21.353,174405,290,113068
21.358,174408,290,113070
21.363,174408,289,113078
21.368,174408,289,113078
21.373,174418,290,113074
21.378,174416,315,113070
21.383,174437,304,113085
21.388,174428,305,113084
21.393,174452,306,113076
21.398,174444,308,113084
21.403,174444,309,113074
21.408,174448,297,113083
21.413,174455,296,113086
21.418,174474,298,113089
21.423,174482,297,113086
21.428,174477,304,113100
21.433,174491,305,113093
21.438,174484,306,113096
21.443,174491,307,113093
21.448,174513,309,113090
21.453,174518,309,113098
21.458,174520,295,113094
21.463,174532,295,113107
21.467,174534,297,113112
21.472,174535,297,113108
21.477,174559,302,113110
21.482,174551,303,113109
21.487,174559,303,113111
21.492,174572,303,113115
21.497,174572,304,113114
21.502,174590,304,113129
21.507,174609,304,113120
21.512,174618,302,113121
21.517,174617,302,113130
21.522,174613,301,113136
21.527,174633,309,113129
21.532,174641,295,113130
21.537,174652,296,113140
21.542,174662,296,113131
21.547,174672,296,113148
21.552,174670,298,113142
21.557,174684,298,113138
21.562,174703,299,113150
21.567,174705,300,113155
21.572,174708,306,113154
21.577,174706,307,113163
21.582,174727,308,113163
21.587,174743,308,113165
21.592,174717,310,113155
21.597,174720,310,113155
21.602,174722,294,113168
21.607,174699,296,113164
21.612,174685,298,113155
21.616,174662,298,113147
21.621,174638,306,113146
21.626,174631,306,113138
21.631,174593,308,113148
21.636,174587,308,113115
21.641,174561,308,113117
21.646,174536,307,113114
21.651,174542,307,113113
21.656,174512,307,113095
21.661,174510,307,113103
21.666,174494,310,113103
21.671,174502,307,113061
21.676,174460,296,113075
21.681,174449,296,113072
21.686,174445,296,113057
21.691,174433,297,113069
21.696,174435,296,113058
21.701,174419,297,113058
21.706,174417,296,113065
21.711,174398,297,113053
21.716,174410,297,113049
21.721,174385,303,113060
21.726,174396,304,113033
21.731,174369,304,113045
21.736,174378,305,113042
21.741,174364,306,113049
21.746,174357,308,113021
21.751,174346,295,113034
21.756,174337,296,113028
21.761,174344,297,113023
21.765,174329,300,113034
21.770,174342,305,113018
21.775,174324,307,113016
21.780,174331,307,113025
21.785,174333,308,113016
21.790,174318,294,113020
21.795,174323,296,113016
21.800,174338,297,113012
21.805,174325,297,113019
21.810,174335,299,113021
21.815,174341,304,113020
21.820,174334,307,113025
21.825,174330,309,113009
21.830,174359,294,113010
21.835,174342,295,113015
21.840,174350,295,113020
21.845,174342,297,113015
21.850,174338,299,113028
21.855,174326,301,113024
21.860,174330,302,113014
21.865,174330,310,113006
21.870,174323,295,113014
21.875,174335,296,113015
21.880,174337,295,113030
21.885,174333,298,113022
21.890,174335,299,113007
21.895,174338,299,113002
21.900,174336,301,113005
21.905,174348,301,113007
21.910,174326,302,113012
21.914,174331,299,113015
21.919,174361,301,113015
21.924,174338,300,113013
21.929,174354,300,113013
21.934,174360,302,113016
21.939,174355,303,113020
21.944,174350,304,113017
21.949,174352,305,113011
21.954,174360,305,113026
21.959,174376,307,113006
21.964,174362,304,113014
21.969,174378,304,113014
21.974,174381,302,113025
21.979,174388,304,113017
21.984,174404,305,113013
21.989,174389,306,113017
21.994,174398,307,113032
21.999,174423,309,113029
22.004,174427,296,113013
22.009,174429,307,113034
22.014,174443,304,113026
22.019,174430,305,113039
22.024,174439,308,113023
22.029,174455,295,113038
22.034,174455,295,113043
22.039,174456,297,113039
22.044,174461,299,113041
22.049,174477,300,113049
22.054,174488,301,113034
22.059,174487,307,113048
22.063,174483,295,113049
22.068,174518,297,113044
22.073,174514,297,113055
22.078,174513,298,113058
22.083,174529,301,113063
22.088,174531,301,113059
22.093,174545,304,113063
22.098,174535,305,113070
22.103,174540,307,113067
22.108,174560,299,113064
22.113,174571,300,113068
22.118,174577,303,113073
22.123,174580,304,113081
22.128,174605,305,113075
22.133,174598,307,113081
22.138,174600,294,113082
22.143,174613,296,113076
22.148,174618,297,113096
22.153,174637,298,113112
22.158,174661,296,113100
22.163,174670,297,113098
22.168,174664,298,113101
22.173,174682,299,113108
22.178,174687,299,113117
22.183,174698,300,113104
22.188,174694,301,113120
22.193,174706,302,113112
22.198,174711,304,113105
22.203,174679,305,113119
22.208,174701,297,113124
22.213,174678,299,113115
22.217,174679,300,113109
22.222,174628,299,113111
22.227,174634,299,113104
22.232,174602,301,113090
22.237,174595,301,113087
22.242,174573,302,113092
22.247,174532,303,113074
22.252,174526,305,113095
22.257,174519,295,113063
22.262,174492,295,113066
22.267,174466,295,113048
22.272,174479,279,113062
22.277,174441,289,113036
22.282,174424,292,113033
22.287,174408,295,113044
22.292,174404,297,113018
22.297,174385,296,113030
22.302,174321,289,113032
22.307,174356,290,113010
22.312,174364,291,113007
22.317,174346,291,113012
22.322,174331,291,112997
22.327,174338,291,112996
22.332,174343,291,113000
22.337,174318,291,112989
22.342,174298,290,112991
22.347,174311,291,112983
22.352,174293,302,112987
22.357,174281,290,112977
22.362,174283,291,112972
22.366,174274,292,112961
22.371,174276,292,112969
22.376,174265,294,112933
22.381,174245,303,112962
22.386,174246,301,112955
22.391,174226,302,112958
22.396,174242,304,112953
22.401,174231,296,112957
22.406,174228,298,112964
22.411,174234,298,112942
22.416,174231,299,112957
22.421,174246,299,112954
22.426,174232,299,112951
22.431,174238,299,112945
22.436,174253,299,112951
22.441,174237,301,112946
22.446,174254,301,112942
22.451,174238,294,112963
22.456,174261,295,112959
22.461,174244,296,112961
22.466,174240,297,112956
22.471,174239,297,112942
22.476,174228,299,112952
22.481,174242,300,112946
22.486,174234,300,112950
22.491,174253,300,112950
22.496,174237,302,112968
22.501,174252,310,112956
22.506,174257,295,112953
22.511,174245,298,112959
22.515,174263,299,112955
22.520,174265,299,112955
22.525,174252,299,112956
22.530,174264,301,112958
22.535,174263,303,112960
22.540,174258,304,112968
22.545,174223,296,112956
22.550,174267,301,112956
22.555,174271,303,112960
22.560,174272,305,112959
22.565,174277,306,112961
22.570,174279,308,112961
22.575,174290,294,112969
22.580,174284,296,112969
22.585,174297,297,112970
22.590,174309,298,112970
22.595,174308,304,112977
22.600,174321,305,112964
22.605,174307,305,112977
22.610,174320,308,112976
22.615,174324,309,112978
22.620,174337,295,112982
22.625,174326,295,112973
22.630,174331,296,112973
22.635,174336,297,112985
22.640,174354,299,112975
22.645,174348,306,112977
22.650,174349,308,112983
22.655,174360,294,112980
22.660,174335,295,112984
22.664,174345,296,112983
22.669,174359,297,112983
22.674,174378,297,112990
22.679,174363,298,112989
22.684,174368,299,112981
22.689,174375,296,112991
22.694,174363,307,112984
22.699,174391,309,112989
22.704,174388,294,112984
22.709,174383,294,113002
22.714,174387,294,113007
22.719,174403,297,112998
22.724,174411,298,113000
22.729,174407,299,112998
22.734,174430,300,113004
22.739,174445,300,113011
22.744,174428,299,113015
22.749,174455,301,113011
22.754,174451,302,113009
22.759,174469,303,113025
22.764,174466,304,113020
22.769,174468,305,113014
22.774,174491,305,113032
22.779,174493,307,113034
22.784,174510,293,113023
22.789,174526,301,113043
22.794,174526,295,113040
22.799,174550,296,113038
22.804,174545,297,113041
22.809,174568,297,113044
22.813,174561,299,113049
22.818,174596,301,113057
22.823,174576,301,113063
22.828,174584,302,113052
22.833,174568,301,113064
22.838,174613,300,113058
22.843,174564,295,113060
22.848,174551,294,113057
22.853,174534,308,113057
22.858,174520,308,113058
22.863,174498,308,113052
22.868,174454,308,113055
22.873,174466,305,113036
22.878,174434,304,113036
22.883,174418,305,113027
22.888,174394,296,113017
22.893,174381,295,113009
22.898,174372,296,112999
22.903,174352,295,112999
22.908,174350,296,112993
22.913,174313,296,112979
22.918,174321,297,112977
22.923,174313,298,112978
22.928,174304,300,112980
22.933,174288,300,112975
22.938,174282,307,112971
22.943,174273,308,112966
22.948,174263,294,112955
22.953,174253,293,112953
22.958,174240,295,112945
22.963,174244,294,112945
22.967,174225,296,112942
22.972,174221,297,112955
22.977,174211,297,112943
22.982,174205,297,112945
22.987,174188,302,112944
22.992,174207,302,112941
22.997,174177,303,112926
23.002,174190,304,112927
23.007,174180,304,112940
23.012,174157,304,112929
23.017,174160,306,112918
23.022,174154,307,112914
23.027,174160,307,112920
23.032,174152,294,112920
23.037,174164,305,112919
23.042,174153,304,112922
23.047,174178,304,112912
23.052,174163,305,112918
23.057,174158,305,112917
23.062,174179,304,112919
23.067,174167,303,112924
23.072,174171,303,112921
23.077,174158,302,112921
23.082,174180,307,112926
23.087,174169,308,112922
23.092,174181,308,112921
23.097,174185,295,112923
23.102,174182,295,112928
23.107,174187,295,112909
23.112,174182,296,112933
23.116,174171,297,112922
23.121,174174,296,112920
23.126,174195,296,112930
23.131,174174,301,112926
23.136,174178,301,112923
23.141,174187,302,112914
23.146,174192,301,112919
23.151,174191,302,112926
23.156,174188,302,112931
23.161,174197,302,112925
23.166,174192,301,112918
23.171,174213,302,112929
23.176,174202,302,112949
23.181,174208,294,112926
23.186,174197,294,112928
23.191,174198,294,112921
23.196,174216,295,112935
23.201,174212,297,112931
23.206,174247,297,112937
23.211,174235,296,112929
23.216,174235,296,112938
23.221,174233,298,112941
23.226,174234,298,112923
23.231,174232,305,112942
23.236,174252,306,112930
23.241,174272,307,112934
23.246,174256,294,112945
23.251,174275,294,112947
23.256,174269,295,112947
23.261,174281,296,112949
23.265,174290,298,112949
23.270,174280,298,112958
23.275,174290,302,112998
23.280,174323,285,112962
23.285,174308,287,112963
23.290,174332,289,112959
23.295,174321,290,112970
23.300,174329,292,112967
23.305,174350,292,112973
23.310,174356,293,112960
23.315,174360,295,112966
23.320,174361,295,112985
23.325,174338,288,112981
23.330,174386,289,112980
23.335,174405,290,112988
23.340,174391,291,112988
23.345,174415,292,112988
23.350,174421,293,112986
23.355,174430,294,112991
23.360,174442,295,112987
23.365,174449,295,112987
23.370,174460,296,113005
23.375,174474,288,113001
23.380,174482,290,113008
23.385,174491,301,113016
23.390,174515,300,113012
23.395,174500,302,113019
23.400,174510,304,113026
23.405,174524,305,113030
23.410,174529,308,113026
23.414,174540,295,113026
23.419,174556,297,113045
23.424,174581,296,113039
23.429,174585,302,113035
23.434,174586,304,113044
23.439,174594,305,113050
23.444,174600,306,113045
23.449,174607,308,113046
23.454,174606,294,113051
23.459,174586,294,113053
23.464,174583,295,113041
23.469,174573,296,113037
23.474,174554,294,113027
23.479,174532,293,113034
23.484,174520,295,113035
23.489,174484,294,113023
23.494,174460,294,113017
23.499,174444,295,113016
23.504,174423,296,113009
23.509,174404,297,113000
23.514,174391,297,112990
23.519,174360,299,112992
23.524,174359,304,112985
23.529,174338,306,112979
23.534,174337,307,112967
23.539,174324,308,112974
23.544,174308,309,112964
23.549,174301,293,112957
23.554,174272,294,112921
23.559,174283,296,112943
23.563,174262,296,112943
23.568,174257,298,112940
23.573,174244,302,112928
23.578,174231,301,112924
23.583,174239,301,112928
23.588,174232,304,112920
23.593,174217,306,112916
23.598,174199,307,112922
23.603,174210,293,112918
23.608,174197,296,112905
23.613,174172,296,112910
23.618,174183,303,112908
23.623,174179,303,112905
23.628,174181,303,112907
23.633,174159,305,112896
23.638,174158,307,112909
23.643,174166,309,112903
23.648,174156,294,112893
23.653,174161,296,112898
23.658,174147,298,112900
23.663,174159,300,112892
23.668,174162,308,112888
23.673,174157,293,112900
23.678,174161,295,112891
23.683,174159,297,112903
23.688,174173,297,112914
23.693,174169,298,112913
23.698,174182,301,112891
23.703,174173,300,112901
23.708,174193,300,112904
23.713,174182,299,112898
23.717,174183,295,112901
23.722,174170,297,112892
23.727,174180,296,112897
23.732,174199,297,112910
23.737,174198,298,112902
23.742,174194,299,112905
23.747,174176,300,112911
23.752,174181,302,112906
23.757,174198,303,112907
23.762,174192,305,112900
23.767,174192,296,112893
23.772,174192,297,112895
23.777,174196,300,112898
23.782,174209,300,112901
23.787,174213,301,112898
23.792,174209,304,112914
23.797,174218,305,112907
23.802,174218,305,112907
23.807,174224,307,112910
23.812,174229,286,112910
23.817,174227,298,112911
23.822,174223,300,112915
23.827,174236,298,112918
23.832,174235,300,112926
23.837,174247,302,112908
23.842,174237,302,112911
23.847,174255,304,112915
23.852,174250,304,112920
23.857,174264,304,112924
23.862,174270,297,112922
23.866,174269,302,112927
23.871,174294,303,112932
23.876,174286,304,112933
23.881,174292,304,112931
23.886,174301,304,112929
23.891,174314,304,112933
23.896,174313,304,112942
23.901,174324,304,112935
23.906,174345,305,112940
23.911,174345,295,112941
23.916,174349,297,112947
23.921,174351,296,112948
23.926,174361,298,112953
23.931,174377,299,112954
23.936,174385,299,112963
23.941,174388,301,112955
23.946,174391,301,112953
23.951,174396,301,112966
23.956,174417,300,112961
23.961,174424,306,112969
23.966,174429,306,112971
23.971,174417,308,112984
23.976,174444,308,112976
23.981,174459,308,112975
23.986,174443,308,112988
23.991,174462,294,112996
23.996,174466,294,112981
24.001,174486,295,112980
24.006,174491,296,112993
24.011,174504,304,112998
24.015,174501,305,113007
24.020,174513,306,112996
24.025,174530,293,113001
24.030,174553,294,112996
24.035,174551,295,113003
24.040,174568,295,113019
24.045,174556,296,113024
24.050,174577,296,113008
24.055,174568,296,113000
24.060,174589,301,113027
24.065,174593,302,113029
24.070,174618,302,113015
24.075,174613,302,113029
24.080,174600,303,113022
24.085,174576,303,113018
24.090,174574,304,113022
24.095,174553,305,113029
24.100,174536,305,113015
24.105,174513,297,113012
24.110,174482,297,113011
24.115,174470,297,112999
24.120,174450,297,112989
24.125,174434,296,112986
24.130,174430,297,112978
24.135,174422,298,112983
24.140,174387,298,112971
24.145,174373,299,112960
24.150,174356,300,112959
24.155,174349,306,112954
24.160,174341,308,112955
24.164,174323,307,112945
24.169,174325,308,112940
24.174,174309,293,112933
24.179,174317,293,112918
24.184,174306,293,112926
24.189,174295,294,112928
24.194,174293,294,112934
24.199,174287,294,112893
24.204,174273,306,112912
24.209,174279,306,112915
24.214,174267,305,112903
24.219,174253,306,112918
24.224,174249,305,112907
24.229,174237,303,112901
24.234,174240,303,112906
24.239,174239,303,112900
24.244,174238,303,112913
24.249,174231,306,112909
24.254,174230,297,112910
24.259,174239,296,112900
24.264,174225,297,112900
24.269,174237,297,112903
24.274,174228,288,112913
24.279,174237,290,112903
24.284,174242,290,112908
24.289,174232,290,112902
24.294,174254,290,112909
24.299,174258,297,112975
24.304,174270,297,112912
24.309,174271,296,112901
24.313,174261,298,112905
24.318,174267,299,112902
24.323,174269,300,112904
24.328,174276,287,112901
24.333,174256,287,112912
24.338,174259,289,112906
24.343,174266,290,112908
24.348,174255,296,112899
24.353,174266,297,112902
24.358,174257,297,112909
24.363,174277,296,112906
24.368,174274,296,112919
24.373,174278,298,112911
24.378,174276,310,112902
24.383,174282,307,112917
24.388,174280,295,112912
24.393,174287,295,112911
24.398,174284,301,112911
24.403,174290,302,112909
24.408,174303,301,112912
24.413,174312,302,112910
24.418,174306,304,112919
24.423,174328,306,112919
24.428,174316,306,112927
24.433,174312,294,112916
24.438,174321,294,112924
24.443,174329,294,112922
24.448,174328,301,112917
24.453,174328,302,112922
24.458,174342,302,112923
24.463,174337,304,112924
24.467,174356,304,112920
24.472,174354,304,112935
24.477,174378,305,112937
24.482,174387,305,112931
24.487,174370,307,112938
24.492,174388,306,112934
24.497,174401,298,112940
24.502,174386,297,112955
24.507,174402,297,112948
24.512,174416,297,112954
24.517,174420,298,112946
24.522,174434,295,112956
24.527,174441,297,112952
24.532,174441,297,112956
24.537,174452,297,112951
24.542,174438,300,112986
24.547,174457,296,112960
24.552,174473,298,112963
24.557,174473,298,112970
24.562,174494,297,112968
24.567,174492,298,112980
24.572,174492,299,112978
24.577,174501,301,112978
24.582,174518,302,112990
24.587,174527,303,112993
24.592,174548,293,113000
24.597,174552,300,112993
24.602,174563,301,113002
24.607,174577,301,112999
24.612,174593,301,112997
24.616,174585,303,113011
24.621,174603,304,112996
24.626,174620,306,113015
24.631,174611,293,113020
24.636,174617,295,113016
24.641,174649,303,113021
24.646,174640,306,113033
24.651,174678,293,113026
24.656,174660,294,113034
24.661,174665,294,113045
24.666,174654,296,113031
24.671,174664,297,113041
24.676,174674,299,113039
24.681,174664,299,113038
24.686,174642,300,113028
24.691,174623,293,113029
24.696,174610,293,113032
24.701,174588,296,113019
24.706,174550,297,113016
24.711,174548,299,113007
24.716,174518,300,113004
24.721,174511,302,113001
24.726,174498,304,112975
24.731,174487,293,112990
24.736,174456,293,112987
24.741,174452,302,112976
24.746,174460,303,112978
24.751,174440,304,112974
24.756,174424,306,112968
24.761,174412,307,112956
24.765,174406,294,112961
24.770,174381,295,112960
24.775,174389,297,112945
24.780,174377,297,112939
24.785,174360,299,112955
24.790,174377,305,112942
24.795,174361,307,112946
24.800,174361,292,112946
24.805,174371,294,112930
24.810,174365,298,112945
24.815,174343,302,112940
24.820,174361,294,112943
24.825,174356,297,112938
24.830,174341,300,112941
24.835,174369,289,112933
24.840,174353,298,112937
24.845,174337,303,112935
24.850,174343,293,112932
24.855,174347,297,112941
24.860,174348,301,112942
24.865,174352,306,112941
24.870,174357,294,112937
24.875,174350,297,112938
24.880,174374,301,112936
24.885,174379,293,112947
24.890,174365,297,112940
24.895,174383,299,112947
24.900,174383,303,112952
24.905,174406,306,112947
24.910,174382,294,112961
24.914,174394,298,112948
24.919,174390,300,112945
24.924,174399,304,112950
24.929,174409,293,112951
24.934,174398,298,112957
24.939,174395,294,112958
24.944,174407,298,112952
24.949,174400,303,112956
24.954,174399,307,112956
24.959,174403,295,112952
24.964,174412,299,112956
24.969,174411,302,112953
24.974,174413,305,112952
24.979,174426,291,112954
24.984,174423,293,112968
24.989,174409,296,112965
24.994,174420,298,112959
24.999,174408,302,112968
25.004,174431,305,112969
25.009,174437,294,112976
25.014,174437,298,112982
25.019,174452,302,112974
25.024,174456,291,112970
25.029,174465,297,112976
25.034,174463,304,112975
25.039,174461,293,112982
25.044,174474,296,112981
25.049,174480,300,112980
25.054,174476,302,112985
25.059,174494,303,112973
25.063,174483,292,112984
25.068,174488,295,112993
25.073,174505,297,112985
25.078,174494,304,112985
25.083,174517,295,113004
25.088,174543,297,112992
25.093,174534,301,112990
25.098,174544,304,112994
25.103,174554,293,112998
25.108,174548,296,113000
25.113,174560,301,113008
25.118,174579,306,113008
25.123,174571,294,113004
25.128,174578,302,113007
25.133,174583,306,113009
25.138,174579,295,113030
25.143,174603,297,113020
25.148,174617,298,113028
25.153,174616,299,113027
25.158,174633,299,113034
25.163,174641,300,113028
25.168,174636,301,113032
25.173,174659,302,113046
25.178,174658,293,113046
25.183,174689,293,113043
25.188,174684,294,113049
25.193,174700,294,113039
25.198,174715,294,113050
25.203,174711,295,113062
25.208,174733,295,113059
25.213,174737,295,113067
25.217,174749,298,113059
25.222,174749,299,113066
25.227,174756,298,113077
25.232,174778,299,113077
25.237,174779,301,113081
25.242,174786,302,113081
25.247,174778,303,113076
25.252,174759,306,113091
25.257,174756,293,113096
25.262,174746,293,113074
25.267,174738,295,113070
25.272,174722,285,113073
25.277,174673,292,113065
25.282,174670,292,113066
25.287,174656,293,113057
25.292,174625,294,113061
25.297,174620,296,113056
25.302,174586,296,113045
25.307,174567,297,113037
25.312,174579,298,113035
25.317,174551,300,113019
25.322,174536,292,113010
25.327,174523,294,113001
25.332,174505,294,113002
25.337,174513,295,112994
25.342,174499,295,112993
25.347,174490,298,113002
25.352,174460,299,112990
25.357,174468,285,113003
25.362,174457,289,112988
25.366,174460,289,112981
25.371,174452,297,112976
25.376,174429,308,112979
25.381,174443,307,112967
25.386,174434,293,112970
25.391,174435,292,112962
25.396,174423,294,112972
25.401,174436,294,112972
25.406,174421,294,112967
25.411,174405,295,112964
25.416,174411,296,112971
25.421,174399,304,112963
25.426,174396,305,112965
25.431,174407,306,112965
25.436,174416,307,112963
25.441,174389,292,112961
25.446,174410,294,112962
25.451,174406,294,112959
25.456,174422,294,112963
25.461,174407,295,112964
25.466,174420,296,112958
25.471,174422,302,112972
25.476,174445,304,112969
25.481,174433,305,112958
25.486,174436,304,112963
25.491,174429,306,112965
25.496,174437,305,112971
25.501,174441,293,112968
25.506,174442,294,112964
25.511,174445,295,112968
25.515,174428,297,112957
25.520,174436,294,112969
25.525,174436,295,112974
25.530,174436,295,112962
25.535,174431,297,112972
25.540,174437,297,112972
25.545,174444,300,112964
25.550,174429,300,112955
25.555,174455,301,112968
25.560,174442,303,112970
25.565,174443,304,112983
25.570,174449,301,112976
25.575,174466,301,112984
25.580,174470,301,112983
25.585,174457,302,112970
25.590,174471,302,112974
25.595,174486,302,112987
25.600,174482,304,112975
25.605,174483,305,112988
25.610,174492,307,112985
25.615,174478,298,112986
25.620,174506,298,112988
25.625,174498,299,112988
25.630,174502,300,112998
25.635,174512,300,112998
25.640,174523,301,113001
25.645,174514,302,112998
25.650,174518,302,112993
25.655,174538,304,112992
25.660,174557,305,113005
25.664,174536,299,113011
25.669,174552,305,113007
25.674,174553,305,113004
25.679,174564,307,113006
25.684,174576,307,113007
25.689,174577,307,113012
25.694,174593,306,113016
25.699,174596,307,113013
25.704,174609,292,113024
25.709,174610,293,112999
25.714,174617,303,113023
25.719,174620,304,113031
25.724,174629,306,113023
25.729,174634,292,113036
25.734,174640,293,113033
25.739,174650,294,113031
25.744,174669,294,113046
25.749,174654,296,113042
25.754,174679,295,113048
25.759,174686,296,113041
25.764,174695,301,113055
25.769,174698,301,113043
25.774,174722,303,113050
25.779,174736,304,113059
25.784,174726,304,113069
25.789,174751,304,113062
25.794,174765,305,113060
25.799,174763,292,113063
25.804,174768,292,113076
25.809,174781,297,113112
25.813,174794,304,113086
25.818,174793,305,113087
25.823,174786,305,113085
25.828,174776,291,113087
25.833,174786,292,113092
25.838,174767,292,113089
25.843,174747,293,113083
25.848,174736,294,113070
25.853,174698,295,113062
25.858,174707,301,113060
25.863,174659,302,113054
25.868,174639,302,113044
25.873,174617,302,113040
25.878,174600,302,113041
25.883,174579,300,113026
25.888,174564,300,113022
25.893,174548,299,113015
25.898,174525,299,113009
25.903,174522,299,113008
25.908,174513,306,112996
25.913,174488,291,113005
25.918,174496,293,113002
25.923,174475,293,112995
25.928,174465,296,112985
25.933,174449,296,112989
25.938,174439,295,112975
25.943,174420,296,112966
25.948,174417,296,112974
25.953,174435,295,112959
25.958,174405,292,112968
25.963,174392,293,112963
25.967,174406,294,112952
25.972,174379,294,112951
25.977,174378,294,112959
25.982,174367,294,112948
25.987,174378,296,112942
25.992,174368,298,112945
25.997,174359,300,112940
26.002,174358,302,112943
26.007,174357,295,112950
26.012,174352,297,112937
26.017,174345,298,112943
26.022,174356,299,112931
26.027,174339,300,112941
26.032,174355,299,112941
26.037,174338,301,112934
26.042,174373,302,112940
26.047,174359,303,112944
26.052,174361,304,112936
26.057,174353,294,112943
26.062,174374,295,112939
26.067,174378,295,112945
26.072,174367,294,112942
26.077,174354,295,112935
26.082,174359,296,112942
26.087,174362,295,112943
26.092,174368,294,112939
26.097,174356,296,112949
26.102,174365,298,112950
26.107,174372,302,112942
26.112,174371,303,112939
26.116,174372,304,112957
26.121,174365,304,112948
26.126,174371,304,112942
26.131,174376,305,112940
26.136,174359,306,112941
26.141,174384,292,112952
26.146,174390,292,112946
26.151,174382,299,112949
26.156,174385,301,112947
26.161,174385,301,112958
26.166,174384,301,112959
26.171,174395,301,112947
26.176,174392,302,112953
26.181,174408,302,112958
26.186,174418,303,112953
26.191,174424,302,112968
26.196,174398,303,112951
26.201,174426,293,112969
26.206,174436,294,112958
26.211,174424,294,112976
26.216,174442,294,112970
26.221,174421,295,112959
26.226,174436,296,112964
26.231,174443,297,112970
26.236,174461,297,112969
26.241,174468,299,112985
26.246,174468,296,112972
26.251,174475,294,112976
26.256,174480,295,112982
26.261,174500,296,112990
26.265,174498,297,112985
26.270,174522,288,112990
26.275,174513,291,112983
26.280,174533,291,112996
26.285,174532,293,112992
26.290,174545,295,112994
26.295,174534,298,112994
26.300,174541,289,113016
26.305,174547,290,113008
26.310,174576,290,113006
26.315,174567,292,113013
26.320,174579,294,113007
26.325,174592,295,113016
26.330,174590,296,113023
26.335,174601,298,113021
26.340,174614,297,113023
26.345,174616,290,113044
26.350,174637,297,113032
26.355,174644,298,113038
26.360,174648,297,113032
26.365,174657,298,113047
26.370,174667,299,113045
26.375,174659,299,113042
26.380,174681,294,113047
26.385,174695,296,113047
26.390,174710,296,113061
26.395,174722,305,113039
26.400,174722,307,113062
26.405,174735,293,113053
26.410,174727,293,113057
26.414,174728,293,113064
26.419,174710,293,113060
26.424,174707,293,113059
26.429,174684,293,113054
26.434,174658,293,113050
26.439,174631,293,113051
26.444,174602,297,113048
26.449,174586,298,113040
26.454,174571,298,113017
26.459,174561,298,113034
26.464,174525,299,113013
26.469,174515,297,113030
26.474,174497,299,113010
26.479,174466,301,113001
26.484,174452,301,112982
26.489,174446,301,112979
26.494,174427,293,112975
26.499,174416,292,112968
26.504,174422,292,112971
26.509,174408,293,112971
26.514,174387,292,112964
26.519,174383,293,112956
26.524,174367,293,112957
26.529,174358,292,112955
26.534,174357,292,112939
26.539,174358,306,112942
26.544,174325,296,112944
26.549,174322,296,112935
26.554,174320,296,112938
26.559,174308,298,112932
26.563,174293,299,112919
26.568,174288,299,112928
26.573,174290,299,112918
26.578,174277,300,112921
26.583,174259,299,112925
26.588,174272,302,112926
26.593,174273,292,112918
26.598,174258,306,112921
26.603,174263,292,112927
26.608,174267,291,112925
26.613,174253,294,112904
26.618,174251,295,112916
26.623,174259,296,112910
26.628,174251,296,112915
26.633,174258,298,112921
26.638,174264,304,112925
26.643,174282,291,112918
26.648,174276,293,112929
26.653,174278,292,112919
26.658,174288,293,112916
26.663,174282,294,112920
26.668,174297,294,112924
26.673,174288,294,112929
26.678,174293,295,112921
26.683,174286,295,112917
26.688,174283,302,112914
26.693,174290,301,112936
26.698,174303,304,112927
26.703,174289,305,112920
26.708,174289,292,112939
26.713,174296,293,112931
26.717,174280,293,112934
26.722,174292,294,112924
26.727,174311,296,112925
26.732,174302,296,112944
26.737,174290,291,112931
26.742,174287,292,112940
26.747,174290,291,112941
26.752,174302,291,112938
26.757,174296,291,112932
26.762,174325,292,112925
26.767,174314,292,112931
26.772,174323,292,112942
26.777,174339,293,112934
26.782,174327,293,112939
26.787,174346,305,112945
26.792,174347,305,112944
26.797,174349,305,112937
26.802,174367,305,112944
26.807,174364,291,112939
26.812,174369,291,112951
26.817,174369,307,112951
26.822,174390,292,112963
26.827,174378,292,112959
26.832,174402,298,113023
26.837,174398,298,112952
26.842,174407,299,112969
26.847,174415,299,112968
26.852,174414,298,112966
26.857,174430,299,112968
26.862,174425,299,112972
26.866,174440,299,112973
26.871,174449,298,112988
26.876,174465,299,112985
26.881,174425,305,112984
26.886,174450,290,112996
26.891,174490,292,112998
26.896,174484,294,112985
26.901,174480,293,112995
26.906,174494,293,113001
26.911,174509,294,113004
26.916,174510,295,113004
26.921,174515,297,113007
26.926,174538,298,113009
26.931,174557,294,112952
26.936,174546,298,113017
26.941,174565,300,113021
26.946,174564,301,113021
26.951,174587,301,113017
26.956,174598,304,113034
26.961,174602,306,113027
26.966,174595,305,113030
26.971,174619,304,113039
26.976,174631,290,113042
26.981,174638,297,113051
26.986,174650,297,113050
26.991,174668,297,113045
26.996,174658,299,113057
27.001,174661,300,113059
27.006,174673,300,113060
27.011,174694,302,113057
27.015,174667,304,113060
27.020,174665,291,113066
27.025,174650,292,113070
27.030,174647,305,113062
27.035,174609,306,113049
27.040,174589,291,113050
27.045,174567,292,113034
27.050,174527,292,113034
27.055,174517,292,113017
27.060,174517,294,113024
27.065,174489,295,113016
27.070,174463,295,113010
27.075,174459,297,113017
27.080,174435,293,112996
27.085,174432,294,112985
27.090,174410,295,112996
27.095,174380,298,112978
27.100,174374,298,112989
27.105,174378,299,112970
27.110,174362,301,112965
27.115,174359,303,112969
27.120,174353,306,112958
27.125,174386,295,112961
27.130,174326,299,112956
27.135,174318,300,112951
27.140,174316,302,112942
27.145,174293,303,112937
27.150,174297,291,112945
27.155,174304,293,112940
27.160,174289,295,112932
27.164,174285,296,112951
27.169,174272,300,112945
27.174,174267,293,112936
27.179,174250,294,112916
27.184,174246,296,112927
27.189,174242,298,112929
27.194,174251,298,112916
27.199,174243,300,112912
27.204,174229,302,112914
27.209,174227,304,112923
27.214,174246,291,112927
27.219,174235,293,112910
27.224,174231,299,112918
27.229,174233,299,112915
27.234,174242,302,112913
27.239,174257,301,112921
27.244,174263,302,112909
27.249,174269,303,112921
27.254,174258,304,112926
27.259,174267,304,112927
27.264,174289,305,112927
27.269,174283,289,112937
27.274,174284,289,112934
27.279,174288,290,112943
27.284,174267,289,112938
27.289,174279,290,112930
27.294,174272,290,112933
27.299,174275,289,112928
27.304,174292,289,112943
27.309,174278,291,112920
27.313,174286,290,112939
27.318,174279,292,112948
27.323,174280,299,112952
27.328,174284,287,112937
27.333,174286,288,112944
27.338,174312,289,112941
27.343,174296,289,112942
27.348,174315,290,112946
27.353,174307,291,112943
27.358,174312,292,112944
27.363,174323,293,112942
27.368,174336,283,112947
27.373,174373,310,112942
27.378,174319,294,112952
27.383,174335,295,112966
27.388,174328,296,112951
27.393,174343,297,112952
27.398,174348,298,112965
27.403,174348,299,112946
27.408,174368,299,112964
27.413,174363,302,112973
27.418,174381,296,112979
27.423,174398,295,112963
27.428,174383,296,112972
27.433,174386,297,112968
27.438,174410,299,112969
27.443,174398,299,112989
27.448,174403,300,112984
27.453,174414,302,112985
27.458,174420,303,112982
27.463,174432,303,112985
27.467,174434,299,112979
27.472,174462,303,112997
27.477,174454,305,113000
27.482,174476,292,112997
27.487,174491,305,112989
27.492,174481,305,113002
27.497,174489,291,113002
27.502,174490,292,113006
27.507,174506,293,113011
27.512,174515,294,113014
27.517,174526,299,113017
27.522,174532,301,113016
27.527,174537,302,113011
27.532,174546,301,113023
27.537,174564,302,113019
27.542,174574,302,113023
27.547,174597,303,113025
27.552,174587,305,113025
27.557,174593,305,113041
27.562,174603,291,113048
27.567,174611,298,113032
27.572,174622,298,113045
27.577,174646,300,113040
27.582,174635,302,113038
27.587,174654,301,113047
27.592,174675,301,113057
27.597,174669,303,113060
27.602,174690,302,113060
27.607,174702,303,113072
27.612,174706,287,113016
27.616,174711,300,113073
27.621,174695,299,113073
27.626,174698,300,113079
27.631,174693,299,113067
27.636,174661,299,113074
27.641,174658,299,113072
27.646,174654,300,113067
27.651,174610,301,113051
27.656,174600,301,113058
27.661,174577,292,113048
27.666,174561,293,113043
27.671,174542,293,113039
27.676,174524,293,113045
27.681,174522,292,113030
27.686,174511,293,113030
27.691,174490,295,113013
27.696,174479,296,113002
27.701,174458,296,113013
27.706,174465,296,112997
27.711,174446,302,113003
27.716,174435,303,113003
27.721,174427,303,113008
27.726,174417,291,112963
27.731,174403,292,112987
27.736,174404,292,112976
27.741,174396,291,112970
27.746,174389,292,112974
27.751,174382,291,112974
27.756,174374,291,112948
27.761,174367,297,112971
27.765,174369,297,112968
27.770,174357,296,112964
27.775,174355,295,112952
27.780,174356,296,112950
27.785,174343,295,112951
27.790,174334,296,112956
27.795,174327,296,112959
27.800,174326,296,112952
27.805,174336,296,112957
27.810,174341,302,112961
27.815,174331,301,112955
27.820,174349,301,112957
27.825,174335,301,112952
27.830,174350,300,112955
27.835,174335,300,112961
27.840,174347,301,112956
27.845,174332,301,112950
27.850,174349,300,112963
27.855,174371,308,113010
27.860,174352,292,112959
27.865,174369,293,112961
27.870,174353,294,112963
27.875,174365,295,112961
27.880,174369,295,112960
27.885,174372,295,112975
27.890,174367,294,112964
27.895,174362,295,112969
27.900,174368,296,112966
27.905,174354,301,112976
27.910,174389,300,112960
27.914,174365,300,112971
27.919,174375,300,112967
27.924,174364,300,112971
27.929,174370,299,112972
27.934,174373,299,112975
27.939,174378,299,112962
27.944,174403,299,112959
27.949,174389,299,112975
27.954,174382,306,112963
27.959,174411,292,112971
27.964,174410,293,112969
27.969,174413,294,112982
27.974,174406,295,112970
27.979,174416,296,112982
27.984,174424,297,112980
27.989,174434,298,112988
27.994,174437,298,112990
27.999,174442,297,112999
28.004,174456,306,112987
28.009,174455,292,112991
28.014,174461,293,113002
28.019,174471,294,112986
28.024,174472,296,112999
28.029,174483,296,113003
28.034,174463,298,113001
28.039,174498,299,113012
28.044,174500,299,113002
28.049,174508,300,112999
28.054,174513,292,113010
28.059,174505,293,113005
28.063,174534,292,113009
28.068,174548,292,113023
28.073,174545,293,113026
28.078,174537,293,113025
28.083,174571,292,113030
28.088,174567,292,113044
28.093,174584,293,113043
28.098,174585,294,113061
28.103,174588,299,113047
28.108,174615,299,113041
28.113,174624,299,113047
28.118,174628,300,113053
28.123,174637,300,113053
28.128,174645,302,113057
28.133,174651,303,113060
28.138,174662,305,113058
28.143,174671,308,113068
28.148,174661,286,113087
28.153,174695,292,113076
28.158,174700,305,113071
28.163,174705,305,113077
28.168,174731,305,113078
28.173,174735,304,113085
28.178,174767,304,113078
28.183,174763,302,113104
28.188,174769,301,113101
28.193,174767,301,113095
28.198,174784,294,113108
28.203,174793,297,113111
28.208,174801,297,113114
28.213,174803,297,113111
28.217,174809,297,113115
28.222,174817,298,113127
28.227,174806,300,113126
28.232,174796,300,113113
28.237,174785,299,113123
28.242,174760,300,113112
28.247,174768,292,113112
28.252,174720,292,113118
28.257,174726,307,113115
28.262,174685,292,113115
28.267,174703,267,113109
28.272,174666,285,113087
28.277,174641,285,113107
28.282,174638,288,113070
28.287,174623,288,113081
28.292,174615,284,113077
28.297,174608,293,113065
28.302,174604,294,113066
28.307,174584,294,113062
28.312,174582,294,113072
28.317,174562,295,113053
28.322,174567,295,113057
28.327,174551,295,113041
28.332,174562,296,113045
28.337,174555,297,113045
28.342,174564,297,113028
28.347,174551,289,113049
28.352,174535,289,113033
28.357,174528,289,113034
28.362,174525,289,113042
28.366,174509,288,113031
28.371,174528,289,113005
28.376,174520,298,113039
28.381,174503,295,113029
28.386,174513,296,113029
28.391,174498,317,113030
28.396,174495,303,113035
28.401,174505,303,113032
28.406,174508,304,113024
28.411,174497,305,113028
28.416,174495,305,113045
28.421,174510,305,113010
28.426,174525,306,113029
28.431,174527,306,113039
28.436,174518,293,113029
28.441,174523,298,113033
28.446,174543,298,113031
28.451,174542,299,113037
28.456,174533,300,113037
28.461,174543,301,113053
28.466,174550,301,113046
28.471,174546,302,113038
28.476,174549,304,113049
28.481,174552,304,113050
28.486,174557,306,113060
28.491,174559,300,113065
28.496,174552,305,113055
28.501,174556,292,113059
28.506,174545,293,113054
28.511,174562,294,113047
28.515,174579,295,113046
28.520,174569,296,113064
28.525,174572,297,113052
28.530,174580,299,113067
28.535,174579,300,113065
28.540,174569,292,113067
28.545,174603,293,113063
28.550,174586,294,113081
28.555,174592,293,113082
28.560,174609,295,113092
28.565,174618,295,113073
28.570,174612,296,113080
28.575,174626,295,113085
28.580,174616,296,113086
28.585,174627,298,113086
28.590,174628,296,113088
28.595,174649,298,113092
28.600,174645,299,113116
28.605,174653,299,113095
28.610,174668,300,113091
28.615,174675,300,113095
28.620,174681,302,113094
28.625,174686,303,113120
28.630,174678,304,113110
28.635,174683,292,113119
28.640,174711,294,113111
28.645,174711,296,113130
28.650,174718,294,113121
28.655,174736,295,113130
28.660,174734,294,113132
28.664,174741,294,113126
28.669,174752,295,113138
28.674,174775,296,113143
28.679,174767,297,113142
28.684,174784,302,113154
28.689,174789,304,113150
28.694,174806,302,113154
28.699,174819,307,113146
28.704,174824,293,113155
28.709,174829,293,113162
28.714,174847,293,113171
28.719,174848,293,113171
28.724,174858,294,113188
28.729,174870,295,113190
28.734,174883,290,113161
28.739,174897,296,113191
28.744,174893,296,113192
28.749,174920,295,113197
28.754,174932,295,113205
28.759,174941,294,113199
28.764,174955,293,113213
28.769,174952,296,113211
28.774,174974,296,113209
28.779,174967,296,113222
28.784,174987,292,113212
28.789,175008,292,113214
28.794,175002,293,113225
28.799,175022,294,113228
28.804,175021,295,113233
28.809,175015,296,113229
28.813,175031,297,113245
28.818,175026,298,113245
28.823,175019,299,113249
28.828,175003,300,113244
28.833,174998,292,113254
28.838,174976,294,113234
28.843,174960,295,113232
28.848,174944,297,113219
28.853,174928,297,113226
28.858,174918,297,113230
28.863,174884,297,113222
28.868,174873,298,113215
28.873,174858,298,113200
28.878,174842,301,113250
28.883,174836,291,113196
28.888,174816,292,113195
28.893,174811,293,113197
28.898,174813,294,113169
28.903,174808,295,113190
28.908,174791,297,113168
28.913,174783,298,113179
28.918,174764,297,113174
28.923,174764,298,113173
28.928,174724,305,113168
28.933,174747,291,113154
28.938,174746,294,113165
28.943,174743,295,113165
28.948,174709,295,113162
28.953,174737,297,113146
28.958,174723,300,113147
28.963,174714,300,113164
28.967,174721,302,113149
28.972,174718,303,113147
28.977,174707,295,113146
28.982,174684,296,113140
28.987,174702,297,113143
28.992,174687,299,113138
28.997,174691,301,113133
29.002,174683,301,113132
29.007,174707,302,113138
29.012,174695,303,113131
29.017,174699,304,113137
29.022,174699,305,113137
29.027,174694,301,113142
29.032,174704,304,113149
29.037,174717,292,113137
29.042,174713,293,113141
29.047,174723,294,113144
29.052,174728,296,113145
29.057,174726,296,113141
29.062,174723,298,113145
29.067,174715,300,113145
29.072,174738,301,113152
29.077,174730,292,113138
29.082,174732,293,113142
29.087,174751,295,113151
29.092,174735,296,113148
29.097,174719,296,113144
29.102,174737,298,113156
29.107,174717,300,113148
29.112,174747,301,113151
29.116,174742,305,113138
29.121,174740,292,113159
29.126,174747,298,113142
29.131,174735,299,113153
29.136,174753,302,113149
29.141,174758,305,113158
29.146,174747,291,113168
29.151,174755,292,113157
29.156,174773,294,113162
29.161,174766,296,113167
29.166,174774,296,113165
29.171,174783,300,113155
29.176,174775,292,113163
29.181,174780,292,113163
29.186,174793,294,113163
29.191,174805,296,113176
29.196,174805,299,113167
29.201,174801,301,113174
29.206,174817,304,113172
29.211,174817,291,113173
29.216,174818,291,113181
29.221,174830,298,113185
29.226,174841,299,113185
29.231,174848,299,113191
29.236,174867,301,113187
29.241,174864,303,113194
29.246,174856,304,113185
29.251,174869,304,113197
29.256,174873,292,113201
29.261,174883,293,113201
29.265,174916,294,113266
29.270,174910,283,113231
29.275,174911,293,113213
29.280,174922,296,113206
