df_hash,22ZHK4.S8VSPF
device,HZ2X61
project_hash,29R7
project_name,istanbul_aydin_university
person_hash,29R7.9DLG
person_label,V46
date_time_start,2025-10-27_15-17-34.481000_+03
date_time_start_unix,1761563854.481
date_time_end,2025-10-27_15-25-50.085000_+03
length_difference_noticed,no

time,ppg_ir,ppg_ambient,ppg_red
16.033,167753,207,157239
16.038,167762,207,157250
16.043,167773,205,157260
16.048,167736,204,157258
16.053,167756,201,157269
16.058,167775,205,157289
16.063,167739,208,157258
16.068,167729,207,157272
16.073,167735,206,157278
16.078,167711,206,157284
16.083,167710,205,157288
16.088,167692,204,157268
16.093,167666,203,157268
16.098,167652,202,157256
16.103,167632,202,157246
16.108,167618,208,157241
16.113,167600,209,157242
16.117,167585,207,157221
16.122,167565,206,157211
16.127,167547,205,157209
16.132,167541,204,157216
16.137,167535,203,157212
16.142,167524,203,157208
16.147,167494,201,157220
16.152,167492,212,157194
16.157,167468,209,157212
16.162,167459,208,157197
16.167,167445,206,157187
16.172,167453,205,157187
16.177,167420,204,157170
16.182,167403,203,157155
16.187,167416,202,157178
16.192,167383,212,157162
16.197,167396,210,157163
16.202,167384,210,157153
16.207,167373,202,157167
16.212,167350,202,157154
16.217,167345,202,157144
16.222,167340,203,157129
16.227,167318,213,157121
16.232,167322,210,157128
16.237,167305,208,157124
16.242,167292,207,157135
16.247,167288,205,157130
16.252,167283,207,157144
16.257,167296,201,157126
16.261,167279,212,157114
16.266,167260,209,157121
16.271,167260,209,157113
16.276,167251,207,157114
16.281,167232,207,157107
16.286,167246,205,157095
16.291,167229,205,157096
16.296,167214,203,157097
16.301,167213,206,157096
16.306,167203,205,157097
16.311,167226,204,157083
16.316,167209,203,157085
16.321,167212,203,157063
16.326,167217,201,157072
16.331,167219,210,157078
16.336,167219,208,157083
16.341,167226,208,157086
16.346,167219,206,157089
16.351,167235,209,157093
16.356,167226,208,157083
16.361,167219,209,157098
16.366,167224,205,157111
16.371,167232,205,157097
16.376,167227,203,157099
16.381,167232,203,157089
16.386,167229,213,157094
16.391,167213,211,157087
16.396,167217,209,157093
16.400,167213,204,157077
16.405,167221,202,157095
16.410,167225,202,157098
16.415,167223,211,157097
16.420,167211,211,157081
16.425,167214,209,157079
16.430,167200,208,157085
16.435,167202,205,157083
16.440,167193,205,157075
16.445,167201,201,157083
16.450,167201,205,157074
16.455,167206,203,157081
16.460,167201,203,157058
16.465,167203,201,157071
16.470,167195,210,157075
16.475,167185,207,157072
16.480,167205,206,157079
16.485,167204,204,157078
16.490,167203,203,157082
16.495,167197,201,157087
16.500,167209,211,157071
16.505,167200,208,157074
16.510,167209,207,157083
16.515,167193,205,157085
16.520,167214,204,157061
16.525,167200,201,157075
16.530,167212,211,157069
16.535,167208,207,157078
16.540,167216,206,157077
16.544,167212,210,157068
16.549,167210,206,157065
16.554,167208,203,157078
16.559,167223,202,157057
16.564,167227,210,157059
16.569,167222,208,157056
16.574,167231,206,157056
16.579,167248,205,157074
16.584,167241,203,157071
16.589,167251,202,157054
16.594,167268,204,157070
16.599,167271,204,157042
16.604,167283,201,157068
16.609,167292,211,157073
16.614,167282,207,157067
16.619,167290,205,157065
16.624,167300,202,157068
16.629,167299,212,157076
16.634,167306,207,157075
16.639,167320,206,157082
16.644,167310,209,157068
16.649,167324,207,157071
16.654,167326,204,157084
16.659,167334,203,157080
16.664,167343,211,157091
16.669,167333,209,157071
16.674,167349,206,157087
16.679,167349,205,157091
16.684,167356,202,157095
16.688,167364,212,157086
16.693,167360,203,157071
16.698,167368,203,157088
16.703,167369,211,157078
16.708,167385,209,157075
16.713,167392,206,157077
16.718,167381,206,157066
16.723,167389,204,157077
16.728,167399,203,157078
16.733,167403,211,157065
16.738,167420,209,157085
16.743,167416,212,157088
16.748,167417,209,157091
16.753,167426,205,157085
16.758,167427,204,157089
16.763,167438,201,157095
16.768,167448,209,157099
16.773,167451,207,157104
16.778,167450,205,157099
16.783,167471,203,157111
16.788,167468,212,157081
16.793,167482,202,157104
16.798,167476,211,157101
16.803,167485,209,157106
16.808,167486,207,157117
16.813,167498,204,157104
16.818,167490,203,157105
16.823,167511,211,157115
16.828,167521,208,157120
16.832,167526,205,157117
16.837,167530,207,157116
16.842,167522,206,157126
16.847,167531,204,157114
16.852,167540,202,157122
16.857,167532,212,157109
16.862,167532,208,157102
16.867,167546,206,157118
16.872,167553,204,157111
16.877,167558,201,157102
16.882,167555,209,157103
16.887,167565,202,157106
16.892,167561,203,157118
16.897,167564,211,157125
16.902,167589,208,157104
16.907,167574,205,157128
16.912,167585,203,157125
16.917,167591,212,157119
16.922,167593,209,157133
16.927,167615,206,157134
16.932,167614,204,157135
16.937,167624,204,157131
16.942,167637,211,157140
16.947,167639,208,157132
16.952,167623,206,157126
16.957,167646,204,157132
16.962,167641,202,157137
16.967,167642,210,157137
16.972,167656,207,157131
16.976,167666,205,157143
16.981,167672,203,157145
16.986,167686,201,157150
16.991,167682,205,157145
16.996,167692,204,157154
17.001,167697,204,157167
17.006,167704,201,157158
17.011,167703,211,157164
17.016,167715,209,157150
17.021,167691,208,157190
17.026,167692,206,157176
17.031,167696,204,157184
17.036,167707,207,157183
17.041,167689,205,157189
17.046,167679,203,157189
17.051,167664,202,157189
17.056,167646,211,157189
17.061,167619,208,157180
17.066,167637,206,157183
17.071,167604,203,157181
17.076,167603,211,157175
17.081,167579,216,157142
17.086,167556,201,157158
17.091,167544,209,157160
17.096,167542,206,157164
17.101,167530,205,157133
17.106,167521,202,157139
17.111,167506,202,157143
17.116,167499,208,157139
17.120,167501,208,157153
17.125,167485,204,157130
17.130,167476,207,157142
17.135,167471,206,157133
17.140,167451,205,157127
17.145,167447,203,157125
17.150,167416,202,157121
17.155,167430,211,157125
17.160,167415,210,157124
17.165,167398,207,157121
17.170,167404,206,157111
17.175,167384,205,157096
17.180,167374,213,157086
17.185,167366,203,157090
17.190,167368,202,157099
17.195,167344,210,157100
17.200,167336,209,157080
17.205,167334,207,157093
17.210,167318,207,157091
17.215,167318,206,157074
17.220,167308,206,157087
17.225,167296,204,157080
17.230,167297,212,157072
17.235,167285,211,157071
17.240,167281,211,157071
17.245,167279,209,157076
17.250,167266,208,157056
17.255,167283,202,157067
17.260,167256,205,157060
17.264,167242,203,157068
17.269,167234,204,157051
17.274,167242,203,157053
17.279,167233,207,157042
17.284,167229,206,157047
17.289,167235,206,157028
17.294,167236,204,157017
17.299,167242,204,157025
17.304,167252,203,157036
17.309,167240,201,157042
17.314,167240,209,157033
17.319,167239,208,157036
17.324,167244,206,157046
17.329,167246,208,157040
17.334,167243,205,157045
17.339,167232,203,157042
17.344,167239,201,157038
17.349,167235,211,157034
17.354,167251,207,157041
17.359,167251,206,157002
17.364,167238,205,157024
17.369,167220,203,157024
17.374,167234,205,157024
17.379,167234,205,157016
17.384,167229,202,157030
17.389,167225,201,157018
17.394,167232,210,157012
17.399,167218,208,157019
17.404,167212,205,157024
17.408,167230,204,157024
17.413,167221,201,157011
17.418,167211,211,157008
17.423,167223,203,157025
17.428,167224,202,157015
17.433,167235,210,157016
17.438,167218,209,157016
17.443,167222,206,157012
17.448,167227,205,157021
17.453,167230,203,157025
17.458,167235,201,157012
17.463,167227,211,157012
17.468,167239,209,157004
17.473,167237,202,157018
17.478,167252,211,157020
17.483,167243,209,157008
17.488,167250,207,157016
17.493,167237,206,157025
17.498,167252,205,157011
17.503,167249,204,157023
17.508,167270,203,157014
17.513,167254,202,157017
17.518,167238,211,157021
17.523,167242,203,157034
17.528,167264,211,157026
17.533,167258,209,157014
17.538,167280,208,157026
17.543,167256,207,157016
17.548,167269,205,157017
17.552,167266,205,157018
17.557,167279,203,157021
17.562,167271,202,157019
17.567,167280,210,157026
17.572,167279,202,157012
17.577,167283,211,157025
17.582,167298,209,157024
17.587,167314,207,157024
17.592,167315,205,157030
17.597,167313,204,157036
17.602,167316,203,157048
17.607,167334,201,157043
17.612,167336,210,157047
17.617,167335,212,157082
17.622,167343,206,157034
17.627,167332,204,157035
17.632,167346,203,157032
17.637,167341,202,157050
17.642,167342,211,157043
17.647,167353,209,157051
17.652,167351,207,157044
17.657,167377,207,157040
17.662,167356,207,157053
17.667,167358,210,157056
17.672,167369,204,157051
17.677,167387,203,157053
17.682,167385,203,157048
17.687,167393,211,157051
17.692,167394,210,157064
17.696,167404,207,157046
17.701,167391,206,157037
17.706,167409,204,157034
17.711,167422,203,157035
17.716,167411,206,157038
17.721,167430,205,157066
17.726,167442,204,157070
17.731,167439,203,157065
17.736,167461,202,157073
17.741,167473,212,157082
17.746,167458,209,157073
17.751,167478,207,157066
17.756,167472,206,157067
17.761,167481,206,157068
17.766,167485,202,157080
17.771,167488,202,157078
17.776,167488,201,157082
17.781,167491,211,157076
17.786,167492,207,157076
17.791,167497,207,157084
17.796,167505,205,157098
17.801,167501,203,157069
17.806,167503,201,157084
17.811,167509,209,157085
17.816,167521,203,157078
17.821,167520,202,157083
17.826,167533,210,157101
17.831,167541,208,157099
17.836,167543,206,157090
17.840,167553,205,157099
17.845,167567,203,157102
17.850,167577,202,157082
17.855,167581,210,157088
17.860,167575,209,157105
17.865,167573,201,157111
17.870,167587,211,157093
17.875,167575,208,157097
17.880,167579,207,157103
17.885,167583,205,157104
17.890,167600,204,157100
17.895,167598,202,157105
17.900,167629,202,157108
17.905,167611,209,157114
17.910,167630,220,157116
17.915,167623,200,157119
17.920,167632,211,157120
17.925,167639,208,157103
17.930,167654,207,157112
17.935,167653,205,157105
17.940,167674,205,157123
17.945,167673,203,157117
17.950,167669,202,157137
17.955,167689,211,157137
17.960,167684,203,157136
17.965,167687,211,157144
17.970,167681,209,157153
17.975,167691,207,157161
17.979,167699,206,157163
17.984,167684,204,157173
17.989,167687,203,157175
17.994,167685,201,157181
17.999,167677,211,157174
18.004,167688,208,157191
18.009,167666,211,157184
18.014,167661,209,157193
18.019,167651,208,157194
18.024,167637,205,157181
18.029,167630,205,157179
18.034,167600,203,157173
18.039,167593,203,157180
18.044,167578,210,157158
18.049,167557,209,157164
18.054,167534,207,157148
18.059,167530,203,157163
18.064,167511,205,157152
18.069,167502,204,157154
18.074,167474,202,157157
18.079,167479,202,157146
18.084,167478,210,157148
18.089,167461,209,157156
18.094,167448,206,157135
18.099,167419,205,157134
18.104,167413,203,157131
18.109,167408,206,157131
18.114,167402,205,157135
18.119,167396,204,157119
18.123,167381,203,157121
18.128,167371,202,157112
18.133,167361,210,157105
18.138,167352,209,157111
18.143,167329,207,157097
18.148,167315,206,157083
18.153,167299,205,157075
18.158,167296,207,157083
18.163,167304,206,157080
18.168,167291,205,157086
18.173,167266,203,157090
18.178,167255,202,157077
18.183,167244,211,157069
18.188,167255,208,157063
18.193,167240,206,157065
18.198,167230,205,157060
18.203,167264,206,157048
18.208,167204,206,157062
18.213,167197,206,157047
18.218,167199,205,157052
18.223,167178,204,157035
18.228,167186,203,157055
18.233,167180,201,157048
18.238,167177,211,157029
18.243,167158,209,157024
18.248,167161,207,157020
18.253,167168,211,157017
18.258,167172,209,157029
18.263,167167,208,157023
18.267,167161,207,157016
18.272,167172,206,157021
18.277,167170,204,157022
18.282,167178,204,157026
18.287,167176,202,157019
18.292,167172,201,157031
18.297,167169,211,157026
18.302,167188,203,157023
18.307,167154,206,157027
18.312,167157,205,157026
18.317,167151,203,157017
18.322,167151,202,157021
18.327,167150,201,157014
18.332,167151,211,157008
18.337,167154,208,157014
18.342,167150,206,157010
18.347,167145,207,157004
18.352,167167,203,157011
18.357,167154,205,157006
18.362,167132,206,157009
18.367,167130,202,157011
18.372,167143,211,157010
18.377,167140,208,157012
18.382,167144,208,156997
18.387,167138,206,157017
18.392,167144,205,157009
18.397,167143,203,157020
18.402,167136,207,157026
18.407,167124,204,157006
18.411,167140,202,157002
18.416,167115,201,157007
18.421,167139,211,157011
18.426,167131,208,157015
18.431,167126,207,157022
18.436,167132,206,157004
18.441,167142,206,157021
18.446,167133,205,157021
18.451,167142,205,157021
18.456,167133,203,157019
18.461,167151,203,157011
18.466,167152,210,157008
18.471,167150,208,157008
18.476,167153,205,157005
18.481,167130,204,157010
18.486,167153,203,157007
18.491,167154,201,157014
18.496,167148,203,157004
18.501,167160,204,157006
18.506,167161,201,157003
18.511,167150,210,157007
18.516,167162,208,156995
18.521,167162,206,157006
18.526,167177,204,157017
18.531,167168,202,157021
18.536,167186,210,157017
18.541,167167,209,157019
18.546,167177,201,157032
18.551,167178,210,157010
18.555,167193,208,157022
18.560,167202,208,157020
18.565,167197,204,157032
18.570,167184,203,157027
18.575,167195,200,157028
18.580,167209,210,157039
18.585,167217,208,157038
18.590,167202,206,157044
18.595,167212,209,157039
18.600,167219,209,157036
18.605,167229,206,157039
18.610,167239,206,157036
18.615,167237,204,157024
18.620,167232,205,157040
18.625,167249,203,157037
18.630,167248,203,157021
18.635,167245,200,157030
18.640,167251,211,157029
18.645,167265,203,157036
18.650,167245,203,157040
18.655,167265,201,157050
18.660,167267,213,157041
18.665,167283,210,157055
18.670,167278,209,157046
18.675,167285,207,157040
18.680,167282,208,157053
18.685,167284,205,157049
18.690,167289,206,157039
18.695,167302,201,157050
18.699,167312,211,157055
18.704,167296,209,157039
18.709,167303,208,157067
18.714,167306,206,157067
18.719,167312,207,157052
18.724,167320,205,157054
18.729,167331,205,157055
18.734,167332,204,157061
18.739,167346,207,157056
18.744,167344,206,157067
18.749,167342,205,157063
18.754,167354,204,157064
18.759,167356,203,157070
18.764,167355,202,157055
18.769,167380,201,157061
18.774,167369,211,157064
18.779,167384,210,157076
18.784,167375,209,157057
18.789,167397,198,157054
18.794,167385,207,157068
18.799,167378,205,157057
18.804,167392,204,157068
18.809,167408,203,157072
18.814,167408,202,157068
18.819,167406,202,157062
18.824,167408,211,157061
18.829,167426,210,157058
18.834,167430,207,157073
18.839,167428,201,157062
18.843,167435,210,157073
18.848,167424,209,157086
18.853,167434,208,157092
18.858,167450,207,157079
18.863,167439,206,157091
18.868,167454,206,157075
18.873,167451,205,157096
18.878,167463,203,157075
18.883,167456,204,157089
18.888,167475,206,157094
18.893,167475,205,157093
18.898,167470,204,157081
18.903,167481,204,157100
18.908,167498,204,157102
18.913,167506,203,157098
18.918,167484,203,157098
18.923,167498,203,157110
18.928,167504,201,157105
18.933,167509,210,157094
18.938,167514,202,157118
18.943,167500,202,157115
18.948,167503,211,157120
18.953,167502,210,157132
18.958,167503,208,157126
18.963,167493,206,157146
18.968,167464,205,157115
18.973,167457,203,157130
18.978,167449,202,157142
18.983,167416,204,157134
18.987,167420,204,157129
18.992,167393,203,157125
18.997,167374,203,157105
19.002,167376,202,157113
19.007,167353,210,157107
19.012,167330,208,157107
19.017,167313,206,157087
19.022,167300,205,157074
19.027,167295,203,157081
19.032,167275,206,157073
19.037,167265,205,157073
19.042,167253,204,157072
19.047,167237,202,157062
19.052,167212,201,157057
19.057,167195,212,157055
19.062,167186,211,157054
19.067,167189,207,157044
19.072,167172,207,157034
19.077,167174,206,157043
19.082,167155,210,157036
19.087,167142,208,157035
19.092,167115,206,157029
19.097,167114,205,157016
19.102,167107,204,157027
19.107,167092,202,157009
19.112,167080,202,157029
19.117,167065,210,156997
19.122,167049,209,156994
19.127,167042,207,156997
19.131,167043,204,156994
19.136,167016,203,156991
19.141,167017,203,156975
19.146,167007,203,156979
19.151,166988,202,156970
19.156,166983,201,156958
19.161,166977,211,156972
19.166,166970,209,156971
19.171,166959,208,156957
19.176,166960,206,156956
19.181,166943,205,156951
19.186,166932,204,156950
19.191,166923,204,156940
19.196,166928,203,156939
19.201,166918,203,156936
19.206,166919,201,156937
19.211,166914,211,156922
19.216,166908,209,156931
19.221,166903,210,156926
19.226,166925,210,156957
19.231,166911,206,156926
19.236,166922,205,156937
19.241,166908,204,156939
19.246,166910,203,156913
19.251,166919,203,156941
19.256,166921,199,156938
19.261,166908,211,156929
19.266,166903,209,156926
19.271,166891,209,156902
19.275,166857,201,156923
19.280,166886,206,156926
19.285,166895,204,156923
19.290,166890,204,156913
19.295,166901,202,156901
19.300,166901,202,156909
19.305,166874,201,156915
19.310,166897,211,156918
19.315,166889,209,156921
19.320,166893,208,156915
19.325,166889,201,156914
19.330,166888,205,156910
19.335,166885,202,156900
19.340,166872,202,156917
19.345,166863,209,156906
19.350,166880,208,156918
19.355,166875,205,156919
19.360,166855,210,156911
19.365,166861,204,156918
19.370,166866,204,156919
19.375,166876,206,156908
19.380,166868,205,156920
19.385,166868,204,156915
19.390,166871,204,156916
19.395,166870,202,156910
19.400,166888,203,156915
19.405,166866,202,156909
19.410,166870,212,156923
19.414,166879,209,156914
19.419,166879,210,156904
19.424,166890,206,156922
19.429,166867,207,156924
19.434,166888,205,156918
19.439,166870,205,156917
19.444,166885,203,156922
19.449,166895,203,156923
19.454,166898,202,156928
19.459,166887,202,156929
19.464,166901,201,156919
19.469,166902,211,156924
19.474,166908,203,156915
19.479,166908,204,156919
19.484,166915,202,156931
19.489,166920,202,156934
19.494,166902,202,156927
19.499,166919,202,156931
19.504,166919,201,156939
19.509,166923,202,156927
19.514,166932,201,156931
19.519,166943,200,156925
19.524,166924,204,156929
19.529,166945,205,156923
19.534,166943,204,156937
19.539,166947,204,156926
19.544,166954,203,156930
19.549,166957,204,156948
19.554,166968,204,156940
19.558,166956,204,156942
19.563,166970,204,156943
19.568,166997,206,156953
19.573,166980,206,156947
19.578,166999,204,156946
19.583,166999,204,156957
19.588,167006,203,156955
19.593,167005,201,156940
19.598,167013,201,156960
19.603,167015,211,156960
19.608,167026,210,156954
19.613,167036,209,156979
19.618,167034,204,156973
19.623,167042,203,156969
19.628,167030,202,156974
19.633,167040,202,156963
19.638,167041,201,156969
19.643,167048,212,156959
19.648,167054,210,156963
19.653,167074,209,156955
19.658,167066,208,156978
19.663,167071,206,156978
19.668,167079,211,156967
19.673,167081,210,156975
19.678,167093,208,156984
19.683,167094,208,156990
19.688,167099,207,156984
19.693,167107,205,156981
19.698,167124,204,156967
19.702,167116,204,156975
19.707,167127,203,156984
19.712,167131,201,156978
19.717,167137,204,156981
19.722,167145,204,156972
19.727,167144,202,156992
19.732,167155,202,157000
19.737,167158,211,156991
19.742,167167,211,157003
19.747,167173,208,157003
19.752,167170,207,156982
19.757,167179,206,156997
19.762,167180,207,156998
19.767,167183,210,157008
19.772,167192,209,157024
19.777,167201,208,157008
19.782,167207,209,157023
19.787,167191,207,157005
19.792,167204,206,157017
19.797,167218,205,157030
19.802,167208,205,157032
19.807,167226,204,157021
19.812,167241,206,157031
19.817,167230,206,157024
19.822,167252,206,157019
19.827,167233,205,157034
19.832,167246,205,157032
19.837,167260,204,157021
19.842,167260,203,157026
19.846,167283,202,157021
19.851,167266,202,157039
19.856,167252,201,157040
19.861,167288,206,157038
19.866,167286,209,157038
19.871,167286,209,157034
19.876,167283,208,157053
19.881,167296,208,157038
19.886,167288,207,157033
19.891,167293,206,157052
19.896,167266,204,157060
19.901,167261,205,157057
19.906,167265,204,157053
19.911,167258,204,157066
19.916,167233,207,157061
19.921,167219,207,157064
19.926,167213,207,157071
19.931,167195,207,157056
19.936,167194,205,157062
19.941,167163,207,157039
19.946,167157,206,157061
19.951,167125,206,157043
19.956,167121,203,157044
19.961,167091,209,157031
19.966,167097,207,157044
19.971,167084,207,157032
19.976,167070,206,157023
19.981,167072,205,157046
19.986,167037,203,157042
19.990,167030,204,157041
19.995,167037,203,157019
20.000,167027,204,157004
20.005,167008,203,156988
20.010,167020,207,157004
20.015,167003,206,157008
20.020,166998,207,157006
20.025,166974,206,157002
20.030,166971,206,157010
20.035,166963,205,156998
20.040,166957,205,156996
20.045,166955,203,156996
20.050,166947,203,156992
20.055,166932,209,156985
20.060,166914,206,156982
20.065,166921,205,156986
20.070,166906,205,156983
20.075,166912,204,156982
20.080,166901,206,156969
20.085,166901,204,156979
20.090,166891,205,156986
20.095,166880,204,156972
20.100,166870,204,156977
20.105,166891,208,156944
20.110,166859,211,156975
20.115,166848,209,156973
20.120,166850,209,156967
20.125,166849,207,156945
20.130,166838,207,156954
20.134,166860,204,156956
20.139,166836,204,156943
20.144,166854,203,156957
20.149,166850,202,156958
20.154,166867,209,156952
20.159,166868,201,156972
20.164,166871,210,156972
20.169,166880,208,156967
20.174,166875,207,156967
20.179,166879,207,156975
20.184,166864,205,156974
20.189,166880,205,156980
20.194,166874,204,156982
20.199,166877,204,156966
20.204,166873,207,156976
20.209,166884,207,156980
20.214,166883,205,156981
20.219,166887,206,156983
20.224,166884,205,156971
20.229,166879,204,156969
20.234,166891,203,156972
20.239,166880,204,156980
20.244,166888,202,156983
20.249,166886,201,156971
20.254,166876,168,156981
20.259,166888,203,156989
20.264,166880,202,156967
20.269,166873,203,156987
20.274,166877,201,156990
20.278,166886,202,156992
20.283,166886,201,156987
20.288,166891,201,156998
20.293,166884,200,156984
20.298,166897,204,157041
20.303,166890,205,156985
20.308,166892,206,156991
20.313,166893,204,156982
20.318,166887,204,156997
20.323,166889,204,156998
20.328,166903,203,156997
20.333,166892,203,156984
20.338,166903,202,156978
20.343,166900,201,156983
20.348,166870,205,156989
20.353,166904,204,157002
20.358,166900,204,156968
20.363,166917,202,156987
20.368,166904,203,156981
20.373,166913,201,156997
20.378,166933,210,156986
20.383,166917,210,156988
20.388,166923,208,156976
20.393,166926,208,156992
20.398,166945,202,156994
20.403,166947,201,156989
20.408,166949,211,157004
20.413,166944,210,156998
20.418,166963,208,157002
20.422,166946,207,157011
20.427,166954,205,157015
20.432,166951,204,157011
20.437,166970,204,157007
20.442,166965,202,157014
20.447,166956,208,157014
20.452,166985,207,157022
20.457,166984,206,157018
20.462,166994,205,157013
20.467,167002,204,157013
20.472,167011,203,157009
20.477,167012,202,156999
20.482,167009,202,157011
20.487,167008,211,157014
20.492,167024,209,157014
20.497,167034,202,157005
20.502,167018,201,157012
20.507,167042,211,157021
20.512,167040,210,157014
20.517,167056,209,157017
20.522,167053,208,157022
20.527,167068,206,157034
20.532,167061,205,157028
20.537,167087,203,157015
20.542,167087,204,157030
20.547,167069,202,157028
20.552,167085,201,157032
20.557,167076,211,157029
20.562,167082,211,157036
20.566,167103,209,157038
20.571,167106,208,157028
20.576,167095,207,157040
20.581,167114,208,157025
20.586,167111,207,157032
20.591,167143,206,157038
20.596,167118,210,157028
20.601,167134,210,157028
20.606,167141,209,157041
20.611,167155,209,157045
20.616,167162,209,157043
20.621,167154,209,157062
20.626,167170,207,157052
20.631,167184,205,157056
20.636,167183,203,157059
20.641,167188,208,157063
20.646,167200,206,157057
20.651,167198,206,157064
20.656,167205,205,157063
20.661,167206,204,157064
20.666,167231,202,157073
20.671,167232,202,157062
20.676,167220,200,157065
20.681,167233,211,157070
20.686,167242,207,157082
20.691,167246,201,157085
20.696,167245,210,157090
20.701,167285,209,157083
20.706,167264,207,157092
20.710,167288,206,157112
20.715,167283,203,157107
20.720,167266,203,157096
20.725,167291,201,157114
20.730,167286,212,157114
20.735,167283,208,157111
20.740,167273,208,157126
20.745,167292,206,157125
20.750,167269,205,157112
20.755,167270,203,157126
20.760,167264,202,157118
20.765,167245,201,157136
20.770,167245,211,157141
20.775,167241,210,157120
20.780,167221,209,157128
20.785,167213,207,157127
20.790,167193,201,157116
20.795,167188,209,157111
20.800,167177,208,157116
20.805,167164,206,157114
20.810,167145,205,157113
20.815,167129,203,157115
20.820,167137,203,157111
20.825,167119,202,157107
20.830,167094,203,157117
20.835,167086,204,157110
20.840,167073,206,157097
20.845,167075,205,157103
20.850,167078,204,157103
20.854,167045,203,157099
20.859,167030,203,157098
20.864,167031,201,157085
20.869,167024,211,157098
20.874,167032,209,157097
20.879,167002,209,157082
20.884,166986,210,157081
20.889,167008,210,157075
20.894,166991,207,157085
20.899,166975,207,157080
20.904,166982,205,157075
20.909,166976,204,157076
20.914,166953,202,157080
20.919,166953,201,157065
20.924,166951,209,157072
20.929,166939,207,157050
20.934,166929,200,157069
20.939,166916,203,157047
20.944,166902,201,157065
20.949,166925,210,157054
20.954,166907,208,157046
20.959,166893,208,157044
20.964,166902,206,157049
20.969,166888,205,157041
20.974,166887,204,157042
20.979,166883,203,157029
20.984,166888,209,157055
20.989,166892,210,157044
20.993,166882,209,157037
20.998,166895,207,157026
21.003,166898,205,157033
21.008,166894,204,157044
21.013,166914,202,157037
21.018,166905,210,157044
21.023,166923,209,157039
21.028,166912,207,157054
21.033,166925,201,157054
21.038,166926,211,157051
21.043,166932,210,157049
21.048,166943,209,157064
21.053,166914,207,157051
21.058,166928,205,157054
21.063,166928,204,157054
21.068,166922,203,157053
21.073,166929,201,157057
21.078,166926,210,157059
21.083,166933,203,157062
21.088,166937,202,157054
21.093,166944,210,157058
21.098,166940,210,157059
21.103,166937,209,157061
21.108,166959,207,157060
21.113,166946,205,157056
21.118,166945,205,157066
21.123,166946,204,157074
21.128,166957,211,157056
21.133,166957,207,157079
21.137,166961,206,157086
21.142,166956,206,157092
21.147,166952,205,157095
21.152,166960,205,157089
21.157,166971,204,157092
21.162,166976,204,157097
21.167,166966,203,157100
21.172,166981,204,157100
21.177,166967,208,157093
21.182,166979,208,157102
21.187,166990,207,157113
21.192,166982,207,157123
21.197,166984,207,157104
21.202,166987,207,157105
21.207,166992,206,157095
21.212,166995,206,157105
21.217,167003,205,157112
21.222,167012,205,157112
21.227,167013,201,157107
21.232,166998,202,157116
21.237,167009,202,157112
21.242,167026,203,157119
21.247,167019,201,157110
21.252,167021,201,157121
21.257,167037,209,157112
21.262,167018,210,157128
21.267,167038,208,157124
21.272,167044,207,157122
21.277,167052,201,157136
21.281,167056,202,157126
21.286,167069,200,157128
21.291,167072,201,157137
21.296,167081,210,157138
21.301,167086,210,157141
21.306,167097,208,157152
21.311,167102,208,157157
21.316,167091,207,157142
21.321,167095,206,157137
21.326,167103,207,157141
21.331,167119,206,157140
21.336,167120,205,157149
21.341,167122,205,157154
21.346,167134,204,157133
21.351,167130,203,157154
21.356,167141,203,157159
21.361,167138,204,157156
21.366,167157,211,157159
21.371,167147,213,157134
21.376,167162,203,157159
21.381,167177,202,157166
21.386,167185,211,157166
21.391,167187,209,157170
21.396,167184,207,157180
21.401,167198,206,157191
21.406,167203,204,157174
21.411,167213,204,157172
21.416,167225,202,157180
21.421,167261,204,157183
21.425,167232,204,157183
21.430,167246,204,157198
21.435,167252,203,157184
21.440,167234,203,157204
21.445,167264,201,157198
21.450,167258,211,157178
21.455,167255,209,157211
21.460,167260,209,157182
21.465,167281,207,157206
21.470,167265,202,157198
21.475,167294,210,157190
21.480,167297,210,157194
21.485,167304,208,157196
21.490,167304,209,157200
21.495,167320,207,157210
21.500,167333,207,157230
21.505,167332,205,157215
21.510,167365,205,157223
21.515,167333,204,157226
21.520,167347,209,157229
21.525,167361,206,157234
21.530,167364,206,157239
21.535,167362,204,157232
21.540,167376,204,157228
21.545,167377,202,157231
21.550,167383,202,157221
21.555,167397,210,157233
21.560,167398,209,157227
21.565,167395,208,157239
21.569,167416,201,157234
21.574,167416,210,157244
21.579,167409,209,157246
21.584,167429,207,157249
21.589,167432,206,157266
21.594,167432,203,157250
21.599,167446,203,157265
21.604,167453,200,157273
21.609,167453,211,157271
21.614,167459,209,157278
21.619,167461,201,157275
21.624,167444,210,157298
21.629,167450,210,157285
21.634,167429,208,157294
21.639,167424,207,157288
21.644,167416,205,157300
21.649,167407,205,157306
21.654,167392,203,157294
21.659,167382,203,157296
21.664,167386,206,157289
21.669,167348,211,157280
21.674,167327,208,157287
21.679,167324,208,157291
21.684,167303,205,157263
21.689,167282,204,157278
21.694,167274,202,157275
21.699,167274,202,157257
21.704,167261,210,157264
21.709,167249,208,157261
21.713,167240,202,157247
21.718,167227,209,157249
21.723,167220,207,157242
21.728,167221,206,157259
21.733,167201,204,157232
21.738,167190,204,157247
21.743,167187,201,157248
21.748,167194,202,157215
21.753,167171,211,157234
21.758,167168,209,157223
21.763,167164,202,157239
21.768,167152,211,157223
21.773,167142,208,157223
21.778,167118,208,157222
21.783,167109,206,157209
21.788,167113,206,157231
21.793,167111,205,157221
21.798,167096,203,157189
21.803,167091,202,157206
21.808,167082,201,157210
21.813,167073,204,157207
21.818,167068,203,157188
21.823,167067,201,157202
21.828,167061,200,157195
21.833,167066,211,157187
21.838,167057,209,157197
21.843,167044,207,157179
21.848,167050,205,157180
21.853,167041,204,157183
21.857,167035,203,157181
21.862,167031,206,157167
21.867,167018,205,157170
21.872,167034,203,157168
21.877,167034,203,157166
21.882,167019,202,157177
21.887,167030,202,157162
21.892,167033,212,157176
21.897,167043,209,157172
21.902,167043,208,157169
21.907,167050,210,157142
21.912,167049,210,157178
21.917,167056,210,157177
21.922,167051,209,157176
21.927,167050,209,157181
21.932,167036,208,157184
21.937,167050,207,157160
21.942,167041,206,157165
21.947,167046,204,157176
21.952,167049,203,157195
21.957,167072,205,157177
21.962,167059,205,157177
21.967,167064,203,157162
21.972,167055,202,157161
21.977,167057,201,157175
21.982,167049,210,157166
21.987,167068,208,157169
21.992,167051,207,157180
21.997,167067,205,157182
22.001,167060,205,157170
22.006,167043,207,157163
22.011,167047,205,157173
22.016,167068,204,157171
22.021,167041,202,157188
22.026,167050,201,157167
22.031,167064,211,157182
22.036,167074,209,157180
22.041,167067,207,157194
22.046,167064,205,157190
22.051,167083,205,157191
22.056,167080,208,157184
22.061,167070,207,157186
22.066,167071,205,157198
22.071,167095,204,157192
22.076,167086,203,157201
22.081,167090,203,157204
22.086,167089,202,157175
22.091,167082,201,157193
22.096,167082,210,157179
22.101,167097,210,157195
22.106,167098,208,157199
22.111,167110,208,157189
22.116,167111,205,157193
22.121,167121,206,157222
22.126,167112,204,157191
22.131,167127,203,157215
22.136,167128,200,157203
22.141,167144,210,157205
22.145,167147,207,157214
22.150,167153,207,157232
22.155,167145,208,157215
22.160,167160,208,157215
22.165,167171,206,157212
22.170,167179,206,157219
22.175,167173,205,157222
22.180,167195,204,157235
22.185,167189,202,157227
22.190,167198,202,157231
22.195,167203,200,157236
22.200,167213,205,157241
22.205,167218,208,157241
22.210,167215,208,157249
22.215,167207,206,157242
22.220,167231,205,157234
22.225,167224,203,157237
22.230,167257,201,157243
22.235,167255,209,157246
22.240,167246,208,157247
22.245,167278,204,157243
22.250,167280,209,157243
22.255,167286,205,157259
22.260,167275,206,157238
22.265,167278,203,157261
22.270,167283,202,157248
22.275,167296,210,157264
22.280,167304,209,157259
22.285,167301,205,157264
22.289,167315,204,157251
22.294,167322,202,157262
22.299,167337,206,157265
22.304,167340,203,157261
22.309,167351,202,157274
22.314,167326,210,157292
22.319,167360,209,157285
22.324,167348,207,157287
22.329,167372,207,157273
22.334,167363,203,157285
22.339,167369,202,157288
22.344,167386,210,157272
22.349,167376,207,157290
22.354,167405,205,157273
22.359,167611,213,157279
22.364,167398,202,157300
22.369,167411,201,157282
22.374,167413,209,157278
22.379,167419,209,157296
22.384,167425,208,157297
22.389,167435,207,157288
22.394,167444,205,157307
22.399,167446,206,157292
22.404,167449,203,157295
22.409,167456,202,157300
22.414,167445,201,157315
22.419,167468,211,157304
22.424,167461,208,157316
22.428,167462,207,157317
22.433,167484,205,157315
22.438,167491,204,157323
22.443,167483,206,157347
22.448,167502,206,157319
22.453,167512,204,157327
22.458,167510,203,157338
22.463,167526,211,157332
22.468,167522,208,157337
22.473,167541,205,157336
22.478,167540,204,157343
22.483,167550,201,157341
22.488,167568,211,157348
22.493,167508,202,157346
22.498,167552,202,157356
22.503,167560,200,157341
22.508,167580,209,157348
22.513,167560,207,157358
22.518,167568,207,157362
22.523,167553,205,157369
22.528,167577,205,157356
22.533,167548,203,157382
22.538,167553,202,157390
22.543,167529,206,157382
22.548,167540,205,157386
22.553,167508,204,157380
22.558,167513,203,157380
22.563,167493,201,157379
22.568,167467,201,157383
22.572,167471,210,157370
22.577,167445,208,157376
22.582,167437,206,157369
22.587,167422,206,157351
22.592,167433,202,157353
22.597,167397,201,157358
22.602,167388,211,157338
22.607,167373,209,157346
22.612,167367,207,157359
22.617,167361,205,157345
22.622,167347,203,157350
22.627,167340,202,157330
22.632,167343,201,157336
22.637,167315,209,157329
22.642,167318,202,157333
22.647,167329,211,157327
22.652,167298,209,157325
22.657,167287,206,157325
22.662,167280,205,157326
22.667,167283,202,157317
22.672,167270,211,157308
22.677,167269,208,157306
22.682,167255,207,157305
22.687,167243,204,157309
22.692,167221,207,157306
22.697,167236,206,157294
22.702,167211,205,157312
22.707,167217,202,157294
22.712,167195,201,157305
22.716,167189,209,157296
22.721,167169,207,157285
22.726,167175,205,157298
22.731,167186,205,157280
22.736,167186,204,157287
22.741,167161,205,157290
22.746,167161,204,157284
22.751,167138,202,157289
22.756,167148,201,157287
22.761,167143,211,157277
22.766,167145,208,157277
22.771,167140,207,157275
22.776,167136,204,157266
22.781,167151,204,157270
22.786,167153,206,157264
22.791,167141,210,157255
22.796,167147,208,157263
22.801,167136,207,157256
22.806,167144,205,157254
22.811,167149,204,157263
22.816,167143,202,157276
22.821,167155,202,157272
22.826,167156,210,157275
22.831,167144,209,157261
22.836,167163,204,157274
22.841,167151,206,157262
22.846,167162,205,157264
22.851,167150,204,157257
22.856,167159,202,157251
22.860,167135,202,157255
22.865,167149,200,157268
22.870,167141,210,157266
22.875,167150,207,157264
22.880,167155,207,157286
22.885,167145,210,157248
22.890,167151,209,157262
22.895,167153,207,157260
22.900,167146,206,157254
22.905,167150,204,157260
22.910,167145,202,157258
22.915,167146,201,157260
22.920,167148,212,157256
22.925,167129,209,157259
22.930,167134,207,157253
22.935,167148,210,157258
22.940,167151,210,157262
22.945,167150,208,157273
22.950,167155,208,157264
22.955,167156,206,157267
22.960,167146,207,157246
22.965,167174,205,157255
22.970,167160,205,157254
22.975,167157,203,157267
22.980,167172,205,157256
22.985,167178,204,157253
22.990,167170,204,157249
22.995,167180,201,157253
23.000,167168,202,157263
23.004,167195,211,157239
23.009,167179,210,157236
23.014,167189,208,157251
23.019,167198,207,157244
23.024,167198,207,157242
23.029,167200,210,157239
23.034,167218,207,157242
23.039,167197,207,157255
23.044,167203,205,157253
23.049,167205,205,157256
23.054,167211,203,157256
23.059,167226,202,157265
23.064,167239,210,157245
23.069,167241,208,157268
23.074,167244,204,157253
23.079,167256,211,157266
23.084,167258,210,157259
23.089,167266,208,157265
23.094,167274,206,157259
23.099,167278,205,157260
23.104,167271,202,157272
23.109,167286,201,157277
23.114,167285,210,157257
23.119,167294,208,157274
23.124,167297,206,157274
23.129,167312,210,157267
23.134,167310,206,157280
23.139,167311,205,157273
23.144,167312,203,157271
23.148,167308,201,157287
23.153,167313,210,157274
23.158,167337,210,157284
23.163,167344,207,157284
23.168,167339,206,157283
23.173,167359,205,157280
23.178,167367,202,157287
23.183,167374,200,157292
23.188,167367,210,157282
23.193,167389,206,157284
23.198,167386,205,157290
23.203,167391,203,157306
23.208,167417,202,157299
23.213,167400,201,157301
23.218,167408,212,157299
23.223,167417,209,157306
23.228,167421,207,157312
23.233,167438,205,157317
23.238,167441,204,157303
23.243,167453,202,157313
23.248,167451,200,157315
23.253,167449,209,157328
23.258,167465,206,157333
23.263,167451,204,157332
23.268,167470,203,157315
23.273,167487,200,157314
23.278,167477,203,157331
23.283,167491,201,157336
23.288,167486,210,157335
23.292,167508,207,157324
23.297,167511,205,157342
23.302,167526,203,157331
23.307,167520,201,157331
23.312,167523,210,157335
23.317,167534,208,157334
23.322,167531,211,157342
23.327,167546,208,157348
23.332,167533,206,157335
23.337,167552,204,157345
23.342,167554,203,157341
23.347,167553,210,157343
23.352,167568,207,157347
23.357,167587,204,157347
23.362,167569,204,157351
23.367,167586,201,157348
23.372,167582,204,157359
23.377,167597,202,157360
23.382,167599,212,157362
23.387,167605,209,157352
23.392,167621,206,157351
23.397,167623,204,157347
23.402,167629,203,157369
23.407,167626,201,157363
23.412,167647,210,157363
23.417,167654,209,157384
23.422,167672,201,157365
23.427,167664,208,157370
23.432,167663,207,157385
23.436,167672,205,157381
23.441,167675,204,157388
23.446,167665,202,157378
23.451,167684,201,157376
23.456,167675,208,157377
23.461,167677,206,157401
23.466,167706,204,157412
23.471,167701,204,157414
23.476,167689,205,157423
23.481,167658,204,157416
23.486,167660,202,157417
23.491,167645,201,157420
23.496,167655,209,157427
23.501,167620,208,157420
23.506,167599,206,157408
23.511,167600,204,157410
23.516,167576,204,157400
23.521,167563,207,157393
23.526,167558,205,157386
23.531,167543,204,157364
23.536,167519,201,157369
23.541,167503,201,157361
23.546,167495,209,157377
23.551,167479,207,157366
23.556,167461,204,157369
23.561,167448,203,157361
23.566,167462,204,157366
23.571,167447,204,157349
23.576,167429,201,157347
23.580,167418,210,157343
23.585,167416,207,157328
23.590,167397,205,157335
23.595,167396,203,157327
23.600,167385,202,157312
23.605,167375,211,157335
23.610,167358,209,157319
23.615,167359,202,157329
23.620,167357,201,157310
23.625,167332,208,157308
23.630,167325,206,157304
23.635,167318,204,157300
23.640,167327,204,157298
23.645,167294,202,157292
23.650,167300,201,157292
23.655,167288,208,157282
23.660,167297,207,157281
23.665,167280,210,157284
23.670,167262,208,157281
23.675,167251,206,157285
23.680,167250,205,157266
23.685,167241,202,157266
23.690,167249,202,157258
23.695,167222,210,157255
23.700,167224,209,157251
23.705,167228,206,157243
23.710,167214,205,157252
23.715,167210,202,157240
23.720,167222,202,157239
23.724,167200,210,157235
23.729,167206,208,157254
23.734,167206,206,157233
23.739,167204,205,157238
23.744,167209,203,157244
23.749,167194,203,157232
23.754,167211,201,157235
23.759,167225,211,157244
23.764,167223,203,157225
23.769,167228,201,157249
23.774,167224,210,157238
23.779,167213,208,157232
23.784,167221,206,157236
23.789,167226,205,157230
23.794,167224,203,157228
23.799,167208,203,157219
23.804,167222,201,157229
23.809,167224,203,157223
23.814,167234,203,157218
23.819,167206,203,157225
23.824,167220,202,157229
23.829,167236,201,157232
23.834,167206,200,157219
23.839,167192,210,157214
23.844,167196,208,157218
23.849,167186,208,157216
23.854,167199,206,157206
23.859,167187,211,157218
23.864,167201,203,157219
23.868,167196,201,157219
23.873,167193,200,157217
23.878,167199,210,157189
23.883,167182,208,157213
23.888,167189,207,157222
23.893,167206,206,157223
23.898,167189,205,157210
23.903,167196,203,157210
23.908,167207,208,157211
23.913,167199,210,157206
23.918,167197,211,157201
23.923,167193,210,157212
23.928,167205,209,157217
23.933,167209,207,157203
23.938,167212,206,157209
23.943,167197,205,157204
23.948,167200,205,157215
23.953,167202,203,157209
23.958,167223,207,157201
23.963,167205,206,157200
23.968,167240,205,157219
23.973,167222,203,157209
23.978,167227,203,157211
23.983,167239,201,157204
23.988,167240,210,157215
23.993,167241,208,157203
23.998,167233,206,157199
24.003,167250,203,157213
24.007,167257,207,157225
24.012,167259,204,157200
24.017,167255,203,157205
24.022,167257,202,157202
24.027,167268,201,157213
24.032,167261,210,157212
24.037,167272,209,157213
24.042,167267,207,157216
24.047,167289,206,157219
24.052,167285,206,157217
24.057,167288,209,157221
24.062,167302,208,157217
24.067,167301,206,157227
24.072,167305,205,157226
24.077,167305,204,157225
24.082,167300,203,157213
24.087,167310,202,157221
24.092,167329,210,157217
24.097,167323,209,157212
24.102,167341,222,157217
24.107,167331,200,157215
24.112,167331,211,157227
24.117,167335,209,157221
24.122,167346,209,157225
24.127,167356,207,157233
24.132,167363,206,157219
24.137,167354,205,157219
24.142,167369,205,157220
24.147,167350,204,157225
24.151,167370,208,157228
24.156,167366,206,157225
24.161,167369,206,157221
24.166,167381,204,157227
24.171,167383,204,157231
24.176,167398,203,157221
24.181,167373,202,157226
24.186,167403,201,157225
24.191,167411,200,157215
24.196,167419,208,157225
24.201,167411,204,157233
24.206,167423,206,157243
24.211,167432,205,157237
24.216,167436,202,157220
24.221,167444,202,157250
24.226,167455,201,157242
24.231,167467,210,157240
24.236,167471,208,157245
24.241,167454,207,157235
24.246,167468,205,157242
24.251,167464,209,157238
24.256,167480,205,157250
24.261,167482,205,157234
24.266,167479,204,157246
24.271,167489,204,157245
24.276,167488,202,157250
24.281,167499,202,157246
24.286,167511,201,157241
24.291,167496,200,157255
24.295,167524,210,157259
24.300,167523,208,157245
24.305,167514,206,157253
24.310,167520,206,157257
24.315,167530,203,157259
24.320,167538,204,157256
24.325,167538,202,157266
24.330,167543,202,157270
24.335,167547,200,157262
24.340,167553,211,157264
24.345,167557,203,157323
24.350,167580,203,157275
24.355,167585,202,157274
24.360,167584,205,157266
24.365,167589,202,157273
24.370,167594,202,157271
24.375,167604,200,157277
24.380,167616,211,157280
24.385,167634,209,157289
24.390,167624,209,157290
24.395,167622,201,157290
24.400,167645,203,157281
24.405,167640,202,157283
24.410,167641,202,157289
24.415,167639,200,157307
24.420,167636,201,157303
24.425,167650,200,157323
24.430,167629,211,157299
24.435,167623,209,157313
24.439,167641,211,157306
24.444,167611,203,157321
24.449,167600,203,157333
24.454,167594,202,157328
24.459,167580,202,157320
24.464,167572,201,157303
24.469,167554,201,157317
24.474,167546,201,157303
24.479,167514,201,157298
24.484,167498,210,157294
24.489,167471,200,157300
24.494,167466,203,157301
24.499,167461,204,157284
24.504,167454,203,157279
24.509,167443,203,157280
24.514,167402,202,157268
24.519,167406,202,157262
24.524,167407,200,157271
24.529,167365,201,157254
24.534,167378,210,157268
24.539,167355,209,157243
24.544,167337,202,157242
24.549,167339,201,157241
24.554,167319,200,157225
24.559,167316,210,157230
24.564,167311,208,157223
24.569,167292,207,157232
24.574,167293,206,157222
24.579,167280,207,157213
24.583,167277,205,157212
24.588,167263,205,157215
24.593,167252,202,157210
24.598,167247,202,157206
24.603,167221,201,157197
24.608,167216,201,157196
24.613,167218,209,157191
24.618,167203,209,157197
24.623,167203,208,157192
24.628,167189,207,157197
24.633,167170,206,157171
24.638,167173,206,157179
24.643,167162,208,157164
24.648,167144,207,157170
24.653,167152,206,157162
24.658,167137,206,157152
24.663,167137,205,157163
24.668,167138,204,157148
24.673,167122,203,157142
24.678,167117,204,157148
24.683,167135,202,157146
24.688,167124,206,157137
24.693,167121,209,157132
24.698,167114,209,157129
24.703,167111,207,157140
24.708,167126,206,157123
24.713,167131,204,157134
24.718,167124,204,157143
24.723,167130,202,157145
24.727,167137,201,157136
24.732,167130,200,157138
24.737,167145,206,157128
24.742,167135,207,157131
24.747,167119,207,157134
24.752,167116,205,157126
24.757,167112,204,157137
24.762,167117,202,157137
24.767,167122,202,157132
24.772,167105,201,157118
24.777,167125,209,157109
24.782,167130,208,157106
24.787,167109,201,157125
24.792,167122,210,157124
24.797,167113,208,157101
24.802,167115,207,157121
24.807,167111,205,157108
24.812,167108,205,157120
24.817,167093,204,157105
24.822,167095,202,157101
24.827,167105,201,157115
24.832,167104,210,157096
24.837,167076,210,157109
24.842,167093,210,157117
24.847,167098,208,157116
24.852,167083,207,157117
24.857,167095,205,157107
24.862,167092,204,157118
24.867,167088,203,157105
24.871,167100,202,157111
24.876,167095,201,157113
24.881,167122,203,157041
24.886,167094,202,157099
24.891,167109,202,157119
24.896,167096,200,157093
24.901,167100,210,157103
24.906,167094,207,157112
24.911,167116,206,157094
24.916,167101,204,157115
24.921,167117,203,157096
24.926,167109,200,157091
24.931,167123,202,157110
24.936,167116,201,157081
24.941,167113,210,157106
24.946,167135,208,157111
24.951,167133,207,157104
24.956,167125,205,157097
24.961,167130,204,157092
24.966,167134,203,157108
24.971,167133,202,157103
24.976,167144,201,157096
24.981,167147,205,157104
24.986,167158,203,157102
24.991,167148,202,157104
24.996,167175,201,157094
25.001,167172,211,157100
25.006,167183,209,157103
25.011,167173,208,157110
25.015,167193,206,157130
25.020,167184,206,157113
25.025,167189,204,157109
25.030,167199,202,157110
25.035,167195,202,157119
25.040,167202,202,157109
25.045,167194,201,157115
25.050,167209,201,157116
25.055,167219,200,157111
25.060,167219,211,157123
25.065,167225,208,157107
25.070,167212,208,157118
25.075,167230,207,157101
25.080,167225,207,157113
25.085,167241,205,157104
25.090,167243,204,157106
25.095,167241,202,157110
25.100,167252,202,157123
25.105,167266,201,157119
25.110,167258,210,157115
25.115,167275,209,157116
25.120,167280,208,157119
25.125,167264,207,157119
25.130,167287,204,157122
25.135,167291,202,157130
25.140,167300,202,157127
25.145,167290,200,157125
25.150,167313,210,157136
25.155,167322,208,157130
25.159,167332,207,157139
25.164,167316,204,157145
25.169,167334,203,157145
25.174,167360,197,157141
25.179,167350,204,157138
25.184,167350,202,157151
25.189,167355,201,157140
25.194,167360,209,157138
25.199,167371,208,157145
25.204,167376,204,157145
25.209,167378,204,157142
25.214,167385,201,157137
25.219,167382,211,157153
25.224,167386,201,157140
25.229,167404,201,157147
25.234,167388,211,157140
25.239,167429,210,157166
25.244,167414,207,157146
25.249,167434,206,157152
25.254,167259,195,157154
25.259,167437,203,157150
25.264,167450,200,157159
25.269,167442,210,157154
25.274,167465,205,157097
25.279,167465,202,157172
25.284,167463,200,157156
25.289,167459,210,157159
25.294,167473,208,157163
25.299,167477,209,157166
25.303,167477,206,157168
25.308,167485,205,157162
25.313,167484,203,157168
25.318,167507,203,157155
25.323,167516,209,157161
25.328,167508,211,157156
25.333,167532,208,157171
25.338,167541,207,157175
25.343,167545,205,157185
25.348,167559,204,157187
25.353,167545,201,157177
25.358,167550,201,157174
25.363,167548,211,157187
25.368,167558,209,157200
25.373,167564,202,157206
25.378,167545,202,157210
25.383,167565,210,157211
25.388,167552,208,157231
25.393,167552,206,157211
25.398,167546,205,157219
25.403,167531,203,157219
25.408,167540,201,157221
25.413,167527,209,157216
25.418,167500,211,157290
25.423,167491,210,157205
25.428,167481,208,157209
25.433,167474,205,157202
25.438,167445,203,157214
25.443,167438,202,157188
25.447,167417,210,157219
25.452,167396,206,157187
25.457,167389,205,157195
25.462,167366,203,157186
25.467,167339,204,157187
25.472,167349,203,157183
25.477,167351,202,157176
25.482,167329,201,157173
25.487,167315,210,157166
25.492,167312,207,157175
25.497,167296,205,157171
25.502,167293,203,157158
25.507,167277,201,157155
25.512,167259,210,157155
25.517,167265,204,157144
25.522,167250,203,157148
25.527,167232,201,157143
25.532,167219,209,157144
25.537,167216,207,157142
25.542,167200,205,157114
25.547,167181,204,157125
25.552,167180,201,157131
25.557,167179,211,157119
25.562,167169,207,157130
25.567,167166,210,157122
25.572,167140,207,157107
25.577,167149,205,157107
25.582,167125,202,157107
25.586,167124,210,157112
25.591,167119,209,157096
25.596,167110,206,157109
25.601,167101,205,157094
25.606,167078,203,157099
25.611,167060,202,157092
25.616,167074,205,157086
25.621,167069,203,157087
25.626,167058,201,157102
25.631,167043,210,157081
25.636,167056,206,157095
25.641,167051,205,157063
25.646,167061,203,157080
25.651,167053,202,157062
25.656,167060,210,157077
25.661,167057,209,157062
25.666,167066,201,157068
25.671,167069,210,157082
25.676,167064,207,157086
25.681,167074,206,157082
25.686,167059,204,157090
25.691,167066,202,157068
25.696,167079,201,157093
25.701,167065,210,157069
25.706,167061,207,157095
25.711,167063,206,157078
25.716,167072,203,157079
25.721,167069,203,157074
25.726,167045,201,157076
25.730,167051,211,157075
25.735,167064,208,157073
25.740,167063,208,157062
25.745,167063,206,157070
25.750,167064,204,157065
25.755,167063,203,157082
25.760,167043,206,157072
25.765,167062,203,157063
25.770,167062,202,157067
25.775,167062,200,157075
25.780,167040,210,157051
25.785,167058,207,157056
25.790,167066,207,157079
25.795,167071,206,157071
25.800,167068,206,157070
25.805,167056,204,157066
25.810,167061,211,157075
25.815,167068,201,157076
25.820,167075,202,157064
25.825,167068,209,157050
25.830,167062,207,157062
25.835,167060,204,157080
25.840,167080,205,157064
25.845,167083,202,157081
25.850,167080,202,157072
25.855,167077,200,157074
25.860,167088,209,157074
25.865,167081,207,157067
25.870,167090,207,157077
25.874,167108,205,157076
25.879,167115,206,157079
25.884,167096,203,157073
25.889,167100,203,157080
25.894,167103,201,157073
25.899,167115,200,157083
25.904,167093,210,157065
25.909,167120,202,157061
25.914,167130,199,157076
25.919,167134,211,157087
25.924,167116,208,157071
25.929,167130,207,157070
25.934,167138,206,157083
25.939,167150,206,157075
25.944,167150,204,157091
25.949,167162,203,157086
25.954,167159,202,157048
25.959,167146,205,157071
25.964,167176,204,157075
25.969,167166,204,157077
25.974,167184,202,157088
25.979,167173,202,157080
25.984,167180,199,157083
25.989,167193,210,157075
25.994,167191,207,157078
25.999,167193,208,157077
26.004,167251,207,157091
26.009,167210,209,157078
26.014,167223,207,157077
26.018,167216,207,157088
26.023,167230,205,157092
26.028,167236,204,157100
26.033,167232,202,157091
26.038,167236,202,157093
26.043,167244,200,157095
26.048,167253,210,157107
26.053,167256,201,157095
26.058,167261,212,157088
26.063,167259,208,157089
26.068,167280,206,157107
26.073,167302,204,157108
26.078,167282,203,157087
26.083,167296,202,157094
26.088,167296,200,157105
26.093,167306,208,157109
26.098,167307,207,157102
26.103,167317,202,157106
26.108,167301,204,157103
26.113,167324,201,157107
26.118,167338,201,157107
26.123,167333,209,157108
26.128,167348,207,157112
26.133,167357,204,157119
26.138,167350,203,157103
26.143,167361,201,157119
26.148,167375,210,157109
26.153,167353,204,157102
26.158,167363,204,157115
26.162,167368,202,157111
26.167,167383,201,157111
26.172,167374,210,157114
26.177,167394,208,157134
26.182,167400,206,157116
26.187,167408,204,157133
26.192,167433,201,157135
26.197,167424,210,157136
26.202,167414,205,157133
26.207,167445,203,157141
26.212,167433,201,157124
26.217,167448,200,157120
26.222,167443,209,157119
26.227,167473,207,157131
26.232,167470,204,157127
26.237,167483,202,157142
26.242,167483,201,157142
26.247,167477,201,157150
26.252,167483,204,157151
26.257,167518,201,157139
26.262,167505,201,157153
26.267,167513,210,157163
26.272,167509,209,157143
26.277,167516,207,157155
26.282,167527,206,157158
26.287,167541,204,157176
26.292,167551,202,157165
26.297,167545,205,157179
26.302,167551,205,157174
26.306,167553,203,157182
26.311,167555,202,157183
26.316,167551,201,157184
26.321,167535,210,157179
26.326,167529,207,157195
26.331,167517,206,157197
26.336,167496,206,157191
26.341,167496,204,157185
26.346,167481,210,157160
26.351,167476,200,157188
26.356,167467,209,157178
26.361,167422,210,157180
26.366,167433,206,157176
26.371,167417,205,157167
26.376,167410,204,157163
26.381,167374,203,157156
26.386,167380,201,157152
26.391,167365,211,157145
26.396,167352,206,157150
26.401,167338,207,157150
26.406,167320,205,157144
26.411,167316,203,157137
26.416,167311,201,157141
26.421,167298,201,157131
26.426,167280,210,157138
26.431,167268,208,157134
26.436,167274,206,157120
26.441,167279,206,157124
26.446,167260,203,157113
26.450,167242,202,157096
26.455,167237,201,157110
26.460,167235,211,157113
26.465,167219,209,157094
26.470,167213,207,157116
26.475,167211,207,157090
26.480,167181,206,157080
26.485,167183,204,157082
26.490,167180,205,157100
26.495,167161,202,157069
26.500,167156,201,157069
26.505,167148,209,157072
26.510,167134,207,157053
26.515,167134,205,157054
26.520,167124,205,157058
26.525,167117,202,157053
26.530,167115,201,157037
26.535,167098,208,157043
26.540,167065,212,157037
26.545,167088,210,157034
26.550,167082,208,157033
26.555,167076,205,157020
26.560,167074,204,157038
26.565,167088,201,157005
26.570,167085,201,157004
26.575,167096,200,157027
26.580,167092,210,157020
26.585,167096,208,157037
26.590,167101,201,157020
26.594,167095,200,157026
26.599,167097,210,157017
26.604,167111,208,157041
26.609,167100,207,157039
26.614,167110,205,157031
26.619,167108,205,157030
26.624,167120,202,157029
26.629,167114,201,157037
26.634,167106,208,157021
26.639,167104,201,157020
26.644,167103,210,157027
26.649,167106,208,157029
26.654,167104,206,157017
26.659,167117,205,157012
26.664,167111,202,157002
26.669,167129,212,157012
26.674,167128,207,157031
26.679,167121,206,157017
26.684,167103,202,157014
26.689,167106,212,157004
26.694,167114,208,157024
26.699,167115,207,157011
26.704,167101,203,157018
26.709,167120,202,157019
26.714,167098,209,157009
26.719,167100,208,157012
26.724,167115,205,157001
26.729,167105,204,157012
26.734,167119,201,157009
26.738,167116,205,157015
26.743,167124,203,157028
26.748,167135,201,157034
26.753,167119,210,157024
26.758,167124,208,157019
26.763,167120,206,157020
26.768,167129,205,157027
26.773,167132,203,157031
26.778,167137,203,157032
26.783,167139,204,157005
26.788,167146,207,157031
26.793,167143,205,157020
26.798,167143,203,157028
26.803,167162,200,157018
26.808,167153,209,157027
26.813,167183,206,157030
26.818,167159,205,157029
26.823,167176,202,157036
26.828,167175,201,157026
26.833,167209,203,157035
26.838,167186,201,157038
26.843,167189,210,157015
26.848,167195,207,157039
26.853,167194,205,157031
26.858,167189,204,157029
26.863,167194,202,157036
26.868,167205,211,157038
26.873,167212,209,157028
26.878,167216,207,157032
26.882,167235,210,157043
26.887,167236,209,157024
26.892,167234,206,157049
26.897,167242,205,157038
26.902,167250,204,157046
26.907,167248,201,157048
26.912,167246,211,157052
26.917,167252,209,157045
26.922,167279,207,157049
26.927,167255,206,157060
26.932,167271,209,157044
26.937,167276,208,157049
26.942,167287,206,157048
26.947,167278,204,157045
26.952,167303,202,157057
26.957,167317,201,157061
26.962,167327,211,157045
26.967,167316,208,157062
26.972,167321,205,157048
26.977,167327,202,157057
26.982,167332,206,157056
26.987,167337,205,157068
26.992,167331,202,157077
26.997,167344,201,157060
27.002,167357,209,157071
27.007,167344,207,157071
27.012,167358,205,157072
27.017,167369,203,157080
27.021,167384,201,157074
27.026,167378,211,157056
27.031,167385,202,157088
27.036,167366,210,157081
27.041,167393,208,157076
27.046,167407,206,157076
27.051,167394,205,157077
27.056,167391,204,157068
27.061,167412,202,157078
27.066,167426,200,157077
27.071,167414,210,157072
27.076,167442,220,157075
27.081,167436,209,157079
27.086,167441,206,157083
27.091,167437,204,157092
27.096,167436,201,157098
27.101,167449,210,157111
27.106,167471,207,157102
27.111,167471,205,157102
27.116,167472,203,157109
27.121,167481,202,157113
27.126,167483,203,157107
27.131,167499,201,157108
27.136,167500,208,157119
27.141,167519,205,157127
27.146,167531,202,157122
27.151,167525,211,157117
27.156,167537,208,157120
27.161,167529,208,157122
27.165,167562,205,157123
27.170,167551,204,157140
27.175,167570,207,157145
27.180,167568,206,157142
27.185,167573,204,157144
27.190,167587,203,157145
27.195,167584,211,157144
27.200,167590,210,157158
27.205,167595,206,157167
27.210,167573,205,157158
27.215,167585,203,157155
27.220,167579,202,157186
27.225,167564,209,157166
27.230,167575,207,157166
27.235,167565,205,157182
27.240,167544,204,157167
27.245,167539,202,157177
27.250,167521,201,157154
27.255,167521,206,157168
27.260,167500,208,157156
27.265,167484,206,157167
27.270,167457,205,157155
27.275,167459,202,157140
27.280,167438,202,157145
27.285,167448,210,157129
27.290,167416,207,157138
27.295,167397,204,157137
27.300,167383,204,157128
27.305,167392,200,157138
27.309,167370,201,157103
27.314,167356,209,157128
27.319,167345,210,157095
27.324,167350,205,157111
27.329,167344,205,157113
27.334,167329,203,157106
27.339,167311,203,157096
27.344,167307,200,157105
27.349,167295,210,157105
27.354,167289,207,157077
27.359,167276,337,157077
27.364,167257,205,157081
27.369,167298,205,157037
27.374,167259,207,157074
27.379,167249,206,157066
27.384,167238,204,157065
27.389,167226,202,157064
27.394,167212,209,157058
27.399,167203,207,157064
27.404,167184,204,157064
27.409,167199,202,157049
27.414,167171,200,157035
27.419,167167,204,157037
27.424,167166,201,157034
27.429,167157,209,157038
27.434,167156,205,157042
27.439,167151,204,157027
27.444,167151,200,157035
27.449,167123,209,157039
27.453,167129,206,157020
27.458,167126,204,157007
27.463,167130,202,157018
27.468,167136,204,157005
27.473,167121,207,157002
27.478,167130,205,157004
27.483,167129,202,157000
27.488,167127,201,157002
27.493,167138,207,156997
27.498,167141,206,157000
27.503,167127,204,157005
27.508,167115,202,156995
27.513,167133,210,157008
27.518,167129,208,157006
27.523,167123,206,157002
27.528,167137,204,157021
27.533,167135,202,157004
27.538,167129,201,157004
27.543,167145,209,157010
27.548,167113,207,157005
27.553,167120,204,157002
27.558,167127,202,157002
27.563,167126,209,156996
27.568,167123,202,157004
27.573,167130,209,156995
27.578,167116,207,157020
27.583,167116,203,156984
27.588,167115,202,156999
27.593,167095,200,156998
27.597,167120,209,156998
27.602,167124,205,157004
27.607,167110,203,156994
27.612,167098,205,156992
27.617,167113,204,157001
27.622,167105,201,156999
27.627,167097,209,157005
27.632,167109,205,156994
27.637,167110,203,157005
27.642,167113,210,157001
27.647,167108,206,156997
27.652,167120,202,157013
27.657,167112,200,157011
27.662,167143,201,156993
27.667,167106,202,157013
27.672,167116,210,157003
27.677,167128,206,157001
27.682,167121,203,156987
27.687,167125,201,156999
27.692,167129,208,157004
27.697,167140,205,156995
27.702,167127,202,156999
27.707,167131,210,156991
27.712,167123,211,156999
27.717,167135,207,156989
27.722,167138,205,156999
27.727,167154,203,157006
27.732,167146,211,156996
27.737,167150,208,156991
27.741,167158,206,157003
27.746,167168,202,156995
27.751,167160,209,157009
27.756,167178,206,156995
27.761,167180,210,156987
27.766,167179,208,156993
27.771,167180,205,156995
27.776,167199,203,157005
27.781,167199,201,157002
27.786,167206,209,157004
27.791,167219,206,157016
27.796,167217,204,156995
27.801,167211,203,157011
27.806,167229,208,157012
27.811,167228,202,157007
27.816,167223,210,156991
27.821,167239,207,157009
27.826,167236,204,156996
27.831,167230,201,157004
27.836,167234,209,157008
27.841,167259,207,157000
27.846,167259,205,157016
27.851,167258,202,157008
27.856,167266,211,157005
27.861,167279,203,157029
27.866,167287,201,157010
27.871,167274,210,157028
27.876,167303,207,157014
27.881,167294,205,157031
27.885,167304,201,157024
27.890,167304,211,157018
27.895,167324,207,157026
27.900,167329,205,157026
27.905,167333,203,157035
27.910,167333,200,157023
27.915,167335,208,157034
27.920,167339,206,157031
27.925,167336,204,157025
27.930,167358,203,157027
27.935,167344,200,157028
27.940,167367,210,157031
27.945,167370,208,157024
27.950,167354,206,157048
27.955,167380,208,157034
27.960,167373,208,157055
27.965,167369,205,157051
27.970,167402,205,157043
27.975,167398,203,157034
27.980,167404,202,157055
27.985,167410,210,157059
27.990,167430,208,157050
27.995,167442,205,157055
28.000,167430,204,157078
28.005,167427,206,157063
28.010,167446,205,157067
28.015,167445,202,157062
28.020,167446,202,157074
28.025,167462,210,157062
28.029,167469,208,157074
28.034,167476,205,157068
28.039,167481,204,157078
28.044,167488,202,157081
28.049,167490,200,157081
28.054,167498,202,157083
28.059,167494,211,157072
28.064,167506,208,157094
28.069,167516,207,157083
28.074,167514,204,157092
28.079,167515,203,157098
28.084,167530,201,157078
28.089,167525,210,157099
28.094,167528,207,157097
28.099,167538,206,157105
28.104,167523,208,157114
28.109,167520,206,157111
28.114,167520,203,157129
28.119,167515,202,157128
28.124,167492,210,157118
28.129,167483,207,157116
28.134,167469,204,157112
28.139,167464,203,157112
28.144,167436,202,157115
28.149,167430,201,157132
28.154,167401,202,157099
28.159,167400,202,157100
28.164,167397,200,157079
28.169,167385,211,157084
28.173,167358,209,157083
28.178,167352,209,157081
28.183,167337,207,157063
28.188,167327,205,157082
28.193,167324,202,157077
28.198,167301,204,157076
28.203,167308,203,157072
28.208,167298,202,157083
28.213,167289,210,157063
28.218,167281,207,157051
28.223,167276,204,157038
28.228,167267,203,157051
28.233,167264,201,157049
28.238,167234,209,157030
28.243,167230,208,157035
28.248,167212,212,157028
28.253,167220,207,157026
28.258,167219,204,157015
28.263,167205,202,157011
28.268,167196,200,157006
28.273,167182,207,156997
28.278,167170,204,157020
28.283,167162,202,156990
28.288,167149,200,156997
28.293,167153,208,157003
28.298,167151,201,156995
28.303,167150,209,156993
28.308,167115,206,156988
28.313,167122,204,157002
28.317,167118,201,156984
28.322,167105,209,156995
28.327,167106,206,156984
28.332,167108,203,156988
28.337,167091,201,156979
28.342,167103,209,156976
28.347,167107,201,156981
28.352,167102,209,156954
28.357,167104,206,156980
28.362,167092,206,156972
28.367,167111,203,156988
28.372,167099,211,156977
28.377,167115,209,156984
28.382,167104,206,156985
28.387,167109,203,156986
28.392,167109,201,156976
28.397,167109,203,156975
28.402,167102,202,156977
28.407,167100,210,156977
28.412,167111,207,156999
28.417,167109,203,156991
28.422,167107,202,156961
28.427,167105,208,156990
28.432,167097,206,156978
28.437,167099,203,156960
28.442,167109,205,156965
28.447,167124,202,156981
28.452,167106,201,156974
28.457,167116,210,156975
28.461,167102,208,156972
28.466,167106,205,156981
28.471,167100,204,156990
28.476,167098,202,156983
28.481,167110,201,156995
28.486,167117,209,156978
28.491,167104,214,157012
28.496,167098,203,156972
28.501,167104,201,156993
28.506,167109,208,156983
28.511,167110,206,156980
28.516,167107,203,156988
28.521,167100,201,156990
28.526,167101,209,156986
28.531,167103,207,156994
28.536,167113,205,157003
28.541,167122,208,156989
28.546,167120,205,156994
28.551,167107,204,156991
28.556,167116,201,157000
28.561,167116,201,157009
28.566,167112,208,156997
28.571,167135,206,156991
28.576,167114,203,156992
28.581,167122,202,156988
28.586,167121,210,156987
28.591,167153,203,156992
28.596,167142,204,157003
28.600,167138,202,157001
28.605,167145,210,157006
28.610,167159,207,157018
28.615,167151,204,157004
28.620,167155,203,157002
28.625,167172,200,156999
28.630,167160,208,157008
28.635,167186,207,157023
28.640,167184,204,157017
28.645,167179,202,157028
28.650,167179,201,157033
28.655,167185,209,157031
28.660,167196,208,157034
28.665,167209,205,157039
28.670,167224,204,157031
28.675,167207,202,157048
28.680,167220,201,157033
28.685,167217,208,157033
28.690,167220,201,157045
28.695,167226,209,157040
28.700,167245,208,157056
28.705,167244,205,157038
28.710,167245,204,157057
28.715,167234,201,157048
28.720,167255,211,157038
28.725,167251,207,157057
28.730,167257,205,157061
28.735,167265,202,157035
28.740,167275,205,157057
28.744,167278,203,157057
28.749,167277,200,157065
28.754,167286,208,157068
28.759,167291,206,157060
28.764,167299,204,157057
28.769,167292,202,157061
28.774,167308,210,157067
28.779,167302,209,157066
28.784,167281,201,157073
28.789,167311,205,157063
28.794,167317,203,157087
28.799,167323,202,157083
28.804,167320,209,157076
28.809,167333,207,157080
28.814,167348,206,157094
28.819,167364,205,157098
28.824,167344,203,157100
28.829,167364,202,157099
28.834,167368,204,157106
28.839,167356,202,157114
28.844,167392,200,157095
28.849,167384,210,157093
28.854,167395,207,157094
28.859,167406,205,157108
28.864,167401,202,157103
28.869,167413,201,157105
28.874,167419,208,157105
28.879,167419,207,157098
28.884,167435,210,157115
28.888,167425,209,157124
28.893,167429,207,157127
28.898,167434,205,157120
28.903,167428,204,157122
28.908,167434,203,157146
28.913,167448,200,157143
28.918,167421,209,157135
28.923,167415,206,157147
28.928,167432,205,157149
28.933,167413,208,157145
28.938,167387,206,157146
28.943,167392,204,157132
28.948,167376,201,157139
28.953,167366,211,157132
28.958,167357,209,157143
28.963,167324,208,157128
28.968,167312,207,157142
28.973,167320,206,157123
28.978,167286,207,157143
28.983,167264,204,157111
28.988,167277,203,157118
28.993,167259,202,157099
28.998,167240,200,157103
29.003,167223,211,157103
29.008,167220,208,157100
29.013,167222,207,157108
29.018,167208,205,157104
29.023,167195,203,157084
29.028,167158,201,157091
29.032,167181,204,157075
29.037,167166,202,157073
29.042,167158,201,157062
29.047,167147,209,157071
29.052,167140,207,157075
29.057,167136,206,157057
29.062,167106,204,157058
29.067,167130,202,157056
29.072,167105,211,157048
29.077,167099,202,157066
29.082,167097,201,157049
29.087,167090,209,157057
29.092,167084,206,157046
29.097,167078,204,157035
29.102,167050,202,157034
29.107,167051,210,157045
29.112,167063,208,157039
29.117,167039,206,157005
29.122,167012,205,157026
29.127,167040,206,157006
29.132,167019,204,157008
29.137,167015,202,157007
29.142,167021,201,157026
29.147,167007,209,157016
29.152,166997,207,156998
29.157,166999,204,156999
29.162,167026,204,157009
29.167,167025,201,157005
29.172,167018,209,156997
29.176,167013,201,157002
29.181,167019,211,157005
29.186,167027,207,157012
29.191,167036,205,157013
29.196,167026,203,157013
29.201,167032,203,157009
29.206,167037,200,157025
29.211,167024,209,157010
29.216,167033,207,157011
29.221,167029,207,157021
29.226,167033,200,157001
29.231,167025,209,157006
29.236,167034,206,157004
29.241,167036,205,157002
29.246,167004,202,157004
29.251,167025,201,157009
29.256,167008,210,157081
29.261,167025,207,157001
29.266,167026,205,156996
29.271,167033,207,156985
29.276,167039,204,157005
29.281,167034,203,157005
29.286,167014,210,157013
29.291,167031,207,157011
29.296,167021,204,157015
29.301,167029,202,157017
29.306,167032,209,157011
29.311,167030,206,157007
29.316,167035,202,157031
29.320,167014,206,157020
29.325,167035,209,157029
29.330,167042,207,157017
29.335,167024,205,157034
29.340,167035,204,157029
29.345,167036,201,157014
29.350,167048,200,157037
29.355,167040,210,157021
29.360,167047,208,157023
29.365,167041,207,157027
29.370,167017,204,157022
29.375,167072,201,157022
29.380,167045,211,157032
29.385,167069,207,157028
29.390,167066,205,157038
29.395,167081,204,157054
29.400,167086,203,157033
29.405,167086,201,157040
29.410,167092,210,157039
29.415,167090,208,157035
29.420,167092,203,157049
29.425,167110,200,157053
29.430,167105,209,157044
29.435,167104,206,157058
29.440,167122,205,157055
29.445,167119,201,157059
29.450,167127,210,157069
29.455,167128,207,157065
29.460,167140,206,157068
29.464,167142,201,157079
29.469,167146,207,157076
29.474,167144,205,157075
29.479,167153,205,157085
29.484,167156,202,157074
29.489,167156,203,157085
29.494,167171,200,157090
29.499,167174,211,157087
29.504,167171,209,157093
29.509,167182,209,157073
29.514,167180,206,157075
29.519,167200,210,157086
29.524,167191,209,157097
29.529,167187,207,157099
29.534,167203,206,157090
29.539,167192,205,157094
29.544,167207,204,157113
29.549,167207,204,157077
29.554,167213,203,157098
29.559,167216,201,157079
29.564,167231,208,157090
29.569,167250,204,157107
29.574,167227,202,157093
29.579,167245,202,157093
29.584,167250,200,157089
29.589,167253,210,157092
29.594,167259,207,157101
29.599,167256,206,157104
29.604,167253,203,157097
29.608,167279,203,157102
29.613,167278,205,157103
29.618,167283,204,157102
29.623,167291,202,157102
29.628,167307,200,157115
29.633,167299,209,157113
29.638,167304,208,157117
29.643,167304,206,157123
29.648,167334,205,157136
29.653,167317,203,157121
29.658,167323,202,157129
29.663,167348,208,157127
29.668,167339,209,157129
29.673,167356,206,157129
29.678,167363,205,157123
29.683,167350,203,157120
29.688,167370,202,157126
29.693,167367,201,157124
29.698,167366,200,157132
29.703,167369,210,157130
29.708,167369,209,157156
29.713,167367,206,157156
29.718,167377,205,157143
29.723,167383,204,157153
29.728,167384,202,157156
29.733,167377,201,157175
29.738,167371,200,157168
29.743,167365,209,157152
29.748,167348,207,157165
29.752,167336,205,157154
29.757,167306,203,157160
29.762,167293,200,157141
29.767,167271,210,157139
29.772,167273,208,157134
29.777,167242,205,157121
29.782,167227,204,157138
29.787,167211,202,157119
29.792,167197,200,157121
29.797,167205,209,157113
29.802,167172,207,157119
29.807,167176,205,157091
29.812,167167,206,157110
29.817,167143,203,157109
29.822,167143,202,157119
29.827,167142,209,157101
29.832,167121,207,157102
29.837,167113,205,157102
29.842,167102,203,157092
29.847,167090,201,157097
29.852,167083,209,157092
29.857,167105,200,157082
29.862,167055,200,157073
29.867,167035,208,157068
29.872,167047,206,157062
29.877,167010,203,157063
29.882,167008,202,157060
29.887,167012,210,157064
29.892,166981,208,157055
29.896,166978,205,157059
29.901,166971,204,157060
29.906,166964,206,157047
29.911,166951,204,157050
29.916,166949,202,157047
29.921,166952,202,157040
29.926,166944,210,157047
29.931,166913,208,157033
29.936,166927,206,157044
29.941,166911,205,157032
29.946,166911,202,157031
29.951,166908,200,157029
29.956,166893,202,157026
29.961,166894,202,157021
29.966,166878,209,157011
29.971,166881,207,157018
29.976,166864,204,157003
29.981,166855,203,157022
29.986,166869,200,157013
29.991,166881,211,156999
29.996,166872,208,157008
30.001,166871,208,157010
30.006,166872,200,157018
30.011,166889,210,157014
30.016,166888,208,157013
30.021,166889,207,157019
30.026,166897,204,157016
30.031,166876,203,157010
30.035,166866,200,157015
30.040,166874,211,157005
30.045,166874,207,156993
30.050,166867,206,156996
30.055,166868,207,156991
30.060,166871,206,156998
30.065,166868,203,156986
30.070,166862,202,156990
30.075,166859,210,156993
30.080,166860,208,156981
30.085,166859,204,156993
30.090,166862,203,156969
30.095,166862,201,157005
30.100,166870,203,157008
30.105,166856,210,156973
30.110,166857,208,156982
30.115,166864,205,156980
30.120,166853,205,156984
30.125,166851,202,156992
30.130,166857,200,156988
30.135,166854,208,156983
30.140,166852,206,156983
30.145,166860,203,156987
30.150,166847,206,156977
30.155,166843,204,156981
30.160,166843,202,157000
30.165,166855,200,156997
30.170,166847,210,156992
30.175,166852,207,156996
30.179,166850,206,156972
30.184,166863,203,156992
30.189,166849,202,156984
30.194,166839,209,156989
30.199,166862,202,156991
30.204,166863,210,156981
30.209,166880,208,156992
30.214,166870,206,156984
30.219,166876,205,156978
30.224,166873,201,156998
30.229,166880,201,156992
30.234,166889,208,156993
30.239,166878,207,156996
30.244,166890,204,156981
30.249,166896,206,156991
30.254,166890,203,156991
30.259,166907,201,157000
30.264,166909,200,156991
30.269,166920,208,157002
30.274,166910,205,157007
30.279,166927,204,156987
30.284,166930,202,157002
30.289,166939,200,157012
30.294,166922,208,157021
30.299,166945,207,157002
30.304,166948,204,157016
30.309,166954,203,157031
30.314,166961,210,157011
30.319,166959,208,157018
30.323,166990,205,157021
30.328,166962,203,157020
30.333,166977,200,157017
30.338,166985,210,157017
30.343,166990,207,157015
30.348,167001,209,157012
30.353,166998,207,157030
30.358,166994,204,157024
30.363,167008,202,157028
30.368,167013,211,157016
30.373,167029,207,157030
30.378,167048,206,157027
30.383,167050,203,157031
30.388,167051,200,157034
30.393,167055,203,157051
30.398,167046,202,157038
30.403,167079,200,157037
30.408,167054,209,157034
30.413,167082,207,157049
30.418,167082,205,157042
30.423,167103,204,157055
30.428,167090,202,157046
30.433,167106,200,157063
30.438,167104,208,157056
30.443,167085,201,157050
30.448,167106,204,157047
30.453,167101,202,157057
30.458,167123,201,157056
30.463,167124,210,157063
30.467,167118,206,157047
30.472,167130,204,157066
30.477,167156,202,157053
30.482,167149,211,157069
30.487,167158,208,157068
30.492,167163,203,157061
30.497,167155,204,157075
30.502,167173,202,157095
30.507,167163,201,157071
30.512,167183,210,157074
30.517,167179,207,157078
30.522,167192,206,157092
30.527,167209,204,157078
30.532,167209,202,157084
30.537,167203,209,157078
30.542,167232,207,157083
30.547,167236,205,157091
30.552,167243,203,157093
30.557,167250,201,157098
30.562,167253,201,157105
30.567,167252,209,157102
30.572,167261,208,157126
30.577,167269,205,157093
30.582,167259,205,157091
30.587,167283,203,157110
30.592,167304,203,157113
30.597,167281,202,157113
30.602,167275,202,157114
30.607,167269,200,157118
30.611,167259,210,157113
30.616,167266,207,157129
30.621,167239,207,157129
30.626,167238,204,157135
30.631,167236,202,157147
30.636,167217,203,157129
30.641,167194,202,157123
30.646,167167,201,157109
30.651,167164,209,157110
30.656,167136,207,157100
30.661,167123,206,157079
30.666,167111,204,157085
30.671,167097,203,157071
30.676,167077,202,157079
30.681,167071,201,157072
30.686,167045,203,157061
30.691,167058,203,157063
30.696,167035,201,157055
30.701,167024,211,157061
30.706,167015,207,157055
30.711,167019,206,157056
30.716,166990,204,157048
30.721,166992,202,157050
30.726,166979,200,157048
30.731,166977,209,157044
30.736,166953,200,157033
30.741,166928,210,157029
30.746,166924,208,157038
30.751,166934,207,157018
30.755,166908,204,157017
30.760,166904,204,157022
30.765,166884,202,157015
30.770,166872,201,157010
30.775,166876,210,157012
30.780,166842,208,156996
30.785,166848,200,156996
30.790,166839,210,156995
30.795,166817,208,156970
30.800,166820,207,156981
30.805,166817,205,156964
30.810,166810,204,156977
30.815,166785,202,156955
30.820,166794,201,156970
30.825,166786,210,156959
30.830,166766,208,156956
30.835,166771,206,156954
30.840,166765,206,156952
30.845,166763,204,156950
30.850,166749,203,156950
30.855,166750,201,156937
30.860,166743,200,156942
30.865,166746,208,156933
30.870,166737,207,156933
30.875,166747,205,156931
30.880,166748,204,156933
30.885,166776,206,156925
30.890,166742,206,156941
30.895,166762,204,156943
30.899,166773,204,156929
30.904,166756,202,156940
30.909,166758,202,156929
30.914,166747,200,156941
30.919,166747,210,156932
30.924,166751,208,156917
30.929,166765,208,156933
30.934,166750,200,156935
30.939,166746,210,156922
30.944,166740,209,156919
30.949,166751,209,156932
30.954,166754,207,156924
30.959,166750,207,156921
30.964,166749,206,156907
30.969,166738,207,156924
30.974,166750,205,156912
30.979,166740,209,156928
30.984,166740,207,156909
30.989,166736,207,156918
30.994,166740,205,156909
30.999,166735,205,156914
31.004,166743,203,156906
31.009,166741,203,156912
31.014,166744,201,156906
31.019,166735,200,156913
31.024,166738,210,156898
31.029,166742,203,156907
31.034,166738,201,156904
31.039,166747,200,156919
31.043,166738,209,156919
31.048,166757,208,156913
31.053,166756,206,156912
31.058,166759,205,156915
31.063,166759,204,156912
31.068,166747,203,156919
31.073,166754,201,156912
31.078,166755,205,156922
31.083,166768,203,156909
31.088,166766,202,156910
31.093,166765,211,156918
31.098,166757,208,156912
31.103,166756,207,156903
31.108,166769,205,156908
31.113,166753,204,156903
31.118,166762,204,156915
31.123,166762,202,156912
31.128,166785,205,156902
31.133,166800,203,156919
31.138,166790,202,156903
31.143,166802,211,156919
31.148,166791,207,156915
31.153,166790,205,156923
31.158,166797,202,156903
31.163,166814,201,156919
31.168,166807,208,156929
31.173,166810,207,156918
31.178,166819,209,156930
31.183,166827,208,156926
31.187,166825,205,156921
31.192,166846,203,156923
31.197,166836,202,156926
31.202,166839,211,156937
31.207,166860,208,156924
31.212,166865,206,156926
31.217,166874,204,156931
31.222,166870,206,156934
31.227,166854,200,156945
31.232,166886,209,156936
31.237,166889,207,156942
31.242,166891,205,156943
31.247,166893,203,156935
31.252,166905,202,156944
31.257,166941,208,156956
31.262,166925,207,156936
31.267,166928,206,156946
31.272,166928,200,156947
31.277,166894,196,156957
31.282,166952,201,156948
31.287,166952,200,156962
31.292,166954,210,156960
31.297,166963,209,156955
31.302,166975,208,156968
31.307,166990,205,156962
31.312,166998,204,156969
31.317,166979,202,156959
31.322,167003,206,156969
31.327,166996,204,156977
31.331,167006,203,156969
31.336,167040,200,156993
31.341,167025,201,156975
31.346,167035,210,156988
31.351,167029,209,156988
31.356,167045,208,156986
31.361,167030,213,156983
31.366,167051,209,156988
31.371,167070,209,156996
31.376,167063,207,156992
31.381,167084,207,156985
31.386,167083,205,157002
31.391,167083,204,156980
31.396,167111,202,156999
31.401,167094,202,156991
31.406,167100,210,156998
31.411,167099,209,157000
31.416,167108,205,156991
31.421,167119,209,156995
31.426,167132,206,157000
31.431,167134,204,156988
31.436,167125,202,156997
31.441,167132,202,157000
31.446,167135,200,157003
31.451,167162,211,157003
31.456,167156,208,156998
31.461,167156,207,157002
31.466,167141,208,157034
31.471,167173,210,157003
31.475,167169,207,157006
31.480,167187,206,157016
31.485,167198,203,157009
31.490,167213,202,157009
31.495,167215,209,157016
31.500,167229,208,157018
31.505,167230,206,157030
31.510,167234,203,157022
31.515,167244,205,157030
31.520,167247,205,157011
31.525,167242,203,157023
31.530,167260,201,157046
31.535,167248,209,157025
31.540,167266,208,157034
31.545,167277,205,157033
31.550,167284,204,157045
31.555,167281,202,157055
31.560,167282,200,157050
31.565,167278,204,157024
31.570,167276,206,157063
31.575,167276,203,157070
31.580,167253,202,157061
31.585,167237,210,157073
31.590,167228,208,157061
31.595,167200,206,157046
31.600,167187,204,157048
31.605,167170,202,157036
31.610,167162,202,157016
31.614,167146,208,157003
31.619,167126,207,157008
31.624,167109,204,157014
31.629,167092,203,157008
31.634,167087,201,157007
31.639,167073,202,156998
31.644,167068,210,156982
31.649,167060,207,156993
31.654,167040,205,156998
31.659,167065,204,156990
31.664,167025,206,156982
31.669,167033,204,156997
31.674,167013,202,156978
31.679,166994,203,156971
31.684,166983,200,156970
31.689,166968,211,156956
31.694,166960,208,156960
31.699,166947,206,156962
31.704,166938,204,156953
31.709,166928,203,156954
31.714,166927,205,156928
31.719,166908,204,156922
31.724,166910,202,156907
31.729,166876,200,156891
31.734,166881,207,156901
31.739,166860,205,156892
31.744,166850,203,156896
31.749,166846,202,156894
31.754,166855,199,156896
31.758,166826,202,156901
31.763,166824,206,156877
31.768,166801,205,156885
31.773,166795,203,156879
31.778,166790,202,156877
31.783,166792,201,156877
31.788,166774,210,156860
31.793,166770,208,156859
31.798,166771,207,156844
31.803,166767,206,156851
31.808,166776,209,156852
31.813,166762,202,156833
31.818,166749,201,156838
31.823,166752,211,156841
31.828,166731,208,156836
31.833,166736,206,156826
31.838,166748,205,156851
31.843,166750,204,156826
31.848,166751,202,156850
31.853,166757,200,156839
31.858,166762,202,156825
31.863,166738,207,156831
31.868,166756,204,156824
31.873,166750,204,156834
31.878,166742,201,156832
31.883,166740,201,156824
31.888,166730,209,156828
31.893,166736,208,156836
31.898,166720,206,156818
31.902,166725,205,156824
31.907,166714,200,156810
31.912,166725,209,156816
31.917,166708,207,156805
31.922,166719,205,156811
31.927,166712,203,156817
31.932,166733,202,156816
31.937,166713,200,156808
31.942,166721,210,156814
31.947,166718,207,156818
31.952,166707,206,156796
31.957,166722,204,156804
31.962,166730,203,156806
31.967,166698,200,156808
31.972,166700,210,156805
31.977,166706,207,156798
31.982,166709,206,156797
31.987,166707,204,156807
31.992,166723,203,156806
31.997,166717,202,156804
32.002,166716,205,156809
32.007,166715,202,156803
32.012,166717,201,156795
32.017,166721,209,156802
32.022,166724,208,156799
32.027,166726,205,156796
32.032,166730,203,156807
32.037,166730,202,156794
32.042,166727,202,156789
32.046,166731,210,156801
32.051,166736,202,156784
32.056,166724,201,156788
32.061,166744,200,156782
32.066,166742,209,156767
32.071,166751,208,156770
32.076,166748,205,156778
32.081,166748,205,156775
32.086,166745,203,156775
32.091,166755,202,156784
32.096,166764,200,156779
32.101,166765,204,156791
32.106,166766,202,156789
32.111,166799,201,156803
32.116,166789,200,156802
32.121,166795,210,156810
32.126,166788,207,156796
32.131,166794,207,156784
32.136,166791,205,156797
32.141,166808,204,156794
32.146,166813,202,156788
32.151,166814,206,156792
32.156,166818,205,156792
32.161,166818,205,156804
32.166,166847,203,156804
32.171,166854,201,156816
32.176,166848,210,156823
32.181,166842,207,156807
32.186,166854,203,156812
32.190,166857,201,156821
32.195,166855,208,156836
32.200,166868,206,156820
32.205,166883,204,156829
32.210,166874,202,156828
32.215,166895,210,156823
32.220,166884,209,156826
32.225,166904,207,156833
32.230,166906,206,156831
32.235,166908,203,156825
32.240,166907,202,156833
32.245,166933,199,156851
32.250,166936,202,156837
32.255,166951,200,156771
32.260,166947,208,156869
32.265,166958,206,156860
32.270,166955,205,156861
32.275,166964,202,156872
32.280,166970,202,156851
32.285,166963,199,156852
32.290,166969,209,156848
32.295,166993,195,156857
32.300,166985,200,156875
32.305,166995,208,156869
32.310,166990,206,156883
32.315,166994,204,156853
32.320,166998,203,156858
32.325,167005,202,156869
32.330,167022,201,156879
32.334,167025,209,156870
32.339,167022,209,156876
32.344,167015,201,156870
32.349,167038,201,156886
32.354,167045,208,156881
32.359,167045,207,156878
32.364,167058,206,156867
32.369,167058,204,156881
32.374,167054,202,156874
32.379,167061,201,156871
32.384,167066,210,156868
32.389,167093,208,156871
32.394,167077,201,156870
32.399,167080,202,156880
32.404,167099,210,156881
32.409,167093,208,156878
32.414,167098,205,156894
32.419,167128,204,156889
32.424,167117,201,156900
32.429,167116,210,156896
32.434,167124,209,156894
32.439,167131,208,156878
32.444,167140,200,156900
32.449,167154,210,156897
32.454,167162,208,156891
32.459,167158,207,156902
32.464,167145,206,156899
32.469,167171,205,156900
32.474,167198,203,156904
32.478,167180,201,156907
32.483,167181,210,156909
32.488,167204,208,156898
32.493,167191,200,156903
32.498,167198,210,156909
32.503,167210,208,156914
32.508,167201,207,156911
32.513,167208,204,156918
32.518,167217,202,156925
32.523,167213,201,156936
32.528,167226,210,156939
32.533,167229,207,156942
32.538,167209,207,156969
32.543,167199,207,156953
32.548,167197,206,156942
32.553,167189,203,156944
32.558,167171,202,156956
32.563,167168,200,156948
32.568,167139,207,156936
32.573,167119,205,156934
32.578,167112,203,156923
32.583,167081,201,156927
32.588,167098,202,156907
32.593,167055,201,156911
32.598,167055,209,156909
32.603,167033,207,156894
32.608,167008,203,156886
32.613,166995,201,156900
32.618,166997,209,156898
32.622,166979,207,156893
32.627,166973,205,156891
32.632,166972,204,156887
32.637,166969,208,156889
32.642,166959,206,156876
32.647,166947,204,156879
32.652,166936,203,156867
32.657,166922,201,156868
32.662,166912,200,156869
32.667,166900,209,156846
32.672,166880,208,156863
32.677,166869,207,156857
32.682,166866,207,156853
32.687,166863,200,156835
32.692,166843,209,156844
32.697,166842,207,156829
32.702,166810,206,156831
32.707,166795,203,156831
32.712,166795,202,156828
32.717,166787,200,156810
32.722,166781,210,156817
32.727,166766,207,156819
32.732,166754,206,156817
32.737,166736,208,156803
32.742,166737,206,156798
32.747,166738,203,156803
32.752,166717,202,156793
32.757,166720,200,156793
32.762,166708,209,156787
32.766,166707,207,156778
32.771,166687,205,156764
32.776,166678,203,156771
32.781,166677,202,156772
32.786,166665,205,156753
32.791,166671,205,156756
32.796,166693,204,156771
32.801,166661,205,156767
32.806,166674,203,156766
32.811,166665,203,156775
32.816,166674,201,156765
32.821,166667,201,156758
32.826,166675,210,156750
32.831,166673,199,156756
32.836,166671,202,156752
32.841,166686,202,156756
32.846,166673,200,156753
32.851,166665,211,156759
32.856,166677,209,156756
32.861,166652,209,156763
32.866,166662,207,156747
32.871,166654,207,156718
32.876,166667,205,156731
32.881,166636,211,156740
32.886,166635,209,156729
32.891,166641,208,156729
32.896,166637,207,156742
32.901,166639,207,156725
32.906,166647,205,156742
32.910,166630,204,156712
32.915,166615,203,156733
32.920,166624,201,156724
32.925,166630,210,156721
32.930,166632,203,156722
32.935,166628,201,156724
32.940,166630,202,156725
32.945,166616,210,156729
32.950,166616,210,156727
32.955,166631,207,156713
32.960,166603,207,156720
32.965,166610,205,156717
32.970,166611,204,156721
32.975,166608,203,156745
32.980,166611,207,156715
32.985,166632,204,156714
32.990,166615,204,156727
32.995,166612,202,156707
33.000,166615,202,156708
33.005,166628,201,156722
33.010,166626,201,156726
33.015,166631,209,156712
33.020,166638,208,156721
33.025,166605,205,156702
33.030,166628,206,156709
33.035,166632,204,156715
33.040,166630,204,156709
33.045,166638,203,156716
33.049,166638,202,156722
33.054,166638,200,156733
33.059,166645,200,156709
33.064,166632,209,156735
33.069,166655,208,156718
33.074,166652,208,156676
33.079,166659,201,156719
33.084,166659,209,156724
33.089,166672,207,156714
33.094,166655,205,156719
33.099,166677,203,156723
33.104,166688,202,156733
33.109,166691,200,156749
33.114,166689,209,156738
33.119,166678,208,156751
33.124,166687,210,156739
33.129,166713,210,156737
33.134,166698,209,156745
33.139,166714,208,156745
33.144,166708,206,156747
33.149,166701,205,156726
33.154,166711,203,156751
33.159,166712,203,156749
33.164,166728,201,156743
33.169,166731,209,156733
33.174,166748,202,156752
33.179,166731,211,156750
33.184,166741,208,156766
33.189,166756,206,156756
33.193,166752,203,156753
33.198,166768,201,156757
33.203,166758,208,156757
33.208,166771,205,156755
33.213,166772,203,156758
33.218,166785,202,156777
33.223,166814,204,156772
33.228,166807,202,156774
33.233,166803,200,156774
33.238,166816,209,156790
33.243,166823,206,156785
33.248,166826,203,156783
33.253,166834,201,156775
33.258,166842,208,156797
33.263,166818,207,156795
33.268,166828,205,156798
33.273,166863,204,156791
33.278,166848,202,156787
33.283,166851,201,156803
33.288,166862,209,156793
33.293,166845,206,156796
33.298,166863,204,156791
33.303,166871,202,156798
33.308,166881,200,156798
33.313,166895,208,156788
33.318,166891,206,156796
33.323,166894,209,156807
33.328,166901,206,156796
33.333,166899,205,156808
33.337,166921,203,156796
33.342,166920,202,156803
33.347,166931,210,156798
33.352,166919,207,156801
33.357,166928,205,156803
33.362,166928,206,156801
33.367,166935,205,156801
33.372,166959,211,156796
33.377,166965,207,156814
33.382,166954,206,156822
33.387,166945,204,156799
33.392,166980,202,156810
33.397,166969,210,156819
33.402,166969,209,156818
33.407,166985,205,156825
33.412,166988,205,156822
33.417,166988,207,156839
33.422,166993,206,156853
33.427,167004,205,156844
33.432,167021,204,156857
33.437,167029,202,156829
33.442,167020,201,156838
33.447,167035,209,156837
33.452,167044,208,156855
33.457,167047,206,156841
33.462,167035,204,156852
33.467,167041,207,156848
33.472,167049,204,156832
33.477,167043,202,156832
33.481,167061,201,156866
33.486,167041,209,156860
33.491,167049,207,156859
33.496,167057,204,156881
33.501,167041,203,156879
33.506,167035,200,156874
33.511,167033,210,156890
33.516,167005,201,156893
33.521,167002,211,156886
33.526,166960,208,156876
33.531,166979,206,156872
33.536,166951,205,156877
33.541,166932,204,156866
33.546,166922,202,156845
33.551,166881,202,156839
33.556,166874,200,156833
33.561,166857,210,156837
33.566,166839,201,156844
33.571,166830,200,156823
33.576,166812,209,156827
33.581,166798,208,156822
33.586,166794,205,156829
33.591,166778,204,156820
33.596,166771,202,156818
33.601,166754,202,156820
33.606,166738,210,156811
33.611,166742,210,156805
33.616,166727,202,156801
33.621,166703,202,156796
33.625,166693,200,156779
33.630,166684,211,156772
33.635,166701,208,156776
33.640,166656,210,156765
33.645,166652,209,156769
33.650,166640,209,156740
33.655,166617,208,156749
33.660,166644,199,156761
33.665,166610,200,156746
33.670,166594,210,156742
33.675,166579,207,156736
33.680,166577,206,156720
33.685,166564,204,156717
33.690,166551,204,156721
33.695,166543,203,156714
33.700,166535,202,156715
33.705,166520,201,156711
33.710,166549,204,156700
33.715,166511,209,156696
33.720,166498,209,156702
33.725,166515,208,156699
33.730,166501,207,156682
33.735,166488,206,156683
33.740,166476,206,156666
33.745,166480,205,156672
33.750,166483,204,156674
33.755,166476,203,156661
33.760,166469,207,156665
33.765,166471,206,156662
33.769,166484,205,156657
33.774,166476,203,156647
33.779,166481,203,156670
33.784,166464,201,156658
33.789,166484,210,156654
33.794,166473,207,156664
33.799,166468,204,156668
33.804,166457,203,156674
33.809,166453,205,156641
33.814,166452,203,156652
33.819,166461,202,156651
33.824,166444,210,156650
33.829,166443,208,156656
33.834,166436,205,156653
33.839,166438,204,156652
33.844,166446,203,156628
33.849,166445,202,156640
33.854,166432,200,156639
33.859,166433,204,156638
33.864,166437,202,156632
33.869,166431,201,156643
33.874,166430,210,156633
33.879,166428,208,156619
33.884,166420,206,156617
33.889,166428,205,156619
33.894,166403,203,156633
33.899,166419,202,156634
33.904,166410,204,156686
33.909,166423,204,156634
33.913,166405,204,156626
33.918,166415,203,156612
33.923,166408,203,156626
33.928,166420,202,156620
33.933,166407,200,156632
33.938,166416,200,156622
33.943,166396,210,156628
33.948,166406,208,156624
33.953,166404,200,156632
33.958,166406,210,156609
33.963,166411,208,156612
33.968,166409,205,156605
33.973,166413,203,156612
33.978,166412,201,156626
33.983,166416,200,156628
33.988,166430,209,156615
33.993,166423,208,156601
33.998,166419,206,156602
34.003,166431,200,156614
34.008,166434,209,156625
34.013,166430,208,156626
34.018,166417,207,156621
34.023,166431,206,156615
34.028,166444,204,156614
34.033,166452,203,156607
34.038,166456,202,156628
34.043,166447,201,156629
34.048,166454,210,156633
34.053,166463,202,156626
34.057,166454,201,156624
34.062,166481,201,156624
34.067,166471,210,156629
34.072,166473,208,156636
34.077,166486,207,156638
34.082,166490,207,156617
34.087,166487,205,156629
34.092,166483,205,156641
34.097,166504,203,156639
34.102,166503,208,156630
34.107,166511,206,156636
34.112,166525,204,156628
34.117,166520,202,156640
34.122,166503,201,156648
34.127,166530,200,156646
34.132,166540,209,156633
34.137,166543,206,156644
34.142,166550,205,156647
34.147,166545,204,156656
34.152,166560,205,156641
34.157,166551,207,156649
34.162,166566,207,156644
34.167,166569,204,156644
34.172,166563,204,156660
34.177,166582,202,156652
34.182,166567,202,156666
34.187,166589,209,156662
34.192,166604,208,156669
34.197,166599,217,156658
34.201,166592,210,156672
34.206,166597,208,156657
34.211,166605,207,156671
34.216,166599,204,156668
34.221,166623,204,156668
34.226,166618,201,156663
34.231,166626,201,156670
34.236,166638,209,156653
34.241,166635,208,156653
34.246,166623,201,156653
34.251,166638,201,156662
34.256,166669,199,156685
34.261,166655,210,156623
34.266,166666,205,156671
34.271,166664,205,156661
34.276,166669,203,156662
34.281,166670,202,156677
34.286,166676,201,156687
34.291,166689,200,156681
34.296,166687,202,156661
34.301,166693,203,156676
34.306,166700,201,156677
34.311,166711,201,156678
34.316,166719,200,156679
34.321,166717,210,156677
34.326,166725,208,156676
34.331,166738,207,156687
34.336,166739,205,156693
34.341,166737,205,156674
34.345,166744,208,156694
34.350,166755,207,156688
34.355,166766,204,156693
34.360,166790,204,156694
34.365,166790,201,156699
34.370,166780,201,156704
34.375,166792,208,156712
34.380,166794,208,156711
34.385,166796,206,156695
34.390,166819,206,156697
34.395,166806,210,156713
34.400,166818,209,156713
34.405,166811,207,156709
34.410,166813,206,156718
34.415,166809,204,156740
34.420,166807,204,156733
34.425,166794,202,156742
34.430,166801,201,156745
34.435,166788,200,156738
34.440,166762,201,156762
34.445,166752,209,156742
34.450,166750,209,156741
34.455,166719,206,156730
34.460,166708,206,156718
34.465,166688,204,156716
34.470,166663,204,156706
34.475,166650,202,156703
34.480,166632,203,156698
34.485,166633,202,156687
34.489,166633,205,156698
34.494,166589,210,156695
34.499,166569,208,156682
34.504,166553,206,156690
34.509,166531,205,156681
34.514,166535,203,156672
34.519,166523,202,156665
34.524,166515,200,156662
34.529,166509,209,156668
34.534,166481,207,156657
34.539,166482,203,156646
34.544,166465,204,156642
34.549,166448,202,156647
34.554,166432,201,156638
34.559,166430,210,156638
34.564,166412,208,156613
34.569,166388,206,156605
34.574,166381,204,156619
34.579,166380,203,156609
34.584,166360,201,156603
34.589,166356,210,156611
34.594,166331,201,156590
34.599,166324,210,156598
34.604,166323,208,156587
34.609,166316,207,156584
34.614,166302,204,156580
34.619,166298,203,156578
34.624,166276,202,156573
34.628,166263,201,156557
34.633,166251,199,156563
34.638,166246,204,156560
34.643,166245,202,156561
34.648,166248,201,156555
34.653,166223,210,156545
34.658,166215,209,156545
34.663,166224,206,156546
34.668,166197,204,156547
34.673,166213,201,156531
34.678,166209,209,156520
34.683,166207,207,156528
34.688,166218,209,156525
34.693,166205,207,156537
34.698,166213,205,156526
34.703,166206,203,156520
34.708,166209,200,156518
34.713,166226,208,156512
34.718,166220,207,156524
34.723,166201,205,156521
34.728,166208,202,156539
34.733,166201,201,156515
34.738,166199,210,156517
34.743,166210,208,156520
34.748,166208,205,156520
34.753,166214,203,156519
34.758,166196,202,156506
34.763,166199,201,156533
34.768,166174,210,156529
34.772,166198,207,156540
34.777,166182,206,156526
34.782,166198,210,156537
34.787,166190,207,156536
34.792,166189,205,156529
34.797,166193,203,156528
34.802,166167,203,156537
34.807,166179,201,156529
34.812,166185,200,156541
34.817,166170,209,156534
34.822,166175,208,156533
34.827,166164,205,156530
34.832,166192,201,156544
34.837,166171,202,156547
34.842,166165,201,156550
34.847,166161,209,156545
34.852,166152,207,156547
34.857,166155,204,156551
34.862,166170,203,156543
34.867,166166,199,156542
34.872,166168,207,156542
34.877,166150,205,156556
34.882,166153,203,156542
34.887,166149,201,156548
34.892,166164,210,156540
34.897,166172,207,156540
34.902,166169,206,156557
34.907,166162,205,156539
34.912,166187,204,156551
34.916,166184,202,156557
34.921,166178,202,156554
34.926,166162,201,156555
34.931,166193,205,156557
34.936,166187,204,156558
34.941,166193,204,156544
34.946,166200,202,156552
34.951,166180,202,156562
34.956,166207,200,156560
34.961,166212,201,156564
34.966,166214,208,156564
34.971,166220,207,156554
34.976,166234,205,156555
34.981,166247,208,156573
34.986,166241,205,156575
34.991,166243,205,156570
34.996,166254,202,156567
35.001,166255,201,156583
35.006,166252,200,156588
35.011,166270,209,156579
35.016,166264,207,156579
35.021,166274,206,156587
35.026,166312,203,156588
35.031,166303,209,156580
35.036,166278,206,156577
35.041,166292,207,156580
35.046,166303,204,156583
35.051,166330,203,156582
35.056,166320,200,156583
35.060,166320,200,156588
35.065,166319,207,156589
35.070,166334,206,156590
35.075,166353,209,156607
35.080,166360,207,156593
35.085,166367,204,156595
35.090,166377,202,156615
35.095,166379,200,156600
35.100,166377,210,156614
35.105,166376,206,156614
35.110,166388,205,156608
35.115,166404,202,156618
35.120,166406,202,156613
35.125,166394,204,156633
35.130,166414,204,156626
35.135,166412,202,156640
35.140,166430,201,156636
35.145,166426,210,156620
35.150,166433,208,156630
35.155,166441,205,156636
35.160,166450,204,156632
35.165,166442,202,156635
35.170,166452,201,156638
35.175,166466,203,156646
35.180,166475,203,156643
35.185,166486,201,156650
35.190,166480,201,156657
35.195,166516,208,156656
35.200,166514,209,156660
35.204,166523,207,156661
35.209,166525,206,156656
35.214,166517,204,156671
35.219,166530,203,156671
35.224,166539,206,156700
35.229,166543,205,156695
35.234,166547,203,156709
35.239,166557,202,156699
35.244,166560,200,156702
35.249,166558,209,156711
35.254,166574,208,156707
35.259,166585,205,156709
35.264,166589,204,156717
35.269,166587,206,156726
35.274,166600,201,156710
35.279,166608,200,156713
35.284,166606,208,156712
35.289,166613,208,156716
35.294,166637,206,156720
35.299,166635,205,156728
35.304,166641,203,156733
35.309,166649,201,156750
35.314,166645,200,156744
35.319,166651,203,156753
35.324,166653,200,156755
35.329,166666,209,156750
35.334,166660,207,156763
35.339,166658,206,156775
35.344,166653,204,156778
35.348,166645,203,156787
35.353,166650,201,156790
35.358,166632,201,156769
35.363,166608,201,156800
35.368,166587,204,156788
35.373,166594,201,156782
35.378,166579,200,156790
35.383,166555,210,156776
35.388,166532,207,156758
35.393,166530,205,156752
35.398,166506,204,156755
35.403,166494,203,156746
35.408,166466,201,156741
35.413,166451,200,156717
35.418,166441,203,156735
35.423,166430,202,156734
35.428,166418,200,156713
35.433,166405,208,156736
35.438,166397,206,156722
35.443,166389,204,156729
35.448,166387,202,156725
35.453,166363,200,156718
35.458,166359,209,156705
35.463,166336,208,156709
35.468,166344,203,156699
35.473,166316,202,156694
35.478,166318,201,156689
35.483,166299,200,156690
35.488,166298,209,156689
35.492,166284,208,156696
35.497,166272,207,156680
35.502,166257,205,156676
35.507,166252,204,156674
35.512,166237,204,156681
35.517,166244,201,156664
35.522,166235,201,156656
35.527,166212,209,156656
35.532,166211,208,156659
35.537,166191,205,156654
35.542,166204,205,156641
35.547,166168,202,156666
35.552,166155,200,156646
35.557,166166,200,156643
35.562,166148,199,156634
35.567,166147,202,156641
35.572,166145,201,156656
35.577,166136,200,156642
35.582,166125,208,156616
35.587,166118,206,156625
35.592,166118,205,156613
35.597,166127,203,156618
35.602,166123,201,156626
35.607,166108,210,156613
35.612,166114,201,156622
35.617,166114,200,156605
35.622,166111,211,156629
35.627,166102,208,156612
35.632,166102,207,156609
35.636,166113,205,156621
35.641,166122,206,156608
35.646,166131,203,156625
35.651,166115,203,156600
35.656,166106,203,156617
35.661,166115,210,156618
35.666,166101,200,156632
35.671,166113,210,156620
35.676,166107,208,156618
35.681,166124,207,156620
35.686,166112,205,156628
35.691,166107,205,156626
35.696,166104,203,156609
35.701,166096,203,156609
35.706,166098,200,156604
35.711,166089,209,156620
35.716,166100,207,156622
35.721,166098,207,156613
35.726,166085,203,156609
35.731,166089,203,156618
35.736,166092,201,156615
35.741,166094,200,156621
35.746,166082,208,156610
35.751,166095,207,156608
35.756,166101,204,156619
35.761,166090,208,156623
35.766,166102,205,156612
35.771,166097,204,156630
35.776,166089,201,156620
35.780,166097,201,156616
35.785,166098,199,156628
35.790,166095,209,156614
35.795,166103,207,156617
35.800,166099,207,156631
35.805,166093,207,156568
35.810,166099,208,156621
35.815,166112,206,156620
35.820,166121,206,156620
35.825,166106,204,156618
35.830,166120,204,156623
35.835,166115,201,156634
35.840,166114,202,156632
35.845,166134,200,156637
35.850,166117,210,156638
35.855,166153,201,156630
35.860,166139,202,156647
35.865,166148,199,156639
35.870,166139,210,156640
35.875,166151,207,156635
35.880,166150,207,156635
35.885,166152,205,156648
35.890,166163,203,156644
35.895,166160,201,156640
35.900,166169,200,156658
35.905,166195,202,156666
35.910,166189,201,156667
35.915,166208,210,156684
35.920,166212,209,156678
35.924,166220,207,156674
35.929,166233,205,156686
35.934,166223,204,156694
35.939,166237,202,156709
35.944,166246,200,156726
35.949,166243,209,156712
35.954,166252,205,156717
35.959,166252,210,156733
35.964,166256,208,156741
35.969,166264,206,156738
35.974,166263,204,156753
35.979,166281,204,156746
35.984,166282,202,156731
35.989,166296,200,156760
35.994,166284,210,156748
35.999,166301,208,156761
36.004,166316,200,156764
36.009,166327,209,156769
36.014,166328,207,156767
36.019,166333,206,156778
36.024,166332,204,156764
36.029,166355,203,156762
36.034,166353,202,156773
36.039,166358,201,156775
36.044,166378,211,156788
36.049,166375,210,156786
36.054,166373,201,156794
36.059,166376,201,156791
36.063,166390,199,156804
36.068,166410,210,156774
36.073,166403,209,156794
36.078,166402,208,156792
36.083,166414,206,156793
36.088,166430,205,156801
36.093,166428,203,156804
36.098,166450,201,156788
36.103,166442,207,156797
36.108,166454,208,156798
36.113,166461,208,156813
36.118,166465,208,156822
36.123,166457,209,156812
36.128,166478,209,156807
36.133,166468,210,156826
36.138,166490,210,156817
36.143,166481,210,156818
36.148,166485,203,156828
36.153,166497,203,156826
36.158,166487,203,156828
36.163,166502,202,156834
36.168,166518,203,156833
36.173,166523,203,156831
36.178,166513,203,156826
36.183,166527,205,156841
36.188,166538,205,156838
36.193,166554,207,156829
36.198,166552,202,156842
36.203,166566,202,156854
36.207,166558,202,156844
36.212,166572,203,156860
36.217,166581,204,156855
36.222,166593,205,156866
36.227,166587,205,156886
36.232,166609,205,156876
36.237,166610,205,156880
36.242,166611,205,156891
36.247,166628,203,156890
36.252,166630,204,156904
36.257,166654,202,156928
36.262,166642,205,156916
36.267,166645,205,156939
36.272,166635,206,156932
36.277,166628,207,156946
36.282,166629,208,156938
36.287,166601,207,156926
36.292,166598,209,156950
36.297,166583,206,156934
36.302,166561,208,156936
36.307,166555,208,156923
36.312,166536,209,156917
36.317,166504,209,156908
36.322,166489,210,156916
36.327,166477,209,156909
36.332,166450,209,156895
36.337,166449,209,156894
36.342,166419,198,156887
36.347,166421,206,156897
36.351,166413,207,156891
36.356,166395,207,156894
36.361,166482,218,156887
36.366,166373,209,156902
36.371,166364,210,156895
36.376,166342,200,156877
36.381,166341,202,156874
36.386,166328,201,156873
36.391,166337,206,156884
36.396,166321,201,156879
36.401,166297,201,156861
36.406,166311,201,156871
36.411,166279,201,156857
36.416,166278,200,156865
36.421,166264,202,156858
36.426,166279,202,156868
36.431,166255,203,156857
36.436,166238,201,156850
36.441,166233,206,156847
36.446,166242,206,156857
36.451,166224,206,156836
36.456,166205,206,156853
36.461,166206,207,156842
36.466,166198,206,156854
36.471,166187,206,156841
36.476,166180,206,156847
36.481,166193,207,156841
36.486,166170,208,156846
36.491,166146,202,156840
36.495,166159,201,156835
36.500,166180,203,156834
36.505,166162,202,156819
36.510,166146,203,156829
36.515,166145,202,156806
36.520,166141,202,156812
36.525,166141,201,156801
36.530,166141,202,156818
36.535,166140,201,156811
36.540,166152,208,156816
36.545,166149,207,156810
36.550,166160,208,156823
36.555,166167,208,156826
36.560,166158,211,156818
36.565,166172,199,156842
36.570,166165,210,156818
36.575,166161,200,156821
36.580,166161,201,156827
36.585,166145,203,156889
36.590,166144,203,156835
36.595,166157,203,156832
36.600,166163,205,156839
36.605,166159,205,156827
36.610,166154,205,156826
36.615,166151,204,156822
36.620,166154,205,156842
36.625,166148,206,156831
36.630,166146,207,156816
36.635,166131,199,156820
36.639,166161,202,156825
36.644,166166,202,156832
36.649,166161,203,156853
36.654,166172,202,156840
36.659,166161,202,156831
36.664,166152,202,156846
36.669,166152,203,156841
36.674,166165,202,156832
36.679,166163,203,156846
36.684,166150,208,156824
36.689,166166,201,156822
36.694,166163,201,156839
36.699,166155,201,156847
36.704,166167,200,156839
36.709,166171,201,156832
36.714,166163,201,156859
36.719,166177,202,156860
36.724,166188,201,156847
36.729,166184,202,156838
36.734,166201,205,156862
36.739,166217,205,156845
36.744,166196,205,156846
36.749,166211,206,156843
36.754,166202,204,156837
36.759,166194,202,156832
36.764,166203,200,156841
36.769,166201,210,156827
36.774,166195,206,156817
36.779,166184,205,156820
36.783,166198,209,156822
36.788,166225,207,156839
36.793,166211,204,156839
36.798,166219,204,156851
36.803,166239,201,156846
36.808,166247,200,156841
36.813,166258,208,156850
36.818,166279,207,156865
36.823,166276,205,156866
36.828,166283,204,156878
36.833,166289,207,156883
36.838,166293,208,156901
36.843,166309,209,156909
36.848,166314,210,156895
36.853,166313,200,156914
36.858,166309,201,156909
36.863,166329,201,156914
36.868,166326,201,156913
36.873,166322,201,156917
36.878,166354,199,156928
36.883,166329,205,156938
36.888,166355,206,156927
36.893,166374,207,156934
36.898,166359,207,156946
36.903,166367,209,156934
36.908,166365,208,156939
36.913,166388,207,156936
36.918,166391,207,156968
36.923,166387,207,156980
36.927,166405,201,156983
36.932,166423,200,156983
36.937,166423,200,156989
36.942,166412,201,156992
36.947,166435,201,156988
36.952,166433,201,156978
36.957,166455,201,156993
36.962,166454,202,156987
36.967,166470,201,156997
36.972,166466,201,156997
36.977,166490,205,156995
36.982,166487,206,157010
36.987,166506,205,156993
36.992,166492,206,157007
36.997,166518,207,157010
37.002,166512,208,157020
37.007,166542,208,157005
37.012,166542,208,157024
37.017,166539,208,157022
37.022,166563,208,157033
37.027,166550,202,157030
37.032,166567,202,157027
37.037,166585,201,157056
37.042,166582,202,157041
37.047,166585,201,157057
37.052,166593,201,157047
37.057,166597,200,157048
37.062,166605,201,157055
37.067,166619,201,157054
37.071,166590,201,157067
37.076,166627,209,157060
37.081,166636,209,157061
37.086,166648,208,157075
37.091,166655,208,157066
37.096,166674,208,157070
37.101,166665,209,157084
37.106,166667,208,157088
37.111,166657,209,157096
37.116,166675,209,157106
37.121,166678,201,157103
37.126,166658,202,157103
37.131,166685,203,157101
37.136,166698,204,157113
37.141,166689,205,157108
37.146,166688,204,157110
37.151,166696,204,157114
37.156,166692,204,157125
37.161,166675,205,157128
37.166,166659,204,157122
37.171,166687,208,157121
37.176,166640,208,157123
37.181,166618,210,157105
37.186,166613,200,157093
37.191,166579,200,157102
37.196,166555,200,157107
37.201,166561,201,157095
37.206,166532,199,157090
37.211,166516,210,157089
37.215,166507,210,157091
37.220,166498,204,157098
37.225,166499,203,157075
37.230,166460,205,157081
37.235,166482,206,157076
37.240,166471,207,157078
37.245,166446,207,157079
37.250,166437,208,157080
37.255,166446,174,157079
37.260,166446,208,157068
37.265,166432,207,157072
37.270,166411,202,157082
37.275,166418,202,157072
37.280,166403,203,157050
37.285,166375,202,157055
37.290,166390,203,157047
37.295,166367,203,157049
37.300,166365,205,157041
37.305,166369,205,157045
37.310,166337,206,157039
37.315,166334,207,157044
37.320,166341,201,157040
37.325,166327,201,157034
37.330,166317,203,157051
37.335,166314,202,157054
37.340,166310,203,157055
37.345,166297,202,157067
37.350,166302,203,157061
37.355,166278,203,157073
37.359,166292,204,157057
37.364,166275,208,157093
37.369,166272,206,157051
37.374,166264,205,157037
37.379,166263,207,157024
37.384,166263,207,157024
37.389,166264,208,157025
37.394,166261,207,157027
37.399,166247,210,157028
37.404,166252,209,157030
37.409,166259,201,157033
37.414,166306,202,157022
37.419,166266,206,157029
37.424,166268,206,157031
37.429,166284,207,157018
37.434,166271,207,157025
37.439,166290,208,157038
37.444,166287,208,157059
37.449,166284,209,157032
37.454,166290,209,157041
37.459,166298,200,157019
37.464,166289,205,157033
37.469,166291,207,157039
37.474,166287,207,157035
37.479,166293,209,157038
37.484,166293,209,157037
37.489,166283,209,157030
37.494,166286,210,157029
37.499,166287,200,157033
37.503,166275,200,157038
37.508,166292,200,157039
37.513,166302,204,157044
37.518,166290,204,157040
37.523,166300,204,157045
37.528,166304,205,157049
37.533,166277,205,157058
37.538,166292,206,157048
37.543,166294,206,157050
37.548,166283,208,157057
37.553,166286,209,157057
37.558,166302,209,157061
37.563,166292,202,157069
37.568,166298,204,157060
37.573,166306,204,157070
37.578,166303,205,157056
37.583,166294,205,157065
37.588,166304,205,157064
37.593,166297,206,157062
37.598,166297,207,157050
37.603,166307,207,157056
37.608,166311,209,157054
37.613,166293,202,157052
37.618,166301,203,157063
37.623,166313,203,157058
37.628,166308,203,157046
37.633,166316,204,157055
37.638,166320,206,157047
37.642,166310,207,157057
37.647,166330,208,157054
37.652,166316,209,157053
37.657,166355,198,157074
37.662,166332,205,157061
37.667,166353,206,157067
37.672,166342,205,157065
37.677,166353,206,157068
37.682,166349,207,157072
37.687,166356,207,157076
37.692,166354,207,157066
37.697,166372,208,157073
37.702,166374,209,157080
37.707,166394,204,157086
37.712,166376,207,157091
37.717,166398,208,157081
37.722,166397,208,157092
37.727,166396,208,157100
37.732,166421,208,157109
37.737,166426,208,157118
37.742,166422,208,157101
37.747,166434,206,157102
37.752,166447,207,157108
37.757,166485,205,157104
37.762,166467,202,157116
37.767,166469,203,157119
37.772,166484,203,157121
37.777,166475,204,157114
37.782,166499,205,157122
37.786,166513,205,157126
37.791,166507,207,157107
37.796,166518,209,157127
37.801,166531,199,157128
37.806,166516,205,157130
37.811,166545,206,157135
37.816,166546,208,157128
37.821,166553,209,157138
37.826,166559,210,157149
37.831,166565,210,157142
37.836,166565,200,157152
37.841,166582,211,157161
37.846,166577,210,157157
37.851,166597,200,157161
37.856,166593,202,157166
37.861,166610,204,157180
37.866,166590,203,157168
37.871,166608,204,157196
37.876,166614,204,157178
37.881,166630,206,157186
37.886,166646,205,157196
37.891,166642,205,157198
37.896,166649,205,157201
37.901,166661,204,157213
37.906,166667,200,157213
37.911,166677,200,157217
37.916,166683,201,157212
37.921,166685,202,157202
37.926,166693,202,157226
37.930,166696,203,157221
37.935,166696,203,157219
37.940,166710,204,157224
37.945,166706,205,157239
37.950,166702,210,157237
37.955,166723,200,157227
37.960,166716,200,157236
37.965,166702,200,157262
37.970,166695,200,157254
37.975,166698,200,157262
37.980,166686,202,157263
37.985,166663,202,157258
37.990,166662,204,157275
37.995,166637,203,157241
38.000,166625,210,157243
38.005,166608,210,157225
38.010,166590,199,157248
38.015,166566,200,157203
38.020,166562,201,157226
38.025,166533,201,157218
38.030,166528,202,157228
38.035,166517,202,157213
38.040,166512,203,157212
38.045,166491,202,157214
38.050,166485,207,157226
38.055,166484,207,157204
38.060,166478,209,157216
38.065,166457,208,157204
38.070,166453,210,157202
38.074,166441,200,157200
38.079,166421,201,157199
38.084,166412,201,157198
38.089,166407,203,157186
38.094,166412,202,157184
38.099,166390,207,157196
38.104,166378,206,157187
38.109,166383,207,157181
38.114,166360,207,157180
38.119,166345,208,157176
38.124,166341,207,157171
38.129,166338,208,157171
38.134,166315,206,157177
38.139,166302,208,157167
38.144,166306,209,157162
38.149,166304,201,157167
38.154,166293,202,157159
38.159,166294,204,157160
38.164,166282,203,157154
38.169,166265,204,157149
38.174,166258,204,157154
38.179,166255,205,157140
38.184,166252,205,157144
38.189,166258,204,157122
38.194,166257,208,157123
38.199,166223,203,157133
38.204,166224,203,157120
38.209,166236,203,157129
38.214,166232,202,157129
38.218,166231,203,157138
38.223,166237,202,157123
38.228,166224,203,157126
38.233,166236,203,157126
38.238,166236,205,157124
38.243,166246,200,157126
38.248,166259,203,157139
38.253,166246,203,157127
38.258,166249,203,157137
38.263,166242,203,157140
38.268,166238,204,157149
38.273,166239,204,157153
38.278,166239,205,157136
38.283,166229,204,157142
38.288,166245,205,157131
38.293,166238,208,157127
38.298,166231,210,157137
38.303,166228,209,157135
38.308,166237,209,157138
38.313,166236,209,157126
38.318,166238,210,157136
38.323,166233,210,157129
38.328,166244,200,157136
38.333,166231,200,157137
38.338,166244,202,157135
38.343,166219,208,157122
38.348,166216,209,157136
38.353,166240,208,157120
38.358,166239,209,157124
38.362,166221,210,157123
38.367,166234,210,157132
38.372,166239,200,157121
38.377,166248,201,157135
38.382,166233,201,157131
38.387,166249,204,157155
38.392,166258,205,157156
38.397,166243,206,157142
38.402,166249,206,157169
38.407,166257,206,157164
38.412,166254,206,157169
38.417,166269,206,157170
38.422,166265,207,157171
38.427,166272,207,157168
38.432,166283,208,157168
38.437,166293,200,157115
38.442,166277,204,157165
38.447,166274,206,157173
38.452,166283,205,157168
38.457,166290,207,157169
38.462,166275,207,157168
38.467,166283,207,157182
38.472,166297,208,157179
38.477,166292,209,157188
38.482,166312,208,157187
38.487,166331,204,157190
38.492,166319,208,157191
38.497,166325,208,157199
38.502,166321,207,157199
38.506,166332,206,157201
38.511,166332,206,157205
38.516,166340,206,157216
38.521,166335,205,157200
38.526,166353,206,157229
38.531,166361,206,157216
38.536,166355,204,157225
38.541,166371,204,157225
38.546,166387,205,157222
38.551,166376,204,157244
38.556,166387,204,157235
38.561,166386,205,157250
38.566,166392,205,157237
38.571,166402,206,157238
38.576,166403,206,157255
38.581,166400,205,157253
38.586,166404,210,157252
38.591,166415,210,157257
38.596,166427,209,157264
38.601,166441,209,157250
38.606,166424,209,157247
38.611,166430,208,157260
38.616,166454,208,157262
38.621,166445,209,157264
38.626,166462,209,157252
38.631,166456,210,157281
38.636,166468,202,157258
38.641,166474,202,157282
38.646,166473,203,157271
38.650,166490,203,157277
38.655,166493,203,157273
38.660,166497,204,157276
38.665,166511,204,157295
38.670,166510,204,157288
38.675,166508,205,157302
38.680,166503,210,157302
38.685,166545,204,157313
38.690,166539,204,157314
38.695,166544,205,157335
38.700,166546,205,157318
38.705,166555,204,157324
38.710,166543,205,157299
38.715,166577,205,157321
38.720,166556,205,157317
38.725,166582,205,157340
38.730,166582,200,157333
38.735,166606,210,157336
38.740,166599,200,157343
38.745,166612,200,157347
38.750,166616,201,157341
38.755,166640,201,157341
38.760,166636,202,157346
38.765,166649,201,157360
38.770,166625,202,157360
38.775,166647,201,157349
38.780,166658,207,157357
38.785,166667,205,157361
38.790,166659,206,157369
38.794,166686,207,157370
38.799,166672,208,157382
38.804,166672,209,157386
38.809,166676,210,157396
38.814,166666,200,157398
38.819,166654,201,157399
38.824,166630,200,157400
38.829,166621,207,157397
38.834,166599,207,157385
38.839,166560,208,157376
38.844,166561,207,157383
38.849,166539,209,157372
38.854,166519,209,157359
38.859,166498,210,157360
38.864,166483,200,157349
38.869,166475,201,157345
38.874,166474,201,157349
38.879,166465,211,157332
38.884,166448,209,157336
38.889,166443,210,157330
38.894,166429,200,157341
38.899,166419,201,157328
38.904,166402,201,157336
38.909,166396,202,157323
38.914,166392,201,157320
38.919,166375,202,157315
38.924,166363,211,157323
38.929,166352,201,157318
38.934,166348,200,157309
38.938,166339,202,157310
38.943,166320,201,157308
38.948,166323,202,157297
38.953,166307,202,157311
38.958,166283,203,157301
38.963,166269,202,157297
38.968,166259,201,157297
38.973,166259,204,157294
38.978,166247,206,157277
38.983,166243,205,157294
38.988,166231,207,157282
38.993,166209,208,157264
38.998,166208,209,157278
39.003,166197,207,157278
39.008,166182,207,157272
39.013,166195,206,157272
39.018,166168,207,157267
39.023,166153,200,157262
39.028,166149,201,157263
39.033,166147,201,157258
39.038,166135,202,157255
39.043,166140,201,157253
39.048,166135,203,157250
39.053,166138,203,157261
39.058,166130,205,157249
39.063,166142,204,157252
39.068,166116,205,157254
39.073,166142,209,157262
39.077,166135,211,157249
39.082,166150,200,157262
39.087,166154,200,157268
39.092,166149,200,157262
39.097,166140,202,157265
39.102,166127,202,157261
39.107,166139,201,157280
39.112,166147,201,157277
39.117,166140,202,157274
39.122,166140,206,157268
39.127,166150,207,157270
39.132,166136,206,157267
39.137,166136,208,157255
39.142,166144,207,157265
39.147,166147,208,157267
39.152,166133,207,157271
39.157,166133,208,157267
39.162,166144,209,157266
39.167,166135,202,157284
39.172,166142,202,157268
39.177,166135,202,157271
39.182,166127,201,157252
39.187,166144,201,157260
39.192,166131,201,157258
39.197,166139,203,157277
39.202,166129,203,157252
39.207,166133,205,157277
39.212,166150,206,157284
39.217,166128,201,157279
39.221,166148,203,157297
39.226,166136,204,157287
39.231,166144,203,157299
39.236,166150,205,157286
39.241,166153,205,157287
39.246,166153,204,157288
39.251,166144,204,157290
39.256,166170,203,157293
39.261,166161,203,157311
39.266,166171,200,157288
39.271,166179,201,157295
39.276,166165,202,157295
39.281,166178,202,157296
39.286,166180,202,157298
39.291,166186,202,157285
39.296,166185,203,157288
39.301,166179,203,157297
39.306,166179,203,157299
39.311,166188,204,157312
39.316,166185,202,157305
39.321,166189,209,157300
39.326,166215,210,157309
39.331,166210,209,157307
39.336,166216,200,157301
39.341,166217,200,157315
39.346,166228,201,157316
39.351,166231,200,157315
39.356,166235,201,157314
39.361,166229,204,157329
39.365,166250,207,157324
39.370,166243,207,157338
39.375,166251,209,157327
39.380,166260,209,157330
39.385,166257,211,157342
39.390,166261,200,157338
39.395,166287,202,157342
39.400,166277,202,157342
39.405,166289,202,157351
39.410,166300,204,157400
39.415,166300,208,157344
39.420,166299,209,157342
39.425,166306,210,157358
39.430,166313,200,157336
39.435,166311,201,157356
39.440,166314,201,157357
39.445,166331,200,157365
39.450,166338,201,157362
39.455,166349,202,157366
39.460,166345,203,157369
39.465,166366,207,157381
39.470,166377,207,157390
39.475,166377,207,157397
39.480,166386,207,157407
39.485,166390,207,157387
39.490,166395,207,157421
39.495,166402,207,157404
39.500,166405,207,157412
39.505,166407,207,157398
39.509,166417,201,157400
39.514,166412,202,157409
39.519,166410,202,157408
39.524,166433,202,157414
39.529,166455,203,157407
39.534,166443,204,157416
39.539,166449,205,157424
39.544,166441,206,157431
39.549,166472,208,157429
39.554,166472,209,157432
39.559,166480,207,157441
39.564,166478,201,157434
39.569,166496,201,157445
39.574,166492,201,157445
39.579,166514,202,157458
39.584,166516,203,157450
39.589,166521,204,157456
39.594,166538,204,157464
39.599,166531,206,157461
39.604,166526,207,157456
39.609,166535,205,157452
39.614,166559,206,157472
39.619,166544,207,157468
39.624,166556,208,157455
39.629,166564,210,157467
39.634,166577,200,157474
39.639,166592,202,157473
39.644,166601,202,157485
39.649,166598,203,157488
39.653,166617,205,157507
39.658,166618,210,157490
39.663,166611,210,157490
39.668,166623,200,157498
39.673,166630,200,157504
39.678,166622,202,157513
39.683,166644,202,157509
39.688,166627,204,157517
39.693,166612,204,157516
39.698,166634,206,157522
39.703,166613,210,157530
39.708,166623,201,157528
39.713,166611,201,157522
39.718,166578,202,157521
39.723,166547,201,157519
39.728,166539,202,157506
39.733,166512,202,157507
39.738,166506,205,157496
39.743,166485,206,157478
39.748,166457,207,157487
39.753,166458,201,157463
39.758,166434,203,157480
39.763,166417,202,157463
39.768,166432,204,157466
39.773,166400,204,157461
39.778,166389,206,157459
39.783,166390,205,157463
39.788,166371,207,157463
39.793,166359,207,157457
39.797,166335,208,157446
