df_hash,22ZHK4.WCZFFA
device,HZ2X61
project_hash,29R7
project_name,istanbul_aydin_university
person_hash,29R7.XKHD
person_label,V44
date_time_start,2025-10-27_14-47-56.312000_+03
date_time_start_unix,1761562076.312
date_time_end,2025-10-27_14-56-44.155000_+03
length_difference_noticed,no

time,ppg_med
5.762,516
5.787,592
5.812,714
5.837,780
5.862,754
5.887,728
5.912,798
5.937,928
5.962,977
5.987,897
6.012,813
6.037,857
6.062,977
6.087,984
6.112,813
6.137,632
6.162,622
6.187,711
6.212,647
6.237,342
6.262,24
6.287,-66
6.312,-25
6.337,-185
6.362,-659
6.387,-1147
6.412,-1332
6.437,-1339
6.462,-1602
6.487,-2262
6.512,-2930
6.537,-3195
6.562,-3220
6.587,-3560
6.612,-4391
6.637,-5215
6.662,-5508
6.687,-5477
6.712,-5825
6.737,-6773
6.762,-7687
6.787,-7909
6.812,-7701
6.837,-7943
6.862,-8912
6.887,-9813
6.912,-9822
6.937,-9266
6.962,-9248
6.987,-10114
7.012,-10869
7.037,-10488
7.062,-9381
7.087,-8925
7.112,-9551
7.137,-10023
7.162,-9062
7.187,-7181
7.212,-6105
7.237,-6379
7.262,-6459
7.287,-4738
7.312,-1860
7.337,-4
7.362,125
7.387,479
7.412,3109
7.437,7201
7.462,9949
7.487,10421
7.512,11132
7.537,14780
7.562,20322
7.587,24024
7.612,24580
7.637,25366
7.662,30129
7.687,32767
7.712,32767
7.737,32767
7.762,32767
7.787,32767
7.812,32767
7.837,32767
7.862,32767
7.887,32767
7.912,32767
7.937,32767
7.962,32767
7.987,32767
8.012,13706
8.037,-32768
8.062,-32768
8.087,-32768
8.112,-32768
8.137,-32768
8.162,-32768
8.187,-32768
8.212,-32768
8.237,-32768
8.262,-32768
8.287,-32768
8.312,-32768
8.337,-32768
8.362,-32665
8.387,-26336
8.412,-24203
8.437,-24142
8.462,-21833
8.487,-16596
8.512,-11827
8.537,-10122
8.562,-10004
8.587,-8300
8.612,-4460
8.637,-1002
8.662,97
8.687,-51
8.712,991
8.737,3671
8.762,6039
8.787,6544
8.812,6043
8.837,6463
8.862,8181
8.887,9682
8.912,9754
8.937,9076
8.962,9163
8.987,10282
9.012,11190
9.037,10899
9.062,9960
9.087,9609
9.112,10088
9.137,10420
9.162,9821
9.187,8736
9.212,8155
9.237,8265
9.262,8279
9.287,7569
9.312,6491
9.337,5839
9.362,5767
9.387,5643
9.412,4963
9.437,4006
9.462,3402
9.487,3273
9.512,3123
9.537,2547
9.562,1761
9.587,1262
9.612,1165
9.637,1102
9.662,767
9.687,309
9.712,81
9.737,140
9.762,195
9.787,16
9.812,-272
9.837,-399
9.862,-321
9.887,-259
9.912,-378
9.937,-570
9.962,-626
9.987,-522
10.012,-431
10.037,-484
10.062,-604
10.087,-630
10.112,-536
10.137,-449
10.162,-471
10.187,-549
10.212,-566
10.237,-494
10.262,-422
10.287,-429
10.312,-487
10.337,-507
10.362,-453
10.387,-366
10.412,-292
10.437,-217
10.462,-102
10.487,50
10.512,192
10.537,285
10.562,348
10.587,402
10.612,412
10.637,400
10.662,385
10.687,380
10.712,380
10.737,374
10.762,359
10.787,340
10.812,320
10.837,297
10.862,267
10.887,233
10.912,199
10.937,167
10.962,134
10.987,99
11.012,63
11.037,29
11.062,-5
11.087,-47
11.112,-96
11.137,-132
11.162,-133
11.187,-90
11.212,-20
11.237,52
11.262,116
11.287,174
11.312,234
11.337,294
11.362,341
11.387,366
11.412,375
11.437,381
11.462,389
11.487,395
11.512,393
11.537,383
11.562,367
11.587,347
11.612,321
11.637,287
11.662,250
11.687,215
11.712,188
11.737,168
11.762,154
11.787,146
11.812,135
11.837,107
11.862,55
11.887,-11
11.912,-63
11.937,-72
11.962,-35
11.987,28
12.012,94
12.037,148
12.062,196
12.087,242
12.112,282
12.137,307
12.162,316
12.187,315
12.212,311
12.237,306
12.262,300
12.287,297
12.312,304
12.337,321
12.362,340
12.387,347
12.412,336
12.437,310
12.462,277
12.487,237
12.512,190
12.537,142
12.562,102
12.587,69
12.612,35
12.637,-10
12.662,-60
12.687,-87
12.712,-69
12.737,-8
12.762,69
12.787,136
12.812,186
12.837,233
12.862,288
12.887,343
12.912,381
12.937,394
12.962,391
12.987,387
13.012,388
13.037,390
13.062,385
13.087,370
13.112,349
13.137,325
13.162,298
13.187,268
13.212,237
13.237,207
13.262,176
13.287,142
13.312,105
13.337,68
13.362,32
13.387,-7
13.412,-57
13.437,-110
13.462,-146
13.487,-143
13.512,-98
13.537,-27
13.562,42
13.587,100
13.612,154
13.637,215
13.662,283
13.687,343
13.712,380
13.737,395
13.762,399
13.787,407
13.812,418
13.837,425
13.862,420
13.887,403
13.912,381
13.937,356
13.962,329
13.987,300
14.012,271
14.037,244
14.062,219
14.087,191
14.112,158
14.137,121
14.162,86
14.187,51
14.212,12
14.237,-30
14.262,-66
14.287,-78
14.312,-56
14.337,-5
14.362,54
14.387,109
14.412,157
14.437,207
14.462,263
14.487,317
14.512,353
14.537,363
14.562,356
14.587,348
14.612,346
14.637,349
14.662,345
14.687,330
14.712,307
14.737,283
14.762,259
14.787,233
14.812,203
14.837,172
14.862,142
14.887,115
14.912,86
14.937,53
14.962,19
14.987,-13
15.012,-44
15.037,-74
15.062,-100
15.087,-106
15.112,-80
15.137,-18
15.162,62
15.187,140
15.212,206
15.237,264
15.262,323
15.287,383
15.312,432
15.337,462
15.362,473
15.387,479
15.412,486
15.437,494
15.462,494
15.487,485
15.512,473
15.537,460
15.562,443
15.587,413
15.612,371
15.637,325
15.662,285
15.687,253
15.712,221
15.737,177
15.762,119
15.787,50
15.812,-25
15.837,-100
15.862,-163
15.887,-194
15.912,-183
15.937,-131
15.962,-59
15.987,13
16.012,77
16.037,137
16.062,195
16.087,248
16.112,287
16.137,306
16.162,313
16.187,316
16.212,321
16.237,328
16.262,329
16.287,324
16.312,311
16.337,293
16.362,271
16.387,249
16.412,226
16.437,203
16.462,178
16.487,150
16.512,122
16.537,94
16.562,61
16.587,20
16.612,-24
16.637,-56
16.662,-54
16.687,-9
16.712,64
16.737,140
16.762,199
16.787,243
16.812,283
16.837,324
16.862,359
16.887,378
16.912,378
16.937,369
16.962,364
16.987,366
17.012,369
17.037,362
17.062,342
17.087,315
17.112,290
17.137,268
17.162,242
17.187,209
17.212,172
17.237,138
17.262,114
17.287,93
17.312,61
17.337,12
17.362,-40
17.387,-73
17.412,-65
17.437,-15
17.462,55
17.487,124
17.512,181
17.537,230
17.562,278
17.587,320
17.612,350
17.637,362
17.662,364
17.687,367
17.712,377
17.737,387
17.762,387
17.787,372
17.812,346
17.837,316
17.862,287
17.887,256
17.912,220
17.937,179
17.962,138
17.987,103
18.012,70
18.037,32
18.062,-16
18.087,-71
18.112,-112
18.137,-117
18.162,-80
18.187,-15
18.212,53
18.237,110
18.262,156
18.287,205
18.312,261
18.337,315
18.362,350
18.387,361
18.412,358
18.437,357
18.462,368
18.487,385
18.512,397
18.537,395
18.562,378
18.587,352
18.612,324
18.637,297
18.662,267
18.687,233
18.712,193
18.737,150
18.762,107
18.787,64
18.812,17
18.837,-36
18.862,-88
18.887,-117
18.912,-105
18.937,-52
18.962,24
18.987,99
19.012,159
19.037,212
19.062,267
19.087,324
19.112,370
19.137,394
19.162,398
19.187,396
19.212,398
19.237,403
19.262,403
19.287,392
19.312,372
19.337,347
19.362,321
19.387,294
19.412,265
19.437,233
19.462,202
19.487,169
19.512,135
19.537,99
19.562,61
19.587,17
19.612,-32
19.637,-82
19.662,-114
19.687,-109
19.712,-62
19.737,10
19.762,85
19.787,146
19.812,195
19.837,243
19.862,295
19.887,342
19.912,374
19.937,385
19.962,383
19.987,378
20.012,375
20.037,375
20.062,373
20.087,364
20.112,346
20.137,317
20.162,283
20.187,250
20.212,224
20.237,199
20.262,170
20.287,132
20.312,93
20.337,61
20.362,35
20.387,4
20.412,-38
20.437,-83
20.462,-106
20.487,-85
20.512,-26
20.537,49
20.562,117
20.587,172
20.612,221
20.637,273
20.662,325
20.687,363
20.712,383
20.737,386
20.762,384
20.787,383
20.812,381
20.837,379
20.862,374
20.887,367
20.912,352
20.937,327
20.962,294
20.987,261
21.012,234
21.037,210
21.062,181
21.087,145
21.112,106
21.137,69
21.162,34
21.187,-5
21.212,-50
21.237,-85
21.262,-90
21.287,-55
21.312,7
21.337,79
21.362,142
21.387,195
21.412,240
21.437,281
21.462,315
21.487,336
21.512,347
21.537,352
21.562,357
21.587,362
21.612,364
21.637,359
21.662,345
21.687,322
21.712,295
21.737,270
21.762,250
21.787,229
21.812,202
21.837,168
21.862,134
21.887,107
21.912,84
21.937,55
21.962,14
21.987,-26
22.012,-43
22.037,-22
22.062,32
22.087,98
22.112,158
22.137,206
22.162,249
22.187,289
22.212,321
22.237,338
22.262,342
22.287,339
22.312,336
22.337,333
22.362,328
22.387,319
22.412,308
22.437,296
22.462,279
22.487,254
22.512,221
22.537,184
22.562,148
22.587,115
22.612,86
22.637,58
22.662,27
22.687,-10
22.712,-48
22.737,-72
22.762,-67
22.787,-28
22.812,33
22.837,102
22.862,164
22.887,219
22.912,270
22.937,315
22.962,347
22.987,361
23.012,362
23.037,359
23.062,359
23.087,360
23.112,358
23.137,347
23.162,331
23.187,310
23.212,286
23.237,261
23.262,233
23.287,206
23.312,177
23.337,147
23.362,116
23.387,83
23.412,47
23.437,4
23.462,-41
23.487,-78
23.512,-86
23.537,-51
23.562,18
23.587,102
23.612,177
23.637,239
23.662,297
23.687,358
23.712,416
23.737,459
23.762,479
23.787,487
23.812,496
23.837,512
23.862,523
23.887,513
23.912,474
23.937,411
23.962,342
23.987,282
24.012,235
24.037,195
24.062,150
24.087,100
24.112,48
24.137,5
24.162,-30
24.187,-67
24.212,-115
24.237,-167
24.262,-201
24.287,-191
24.312,-133
24.337,-49
24.362,29
24.387,88
24.412,133
24.437,178
24.462,230
24.487,283
24.512,325
24.537,352
24.562,368
24.587,380
24.612,386
24.637,386
24.662,379
24.687,368
24.712,352
24.737,328
24.762,296
24.787,260
24.812,229
24.837,204
24.862,183
24.887,157
24.912,125
24.937,87
24.962,42
24.987,-7
25.012,-53
25.037,-75
25.062,-59
25.087,-5
25.112,66
25.137,135
25.162,191
25.187,241
25.212,291
25.237,336
25.262,366
25.287,378
25.312,381
25.337,384
25.362,391
25.387,393
25.412,383
25.437,364
25.462,345
25.487,329
25.512,311
25.537,285
25.562,252
25.587,218
25.612,185
25.637,154
25.662,123
25.687,92
25.712,61
25.737,25
25.762,-16
25.787,-56
25.812,-76
25.837,-58
25.862,-4
25.887,67
25.912,135
25.937,190
25.962,236
25.987,280
26.012,319
26.037,347
26.062,359
26.087,360
26.112,357
26.137,353
26.162,347
26.187,338
26.212,327
26.237,313
26.262,297
26.287,278
26.312,256
26.337,234
26.362,211
26.387,185
26.412,155
26.437,124
26.462,95
26.487,62
26.512,20
26.537,-25
26.562,-60
26.587,-62
26.612,-24
26.637,41
26.662,111
26.687,170
26.712,216
26.737,256
26.762,294
26.787,324
26.812,340
26.837,342
26.862,338
26.887,335
26.912,337
26.937,337
26.962,330
26.987,315
27.012,294
27.037,272
27.062,251
27.087,228
27.112,202
27.137,173
27.162,146
27.187,122
27.212,98
27.237,65
27.262,22
27.287,-20
27.312,-42
27.337,-27
27.362,22
27.387,90
27.412,155
27.437,208
27.462,251
27.487,289
27.512,321
27.537,344
27.562,354
27.587,354
27.612,350
27.637,348
27.662,346
27.687,339
27.712,325
27.737,306
27.762,287
27.787,268
27.812,246
27.837,218
27.862,184
27.887,149
27.912,116
27.937,85
27.962,47
27.987,1
28.012,-46
28.037,-75
28.062,-71
28.087,-31
28.112,27
28.137,85
28.162,134
28.187,180
28.212,228
28.237,278
28.262,318
28.287,341
28.312,350
28.337,353
28.362,357
28.387,363
28.412,365
28.437,358
28.462,344
28.487,324
28.512,301
28.537,276
28.562,249
28.587,218
28.612,184
28.637,149
28.662,115
28.687,82
28.712,45
28.737,2
28.762,-41
28.787,-71
28.812,-68
28.837,-27
28.862,38
28.887,107
28.912,166
28.937,214
28.962,260
28.987,308
29.012,348
29.037,373
29.062,380
29.087,377
29.112,373
29.137,371
29.162,369
29.187,362
29.212,348
29.237,328
29.262,305
29.287,280
29.312,253
29.337,222
29.362,187
29.387,152
29.412,119
29.437,89
29.462,58
29.487,17
29.512,-28
29.537,-64
29.562,-70
29.587,-35
29.612,27
29.637,96
29.662,155
29.687,202
29.712,247
29.737,291
29.762,328
29.787,347
29.812,352
29.837,352
29.862,355
29.887,359
29.912,355
29.937,339
29.962,316
29.987,292
30.012,272
30.037,252
30.062,231
30.087,207
30.112,180
30.137,152
30.162,123
30.187,94
30.212,62
30.237,24
30.262,-19
30.287,-58
30.312,-74
30.337,-53
30.362,0
30.387,70
30.412,135
30.437,189
30.462,237
30.487,283
30.512,324
30.537,351
30.562,361
30.587,362
30.612,363
30.637,367
30.662,368
30.687,361
30.712,348
30.737,332
30.762,314
30.787,294
30.812,268
30.837,238
30.862,209
30.887,182
30.912,158
30.937,131
30.962,100
30.987,63
31.012,20
31.037,-20
31.062,-47
31.087,-47
31.112,-14
31.137,43
31.162,108
31.187,166
31.212,214
31.237,256
31.262,293
31.287,324
31.312,342
31.337,348
31.362,347
31.387,346
31.412,347
31.437,348
31.462,343
31.487,330
31.512,312
31.537,290
31.562,267
31.587,242
31.612,214
31.637,184
31.662,155
31.687,127
31.712,100
31.737,67
31.762,26
31.787,-14
31.812,-40
31.837,-36
31.862,0
31.887,58
31.912,120
31.937,171
31.962,212
31.987,247
32.012,279
32.037,304
32.062,318
32.087,321
32.112,320
32.137,320
32.162,324
32.187,324
32.212,315
32.237,297
32.262,274
32.287,252
32.312,231
32.337,208
32.362,180
32.387,151
32.412,124
32.437,99
32.462,70
32.487,33
32.512,-4
32.537,-27
32.562,-18
32.587,24
32.612,84
32.637,143
32.662,190
32.687,231
32.712,272
32.737,314
32.762,349
32.787,367
32.812,368
32.837,362
32.862,358
32.887,358
32.912,357
32.937,346
32.962,325
32.987,299
33.012,273
33.037,247
33.062,218
33.087,183
33.112,144
33.137,110
33.162,80
33.187,50
33.212,10
33.237,-37
33.262,-75
33.287,-81
33.312,-46
33.337,16
33.362,82
33.387,137
33.412,181
33.437,228
33.462,279
33.487,326
33.512,354
33.537,362
33.562,360
33.587,359
33.612,362
33.637,364
33.662,359
33.687,345
33.712,325
33.737,301
33.762,271
33.787,235
33.812,199
33.837,166
33.862,138
33.887,115
33.912,89
33.937,56
33.962,13
33.987,-34
34.012,-74
34.037,-86
34.062,-59
34.087,0
34.112,71
34.137,138
34.162,194
34.187,244
34.212,295
34.237,341
34.262,373
34.287,386
34.312,387
34.337,383
34.362,380
34.387,375
34.412,366
34.437,353
34.462,338
34.487,321
34.512,299
34.537,272
34.562,243
34.587,215
34.612,187
34.637,157
34.662,125
34.687,94
34.712,62
34.737,28
34.762,-11
34.787,-47
34.812,-59
34.837,-34
34.862,21
34.887,88
34.912,146
34.937,192
34.962,238
34.987,287
35.012,332
35.037,361
35.062,370
35.087,369
35.112,369
35.137,370
35.162,366
35.187,351
35.212,327
35.237,302
35.262,281
35.287,259
35.312,233
35.337,203
35.362,170
35.387,137
35.412,104
35.437,74
35.462,47
35.487,23
35.512,-5
35.537,-42
35.562,-76
35.587,-87
35.612,-61
35.637,-3
35.662,64
35.687,122
35.712,168
35.737,209
35.762,251
35.787,288
35.812,311
35.837,317
35.862,315
35.887,314
35.912,317
35.937,320
35.962,319
35.987,311
36.012,299
36.037,282
36.062,264
36.087,248
36.112,233
36.137,219
36.162,201
36.187,179
36.212,158
36.237,139
36.262,120
36.287,94
36.312,63
36.337,43
36.362,55
36.387,107
36.412,185
36.437,265
36.462,331
36.487,383
36.512,429
36.537,475
36.562,512
36.587,529
36.612,522
36.637,499
36.662,470
36.687,445
36.712,421
36.737,394
36.762,361
36.787,324
36.812,287
36.837,254
36.862,220
36.887,181
36.912,133
36.937,79
36.962,24
36.987,-31
37.012,-87
37.037,-143
37.062,-189
37.087,-212
37.112,-201
37.137,-158
37.162,-97
37.187,-31
37.212,30
37.237,86
37.262,136
37.287,178
37.312,209
37.337,232
37.362,250
37.387,266
37.412,277
37.437,279
37.462,268
37.487,250
37.512,231
37.537,215
37.562,198
37.587,174
37.612,142
37.637,107
37.662,75
37.687,46
37.712,12
37.737,-33
37.762,-82
37.787,-111
37.812,-95
37.837,-29
37.862,67
37.887,164
37.912,241
37.937,300
37.962,353
37.987,406
38.012,454
38.037,486
38.062,500
38.087,502
38.112,501
38.137,502
38.162,500
38.187,489
38.212,468
38.237,439
38.262,405
38.287,370
38.312,336
38.337,302
38.362,267
38.387,231
38.412,197
38.437,166
38.462,133
38.487,93
38.512,39
38.537,-21
38.562,-71
38.587,-92
38.612,-75
38.637,-30
38.662,29
38.687,91
38.712,152
38.737,210
38.762,263
38.787,304
38.812,327
38.837,334
38.862,332
38.887,328
38.912,327
38.937,325
38.962,316
38.987,293
39.012,259
39.037,221
39.062,186
39.087,160
39.112,141
39.137,130
39.162,125
39.187,123
39.212,113
39.237,84
39.262,40
39.287,2
39.312,-1
39.337,44
39.362,127
39.387,219
39.412,299
39.437,361
39.462,413
39.487,460
39.512,494
39.537,504
39.562,487
39.587,452
39.612,408
39.637,359
39.662,303
39.687,239
39.712,173
39.737,111
39.762,58
39.787,14
39.812,-24
39.837,-58
39.862,-86
39.887,-103
39.912,-110
39.937,-111
39.962,-116
39.987,-131
40.012,-149
40.037,-153
40.062,-128
40.087,-72
40.112,0
40.137,71
40.162,132
40.187,187
40.212,243
40.237,298
40.262,340
40.287,363
40.312,373
40.337,383
40.362,400
40.387,420
40.412,430
40.437,426
40.462,413
40.487,398
40.512,384
40.537,368
40.562,347
40.587,325
40.612,307
40.637,292
40.662,274
40.687,251
40.712,226
40.737,209
40.762,215
40.787,246
40.812,299
40.837,359
40.862,412
40.887,443
40.912,446
40.937,420
40.962,373
40.987,311
41.012,245
41.037,189
41.062,152
41.087,138
41.112,139
41.137,140
41.162,132
41.187,116
41.212,101
41.237,91
41.262,82
41.287,68
41.312,48
41.337,28
41.362,9
41.387,-13
41.412,-45
41.437,-81
41.462,-101
41.487,-84
41.512,-29
41.537,41
41.562,104
41.587,148
41.612,182
41.637,219
41.662,257
41.687,286
41.712,295
41.737,293
41.762,293
41.787,303
41.812,316
41.837,318
41.862,306
41.887,290
41.912,278
41.937,271
41.962,259
41.987,237
42.012,212
42.037,194
42.062,187
42.087,179
42.112,159
42.137,126
42.162,100
42.187,101
42.212,134
42.237,186
42.262,232
42.287,259
42.312,269
42.337,273
42.362,279
42.387,286
42.412,288
42.437,281
42.462,269
42.487,259
42.512,250
42.537,241
42.562,226
42.587,207
42.612,186
42.637,166
42.662,146
42.687,126
42.712,107
42.737,89
42.762,73
42.787,55
42.812,32
42.837,10
42.862,1
42.887,16
42.912,57
42.937,114
42.962,172
42.987,222
43.012,266
43.037,308
43.062,347
43.087,374
43.112,383
43.137,378
43.162,372
43.187,372
43.212,376
43.237,373
43.262,355
43.287,329
43.312,304
43.337,285
43.362,270
43.387,248
43.412,219
43.437,187
43.462,157
43.487,128
43.512,94
43.537,56
43.562,22
43.587,2
43.612,3
43.637,22
43.662,51
43.687,85
43.712,122
43.737,166
43.762,213
43.787,256
43.812,287
43.837,300
43.862,300
43.887,296
43.912,295
43.937,299
43.962,301
43.987,294
44.012,277
44.037,255
44.062,232
44.087,211
44.112,188
44.137,161
44.162,135
44.187,114
44.212,94
44.237,67
44.262,27
44.287,-14
44.312,-40
44.337,-31
44.362,10
44.387,68
44.412,125
44.437,173
44.462,219
44.487,265
44.512,309
44.537,340
44.562,356
44.587,361
44.612,362
44.637,364
44.662,363
44.687,355
44.712,339
44.737,319
44.762,298
44.787,278
44.812,256
44.837,232
44.862,202
44.887,169
44.912,136
44.937,109
44.962,84
44.987,55
45.012,15
45.037,-28
45.062,-57
45.087,-52
45.112,-12
45.137,45
45.162,103
45.187,150
45.212,193
45.237,237
45.262,278
45.287,308
45.312,322
45.337,325
45.362,328
45.387,333
45.412,336
45.437,332
45.462,323
45.487,314
45.512,305
45.537,294
45.562,277
45.587,256
45.612,239
45.637,224
45.662,208
45.687,187
45.712,164
45.737,140
45.762,112
45.787,81
45.812,56
45.837,53
45.862,87
45.887,149
45.912,218
45.937,273
45.962,318
45.987,365
46.012,418
46.037,453
46.062,446
46.087,394
46.112,325
46.137,273
46.162,253
46.187,251
46.212,244
46.237,225
46.262,200
46.287,180
46.312,167
46.337,153
46.362,134
46.387,112
46.412,91
46.437,70
46.462,46
46.487,18
46.512,-12
46.537,-42
46.562,-67
46.587,-80
46.612,-70
46.637,-33
46.662,26
46.687,93
46.712,149
46.737,193
46.762,230
46.787,268
46.812,304
46.837,330
46.862,341
46.887,339
46.912,333
46.937,325
46.962,314
46.987,300
47.012,285
47.037,273
47.062,263
47.087,248
47.112,224
47.137,194
47.162,168
47.187,150
47.212,134
47.237,111
47.262,77
47.287,46
47.312,36
47.337,55
47.362,100
47.387,154
47.412,204
47.437,247
47.462,284
47.487,317
47.512,342
47.537,355
47.562,355
47.587,347
47.612,338
47.637,334
47.662,332
47.687,327
47.712,315
47.737,297
47.762,275
47.787,253
47.812,229
47.837,203
47.862,174
47.887,145
47.912,119
47.937,94
47.962,62
47.987,19
48.012,-27
48.037,-60
48.062,-63
48.087,-30
48.112,25
48.137,83
48.162,133
48.187,176
48.212,220
48.237,268
48.262,310
48.287,338
48.312,348
48.337,349
48.362,351
48.387,357
48.412,361
48.437,358
48.462,344
48.487,321
48.512,294
48.537,266
48.562,237
48.587,208
48.612,178
48.637,150
48.662,124
48.687,100
48.712,74
48.737,40
48.762,0
48.787,-39
48.812,-59
48.837,-47
48.862,-5
48.887,56
48.912,122
48.937,184
48.962,243
48.987,299
49.012,350
49.037,391
49.062,421
49.087,440
49.112,448
49.137,443
49.162,423
49.187,391
49.212,356
49.237,324
49.262,294
49.287,262
49.312,228
49.337,196
49.362,170
49.387,148
49.412,124
49.437,95
49.462,65
49.487,37
49.512,9
49.537,-23
49.562,-62
49.587,-91
49.612,-89
49.637,-50
49.662,16
49.687,87
49.712,148
49.737,199
49.762,248
49.787,296
49.812,335
49.837,357
49.862,363
49.887,363
49.912,361
49.937,360
49.962,356
49.987,349
50.012,343
50.037,336
50.062,325
50.087,306
50.112,280
50.137,254
50.162,230
50.187,205
50.212,176
50.237,146
50.262,118
50.287,92
50.312,61
50.337,19
50.362,-23
50.387,-47
50.412,-36
50.437,6
50.462,65
50.487,123
50.512,173
50.537,220
50.562,265
50.587,304
50.612,330
50.637,343
50.662,350
50.687,359
50.712,366
50.737,366
50.762,356
50.787,338
50.812,318
50.837,295
50.862,271
50.887,246
50.912,221
50.937,198
50.962,175
50.987,151
51.012,127
51.037,105
51.062,84
51.087,60
51.112,31
51.137,2
51.162,-12
51.187,-4
51.212,27
51.237,74
51.262,124
51.287,172
51.312,213
51.337,247
51.362,272
51.387,289
51.412,300
51.437,308
51.462,315
51.487,321
51.512,324
51.537,321
51.562,314
51.587,304
51.612,291
51.637,278
51.662,263
51.687,243
51.712,216
51.737,186
51.762,156
51.787,131
51.812,108
51.837,81
51.862,48
51.887,21
51.912,16
51.937,40
51.962,85
51.987,136
52.012,179
52.037,216
52.062,251
52.087,287
52.112,316
52.137,330
52.162,330
52.187,323
52.212,316
52.237,313
52.262,307
52.287,297
52.312,283
52.337,265
52.362,245
52.387,223
52.412,199
52.437,173
52.462,148
52.487,125
52.512,105
52.537,86
52.562,64
52.587,34
52.612,1
52.637,-22
52.662,-21
52.687,10
52.712,64
52.737,119
52.762,163
52.787,198
52.812,232
52.837,272
52.862,309
52.887,333
52.912,338
52.937,333
52.962,329
52.987,329
53.012,329
53.037,325
53.062,315
53.087,304
53.112,290
53.137,273
53.162,250
53.187,224
53.212,198
53.237,172
53.262,146
53.287,120
53.312,91
53.337,60
53.362,24
53.387,-11
53.412,-33
53.437,-27
53.462,8
53.487,64
53.512,121
53.537,168
53.562,207
53.587,247
53.612,289
53.637,325
53.662,346
53.687,355
53.712,358
53.737,360
53.762,362
53.787,358
53.812,348
53.837,336
53.862,325
53.887,311
53.912,291
53.937,265
53.962,239
53.987,217
54.012,199
54.037,183
54.062,163
54.087,138
54.112,106
54.137,68
54.162,33
54.187,15
54.212,27
54.237,68
54.262,121
54.287,165
54.312,191
54.337,204
54.362,213
54.387,224
54.412,234
54.437,240
54.462,244
54.487,248
54.512,255
54.537,263
54.562,268
54.587,271
54.612,270
54.637,265
54.662,258
54.687,250
54.712,245
54.737,242
54.762,234
54.787,218
54.812,194
54.837,167
54.862,138
54.887,102
54.912,52
54.937,-1
54.962,-37
54.987,-36
55.012,1
55.037,56
55.062,107
55.087,145
55.112,178
55.137,216
55.162,255
55.187,288
55.212,308
55.237,317
55.262,322
55.287,328
55.312,333
55.337,334
55.362,330
55.387,321
55.412,307
55.437,284
55.462,256
55.487,229
55.512,207
55.537,191
55.562,175
55.587,154
55.612,126
55.637,92
55.662,55
55.687,20
55.712,-2
55.737,-2
55.762,24
55.787,74
55.812,130
55.837,182
55.862,225
55.887,263
55.912,298
55.937,327
55.962,345
55.987,351
56.012,350
56.037,349
56.062,349
56.087,347
56.112,338
56.137,321
56.162,299
56.187,277
56.212,256
56.237,236
56.262,212
56.287,185
56.312,155
56.337,124
56.362,93
56.387,61
56.412,26
56.437,-10
56.462,-41
56.487,-52
56.512,-33
56.537,10
56.562,67
56.587,121
56.612,168
56.637,209
56.662,248
56.687,285
56.712,313
56.737,329
56.762,335
56.787,336
56.812,336
56.837,335
56.862,333
56.887,331
56.912,332
56.937,332
56.962,326
56.987,309
57.012,281
57.037,248
57.062,215
57.087,182
57.112,149
57.137,115
57.162,82
57.187,47
57.212,11
57.237,-19
57.262,-36
57.287,-27
57.312,9
57.337,64
57.362,122
57.387,171
57.412,211
57.437,247
57.462,280
57.487,308
57.512,324
57.537,328
57.562,327
57.587,326
57.612,325
57.637,323
57.662,316
57.687,304
57.712,288
57.737,270
57.762,251
57.787,231
57.812,211
57.837,189
57.862,167
57.887,144
57.912,122
57.937,100
57.962,77
57.987,48
58.012,15
58.037,-9
58.062,-12
58.087,14
58.112,62
58.137,116
58.162,164
58.187,205
58.212,241
58.237,275
58.262,304
58.287,323
58.312,333
58.337,338
58.362,343
58.387,345
58.412,342
58.437,335
58.462,327
58.487,318
58.512,306
58.537,288
58.562,264
58.587,241
58.612,223
58.637,205
58.662,184
58.687,157
58.712,130
58.737,103
58.762,73
58.787,39
58.812,6
58.837,-11
58.862,-2
58.887,32
58.912,79
58.937,124
58.962,163
58.987,202
59.012,241
59.037,275
59.062,294
59.087,299
59.112,301
59.137,308
59.162,319
59.187,326
59.212,325
59.237,316
59.262,306
59.287,294
59.312,280
59.337,261
59.362,243
59.387,226
59.412,209
59.437,185
59.462,155
59.487,123
59.512,97
59.537,73
59.562,44
59.587,10
59.612,-15
59.637,-18
59.662,11
59.687,61
59.712,116
59.737,163
59.762,203
59.787,240
59.812,273
59.837,296
59.862,308
59.887,311
59.912,315
59.937,320
59.962,325
59.987,324
60.012,316
60.037,305
60.062,292
60.087,278
60.112,261
60.137,241
60.162,219
60.187,197
60.212,174
60.237,150
60.262,125
60.287,96
60.312,63
60.337,30
60.362,8
60.387,10
60.412,40
60.437,92
60.462,151
60.487,203
60.512,245
60.537,279
60.562,306
60.587,326
60.612,337
60.637,340
60.662,341
60.687,341
60.712,338
60.737,329
60.762,310
60.787,282
60.812,251
60.837,222
60.862,198
60.887,177
60.912,157
60.937,135
60.962,113
60.987,91
61.012,68
61.037,38
61.062,1
61.087,-33
61.112,-50
61.137,-36
61.162,10
61.187,73
61.212,134
61.237,185
61.262,227
61.287,266
61.312,304
61.337,335
61.362,354
61.387,363
61.412,365
61.437,367
61.462,367
61.487,361
61.512,346
61.537,324
61.562,299
61.587,278
61.612,261
61.637,246
61.662,227
61.687,202
61.712,173
61.737,143
61.762,113
61.787,79
61.812,39
61.837,-1
61.862,-28
61.887,-26
61.912,6
61.937,59
61.962,113
61.987,161
62.012,204
62.037,245
62.062,283
62.087,311
62.112,324
62.137,328
62.162,330
62.187,334
62.212,337
62.237,334
62.262,322
62.287,305
62.312,287
62.337,270
62.362,253
62.387,233
62.412,210
62.437,183
62.462,156
62.487,131
62.512,106
62.537,79
62.562,47
62.587,12
62.612,-13
62.637,-16
62.662,8
62.687,55
62.712,110
62.737,161
62.762,204
62.787,241
62.812,276
62.837,305
62.862,325
62.887,335
62.912,338
62.937,337
62.962,333
62.987,327
63.012,318
63.037,305
63.062,289
63.087,270
63.112,249
63.137,229
63.162,209
63.187,188
63.212,163
63.237,135
63.262,106
63.287,78
63.312,47
63.337,14
63.362,-14
63.387,-28
63.412,-17
63.437,17
63.462,67
63.487,119
63.512,167
63.537,210
63.562,248
63.587,280
63.612,302
63.637,315
63.662,322
63.687,326
63.712,329
63.737,331
63.762,330
63.787,325
63.812,318
63.837,308
63.862,295
63.887,282
63.912,269
63.937,254
63.962,238
63.987,218
64.012,197
64.037,177
64.062,157
64.087,134
64.112,107
64.137,82
64.162,69
64.187,74
64.212,93
64.237,118
64.262,143
64.287,168
64.312,195
64.337,227
64.362,258
64.387,281
64.412,292
64.437,293
64.462,293
64.487,298
64.512,309
64.537,319
64.562,321
64.587,314
64.612,300
64.637,283
64.662,265
64.687,241
64.712,213
64.737,184
64.762,159
64.787,134
64.812,100
64.837,50
64.862,-8
64.887,-52
64.912,-61
64.937,-29
64.962,27
64.987,85
65.012,129
65.037,163
65.062,194
65.087,226
65.112,252
65.137,266
65.162,270
65.187,271
65.212,272
65.237,275
65.262,274
65.287,268
65.312,259
65.337,250
65.362,240
65.387,223
65.412,202
65.437,180
65.462,161
65.487,145
65.512,124
65.537,94
65.562,62
65.587,40
65.612,43
65.637,70
65.662,112
65.687,158
65.712,200
65.737,237
65.762,271
65.787,301
65.812,324
65.837,336
65.862,340
65.887,339
65.912,337
65.937,335
65.962,330
65.987,322
66.012,310
66.037,295
66.062,276
66.087,253
66.112,226
66.137,198
66.162,172
66.187,149
66.212,124
66.237,92
66.262,53
66.287,13
66.312,-12
66.337,-12
66.362,14
66.387,59
66.412,111
66.437,161
66.462,207
66.487,248
66.512,285
66.537,314
66.562,332
66.587,342
66.612,345
66.637,348
66.662,349
66.687,346
66.712,336
66.737,315
66.762,289
66.787,262
66.812,239
66.837,218
66.862,192
66.887,162
66.912,130
66.937,100
66.962,71
66.987,37
67.012,-1
67.037,-37
67.062,-52
67.087,-35
67.112,6
67.137,57
67.162,105
67.187,148
67.212,191
67.237,238
67.262,283
67.287,318
67.312,342
67.337,358
67.362,369
67.387,373
67.412,369
67.437,358
67.462,346
67.487,335
67.512,321
67.537,300
67.562,272
67.587,242
67.612,216
67.637,192
67.662,166
67.687,136
67.712,105
67.737,74
67.762,42
67.787,7
67.812,-22
67.837,-31
67.862,-10
67.887,35
67.912,90
67.937,139
67.962,182
67.987,224
68.012,266
68.037,301
68.062,322
68.087,329
68.112,330
68.137,332
68.162,336
68.187,336
68.212,330
68.237,318
68.262,305
68.287,290
68.312,273
68.337,254
68.362,234
68.387,212
68.412,185
68.437,154
68.462,126
68.487,102
68.512,80
68.537,51
68.562,14
68.587,-17
68.612,-25
68.637,0
68.662,46
68.687,99
68.712,143
68.737,182
68.762,224
68.787,268
68.812,304
68.837,322
68.862,324
68.887,321
68.912,323
68.937,329
68.962,333
68.987,329
69.012,318
69.037,305
69.062,293
69.087,282
69.112,270
69.137,254
69.162,234
69.187,211
69.212,187
69.237,166
69.262,147
69.287,127
69.312,100
69.337,69
69.362,43
69.387,34
69.412,51
69.437,87
69.462,132
69.487,174
69.512,209
69.537,237
69.562,262
69.587,282
69.612,296
69.637,302
69.662,301
69.687,297
69.712,292
69.737,288
69.762,283
69.787,276
69.812,264
69.837,248
69.862,230
69.887,210
69.912,189
69.937,165
69.962,141
69.987,119
70.012,99
70.037,78
70.062,52
70.087,21
70.112,-2
70.137,-7
70.162,15
70.187,58
70.212,108
70.237,155
70.262,192
70.287,223
70.312,251
70.337,274
70.362,291
70.387,301
70.412,306
70.437,310
70.462,316
70.487,318
70.512,312
70.537,299
70.562,281
70.587,263
70.612,245
70.637,227
70.662,205
70.687,181
70.712,156
70.737,131
70.762,104
70.787,72
70.812,41
70.837,20
70.862,21
70.887,47
70.912,91
70.937,138
70.962,180
70.987,215
71.012,247
71.037,278
71.062,304
71.087,321
71.112,329
71.137,331
71.162,333
71.187,335
71.212,334
71.237,326
71.262,310
71.287,292
71.312,275
71.337,258
71.362,236
71.387,206
71.412,175
71.437,148
71.462,125
71.487,102
71.512,70
71.537,32
71.562,4
71.587,0
71.612,22
71.637,64
71.662,110
71.687,151
71.712,186
71.737,221
71.762,255
71.787,285
71.812,305
71.837,315
71.862,318
71.887,318
71.912,317
71.937,315
71.962,310
71.987,298
72.012,282
72.037,265
72.062,250
72.087,234
72.112,214
72.137,189
72.162,160
72.187,134
72.212,114
72.237,92
72.262,64
72.287,31
72.312,7
72.337,6
72.362,33
72.387,76
72.412,123
72.437,167
72.462,208
72.487,250
72.512,287
72.537,314
72.562,326
72.587,329
72.612,332
72.637,336
72.662,338
72.687,334
72.712,324
72.737,310
72.762,296
72.787,281
72.812,264
72.837,244
72.862,220
72.887,193
72.912,163
72.937,133
72.962,107
72.987,81
73.012,53
73.037,21
73.062,-7
73.087,-18
73.112,-3
73.137,35
73.162,85
73.187,135
73.212,182
73.237,225
73.262,265
73.287,299
73.312,324
73.337,339
73.362,347
73.387,349
73.412,347
73.437,342
73.462,334
73.487,325
73.512,314
73.537,297
73.562,277
73.587,256
73.612,234
73.637,209
73.662,180
73.687,150
73.712,125
73.737,103
73.762,76
73.787,39
73.812,0
73.837,-24
73.862,-17
73.887,19
73.912,70
73.937,119
73.962,163
73.987,204
74.012,245
74.037,277
74.062,296
74.087,301
74.112,301
74.137,303
74.162,308
74.187,310
74.212,307
74.237,299
74.262,290
74.287,279
74.312,263
74.337,243
74.362,221
74.387,200
74.412,177
74.437,153
74.462,129
74.487,105
74.512,81
74.537,53
74.562,26
74.587,12
74.612,22
74.637,60
74.662,111
74.687,162
74.712,204
74.737,240
74.762,275
74.787,304
74.812,320
74.837,321
74.862,315
74.887,310
74.912,309
74.937,307
74.962,297
74.987,284
75.012,273
75.037,268
75.062,265
75.087,255
75.112,234
75.137,205
75.162,174
75.187,147
75.212,122
75.237,96
75.262,64
75.287,28
75.312,-4
75.337,-19
75.362,-10
75.387,19
75.412,63
75.437,108
75.462,151
75.487,193
75.512,235
75.537,275
75.562,305
75.587,325
75.612,334
75.637,336
75.662,335
75.687,332
75.712,328
75.737,325
75.762,321
75.787,313
75.812,297
75.837,277
75.862,256
75.887,235
75.912,214
75.937,189
75.962,163
75.987,137
76.012,111
76.037,83
76.062,52
76.087,24
76.112,10
76.137,19
76.162,48
76.187,86
76.212,126
76.237,165
76.262,204
76.287,242
76.312,274
76.337,295
76.362,306
76.387,313
76.412,317
76.437,317
76.462,315
76.487,310
76.512,304
76.537,297
76.562,284
76.587,265
76.612,245
76.637,228
76.662,214
76.687,198
76.712,177
76.737,153
76.762,130
76.787,109
76.812,81
76.837,43
76.862,5
76.887,-13
76.912,-1
76.937,37
76.962,84
76.987,124
77.012,155
77.037,189
77.062,229
77.087,269
77.112,300
77.137,316
77.162,322
77.187,329
77.212,336
77.237,342
77.262,342
77.287,335
77.312,325
77.337,313
77.362,300
77.387,285
77.412,268
77.437,251
77.462,230
77.487,206
77.512,181
77.537,159
77.562,138
77.587,115
77.612,84
77.637,50
77.662,28
77.687,29
77.712,57
77.737,98
77.762,137
77.787,168
77.812,193
77.837,218
77.862,242
77.887,261
77.912,270
77.937,272
77.962,271
77.987,273
78.012,275
78.037,273
78.062,266
78.087,254
78.112,239
78.137,224
78.162,211
78.187,197
78.212,182
78.237,164
78.262,146
78.287,129
78.312,112
78.337,91
78.362,65
78.387,39
78.412,24
78.437,31
78.462,61
78.487,105
78.512,151
78.537,191
78.562,224
78.587,253
78.612,277
78.637,296
78.662,308
78.687,314
78.712,318
78.737,322
78.762,322
78.787,316
78.812,302
78.837,284
78.862,267
78.887,253
78.912,239
78.937,221
78.962,199
78.987,176
79.012,156
79.037,137
79.062,114
79.087,83
79.112,50
79.137,25
79.162,21
79.187,43
79.212,81
79.237,126
79.262,167
79.287,204
79.312,239
79.337,270
79.362,296
79.387,315
79.412,326
79.437,331
79.462,332
79.487,329
79.512,323
79.537,314
79.562,302
79.587,287
79.612,270
79.637,254
79.662,239
79.687,222
79.712,200
79.737,172
79.762,143
79.787,116
79.812,91
79.837,64
79.862,33
79.887,4
79.912,-7
79.937,4
79.962,40
79.987,88
80.012,135
80.037,179
80.062,218
80.087,254
80.112,281
80.137,299
80.162,307
80.187,313
80.212,318
80.237,322
80.262,322
80.287,316
80.312,306
80.337,295
80.362,283
80.387,270
80.412,252
80.437,231
80.462,206
80.487,180
80.512,154
80.537,132
80.562,111
80.587,86
80.612,54
80.637,19
80.662,-5
80.687,-7
80.712,17
80.737,59
80.762,107
80.787,151
80.812,191
80.837,230
80.862,264
80.887,288
80.912,303
80.937,311
80.962,318
80.987,325
81.012,330
81.037,330
81.062,328
81.087,326
81.112,322
81.137,313
81.162,297
81.187,279
81.212,263
81.237,250
81.262,235
81.287,216
81.312,195
81.337,173
81.362,147
81.387,116
81.412,84
81.437,61
81.462,55
81.487,67
81.512,90
81.537,118
81.562,146
81.587,179
81.612,215
81.637,247
81.662,268
81.687,276
81.712,276
81.737,274
81.762,274
81.787,275
81.812,274
81.837,272
81.862,268
81.887,263
81.912,256
81.937,243
81.962,221
81.987,190
82.012,158
82.037,130
82.062,110
82.087,94
82.112,70
82.137,33
82.162,-6
82.187,-34
82.212,-36
82.237,-15
82.262,16
82.287,52
82.312,95
82.337,150
82.362,215
82.387,275
82.412,314
82.437,328
82.462,328
82.487,326
82.512,330
82.537,334
82.562,333
82.587,325
82.612,313
82.637,299
82.662,284
82.687,265
82.712,245
82.737,225
82.762,207
82.787,191
82.812,173
82.837,147
82.862,115
82.887,87
82.912,72
82.937,78
82.962,102
82.987,136
83.012,171
83.037,203
83.062,232
83.087,258
83.112,279
83.137,291
83.162,295
83.187,296
83.212,296
83.237,296
83.262,294
83.287,287
83.312,277
83.337,265
83.362,252
83.387,237
83.412,220
83.437,199
83.462,177
83.487,157
83.512,139
83.537,121
83.562,99
83.587,72
83.612,44
83.637,26
83.662,28
83.687,52
83.712,89
83.737,127
83.762,160
83.787,192
83.812,226
83.837,257
83.862,279
83.887,287
83.912,286
83.937,287
83.962,294
83.987,303
84.012,305
84.037,297
84.062,284
84.087,272
84.112,260
84.137,245
84.162,225
84.187,204
84.212,187
84.237,174
84.262,161
84.287,140
84.312,110
84.337,76
84.362,49
84.387,36
84.412,43
84.437,67
84.462,102
84.487,140
84.512,176
84.537,208
84.562,237
84.587,262
84.612,282
84.637,294
84.662,300
84.687,302
84.712,303
84.737,304
84.762,302
84.787,299
84.812,292
84.837,283
84.862,269
84.887,252
84.912,233
84.937,215
84.962,197
84.987,179
85.012,158
85.037,134
85.062,104
85.087,70
85.112,38
85.137,18
85.162,20
85.187,44
85.212,81
85.237,122
85.262,160
85.287,196
85.312,233
85.337,267
85.362,293
85.387,307
85.412,309
85.437,309
85.462,310
85.487,313
85.512,314
85.537,309
85.562,298
85.587,283
85.612,267
85.637,250
85.662,233
85.687,218
85.712,202
85.737,183
85.762,160
85.787,134
85.812,109
85.837,84
85.862,58
85.887,35
85.912,22
85.937,28
85.962,55
85.987,98
86.012,145
86.037,184
86.062,214
86.087,237
86.112,258
86.137,277
86.162,293
86.187,303
86.212,307
86.237,306
86.262,305
86.287,304
86.312,302
86.337,297
86.362,287
86.387,270
86.412,249
86.437,228
86.462,208
86.487,190
86.512,173
86.537,153
86.562,129
86.587,101
86.612,71
86.637,47
86.662,40
86.687,53
86.712,84
86.737,124
86.762,163
86.787,195
86.812,221
86.837,242
86.862,262
86.887,279
86.912,291
86.937,295
86.962,294
86.987,291
87.012,288
87.037,284
87.062,277
87.087,264
87.112,246
87.137,226
87.162,207
87.187,190
87.212,174
87.237,158
87.262,139
87.287,116
87.312,90
87.337,65
87.362,50
87.387,51
87.412,72
87.437,107
87.462,147
87.487,183
87.512,215
87.537,244
87.562,270
87.587,292
87.612,305
87.637,308
87.662,305
87.687,303
87.712,303
87.737,302
87.762,296
87.787,282
87.812,265
87.837,247
87.862,230
87.887,212
87.912,193
87.937,171
87.962,150
87.987,127
88.012,100
88.037,70
88.062,41
88.087,23
88.112,25
88.137,45
88.162,77
88.187,112
88.212,147
88.237,182
88.262,217
88.287,251
88.312,278
88.337,294
88.362,302
88.387,307
88.412,314
88.437,319
88.462,317
88.487,305
88.512,287
88.537,270
88.562,261
88.587,258
88.612,252
88.637,234
88.662,205
88.687,173
88.712,148
88.737,128
88.762,108
88.787,82
88.812,54
88.837,34
88.862,33
88.887,54
88.912,89
88.937,127
88.962,164
88.987,198
89.012,230
89.037,257
89.062,278
89.087,292
89.112,300
89.137,303
89.162,301
89.187,297
89.212,294
89.237,291
89.262,288
89.287,280
89.312,267
89.337,250
89.362,231
89.387,212
89.412,193
89.437,174
89.462,157
89.487,137
89.512,112
89.537,81
89.562,51
89.587,34
89.612,39
89.637,64
89.662,99
89.687,133
89.712,166
89.737,198
89.762,231
89.787,260
89.812,278
89.837,288
89.862,292
89.887,296
89.912,300
89.937,302
89.962,302
89.987,299
90.012,291
90.037,275
90.062,253
90.087,232
90.112,219
90.137,211
90.162,203
90.187,185
90.212,160
90.237,131
90.262,105
90.287,80
90.312,57
90.337,42
90.362,42
90.387,61
90.412,94
90.437,129
90.462,161
90.487,190
90.512,220
90.537,250
90.562,274
90.587,287
90.612,290
90.637,289
90.662,289
90.687,291
90.712,292
90.737,291
90.762,286
90.787,277
90.812,264
90.837,249
90.862,235
90.887,222
90.912,209
90.937,192
90.962,173
90.987,154
91.012,135
91.037,114
91.062,90
91.087,72
91.112,71
91.137,91
91.162,128
91.187,166
91.212,196
91.237,217
91.262,237
91.287,256
91.312,272
91.337,279
91.362,279
91.387,278
91.412,279
91.437,280
91.462,276
91.487,265
91.512,252
91.537,242
91.562,232
91.587,220
91.612,202
91.637,180
91.662,159
91.687,142
91.712,124
91.737,100
91.762,71
91.787,46
91.812,39
91.837,56
91.862,89
91.887,128
91.912,162
91.937,190
91.962,218
91.987,247
92.012,271
92.037,282
92.062,282
92.087,279
92.112,280
92.137,287
92.162,291
92.187,284
92.212,269
92.237,254
92.262,244
92.287,235
92.312,219
92.337,196
92.362,171
92.387,150
92.412,130
92.437,105
92.462,76
92.487,52
92.512,46
92.537,62
92.562,91
92.587,125
92.612,158
92.637,192
92.662,228
92.687,262
92.712,285
92.737,296
92.762,299
92.787,302
92.812,305
92.837,308
92.862,308
92.887,303
92.912,293
92.937,278
92.962,258
92.987,237
93.012,218
93.037,201
93.062,184
93.087,164
93.112,139
93.137,113
93.162,85
93.187,57
93.212,33
93.237,20
93.262,28
93.287,57
93.312,100
93.337,144
93.362,184
93.387,220
93.412,254
93.437,287
93.462,313
93.487,327
93.512,330
93.537,325
93.562,320
93.587,316
93.612,313
93.637,307
93.662,294
93.687,276
93.712,255
93.737,235
93.762,219
93.787,203
93.812,182
93.837,157
93.862,129
93.887,100
93.912,70
93.937,39
93.962,13
93.987,3
94.012,18
94.037,57
94.062,105
94.087,148
94.112,183
94.137,214
94.162,246
94.187,276
94.212,295
94.237,301
94.262,302
94.287,303
94.312,307
94.337,308
94.362,301
94.387,289
94.412,278
94.437,269
94.462,259
94.487,242
94.512,220
94.537,196
94.562,175
94.587,157
94.612,138
94.637,115
94.662,87
94.687,59
94.712,34
94.737,21
94.762,30
94.787,62
94.812,110
94.837,158
94.862,197
94.887,225
94.912,251
94.937,280
94.962,307
94.987,325
95.012,332
95.037,331
95.062,331
95.087,334
95.112,335
95.137,331
95.162,321
95.187,310
95.212,297
95.237,282
95.262,263
95.287,241
95.312,222
95.337,204
95.362,186
95.387,158
95.412,118
95.437,70
95.462,23
95.487,-12
95.512,-29
95.537,-23
95.562,4
95.587,48
95.612,98
95.637,145
95.662,185
95.687,217
95.712,245
95.737,266
95.762,280
95.787,286
95.812,287
95.837,287
95.862,288
95.887,289
95.912,285
95.937,278
95.962,268
95.987,257
96.012,243
96.037,226
96.062,208
96.087,191
96.112,177
96.137,160
96.162,135
96.187,102
96.212,74
96.237,63
96.262,78
96.287,111
96.312,150
96.337,184
96.362,210
96.387,231
96.412,249
96.437,264
96.462,272
96.487,273
96.512,273
96.537,275
96.562,280
96.587,283
96.612,279
96.637,269
96.662,257
96.687,247
96.712,237
96.737,223
96.762,205
96.787,185
96.812,169
96.837,157
96.862,143
96.887,121
96.912,94
96.937,72
96.962,66
96.987,79
97.012,104
97.037,133
97.062,161
97.087,190
97.112,221
97.137,248
97.162,267
97.187,273
97.212,273
97.237,273
97.262,276
97.287,279
97.312,277
97.337,269
97.362,258
97.387,246
97.412,233
97.437,219
97.462,203
97.487,186
97.512,167
97.537,143
97.562,116
97.587,87
97.612,63
97.637,49
97.662,50
97.687,67
97.712,98
97.737,138
97.762,179
97.787,214
97.812,241
97.837,261
97.862,279
97.887,295
97.912,304
97.937,307
97.962,305
97.987,305
98.012,307
98.037,306
98.062,298
98.087,282
98.112,263
98.137,246
98.162,229
98.187,209
98.212,186
98.237,163
98.262,142
98.287,121
98.312,94
98.337,64
98.362,40
98.387,37
98.412,58
98.437,94
98.462,132
98.487,167
98.512,199
98.537,231
98.562,261
98.587,283
98.612,295
98.637,301
98.662,305
98.687,310
98.712,312
98.737,307
98.762,296
98.787,282
98.812,266
98.837,248
98.862,228
98.887,208
98.912,189
98.937,171
98.962,152
98.987,131
99.012,109
99.037,85
99.062,63
99.087,43
99.112,32
99.137,37
99.162,61
99.187,100
99.212,144
99.237,182
99.262,214
99.287,242
99.312,270
99.337,294
99.362,310
99.387,315
99.412,312
99.437,305
99.462,299
99.487,290
99.512,279
99.537,267
99.562,256
99.587,247
99.612,236
99.637,221
99.662,200
99.687,179
99.712,161
99.737,146
99.762,130
99.787,109
99.812,84
99.837,64
99.862,59
99.887,75
99.912,107
99.937,145
99.962,181
99.987,212
100.012,239
100.037,264
100.062,284
100.087,298
100.112,302
100.137,300
100.162,298
100.187,298
100.212,297
100.237,292
100.262,281
100.287,267
100.312,252
100.337,238
100.362,223
100.387,206
100.412,188
100.437,171
100.462,155
100.487,136
100.512,111
100.537,81
100.562,53
100.587,38
100.612,43
100.637,69
100.662,107
100.687,148
100.712,187
100.737,219
100.762,248
100.787,273
100.812,295
100.837,313
100.862,323
100.887,325
100.912,321
100.937,315
100.962,312
100.987,312
101.012,309
101.037,295
101.062,266
101.087,223
101.112,174
101.137,131
101.162,98
101.187,76
101.212,60
101.237,47
101.262,37
101.287,32
101.312,33
101.337,44
101.362,66
101.387,102
101.412,147
101.437,192
101.462,228
101.487,251
101.512,265
101.537,277
101.562,290
101.587,300
101.612,306
101.637,308
101.662,308
101.687,308
101.712,303
101.737,293
101.762,277
101.787,259
101.812,242
101.837,224
101.862,204
101.887,182
101.912,159
101.937,137
101.962,114
101.987,88
102.012,64
102.037,50
102.062,54
102.087,75
102.112,104
102.137,133
102.162,161
102.187,190
102.212,222
102.237,251
102.262,271
102.287,277
102.312,274
102.337,268
102.362,264
102.387,263
102.412,264
102.437,267
102.462,271
102.487,271
102.512,266
102.537,253
102.562,232
102.587,208
102.612,184
102.637,163
102.662,142
102.687,120
102.712,93
102.737,66
102.762,45
102.787,40
102.812,57
102.837,90
102.862,130
102.887,170
102.912,205
102.937,240
102.962,276
102.987,309
103.012,333
103.037,345
103.062,347
103.087,344
103.112,340
103.137,336
103.162,329
103.187,318
103.212,304
103.237,287
103.262,268
103.287,245
103.312,218
103.337,188
103.362,158
103.387,131
103.412,108
103.437,84
103.462,59
103.487,32
103.512,11
103.537,5
103.562,18
103.587,47
103.612,83
103.637,122
103.662,161
103.687,202
103.712,240
103.737,272
103.762,292
103.787,304
103.812,311
103.837,314
103.862,315
103.887,312
103.912,306
103.937,300
103.962,292
103.987,281
104.012,265
104.037,247
104.062,230
104.087,215
104.112,198
104.137,178
104.162,156
104.187,136
104.212,116
104.237,94
104.262,69
104.287,47
104.312,40
104.337,54
104.362,83
104.387,119
104.412,152
104.437,183
104.462,214
104.487,245
104.512,271
104.537,285
104.562,289
104.587,289
104.612,291
104.637,296
104.662,300
104.687,300
104.712,293
104.737,278
104.762,261
104.787,244
104.812,228
104.837,213
104.862,195
104.887,175
104.912,156
104.937,141
104.962,129
104.987,114
105.012,91
105.037,66
105.062,52
105.087,59
105.112,88
105.137,128
105.162,168
105.187,201
105.212,230
105.237,255
105.262,277
105.287,292
105.312,301
105.337,304
105.362,305
105.387,303
105.412,298
105.437,291
105.462,282
105.487,270
105.512,256
105.537,238
105.562,219
105.587,200
105.612,185
105.637,170
105.662,154
105.687,134
105.712,110
105.737,83
105.762,57
105.787,41
105.812,42
105.837,62
105.862,96
105.887,135
105.912,172
105.937,207
105.962,240
105.987,269
106.012,287
106.037,291
106.062,288
106.087,285
106.112,286
106.137,291
106.162,290
106.187,283
106.212,270
106.237,255
106.262,240
106.287,221
106.312,200
106.337,179
106.362,161
106.387,145
106.412,125
106.437,99
106.462,70
106.487,49
106.512,46
106.537,62
106.562,91
106.587,126
106.612,161
106.637,196
106.662,231
106.687,264
106.712,292
106.737,311
106.762,320
106.787,321
106.812,320
106.837,319
106.862,319
106.887,315
106.912,305
106.937,289
106.962,268
106.987,248
107.012,229
107.037,210
107.062,192
107.087,173
107.112,153
107.137,132
107.162,107
107.187,75
107.212,44
107.237,24
107.262,23
107.287,44
107.312,80
107.337,118
107.362,151
107.387,181
107.412,210
107.437,238
107.462,263
107.487,281
107.512,292
107.537,297
107.562,300
107.587,302
107.612,303
107.637,301
107.662,296
107.687,286
107.712,271
107.737,253
107.762,233
107.787,215
107.812,198
107.837,180
107.862,160
107.887,138
107.912,117
107.937,95
107.962,71
107.987,48
108.012,34
108.037,39
108.062,65
108.087,103
108.112,143
108.137,177
108.162,208
108.187,239
108.212,269
108.237,291
108.262,303
108.287,305
108.312,303
108.337,301
108.362,301
108.387,299
108.412,294
108.437,284
108.462,271
108.487,255
108.512,237
108.537,218
108.562,199
108.587,180
108.612,161
108.637,142
108.662,121
108.687,96
108.712,67
108.737,42
108.762,27
108.787,32
108.812,54
108.837,87
108.862,122
108.887,155
108.912,186
108.937,219
108.962,250
108.987,275
109.012,291
109.037,297
109.062,301
109.087,306
109.112,311
109.137,315
109.162,314
109.187,309
109.212,302
109.237,293
109.262,284
109.287,274
109.312,261
109.337,246
109.362,229
109.387,212
109.412,197
109.437,182
109.462,163
109.487,144
109.512,131
109.537,134
109.562,154
109.587,187
109.612,225
109.637,266
109.662,306
109.687,343
109.712,365
109.737,362
109.762,332
109.787,286
109.812,240
109.837,201
109.862,169
109.887,138
109.912,107
109.937,85
109.962,75
109.987,74
110.012,74
110.037,67
110.062,60
110.087,61
110.112,71
110.137,81
110.162,78
110.187,59
110.212,35
110.237,23
110.262,31
110.287,60
110.312,101
110.337,145
110.362,187
110.387,224
110.412,257
110.437,285
110.462,309
110.487,327
110.512,338
110.537,342
110.562,338
110.587,332
110.612,329
110.637,328
110.662,325
110.687,314
110.712,295
110.737,273
110.762,250
110.787,227
110.812,201
110.837,175
110.862,149
110.887,124
110.912,96
110.937,66
110.962,42
110.987,33
111.012,47
111.037,79
111.062,116
111.087,150
111.112,182
111.137,219
111.162,259
111.187,296
111.212,319
111.237,326
111.262,327
111.287,329
111.312,332
111.337,332
111.362,325
111.387,312
111.412,297
111.437,280
111.462,260
111.487,234
111.512,208
111.537,183
111.562,161
111.587,138
111.612,110
111.637,79
111.662,48
111.687,22
111.712,4
111.737,0
111.762,11
111.787,41
111.812,84
111.837,132
111.862,178
111.887,220
111.912,259
111.937,295
111.962,321
111.987,333
112.012,333
112.037,329
112.062,329
112.087,332
112.112,333
112.137,324
112.162,307
112.187,287
112.212,268
112.237,250
112.262,229
112.287,202
112.312,174
112.337,148
112.362,123
112.387,94
112.412,57
112.437,21
112.462,0
112.487,2
112.512,29
112.537,71
112.562,117
112.587,158
112.612,196
112.637,232
112.662,266
112.687,296
112.712,319
112.737,333
112.762,338
112.787,338
112.812,336
112.837,336
112.862,337
112.887,335
112.912,325
112.937,301
112.962,268
112.987,233
113.012,205
113.037,186
113.062,173
113.087,158
113.112,134
113.137,99
113.162,62
113.187,34
113.212,25
113.237,40
113.262,70
113.287,107
113.312,142
113.337,176
113.362,209
113.387,242
113.412,269
113.437,286
113.462,294
113.487,295
113.512,294
113.537,292
113.562,287
113.587,278
113.612,267
113.637,255
113.662,243
113.687,226
113.712,204
113.737,180
113.762,160
113.787,144
113.812,127
113.837,104
113.862,75
113.887,48
113.912,35
113.937,43
113.962,70
113.987,108
114.012,147
114.037,184
114.062,218
114.087,249
114.112,276
114.137,294
114.162,302
114.187,303
114.212,300
114.237,298
114.262,296
114.287,292
114.312,284
114.337,271
114.362,255
114.387,236
114.412,215
114.437,195
114.462,174
114.487,151
114.512,125
114.537,95
114.562,64
114.587,41
114.612,34
114.637,49
114.662,81
114.687,124
114.712,167
114.737,207
114.762,241
114.787,270
114.812,293
114.837,309
114.862,316
114.887,319
114.912,319
114.937,319
114.962,315
114.987,307
115.012,293
115.037,276
115.062,258
115.087,236
115.112,211
115.137,184
115.162,158
115.187,132
115.212,104
115.237,71
115.262,34
115.287,5
115.312,-2
115.337,14
115.362,52
115.387,99
115.412,147
115.437,192
115.462,234
115.487,270
115.512,297
115.537,316
115.562,329
115.587,338
115.612,342
115.637,340
115.662,333
115.687,325
115.712,319
115.737,311
115.762,298
115.787,278
115.812,252
115.837,225
115.862,199
115.887,174
115.912,149
115.937,125
115.962,100
115.987,71
116.012,41
116.037,14
116.062,2
116.087,12
116.112,44
116.137,89
116.162,135
116.187,179
116.212,218
116.237,252
116.262,278
116.287,296
116.312,307
116.337,315
116.362,322
116.387,326
116.412,325
116.437,317
116.462,307
116.487,296
116.512,283
116.537,267
116.562,248
116.587,227
116.612,204
116.637,179
116.662,151
116.687,124
116.712,97
116.737,68
116.762,38
116.787,10
116.812,-3
116.837,6
116.862,39
116.887,84
116.912,128
116.937,165
116.962,200
116.987,238
117.012,277
117.037,305
117.062,318
117.087,319
117.112,319
117.137,324
117.162,331
117.187,335
117.212,330
117.237,316
117.262,297
117.287,277
117.312,255
117.337,232
117.362,210
117.387,188
117.412,165
117.437,142
117.462,120
117.487,96
117.512,71
117.537,43
117.562,18
117.587,5
117.612,11
117.637,39
117.662,79
117.687,125
117.712,170
117.737,213
117.762,251
117.787,282
117.812,300
117.837,310
117.862,316
117.887,324
117.912,331
117.937,335
117.962,333
117.987,326
118.012,315
118.037,300
118.062,279
118.087,257
118.112,235
118.137,218
118.162,201
118.187,181
118.212,159
118.237,137
118.262,114
118.287,88
118.312,58
118.337,30
118.362,17
118.387,29
118.412,64
118.437,108
118.462,151
118.487,191
118.512,227
118.537,261
118.562,287
118.587,302
118.612,308
118.637,311
118.662,315
118.687,317
118.712,315
118.737,310
118.762,303
118.787,296
118.812,285
118.837,269
118.862,250
118.887,233
118.912,219
118.937,200
118.962,172
118.987,134
119.012,95
119.037,61
119.062,33
119.087,13
119.112,4
119.137,14
119.162,46
119.187,92
119.212,137
119.237,175
119.262,205
119.287,234
119.312,262
119.337,283
119.362,291
119.387,290
119.412,289
119.437,295
119.462,303
119.487,304
119.512,293
119.537,275
119.562,257
119.587,246
119.612,236
119.637,220
119.662,197
119.687,172
119.712,152
119.737,136
119.762,116
119.787,87
119.812,54
119.837,32
119.862,34
119.887,59
119.912,97
119.937,136
119.962,173
119.987,209
120.012,246
120.037,279
120.062,300
120.087,306
120.112,307
120.137,313
120.162,325
120.187,336
120.212,338
120.237,327
120.262,309
120.287,290
120.312,272
120.337,251
120.362,227
120.387,201
120.412,176
120.437,154
120.462,132
120.487,110
120.512,85
120.537,58
120.562,30
120.587,9
120.612,3
120.637,18
120.662,54
120.687,102
120.712,148
120.737,189
120.762,224
120.787,258
120.812,290
120.837,316
120.862,331
120.887,337
120.912,338
120.937,336
120.962,330
120.987,321
121.012,308
121.037,295
121.062,280
121.087,265
121.112,247
121.137,227
121.162,206
121.187,186
121.212,167
121.237,148
121.262,127
121.287,102
121.312,73
121.337,42
121.362,20
121.387,16
121.412,34
121.437,70
121.462,112
121.487,151
121.512,188
121.537,223
121.562,257
121.587,286
121.612,306
121.637,315
121.662,319
121.687,321
121.712,320
121.737,315
121.762,305
121.787,293
121.812,282
121.837,271
121.862,256
121.887,237
121.912,216
121.937,195
121.962,177
121.987,161
122.012,143
122.037,121
122.062,96
122.087,68
122.112,42
122.137,28
122.162,32
122.187,55
122.212,89
122.237,127
122.262,164
122.287,199
122.312,231
122.337,258
122.362,278
122.387,289
122.412,295
122.437,300
122.462,304
122.487,304
122.512,301
122.537,295
122.562,287
122.587,277
122.612,264
122.637,250
122.662,235
122.687,222
122.712,207
122.737,189
122.762,169
122.787,151
122.812,134
122.837,115
122.862,92
122.887,68
122.912,51
122.937,52
122.962,73
122.987,107
123.012,145
123.037,182
123.062,215
123.087,246
123.112,272
123.137,290
123.162,300
123.187,303
123.212,303
123.237,304
123.262,307
123.287,307
123.312,304
123.337,295
123.362,282
123.387,269
123.412,255
123.437,239
123.462,217
123.487,191
123.512,167
123.537,151
123.562,139
123.587,124
123.612,101
123.637,74
123.662,54
123.687,54
123.712,76
123.737,112
123.762,149
123.787,181
123.812,208
123.837,233
123.862,255
123.887,271
123.912,278
123.937,277
123.962,272
123.987,268
124.012,267
124.037,267
124.062,262
124.087,251
124.112,236
124.137,223
124.162,212
124.187,202
124.212,189
124.237,171
124.262,152
124.287,135
124.312,117
124.337,96
124.362,74
124.387,59
124.412,62
124.437,84
124.462,120
124.487,158
124.512,192
124.537,224
124.562,253
124.587,277
124.612,291
124.637,296
124.662,296
124.687,299
124.712,306
124.737,311
124.762,307
124.787,294
124.812,276
124.837,260
124.862,246
124.887,230
124.912,211
124.937,191
124.962,170
124.987,149
125.012,125
125.037,96
125.062,64
125.087,38
125.112,25
125.137,31
125.162,54
125.187,87
125.212,122
125.237,157
125.262,192
125.287,231
125.312,270
125.337,300
125.362,318
125.387,323
125.412,322
125.437,323
125.462,325
125.487,325
125.512,318
125.537,304
125.562,286
125.587,268
125.612,250
125.637,229
125.662,205
125.687,178
125.712,153
125.737,131
125.762,108
125.787,81
125.812,49
125.837,21
125.862,7
125.887,15
125.912,45
125.937,87
125.962,129
125.987,168
126.012,208
126.037,249
126.062,288
126.087,317
126.112,329
126.137,330
126.162,328
126.187,329
126.212,331
126.237,328
126.262,317
126.287,302
126.312,287
126.337,272
126.362,257
126.387,236
126.412,209
126.437,180
126.462,153
126.487,130
126.512,109
126.537,85
126.562,57
126.587,28
126.612,11
126.637,12
126.662,36
126.687,74
126.712,116
126.737,159
126.762,200
126.787,240
126.812,277
126.837,303
126.862,317
126.887,323
126.912,327
126.937,332
126.962,336
126.987,333
127.012,325
127.037,313
127.062,300
127.087,285
127.112,268
127.137,247
127.162,224
127.187,203
127.212,181
127.237,157
127.262,129
127.287,96
127.312,61
127.337,28
127.362,5
127.387,0
127.412,14
127.437,48
127.462,94
127.487,142
127.512,187
127.537,228
127.562,264
127.587,291
127.612,308
127.637,315
127.662,317
127.687,317
127.712,318
127.737,319
127.762,315
127.787,305
127.812,289
127.837,271
127.862,252
127.887,233
127.912,213
127.937,193
127.962,173
127.987,156
128.012,139
128.037,118
128.062,91
128.087,60
128.112,35
128.137,25
128.162,36
128.187,63
128.212,98
128.237,136
128.262,174
128.287,211
128.312,245
128.337,273
128.362,292
128.387,302
128.412,306
128.437,306
128.462,304
128.487,300
128.512,294
128.537,286
128.562,274
128.587,258
128.612,238
128.637,215
128.662,193
128.687,172
128.712,153
128.737,135
128.762,116
128.787,94
128.812,69
128.837,47
128.862,37
128.887,46
128.912,73
128.937,110
128.962,149
128.987,187
129.012,225
129.037,265
129.062,301
129.087,326
129.112,336
129.137,335
129.162,332
129.187,332
129.212,334
129.237,333
129.262,327
129.287,313
129.312,295
129.337,275
129.362,255
129.387,235
129.412,216
129.437,198
129.462,178
129.487,154
129.512,120
129.537,77
129.562,30
129.587,-7
129.612,-23
129.637,-13
129.662,19
129.687,62
129.712,106
129.737,147
129.762,186
129.787,223
129.812,256
129.837,281
129.862,296
129.887,303
129.912,306
129.937,309
129.962,311
129.987,311
130.012,306
130.037,296
130.062,281
130.087,263
130.112,246
130.137,227
130.162,206
130.187,181
130.212,156
130.237,134
130.262,114
130.287,91
130.312,61
130.337,29
130.362,11
130.387,19
130.412,52
130.437,97
130.462,141
130.487,182
130.512,221
130.537,262
130.562,295
130.587,315
130.612,322
130.637,324
130.662,328
130.687,335
130.712,338
130.737,335
130.762,328
130.787,320
130.812,310
130.837,293
130.862,269
130.887,241
130.912,215
130.937,191
130.962,167
130.987,141
131.012,115
131.037,91
131.062,66
131.087,39
131.112,14
131.137,4
131.162,19
131.187,59
131.212,110
131.237,158
131.262,195
131.287,224
131.312,248
131.337,268
131.362,281
131.387,289
131.412,293
131.437,299
131.462,304
131.487,306
131.512,303
131.537,294
131.562,279
131.587,260
131.612,237
131.637,214
131.662,195
131.687,179
131.712,165
131.737,148
131.762,126
131.787,100
131.812,73
131.837,51
131.862,41
131.887,50
131.912,80
131.937,124
131.962,171
131.987,212
132.012,245
132.037,273
132.062,299
132.087,316
132.112,322
132.137,317
132.162,312
132.187,311
132.212,313
132.237,311
132.262,299
132.287,279
132.312,258
132.337,239
132.362,222
132.387,201
132.412,177
132.437,155
132.462,135
132.487,114
132.512,86
132.537,53
132.562,24
132.587,11
132.612,22
132.637,55
132.662,99
132.687,143
132.712,183
132.737,217
132.762,248
132.787,275
132.812,295
132.837,306
132.862,309
132.887,308
132.912,308
132.937,309
132.962,309
132.987,302
133.012,289
133.037,271
133.062,253
133.087,234
133.112,213
133.137,187
133.162,160
133.187,137
133.212,117
133.237,94
133.262,64
133.287,31
133.312,10
133.337,14
133.362,43
133.387,85
133.412,126
133.437,162
133.462,196
133.487,232
133.512,267
133.537,293
133.562,306
133.587,312
133.612,314
133.637,317
133.662,317
133.687,313
133.712,304
133.737,293
133.762,281
133.787,268
133.812,250
133.837,229
133.862,207
133.887,186
133.912,167
133.937,147
133.962,124
133.987,94
134.012,61
134.037,34
134.062,25
134.087,41
134.112,77
134.137,122
134.162,164
134.187,199
134.212,230
134.237,261
134.262,289
134.287,309
134.312,316
134.337,315
134.362,313
134.387,314
134.412,315
134.437,312
134.462,301
134.487,285
134.512,270
134.537,257
134.562,245
134.587,231
134.612,211
134.637,188
134.662,164
134.687,142
134.712,120
134.737,95
134.762,65
134.787,38
134.812,24
134.837,30
134.862,56
134.887,94
134.912,134
134.937,170
134.962,201
134.987,229
135.012,250
135.037,262
135.062,267
135.087,269
135.112,273
135.137,279
135.162,284
135.187,284
135.212,279
135.237,271
135.262,262
135.287,253
135.312,241
135.337,225
135.362,207
135.387,188
135.412,169
135.437,151
135.462,132
135.487,109
135.512,86
135.537,69
135.562,67
135.587,85
135.612,119
135.637,158
135.662,195
135.687,225
135.712,251
135.737,272
135.762,288
135.787,297
135.812,302
135.837,304
135.862,306
135.887,307
135.912,306
135.937,302
135.962,297
135.987,288
136.012,273
136.037,253
136.062,229
136.087,205
136.112,184
136.137,163
136.162,141
136.187,116
136.212,87
136.237,58
136.262,34
136.287,18
136.312,16
136.337,31
136.362,61
136.387,99
136.412,137
136.437,174
136.462,209
136.487,243
136.512,272
136.537,295
136.562,307
136.587,312
136.612,314
136.637,314
136.662,313
136.687,309
136.712,301
136.737,289
136.762,275
136.787,258
136.812,241
136.837,221
136.862,199
136.887,176
136.912,154
136.937,133
136.962,114
136.987,92
137.012,66
137.037,39
137.062,20
137.087,19
137.112,39
137.137,76
137.162,118
137.187,158
137.212,194
137.237,227
137.262,259
137.287,286
137.312,303
137.337,312
137.362,319
137.387,325
137.412,331
137.437,332
137.462,326
137.487,316
137.512,304
137.537,293
137.562,279
137.587,260
137.612,236
137.637,212
137.662,191
137.687,172
137.712,151
137.737,125
137.762,97
137.787,70
137.812,50
137.837,39
137.862,39
137.887,55
137.912,86
137.937,130
137.962,178
137.987,223
138.012,257
138.037,281
138.062,294
138.087,302
138.112,307
138.137,312
138.162,317
138.187,321
138.212,322
138.237,317
138.262,306
138.287,289
138.312,270
138.337,250
138.362,230
138.387,210
138.412,189
138.437,167
138.462,144
138.487,119
138.512,93
138.537,66
138.562,39
138.587,20
138.612,14
138.637,28
138.662,60
138.687,105
138.712,153
138.737,195
138.762,228
138.787,252
138.812,269
138.837,281
138.862,289
138.887,295
138.912,298
138.937,299
138.962,296
138.987,289
139.012,279
139.037,267
139.062,253
139.087,238
139.112,219
139.137,199
139.162,178
139.187,157
139.212,135
139.237,111
139.262,84
139.287,61
139.312,51
139.337,58
139.362,82
139.387,120
139.412,162
139.437,204
139.462,243
139.487,275
139.512,299
139.537,314
139.562,320
139.587,320
139.612,318
139.637,317
139.662,313
139.687,306
139.712,293
139.737,275
139.762,255
139.787,237
139.812,218
139.837,198
139.862,175
139.887,150
139.912,126
139.937,100
139.962,71
139.987,41
140.012,17
140.037,8
140.062,21
140.087,51
140.112,92
140.137,136
140.162,179
140.187,220
140.212,255
140.237,281
140.262,298
140.287,309
140.312,318
140.337,325
140.362,325
140.387,319
140.412,307
140.437,295
140.462,282
140.487,267
140.512,247
140.537,222
140.562,195
140.587,170
140.612,148
140.637,127
140.662,103
140.687,79
140.712,54
140.737,32
140.762,20
140.787,23
140.812,47
140.837,87
140.862,135
140.887,183
140.912,227
140.937,265
140.962,298
140.987,324
141.012,342
141.037,354
141.062,361
141.087,365
141.112,365
141.137,359
141.162,349
141.187,339
141.212,327
141.237,311
141.262,288
141.287,260
141.312,233
141.337,212
141.362,194
141.387,172
141.412,144
141.437,113
141.462,86
141.487,63
141.512,42
141.537,24
141.562,11
141.587,9
141.612,22
141.637,45
141.662,74
141.687,106
141.712,139
141.737,175
141.762,209
141.787,240
141.812,265
141.837,282
141.862,294
141.887,304
141.912,310
141.937,313
141.962,307
141.987,293
142.012,273
142.037,251
142.062,232
142.087,216
142.112,200
142.137,181
142.162,156
142.187,129
142.212,100
142.237,71
142.262,48
142.287,38
142.312,50
142.337,82
142.362,125
142.387,169
142.412,208
142.437,242
142.462,272
142.487,296
142.512,311
142.537,318
142.562,322
142.587,326
142.612,331
142.637,333
142.662,329
142.687,319
142.712,306
142.737,291
142.762,274
142.787,254
142.812,231
142.837,209
142.862,188
142.887,169
142.912,149
142.937,126
142.962,97
142.987,64
143.012,32
143.037,13
143.062,13
143.087,33
143.112,67
143.137,104
143.162,141
143.187,176
143.212,209
143.237,240
143.262,264
143.287,279
143.312,286
143.337,289
143.362,291
143.387,291
143.412,287
143.437,279
143.462,268
143.487,254
143.512,240
143.537,226
143.562,211
143.587,196
143.612,179
143.637,160
143.662,143
143.687,127
143.712,111
143.737,93
143.762,77
143.787,73
143.812,90
143.837,129
143.862,178
143.887,226
143.912,265
143.937,298
143.962,328
143.987,350
144.012,357
144.037,345
144.062,326
144.087,316
144.112,320
144.137,329
144.162,327
144.187,309
144.212,287
144.237,274
144.262,272
144.287,266
144.312,242
144.337,200
144.362,154
144.387,116
144.412,84
144.437,50
144.462,13
144.487,-15
144.512,-23
144.537,-9
144.562,16
144.587,42
144.612,64
144.637,90
144.662,125
144.687,165
144.712,201
144.737,228
144.762,246
144.787,259
144.812,270
144.837,279
144.862,286
144.887,291
144.912,294
144.937,293
144.962,288
144.987,276
145.012,259
145.037,239
145.062,215
145.087,190
145.112,164
145.137,136
145.162,103
145.187,67
145.212,37
145.237,22
145.262,33
145.287,65
145.312,109
145.337,152
145.362,191
145.387,228
145.412,265
145.437,297
145.462,319
145.487,330
145.512,333
145.537,334
145.562,334
145.587,331
145.612,327
145.637,320
145.662,310
145.687,294
145.712,275
145.737,254
145.762,234
145.787,215
145.812,195
145.837,171
145.862,145
145.887,116
145.912,85
145.937,54
145.962,28
145.987,19
146.012,32
146.037,65
146.062,107
146.087,149
146.112,187
146.137,223
146.162,258
146.187,286
146.212,303
146.237,308
146.262,309
146.287,312
146.312,319
146.337,324
146.362,325
146.387,319
146.412,309
146.437,295
146.462,277
146.487,254
146.512,230
146.537,205
146.562,182
146.587,161
146.612,139
146.637,113
146.662,81
146.687,47
146.712,18
146.737,7
146.762,19
146.787,54
146.812,99
146.837,142
146.862,176
146.887,203
146.912,226
146.937,246
146.962,258
146.987,263
147.012,263
147.037,264
147.062,268
147.087,270
147.112,264
147.137,250
147.162,234
147.187,220
147.212,210
147.237,197
147.262,176
147.287,150
147.312,124
147.337,103
147.362,83
147.387,59
147.412,30
147.437,6
147.462,0
147.487,15
147.512,49
147.537,88
147.562,124
147.587,158
147.612,196
147.637,235
147.662,268
147.687,286
147.712,292
147.737,296
147.762,304
147.787,319
147.812,333
147.837,343
147.862,348
147.887,350
147.912,349
147.937,346
147.962,341
147.987,337
148.012,337
148.037,337
148.062,336
148.087,331
148.112,328
148.137,326
148.162,324
148.187,312
148.212,284
148.237,242
148.262,200
148.287,174
148.312,172
148.337,191
148.362,218
148.387,238
148.412,246
148.437,245
148.462,243
148.487,245
148.512,250
148.537,249
148.562,238
148.587,221
148.612,205
148.637,197
148.662,192
148.687,184
148.712,168
148.737,146
148.762,121
148.787,90
148.812,49
148.837,-3
148.862,-58
148.887,-98
148.912,-107
148.937,-87
148.962,-50
148.987,-13
149.012,19
149.037,50
149.062,85
149.087,124
149.112,161
149.137,185
149.162,192
149.187,185
149.212,175
149.237,172
149.262,178
149.287,183
149.312,175
149.337,150
149.362,113
149.387,81
149.412,70
149.437,92
149.462,147
149.487,223
149.512,301
149.537,359
149.562,383
149.587,380
149.612,370
149.637,374
149.662,401
149.687,438
149.712,464
149.737,469
149.762,459
149.787,444
149.812,427
149.837,399
149.862,353
149.887,295
149.912,242
149.937,209
149.962,198
149.987,198
150.012,199
150.037,194
150.062,183
150.087,165
150.112,141
150.137,113
150.162,89
150.187,75
150.212,69
150.237,62
150.262,46
150.287,20
150.312,-3
150.337,-13
150.362,0
150.387,31
150.412,71
150.437,107
150.462,137
150.487,166
150.512,202
150.537,241
150.562,274
150.587,290
150.612,288
150.637,279
150.662,280
150.687,295
150.712,314
150.737,322
150.762,311
150.787,287
150.812,263
150.837,246
150.862,235
150.887,222
150.912,202
150.937,171
150.962,136
150.987,102
151.012,82
151.037,82
151.062,103
151.087,138
151.112,174
151.137,206
151.162,235
151.187,266
151.212,298
151.237,323
151.262,334
151.287,332
151.312,324
151.337,318
151.362,312
151.387,306
151.412,298
151.437,290
151.462,282
151.487,267
151.512,241
151.537,209
151.562,180
151.587,159
151.612,142
151.637,118
151.662,87
151.687,61
151.712,55
151.737,73
151.762,103
151.787,130
151.812,150
151.837,170
151.862,198
151.887,228
151.912,248
151.937,253
151.962,247
151.987,242
152.012,243
152.037,248
152.062,248
152.087,240
152.112,229
152.137,217
152.162,203
152.187,185
152.212,163
152.237,140
152.262,119
152.287,98
152.312,76
152.337,57
152.362,51
152.387,67
152.412,100
152.437,140
152.462,177
152.487,207
152.512,233
152.537,258
152.562,280
152.587,293
152.612,297
152.637,296
152.662,294
152.687,292
152.712,288
152.737,281
152.762,270
152.787,257
152.812,240
152.837,219
152.862,196
152.887,174
152.912,153
152.937,128
152.962,100
152.987,72
153.012,58
153.037,66
153.062,95
153.087,131
153.112,162
153.137,188
153.162,215
153.187,245
153.212,275
153.237,294
153.262,299
153.287,296
153.312,292
153.337,291
153.362,289
153.387,282
153.412,271
153.437,258
153.462,245
153.487,228
153.512,206
153.537,183
153.562,163
153.587,146
153.612,124
153.637,92
153.662,57
153.687,34
153.712,36
153.737,65
153.762,109
153.787,154
153.812,192
153.837,223
153.862,250
153.887,273
153.912,290
153.937,297
153.962,297
153.987,296
154.012,295
154.037,296
154.062,294
154.087,286
154.112,272
154.137,256
154.162,241
154.187,225
154.212,206
154.237,181
154.262,156
154.287,135
154.312,117
154.337,95
154.362,66
154.387,35
154.412,17
154.437,27
154.462,62
154.487,112
154.512,158
154.537,195
154.562,226
154.587,257
154.612,287
154.637,311
154.662,321
154.687,320
154.712,314
154.737,309
154.762,308
154.787,308
154.812,305
154.837,298
154.862,284
154.887,268
154.912,249
154.937,230
154.962,210
154.987,189
155.012,165
155.037,140
155.062,114
155.087,85
155.112,56
155.137,32
155.162,24
155.187,38
155.212,74
155.237,123
155.262,171
155.287,211
155.312,239
155.337,259
155.362,274
155.387,286
155.412,294
155.437,298
155.462,300
155.487,298
155.512,293
155.537,286
155.562,277
155.587,269
155.612,259
155.637,247
155.662,231
155.687,210
155.712,187
155.737,164
155.762,143
155.787,121
155.812,96
155.837,67
155.862,42
155.887,32
155.912,44
155.937,78
155.962,124
155.987,170
156.012,209
156.037,237
156.062,256
156.087,269
156.112,278
156.137,285
156.162,292
156.187,298
156.212,299
156.237,292
156.262,280
156.287,268
156.312,258
156.337,248
156.362,233
156.387,210
156.412,185
156.437,163
156.462,147
156.487,129
156.512,101
156.537,67
156.562,40
156.587,35
156.612,58
156.637,101
156.662,147
156.687,186
156.712,217
156.737,245
156.762,271
156.787,292
156.812,303
156.837,305
156.862,304
156.887,306
156.912,310
156.937,309
156.962,301
156.987,286
157.012,268
157.037,250
157.062,232
157.087,215
157.112,198
157.137,180
157.162,160
157.187,133
157.212,101
157.237,70
157.262,53
157.287,56
157.312,77
157.337,103
157.362,125
157.387,140
157.412,154
157.437,177
157.462,209
157.487,240
157.512,261
157.537,271
157.562,278
157.587,289
157.612,302
157.637,307
157.662,299
157.687,281
157.712,262
157.737,250
157.762,241
157.787,227
157.812,205
157.837,180
157.862,153
157.887,121
157.912,78
157.937,32
157.962,0
157.987,1
158.012,35
158.037,84
158.062,126
158.087,155
158.112,178
158.137,208
158.162,246
158.187,282
158.212,305
158.237,314
158.262,316
158.287,318
158.312,321
158.337,321
158.362,315
158.387,304
158.412,291
158.437,279
158.462,265
158.487,247
158.512,224
158.537,198
158.562,173
158.587,151
158.612,126
158.637,96
158.662,63
158.687,35
158.712,24
158.737,36
158.762,67
158.787,108
158.812,149
158.837,189
158.862,225
158.887,257
158.912,280
158.937,293
158.962,300
158.987,304
159.012,311
159.037,318
159.062,323
159.087,322
159.112,315
159.137,301
159.162,284
159.187,266
159.212,250
159.237,232
159.262,212
159.287,188
159.312,163
159.337,137
159.362,108
159.387,72
159.412,35
159.437,9
159.462,9
159.487,37
159.512,82
159.537,126
159.562,162
159.587,192
159.612,221
159.637,250
159.662,271
159.687,283
159.712,287
159.737,291
159.762,298
159.787,303
159.812,302
159.837,294
159.862,284
159.887,273
159.912,261
159.937,246
159.962,227
159.987,206
160.012,185
160.037,166
160.062,146
160.087,123
160.112,95
160.137,67
160.162,46
160.187,45
160.212,66
160.237,105
160.262,147
160.287,184
160.312,212
160.337,236
160.362,258
160.387,274
160.412,280
160.437,279
160.462,278
160.487,284
160.512,291
160.537,292
160.562,282
160.587,269
160.612,259
160.637,253
160.662,242
160.687,223
160.712,197
160.737,173
160.762,155
160.787,136
160.812,108
160.837,74
160.862,45
160.887,36
160.912,51
160.937,83
160.962,121
160.987,156
161.012,189
161.037,220
161.062,248
161.087,269
161.112,282
161.137,286
161.162,287
161.187,289
161.212,293
161.237,295
161.262,292
161.287,283
161.312,272
161.337,261
161.362,251
161.387,237
161.412,216
161.437,192
161.462,170
161.487,153
161.512,134
161.537,108
161.562,76
161.587,48
161.612,40
161.637,55
161.662,87
161.687,124
161.712,157
161.737,188
161.762,217
161.787,245
161.812,267
161.837,282
161.862,291
161.887,298
161.912,303
161.937,305
161.962,303
161.987,300
162.012,294
162.037,285
162.062,271
162.087,254
162.112,236
162.137,221
162.162,206
162.187,188
162.212,169
162.237,147
162.262,123
162.287,94
162.312,64
162.337,40
162.362,31
162.387,44
162.412,72
162.437,107
162.462,142
162.487,176
162.512,210
162.537,240
162.562,262
162.587,274
162.612,280
162.637,286
162.662,290
162.687,290
162.712,286
162.737,279
162.762,272
162.787,266
162.812,257
162.837,245
162.862,232
162.887,220
162.912,207
162.937,191
162.962,171
162.987,149
163.012,126
163.037,99
163.062,68
163.087,41
163.112,34
163.137,53
163.162,91
163.187,133
163.212,166
163.237,195
163.262,226
163.287,262
163.312,294
163.337,312
163.362,318
163.387,321
163.412,327
163.437,334
163.462,337
163.487,335
163.512,330
163.537,325
163.562,318
163.587,302
163.612,275
163.637,241
163.662,207
163.687,177
163.712,152
163.737,130
163.762,109
163.787,87
163.812,61
163.837,35
163.862,17
163.887,13
163.912,26
163.937,53
163.962,86
163.987,124
164.012,168
164.037,213
164.062,252
164.087,276
164.112,285
164.137,285
164.162,286
164.187,291
164.212,294
164.237,291
164.262,281
164.287,270
164.312,263
164.337,257
164.362,248
164.387,232
164.412,210
164.437,188
164.462,170
164.487,153
164.512,131
164.537,103
164.562,74
164.587,55
164.612,55
164.637,75
164.662,109
164.687,148
164.712,185
164.737,218
164.762,247
164.787,272
164.812,291
164.837,300
164.862,299
164.887,293
164.912,289
164.937,287
164.962,287
164.987,283
165.012,273
165.037,259
165.062,243
165.087,225
165.112,204
165.137,182
165.162,161
165.187,144
165.212,127
165.237,104
165.262,74
165.287,43
165.312,23
165.337,29
165.362,59
165.387,101
165.412,143
165.437,179
165.462,212
165.487,249
165.512,285
165.537,313
165.562,329
165.587,333
165.612,335
165.637,341
165.662,348
165.687,350
165.712,342
165.737,327
165.762,311
165.787,300
165.812,290
165.837,272
165.862,236
165.887,185
165.912,130
165.937,82
165.962,48
165.987,25
166.012,11
166.037,5
166.062,14
166.087,39
166.112,73
166.137,107
166.162,133
166.187,156
166.212,184
166.237,216
166.262,245
166.287,263
166.312,269
166.337,272
166.362,279
166.387,288
166.412,294
166.437,294
166.462,287
166.487,279
166.512,271
166.537,264
166.562,255
166.587,243
166.612,228
166.637,210
166.662,189
166.687,165
166.712,140
166.737,113
166.762,82
166.787,52
166.812,34
166.837,36
166.862,59
166.887,93
166.912,128
166.937,159
166.962,187
166.987,216
167.012,245
167.037,266
167.062,279
167.087,287
167.112,294
167.137,302
167.162,307
167.187,309
167.212,308
167.237,304
167.262,298
167.287,288
167.312,275
167.337,261
167.362,247
167.387,230
167.412,209
167.437,187
167.462,168
167.487,149
167.512,126
167.537,94
167.562,61
167.587,42
167.612,51
167.637,85
167.662,129
167.687,169
167.712,199
167.737,225
167.762,249
167.787,270
167.812,284
167.837,290
167.862,291
167.887,293
167.912,294
167.937,293
167.962,288
167.987,280
168.012,270
168.037,257
168.062,241
168.087,222
168.112,203
168.137,183
168.162,164
168.187,147
168.212,130
168.237,112
168.262,88
168.287,59
168.312,34
168.337,26
168.362,43
168.387,83
168.412,129
168.437,168
168.462,199
168.487,226
168.512,252
168.537,274
168.562,288
168.587,292
168.612,294
168.637,298
168.662,303
168.687,303
168.712,296
168.737,284
168.762,271
168.787,258
168.812,242
168.837,220
168.862,196
168.887,178
168.912,165
168.937,153
168.962,129
168.987,93
169.012,52
169.037,23
169.062,18
169.087,39
169.112,77
169.137,122
169.162,165
169.187,202
169.212,235
169.237,263
169.262,286
169.287,302
169.312,309
169.337,310
169.362,309
169.387,311
169.412,316
169.437,317
169.462,309
169.487,294
169.512,276
169.537,261
169.562,246
169.587,225
169.612,197
169.637,166
169.662,141
169.687,120
169.712,95
169.737,58
169.762,18
169.787,-7
169.812,0
169.837,37
169.862,90
169.887,139
169.912,178
169.937,211
169.962,243
169.987,275
170.012,299
170.037,314
170.062,319
170.087,319
170.112,318
170.137,317
170.162,316
170.187,312
170.212,302
170.237,285
170.262,265
170.287,245
170.312,226
170.337,207
170.362,184
170.387,158
170.412,132
170.437,109
170.462,83
170.487,51
170.512,18
170.537,1
170.562,12
170.587,51
170.612,103
170.637,151
170.662,190
170.687,221
170.712,251
170.737,277
170.762,295
170.787,305
170.812,311
170.837,317
170.862,321
170.887,321
170.912,314
170.937,305
170.962,296
170.987,285
171.012,271
171.037,252
171.062,229
171.087,206
171.112,185
171.137,165
171.162,147
171.187,125
171.212,95
171.237,58
171.262,21
171.287,0
171.312,5
171.337,40
171.362,90
171.387,138
171.412,174
171.437,203
171.462,230
171.487,257
171.512,281
171.537,297
171.562,304
171.587,305
171.612,305
171.637,305
171.662,305
171.687,303
171.712,298
171.737,288
171.762,271
171.787,249
171.812,224
171.837,198
171.862,177
171.887,161
171.912,150
171.937,136
171.962,112
171.987,82
172.012,54
172.037,46
172.062,66
172.087,109
172.112,161
172.137,209
172.162,250
172.187,284
172.212,312
172.237,334
172.262,347
172.287,353
172.312,356
172.337,355
172.362,347
172.387,326
172.412,296
172.437,262
172.462,230
172.487,203
172.512,180
172.537,160
172.562,143
172.587,128
172.612,116
172.637,106
172.662,95
172.687,78
172.712,54
172.737,28
172.762,12
172.787,18
172.812,49
172.837,93
172.862,134
172.887,164
172.912,188
172.937,212
172.962,235
172.987,253
173.012,262
173.037,264
173.062,270
173.087,281
173.112,295
173.137,303
173.162,303
173.187,296
173.212,286
173.237,276
173.262,262
173.287,244
173.312,223
173.337,201
173.362,181
173.387,162
173.412,142
173.437,115
173.462,82
173.487,47
173.512,25
173.537,25
173.562,49
173.587,87
173.612,125
173.637,159
173.662,190
173.687,223
173.712,258
173.737,287
173.762,305
173.787,313
173.812,315
173.837,315
173.862,314
173.887,314
173.912,314
173.937,312
173.962,306
173.987,293
174.012,274
174.037,254
174.062,235
174.087,218
174.112,199
174.137,180
174.162,160
174.187,139
174.212,111
174.237,76
174.262,45
174.287,32
174.312,47
174.337,82
174.362,122
174.387,155
174.412,181
174.437,208
174.462,236
174.487,261
174.512,277
174.537,284
174.562,289
174.587,296
174.612,301
174.637,302
174.662,296
174.687,288
174.712,280
174.737,273
174.762,261
174.787,245
174.812,226
174.837,208
174.862,191
174.887,175
174.912,157
174.937,135
174.962,108
174.987,78
175.012,54
175.037,47
175.062,64
175.087,101
175.112,146
175.137,186
175.162,219
175.187,249
175.212,279
175.237,302
175.262,308
175.287,297
175.312,277
175.337,262
175.362,257
175.387,259
175.412,260
175.437,254
175.462,245
175.487,236
175.512,226
175.537,211
175.562,188
175.587,160
175.612,136
175.637,118
175.662,100
175.687,75
175.712,46
175.737,25
175.762,28
175.787,60
175.812,109
175.837,156
175.862,188
175.887,207
175.912,224
175.937,245
175.962,266
175.987,281
176.012,291
176.037,299
176.062,307
176.087,313
176.112,311
176.137,301
176.162,288
176.187,276
176.212,264
176.237,245
176.262,218
176.287,190
176.312,165
176.337,143
176.362,118
176.387,86
176.412,55
176.437,39
176.462,47
176.487,75
176.512,114
176.537,152
176.562,186
176.587,219
176.612,249
176.637,273
176.662,289
176.687,298
176.712,303
176.737,308
176.762,310
176.787,308
176.812,300
176.837,291
176.862,284
176.887,277
176.912,264
176.937,242
176.962,213
176.987,187
177.012,168
177.037,151
177.062,126
177.087,89
177.112,50
177.137,26
177.162,25
177.187,47
177.212,78
177.237,112
177.262,147
177.287,186
177.312,224
177.337,255
177.362,275
177.387,286
177.412,295
177.437,303
177.462,308
177.487,309
177.512,306
177.537,301
177.562,295
177.587,285
177.612,271
177.637,253
177.662,234
177.687,214
177.712,192
177.737,168
177.762,144
177.787,119
177.812,94
177.837,71
177.862,57
177.887,56
177.912,68
177.937,84
177.962,100
177.987,117
178.012,143
178.037,173
178.062,197
178.087,207
178.112,215
178.137,238
178.162,280
178.187,319
178.212,323
178.237,283
178.262,225
178.287,187
178.312,187
178.337,207
178.362,221
178.387,217
178.412,202
178.437,191
178.462,184
178.487,171
178.512,148
178.537,120
178.562,96
178.587,79
178.612,65
178.637,58
178.662,65
178.687,90
178.712,126
178.737,161
178.762,187
178.787,211
178.812,241
178.837,276
178.862,305
178.887,321
178.912,321
178.937,315
178.962,311
178.987,311
179.012,314
179.037,316
179.062,316
179.087,318
179.112,325
179.137,335
179.162,341
179.187,337
179.212,324
179.237,313
179.262,315
179.287,324
179.312,320
179.337,283
179.362,214
179.387,142
179.412,97
179.437,92
179.462,111
179.487,132
179.512,145
179.537,155
179.562,170
179.587,186
179.612,194
179.637,190
179.662,183
179.687,182
179.712,190
179.737,197
179.762,197
179.787,188
179.812,176
179.837,164
179.862,152
179.887,138
179.912,123
179.937,111
179.962,102
179.987,92
180.012,77
180.037,53
180.062,23
180.087,-1
180.112,-9
180.137,6
180.162,43
180.187,91
180.212,132
180.237,159
180.262,175
180.287,189
180.312,207
180.337,228
180.362,247
180.387,261
180.412,274
180.437,293
180.462,316
180.487,334
180.512,335
180.537,316
180.562,284
180.587,253
180.612,236
180.637,233
180.662,234
180.687,229
180.712,213
180.737,190
180.762,167
180.787,149
180.812,136
180.837,135
180.862,147
180.887,175
180.912,209
180.937,241
180.962,263
180.987,279
181.012,297
181.037,319
181.062,339
181.087,348
181.112,345
181.137,338
181.162,334
181.187,333
181.212,326
181.237,306
181.262,276
181.287,245
181.312,221
181.337,202
181.362,181
181.387,155
181.412,129
181.437,107
181.462,89
181.487,68
181.512,38
181.537,3
181.562,-19
181.587,-19
181.612,6
181.637,43
181.662,80
181.687,111
181.712,143
181.737,181
181.762,222
181.787,256
181.812,275
181.837,280
181.862,280
181.887,283
181.912,289
181.937,290
181.962,284
181.987,274
182.012,265
182.037,259
182.062,251
182.087,235
182.112,211
182.137,186
182.162,167
182.187,149
182.212,126
182.237,95
182.262,64
182.287,48
182.312,55
182.337,85
182.362,124
182.387,160
182.412,193
182.437,225
182.462,259
182.487,292
182.512,315
182.537,326
182.562,324
182.587,318
182.612,312
182.637,308
182.662,306
182.687,301
182.712,293
182.737,280
182.762,262
182.787,238
182.812,209
182.837,179
182.862,151
182.887,129
182.912,112
182.937,95
182.962,71
182.987,40
183.012,14
183.037,9
183.062,34
183.087,78
183.112,125
183.137,161
183.162,188
183.187,215
183.212,250
183.237,285
183.262,310
183.287,319
183.312,317
183.337,314
183.362,315
183.387,317
183.412,316
183.437,309
183.462,298
183.487,284
183.512,267
183.537,250
183.562,234
183.587,218
183.612,201
183.637,180
183.662,154
183.687,125
183.712,94
183.737,60
183.762,26
183.787,3
183.812,3
183.837,28
183.862,72
183.887,121
183.912,165
183.937,201
183.962,234
183.987,263
184.012,285
184.037,297
184.062,303
184.087,306
184.112,308
184.137,307
184.162,300
184.187,291
184.212,283
184.237,277
184.262,271
184.287,262
184.312,250
184.337,235
184.362,218
184.387,197
184.412,174
184.437,151
184.462,130
184.487,104
184.512,70
184.537,30
184.562,0
184.587,-6
184.612,18
184.637,63
184.662,109
184.687,148
184.712,182
184.737,216
184.762,252
184.787,282
184.812,300
184.837,306
184.862,305
184.887,300
184.912,294
184.937,291
184.962,290
184.987,290
185.012,287
185.037,280
185.062,267
185.087,251
185.112,233
185.137,213
185.162,193
185.187,175
185.212,161
185.237,147
185.262,124
185.287,90
185.312,57
185.337,45
185.362,62
185.387,101
185.412,142
185.437,173
185.462,197
185.487,223
185.512,252
185.537,276
185.562,287
185.587,286
185.612,282
185.637,282
185.662,285
185.687,284
185.712,279
185.737,271
185.762,263
185.787,254
185.812,241
185.837,224
185.862,206
185.887,188
185.912,171
185.937,154
185.962,135
185.987,115
186.012,89
186.037,59
186.062,32
186.087,21
186.112,37
186.137,75
186.162,121
186.187,160
186.212,190
186.237,218
186.262,249
186.287,278
186.312,298
186.337,306
186.362,307
186.387,306
186.412,305
186.437,302
186.462,296
186.487,289
186.512,280
186.537,268
186.562,253
186.587,235
186.612,218
186.637,204
186.662,188
186.687,167
186.712,144
186.737,123
186.762,103
186.787,81
186.812,54
186.837,34
186.862,34
186.887,61
186.912,105
186.937,148
186.962,183
186.987,210
187.012,238
187.037,267
187.062,289
187.087,299
187.112,300
187.137,299
187.162,301
187.187,302
187.212,298
187.237,289
187.262,277
187.287,264
187.312,250
187.337,235
187.362,217
187.387,200
187.412,185
187.437,171
187.462,157
187.487,143
187.512,124
187.537,96
187.562,63
187.587,33
187.612,21
187.637,36
187.662,74
187.687,119
187.712,159
187.737,191
187.762,219
187.787,247
187.812,272
187.837,289
187.862,297
187.887,299
187.912,300
187.937,302
187.962,305
187.987,306
188.012,305
188.037,300
188.062,289
188.087,273
188.112,255
188.137,236
188.162,218
188.187,199
188.212,176
188.237,150
188.262,121
188.287,92
188.312,63
188.337,41
188.362,34
188.387,49
188.412,84
188.437,130
188.462,174
188.487,212
188.512,243
188.537,270
188.562,293
188.587,309
188.612,317
188.637,321
188.662,325
188.687,327
188.712,325
188.737,316
188.762,302
188.787,286
188.812,270
188.837,254
188.862,232
188.887,204
188.912,173
188.937,144
188.962,118
188.987,92
189.012,63
189.037,29
189.062,1
189.087,-6
189.112,14
189.137,61
189.162,118
189.187,167
189.212,200
189.237,223
189.262,244
189.287,266
189.312,283
189.337,287
189.362,283
189.387,279
189.412,280
189.437,282
189.462,280
189.487,270
189.512,258
189.537,247
189.562,235
189.587,215
189.612,188
189.637,162
189.662,144
189.687,132
189.712,114
189.737,86
189.762,57
189.787,46
189.812,63
189.837,102
189.862,144
189.887,178
189.912,206
189.937,233
189.962,261
189.987,285
190.012,295
190.037,293
190.062,289
190.087,288
190.112,290
190.137,290
190.162,284
190.187,273
190.212,261
190.237,249
190.262,234
190.287,213
190.312,188
190.337,166
190.362,149
190.387,131
190.412,107
190.437,77
190.462,50
190.487,41
190.512,57
190.537,92
190.562,132
190.587,168
190.612,199
190.637,230
190.662,261
190.687,287
190.712,302
190.737,304
190.762,301
190.787,301
190.812,303
190.837,302
190.862,291
190.887,275
190.912,259
190.937,247
190.962,234
190.987,214
191.012,190
191.037,167
191.062,151
191.087,136
191.112,114
191.137,82
191.162,51
191.187,37
191.212,48
191.237,79
191.262,117
191.287,151
191.312,179
191.337,206
191.362,235
191.387,264
191.412,284
191.437,292
191.462,290
191.487,283
191.512,279
191.537,278
191.562,278
191.587,274
191.612,262
191.637,247
191.662,232
191.687,219
191.712,206
191.737,193
191.762,180
191.787,165
191.812,148
191.837,125
191.862,98
191.887,75
191.912,67
191.937,76
191.962,101
191.987,130
192.012,160
192.037,188
192.062,216
192.087,242
192.112,263
192.137,276
192.162,283
192.187,285
192.212,284
192.237,282
192.262,280
192.287,277
192.312,274
192.337,268
192.362,258
192.387,245
192.412,231
192.437,217
192.462,203
192.487,188
192.512,173
192.537,159
192.562,143
192.587,121
192.612,95
192.637,74
192.662,68
192.687,83
192.712,113
192.737,146
192.762,171
192.787,191
192.812,209
192.837,229
192.862,246
192.887,257
192.912,262
192.937,263
192.962,263
192.987,263
193.012,259
193.037,254
193.062,248
193.087,243
193.112,237
193.137,227
193.162,213
193.187,198
193.212,184
193.237,171
193.262,154
193.287,132
193.312,107
193.337,85
193.362,76
193.387,83
193.412,107
193.437,140
193.462,176
193.487,206
193.512,230
193.537,248
193.562,265
193.587,278
193.612,285
193.637,284
193.662,279
193.687,275
193.712,275
193.737,278
193.762,277
193.787,268
193.812,254
193.837,237
193.862,220
193.887,203
193.912,185
193.937,167
193.962,151
193.987,133
194.012,112
194.037,86
194.062,61
194.087,48
194.112,55
194.137,79
194.162,112
194.187,143
194.212,171
194.237,198
194.262,227
194.287,255
194.312,276
194.337,287
194.362,290
194.387,291
194.412,292
194.437,293
194.462,290
194.487,283
194.512,273
194.537,263
194.562,254
194.587,242
194.612,223
194.637,198
194.662,173
194.687,154
194.712,144
194.737,134
194.762,114
194.787,84
194.812,52
194.837,36
194.862,43
194.887,69
194.912,101
194.937,130
194.962,155
194.987,185
195.012,221
195.037,257
195.062,283
195.087,296
195.112,299
195.137,300
195.162,303
195.187,307
195.212,310
195.237,310
195.262,306
195.287,296
195.312,279
195.337,260
195.362,241
195.387,224
195.412,207
195.437,186
195.462,162
195.487,138
195.512,115
195.537,91
195.562,66
195.587,46
195.612,41
195.637,58
195.662,92
195.687,133
195.712,169
195.737,201
195.762,232
195.787,263
195.812,289
195.837,302
195.862,303
195.887,299
195.912,297
195.937,299
195.962,300
195.987,297
196.012,289
196.037,277
196.062,266
196.087,254
196.112,238
196.137,218
196.162,195
196.187,172
196.212,154
196.237,140
196.262,123
196.287,98
196.312,65
196.337,34
196.362,20
196.387,31
196.412,62
196.437,101
196.462,137
196.487,170
196.512,201
196.537,232
196.562,260
196.587,279
196.612,285
196.637,285
196.662,283
196.687,284
196.712,286
196.737,288
196.762,286
196.787,280
196.812,270
196.837,256
196.862,239
196.887,220
196.912,201
196.937,182
196.962,164
196.987,145
197.012,125
197.037,100
197.062,74
197.087,56
197.112,57
197.137,79
197.162,117
197.187,159
197.212,194
197.237,221
197.262,244
197.287,266
197.312,284
197.337,291
197.362,289
197.387,282
197.412,280
197.437,284
197.462,289
197.487,286
197.512,272
197.537,254
197.562,238
197.587,227
197.612,214
197.637,195
197.662,170
197.687,146
197.712,128
197.737,115
197.762,97
197.787,72
197.812,47
197.837,37
197.862,50
197.887,82
197.912,123
197.937,160
197.962,191
197.987,221
198.012,251
198.037,278
198.062,295
198.087,301
198.112,301
198.137,299
198.162,299
198.187,300
198.212,297
198.237,290
198.262,279
198.287,268
198.312,256
198.337,240
198.362,219
198.387,195
198.412,172
198.437,153
198.462,136
198.487,114
198.512,87
198.537,59
198.562,44
198.587,49
198.612,70
198.637,99
198.662,126
198.687,153
198.712,182
198.737,212
198.762,238
198.787,255
198.812,264
198.837,271
198.862,279
198.887,287
198.912,289
198.937,284
198.962,275
198.987,265
199.012,257
199.037,249
199.062,239
199.087,227
199.112,213
199.137,196
199.162,176
199.187,157
199.212,139
199.237,121
199.262,101
199.287,80
199.312,67
199.337,72
199.362,98
199.387,136
199.412,176
199.437,209
199.462,236
199.487,262
199.512,286
199.537,303
199.562,311
199.587,313
199.612,315
199.637,319
199.662,321
199.687,316
199.712,305
199.737,294
199.762,288
199.787,284
199.812,278
199.837,263
199.862,241
199.887,214
199.912,182
199.937,145
199.962,101
199.987,54
200.012,14
200.037,-8
200.062,-7
200.087,13
200.112,45
200.137,79
200.162,111
200.187,142
200.212,172
200.237,200
200.262,221
200.287,232
200.312,238
200.337,243
200.362,251
200.387,259
200.412,262
200.437,259
200.462,251
200.487,244
200.512,238
200.537,230
200.562,218
200.587,202
200.612,186
200.637,170
200.662,153
200.687,132
200.712,111
200.737,100
200.762,107
200.787,131
200.812,166
200.837,202
200.862,232
200.887,259
200.912,282
200.937,301
200.962,312
200.987,316
201.012,315
201.037,315
201.062,317
201.087,317
201.112,314
201.137,305
201.162,294
201.187,284
201.212,271
201.237,255
201.262,236
201.287,215
201.312,193
201.337,163
201.362,121
201.387,71
201.412,24
201.437,-2
201.462,-5
201.487,13
201.512,43
201.537,74
201.562,106
201.587,140
201.612,174
201.637,205
201.662,227
201.687,240
201.712,246
201.737,248
201.762,250
201.787,252
201.812,255
201.837,259
201.862,263
201.887,265
201.912,258
201.937,241
201.962,217
201.987,194
202.012,176
202.037,163
202.062,147
202.087,123
202.112,94
202.137,72
202.162,69
202.187,88
202.212,122
202.237,159
202.262,191
202.287,217
202.312,239
202.337,262
202.362,282
202.387,296
202.412,300
202.437,296
202.462,290
202.487,287
202.512,287
202.537,287
202.562,282
202.587,271
202.612,257
202.637,244
202.662,231
202.687,215
202.712,195
202.737,171
202.762,148
202.787,124
202.812,98
202.837,72
202.862,53
202.887,51
202.912,68
202.937,100
202.962,135
202.987,167
203.012,196
203.037,225
203.062,253
203.087,277
203.112,291
203.137,295
203.162,294
203.187,292
203.212,292
203.237,291
203.262,289
203.287,283
203.312,273
203.337,259
203.362,244
203.387,229
203.412,213
203.437,195
203.462,175
203.487,154
203.512,134
203.537,113
203.562,89
203.587,63
203.612,45
203.637,45
203.662,63
203.687,94
203.712,128
203.737,160
203.762,191
203.787,223
203.812,253
203.837,275
203.862,286
203.887,290
203.912,291
203.937,292
203.962,292
203.987,288
204.012,282
204.037,274
204.062,265
204.087,254
204.112,241
204.137,224
204.162,207
204.187,189
204.212,171
204.237,155
204.262,139
204.287,121
204.312,97
204.337,70
204.362,48
204.387,43
204.412,60
204.437,93
204.462,128
204.487,158
204.512,183
204.537,209
204.562,237
204.587,261
204.612,271
204.637,268
204.662,261
204.687,260
204.712,267
204.737,277
204.762,280
204.787,273
204.812,256
204.837,238
204.862,222
204.887,209
204.912,197
204.937,185
204.962,171
204.987,157
205.012,141
205.037,122
205.062,101
205.087,86
205.112,86
205.137,106
205.162,139
205.187,175
205.212,204
205.237,224
205.262,242
205.287,261
205.312,277
205.337,286
205.362,284
205.387,276
205.412,268
205.437,265
205.462,263
205.487,258
205.512,248
205.537,238
205.562,230
205.587,224
205.612,218
205.637,207
205.662,193
205.687,180
205.712,170
205.737,160
205.762,145
205.787,121
205.812,99
205.837,91
205.862,106
205.887,140
205.912,181
205.937,219
205.962,250
205.987,280
206.012,310
206.037,338
206.062,355
206.087,359
206.112,352
206.137,340
206.162,326
206.187,313
206.212,296
206.237,274
206.262,245
206.287,209
206.312,172
206.337,140
206.362,116
206.387,99
206.412,84
206.437,64
206.462,42
206.487,20
206.512,2
206.537,-13
206.562,-25
206.587,-29
206.612,-17
206.637,13
206.662,58
206.687,105
206.712,148
206.737,188
206.762,227
206.787,264
206.812,294
206.837,312
206.862,321
206.887,325
206.912,328
206.937,330
206.962,330
206.987,328
207.012,325
207.037,320
207.062,309
207.087,291
207.112,269
207.137,246
207.162,226
207.187,206
207.212,184
207.237,158
207.262,130
207.287,102
207.312,75
207.337,54
207.362,47
207.387,60
207.412,93
207.437,136
207.462,175
207.487,204
207.512,226
207.537,249
207.562,274
207.587,294
207.612,301
207.637,297
207.662,291
207.687,291
207.712,295
207.737,296
207.762,291
207.787,279
207.812,267
207.837,257
207.862,247
207.887,234
207.912,215
207.937,192
207.962,170
207.987,150
208.012,128
208.037,104
208.062,80
208.087,64
208.112,64
208.137,83
208.162,117
208.187,153
208.212,184
208.237,207
208.262,228
208.287,249
208.312,269
208.337,280
208.362,280
208.387,274
208.412,268
208.437,267
208.462,268
208.487,265
208.512,258
208.537,246
208.562,234
208.587,220
208.612,202
208.637,182
208.662,165
208.687,151
208.712,137
208.737,114
208.762,86
208.787,61
208.812,54
208.837,72
208.862,107
208.887,145
208.912,175
208.937,197
208.962,217
208.987,239
209.012,260
209.037,275
209.062,281
209.087,281
209.112,279
209.137,278
209.162,277
209.187,271
209.212,261
209.237,248
209.262,234
209.287,221
209.312,206
209.337,188
209.362,168
209.387,148
209.412,126
209.437,102
209.462,77
209.487,58
209.512,54
209.537,70
209.562,103
209.587,141
209.612,175
209.637,204
209.662,234
209.687,266
209.712,295
209.737,313
209.762,317
209.787,315
209.812,314
209.837,315
209.862,313
209.887,303
209.912,287
209.937,272
209.962,261
209.987,249
210.012,231
210.037,207
210.062,182
210.087,162
210.112,144
210.137,120
210.162,88
210.187,55
210.212,36
210.237,39
210.262,62
210.287,95
210.312,130
210.337,162
210.362,190
210.387,218
210.412,243
210.437,265
210.462,281
210.487,289
210.512,291
210.537,289
210.562,288
210.587,286
210.612,283
210.637,273
210.662,257
210.687,241
210.712,228
210.737,216
210.762,201
210.787,180
210.812,156
210.837,136
210.862,118
210.887,99
210.912,79
210.937,63
210.962,62
210.987,80
211.012,111
211.037,143
211.062,171
211.087,197
211.112,227
211.137,257
211.162,280
211.187,292
211.212,293
211.237,292
211.262,294
211.287,296
211.312,295
211.337,289
211.362,278
211.387,267
211.412,256
211.437,243
211.462,227
211.487,208
211.512,189
211.537,172
211.562,157
211.587,143
211.612,127
211.637,106
211.662,83
211.687,64
211.712,61
211.737,78
211.762,110
211.787,146
211.812,177
211.837,204
211.862,228
211.887,251
211.912,269
211.937,281
211.962,284
211.987,285
212.012,286
212.037,285
212.062,281
212.087,272
212.112,263
212.137,256
212.162,250
212.187,241
212.212,225
212.237,204
212.262,184
212.287,168
212.312,155
212.337,138
212.362,117
212.387,93
212.412,75
212.437,72
212.462,88
212.487,118
212.512,152
212.537,181
212.562,203
212.587,223
212.612,243
212.637,262
212.662,274
212.687,274
212.712,267
212.737,261
212.762,260
212.787,264
212.812,263
212.837,255
212.862,242
212.887,229
212.912,216
212.937,200
212.962,179
212.987,159
213.012,144
213.037,132
213.062,115
213.087,92
213.112,70
213.137,63
213.162,77
213.187,109
213.212,145
213.237,176
213.262,203
213.287,229
213.312,254
213.337,276
213.362,293
213.387,302
213.412,307
213.437,307
213.462,302
213.487,297
213.512,292
213.537,289
213.562,282
213.587,266
213.612,243
213.637,217
213.662,196
213.687,180
213.712,167
213.737,150
213.762,127
213.787,98
213.812,66
213.837,37
213.862,18
213.887,19
213.912,41
213.937,74
213.962,108
213.987,138
214.012,166
214.037,197
214.062,229
214.087,253
214.112,267
214.137,273
214.162,282
214.187,297
214.212,313
214.237,323
214.262,322
214.287,313
214.312,302
214.337,291
214.362,279
214.387,262
214.412,242
214.437,220
214.462,200
214.487,181
214.512,162
214.537,139
214.562,111
214.587,82
214.612,63
214.637,63
214.662,83
214.687,115
214.712,150
214.737,182
214.762,212
214.787,243
214.812,270
214.837,290
214.862,297
214.887,297
214.912,294
214.937,293
214.962,293
214.987,291
215.012,284
215.037,275
215.062,264
215.087,251
215.112,236
215.137,219
215.162,200
215.187,180
215.212,161
215.237,143
215.262,125
215.287,104
215.312,79
215.337,52
215.362,31
215.387,29
215.412,48
215.437,84
215.462,125
215.487,162
215.512,194
215.537,223
215.562,251
215.587,271
215.612,283
215.637,287
215.662,289
215.687,292
215.712,296
215.737,296
215.762,289
215.787,277
215.812,265
215.837,254
215.862,243
215.887,228
215.912,210
215.937,190
215.962,174
215.987,161
216.012,147
216.037,127
216.062,98
216.087,71
216.112,58
216.137,68
216.162,98
216.187,135
216.212,167
216.237,193
216.262,218
216.287,243
216.312,266
216.337,280
216.362,283
216.387,280
216.412,279
216.437,281
216.462,283
216.487,280
216.512,272
216.537,261
216.562,249
216.587,236
216.612,219
216.637,200
216.662,181
216.687,166
216.712,152
216.737,136
216.762,113
216.787,86
216.812,62
216.837,52
216.862,62
216.887,89
216.912,125
216.937,160
216.962,190
216.987,215
217.012,240
217.037,263
217.062,283
217.087,296
217.112,300
217.137,297
217.162,293
217.187,290
217.212,287
217.237,282
217.262,275
217.287,264
217.312,251
217.337,236
217.362,217
217.387,195
217.412,171
217.437,150
217.462,132
217.487,114
217.512,91
217.537,62
217.562,36
217.587,28
217.612,44
217.637,77
217.662,116
217.687,152
217.712,184
217.737,215
217.762,246
217.787,272
217.812,290
217.837,297
217.862,299
217.887,300
217.912,302
217.937,304
217.962,303
217.987,298
218.012,286
218.037,270
218.062,251
218.087,235
218.112,221
218.137,207
218.162,189
218.187,169
218.212,148
218.237,128
218.262,106
218.287,81
218.312,60
218.337,55
218.362,71
218.387,104
218.412,140
218.437,170
218.462,195
218.487,219
218.512,247
218.537,272
218.562,287
218.587,293
218.612,294
218.637,296
218.662,298
218.687,295
218.712,288
218.737,281
218.762,275
218.787,268
218.812,255
218.837,233
218.862,207
218.887,184
218.912,167
218.937,154
218.962,139
218.987,116
219.012,86
219.037,56
219.062,35
219.087,33
219.112,51
219.137,85
219.162,123
219.187,157
219.212,187
219.237,213
219.262,239
219.287,262
219.312,280
219.337,289
219.362,292
219.387,292
219.412,291
219.437,288
219.462,283
219.487,273
219.512,261
219.537,247
219.562,233
219.587,220
219.612,206
219.637,192
219.662,176
219.687,159
219.712,139
219.737,116
219.762,93
219.787,75
219.812,71
219.837,84
219.862,114
219.887,149
219.912,182
219.937,208
219.962,232
219.987,255
220.012,275
220.037,289
220.062,297
220.087,299
220.112,301
220.137,302
220.162,297
220.187,284
220.212,268
220.237,251
220.262,235
220.287,219
220.312,199
220.337,179
220.362,161
220.387,147
220.412,132
220.437,110
220.462,82
220.487,56
220.512,42
220.537,49
220.562,75
220.587,109
220.612,144
220.637,176
220.662,205
220.687,235
220.712,264
220.737,284
220.762,293
220.787,292
220.812,288
220.837,289
220.862,292
220.887,290
220.912,278
220.937,260
220.962,246
220.987,239
221.012,233
221.037,221
221.062,198
221.087,173
221.112,155
221.137,144
221.162,130
221.187,105
221.212,72
221.237,48
221.262,47
221.287,70
221.312,106
221.337,142
221.362,173
221.387,201
221.412,231
221.437,260
221.462,285
221.487,301
221.512,307
221.537,309
221.562,309
221.587,308
221.612,306
221.637,296
221.662,278
221.687,253
221.712,228
221.737,208
221.762,191
221.787,176
221.812,159
221.837,143
221.862,130
221.887,118
221.912,100
221.937,76
221.962,54
221.987,47
222.012,63
222.037,97
222.062,136
222.087,168
222.112,195
222.137,224
222.162,257
222.187,287
222.212,304
222.237,307
222.262,303
222.287,300
222.312,301
222.337,302
222.362,298
222.387,289
222.412,277
222.437,262
222.462,246
222.487,229
222.512,211
222.537,192
222.562,174
222.587,157
222.612,137
222.637,112
222.662,81
222.687,48
222.712,26
222.737,25
222.762,47
222.787,85
222.812,123
222.837,155
222.862,185
222.887,217
222.912,250
222.937,276
222.962,286
222.987,284
223.012,279
223.037,279
223.062,284
223.087,288
223.112,287
223.137,282
223.162,274
223.187,263
223.212,247
223.237,229
223.262,214
223.287,202
223.312,191
223.337,175
223.362,151
223.387,125
223.412,109
223.437,106
223.462,118
223.487,139
223.512,168
223.537,199
223.562,229
223.587,252
223.612,264
223.637,267
223.662,264
223.687,258
223.712,253
223.737,248
223.762,246
223.787,246
223.812,244
223.837,239
223.862,228
223.887,215
223.912,201
223.937,188
223.962,171
223.987,152
224.012,132
224.037,114
224.062,95
224.087,72
224.112,46
224.137,26
224.162,26
224.187,50
224.212,89
224.237,128
224.262,159
224.287,184
224.312,213
224.337,248
224.362,282
224.387,303
224.412,308
224.437,304
224.462,302
224.487,305
224.512,307
224.537,302
224.562,289
224.587,272
224.612,259
224.637,249
224.662,238
224.687,221
224.712,199
224.737,176
224.762,156
224.787,135
224.812,109
224.837,80
224.862,57
224.887,51
224.912,67
224.937,99
224.962,136
224.987,171
225.012,201
225.037,229
225.062,254
225.087,274
225.112,286
225.137,289
225.162,289
225.187,288
225.212,289
225.237,290
225.262,288
225.287,281
225.312,270
225.337,257
225.362,243
225.387,226
225.412,207
225.437,188
225.462,170
225.487,155
225.512,138
225.537,115
225.562,87
225.587,63
225.612,53
225.637,64
225.662,92
225.687,129
225.712,164
225.737,195
225.762,222
225.787,244
225.812,263
225.837,278
225.862,289
225.887,296
225.912,299
225.937,297
225.962,292
225.987,285
226.012,277
226.037,270
226.062,260
226.087,244
226.112,223
226.137,199
226.162,173
226.187,152
226.212,137
226.237,125
226.262,109
226.287,85
226.312,54
226.337,28
226.362,20
226.387,35
226.412,68
226.437,105
226.462,138
226.487,167
226.512,195
226.537,221
226.562,242
226.587,253
226.612,254
226.637,253
226.662,254
226.687,260
226.712,267
226.737,269
226.762,267
226.787,260
226.812,251
226.837,239
226.862,226
226.887,211
226.912,197
226.937,188
226.962,179
226.987,167
227.012,148
227.037,129
227.062,122
227.087,136
227.112,169
227.137,205
227.162,232
227.187,248
227.212,264
227.237,287
227.262,316
227.287,339
227.312,351
227.337,357
227.362,368
227.387,387
227.412,405
227.437,408
227.462,398
227.487,387
227.512,385
227.537,389
227.562,382
227.587,347
227.612,280
227.637,188
227.662,85
227.687,-14
227.712,-96
227.737,-148
227.762,-163
227.787,-146
227.812,-110
227.837,-67
227.862,-26
227.887,13
227.912,51
227.937,87
227.962,119
227.987,150
228.012,178
228.037,203
228.062,219
228.087,227
228.112,233
228.137,241
228.162,249
228.187,251
228.212,241
228.237,223
228.262,207
228.287,195
228.312,180
228.337,156
228.362,126
228.387,103
228.412,102
228.437,125
228.462,161
228.487,194
228.512,217
228.537,236
228.562,257
228.587,282
228.612,304
228.637,317
228.662,320
228.687,317
228.712,316
228.737,317
228.762,317
228.787,313
228.812,304
228.837,291
228.862,275
228.887,254
228.912,231
228.937,207
228.962,183
228.987,160
229.012,134
229.037,107
229.062,87
229.087,84
229.112,103
229.137,137
229.162,172
229.187,200
229.212,222
229.237,245
229.262,270
229.287,292
229.312,303
229.337,303
229.362,297
229.387,293
229.412,291
229.437,287
229.462,276
229.487,259
229.512,242
229.537,227
229.562,212
229.587,194
229.612,171
229.637,147
229.662,121
229.687,94
229.712,63
229.737,33
229.762,10
229.787,5
229.812,18
229.837,43
229.862,74
229.887,105
229.912,137
229.937,173
229.962,212
229.987,249
230.012,276
230.037,291
230.062,295
230.087,295
230.112,295
230.137,296
230.162,293
230.187,282
230.212,265
230.237,249
230.262,241
230.287,237
230.312,231
230.337,214
230.362,188
230.387,158
230.412,132
230.437,106
230.462,80
230.487,55
230.512,41
230.537,48
230.562,73
230.587,106
230.612,136
230.637,163
230.662,194
230.687,235
230.712,279
230.737,312
230.762,326
230.787,325
230.812,318
230.837,313
230.862,311
230.887,308
230.912,302
230.937,293
230.962,283
230.987,271
231.012,259
231.037,243
231.062,224
231.087,202
231.112,178
231.137,156
231.162,136
231.187,116
231.212,92
231.237,65
231.262,47
231.287,47
231.312,71
231.337,110
231.362,150
231.387,184
231.412,210
231.437,235
231.462,260
231.487,282
231.512,295
231.537,298
231.562,296
231.587,291
231.612,287
231.637,281
231.662,274
231.687,265
231.712,255
231.737,243
231.762,230
231.787,214
231.812,197
231.837,179
231.862,162
231.887,144
231.912,125
231.937,102
231.962,78
231.987,57
232.012,50
232.037,60
232.062,85
232.087,119
232.112,152
232.137,182
232.162,210
232.187,236
232.212,259
232.237,272
232.262,272
232.287,266
232.312,263
232.337,266
232.362,273
232.387,274
232.412,267
232.437,251
232.462,235
232.487,221
232.512,209
232.537,194
232.562,178
232.587,162
232.612,147
232.637,129
232.662,106
232.687,80
232.712,62
232.737,63
232.762,84
232.787,118
232.812,152
232.837,182
232.862,207
232.887,234
232.912,259
232.937,280
232.962,290
232.987,293
233.012,291
233.037,292
233.062,294
233.087,294
233.112,289
233.137,280
233.162,268
233.187,256
233.212,241
233.237,224
233.262,205
233.287,186
233.312,170
233.337,154
233.362,135
233.387,109
233.412,79
233.437,54
233.462,46
233.487,59
233.512,88
233.537,121
233.562,151
233.587,178
233.612,206
233.637,235
233.662,260
233.687,276
233.712,282
233.737,284
233.762,285
233.787,287
233.812,286
233.837,280
233.862,270
233.887,258
233.912,245
233.937,229
233.962,212
233.987,195
234.012,179
234.037,164
234.062,151
234.087,138
234.112,125
234.137,106
234.162,81
234.187,56
234.212,44
234.237,56
234.262,89
234.287,128
234.312,160
234.337,184
234.362,209
234.387,240
234.412,272
234.437,293
234.462,298
234.487,292
234.512,288
234.537,290
234.562,298
234.587,307
234.612,312
234.637,309
234.662,294
234.687,268
234.712,241
234.737,225
234.762,222
234.787,221
234.812,205
234.837,175
234.862,143
234.887,122
234.912,109
234.937,91
234.962,63
234.987,41
235.012,48
235.037,91
235.062,149
235.087,194
235.112,213
235.137,217
235.162,223
235.187,237
235.212,253
235.237,265
235.262,271
235.287,274
235.312,275
235.337,272
235.362,263
235.387,253
235.412,245
235.437,239
235.462,230
235.487,215
235.512,197
235.537,181
235.562,167
235.587,154
235.612,140
235.637,126
235.662,109
235.687,87
235.712,59
235.737,34
235.762,29
235.787,53
235.812,99
235.837,148
235.862,183
235.887,204
235.912,223
235.937,248
235.962,275
235.987,296
236.012,305
236.037,305
236.062,304
236.087,307
236.112,312
236.137,315
236.162,312
236.187,302
236.212,284
236.237,264
236.262,248
236.287,238
236.312,229
236.337,214
236.362,189
236.387,161
236.412,138
236.437,121
236.462,102
236.487,75
236.512,47
236.537,34
236.562,48
236.587,85
236.612,130
236.637,165
236.662,190
236.687,211
236.712,234
236.737,260
236.762,281
236.787,292
236.812,294
236.837,293
236.862,291
236.887,288
236.912,285
236.937,280
236.962,273
236.987,263
237.012,247
237.037,228
237.062,207
237.087,188
237.112,172
237.137,157
237.162,141
237.187,122
237.212,99
237.237,72
237.262,47
237.287,34
237.312,43
237.337,73
237.362,114
237.387,152
237.412,182
237.437,206
237.462,232
237.487,259
237.512,282
237.537,294
237.562,295
237.587,292
237.612,292
237.637,296
237.662,298
237.687,294
237.712,284
237.737,271
237.762,257
237.787,244
237.812,232
237.837,221
237.862,209
237.887,195
237.912,178
237.937,158
237.962,137
237.987,115
238.012,91
238.037,69
238.062,60
238.087,71
238.112,103
238.137,147
238.162,187
238.187,218
238.212,240
238.237,257
238.262,272
238.287,283
238.312,290
238.337,292
238.362,292
238.387,289
238.412,285
238.437,280
238.462,275
238.487,267
238.512,253
238.537,233
238.562,211
238.587,189
238.612,170
238.637,150
238.662,126
238.687,100
238.712,78
238.737,59
238.762,37
238.787,7
238.812,-19
238.837,-26
238.862,-4
238.887,39
238.912,82
238.937,114
238.962,137
238.987,165
239.012,199
239.037,229
239.062,240
239.087,235
239.112,225
239.137,222
239.162,223
239.187,221
239.212,209
239.237,191
239.262,173
239.287,156
239.312,135
239.337,109
239.362,83
239.387,60
239.412,42
239.437,27
239.462,14
239.487,0
239.512,-15
239.537,-36
239.562,-56
239.587,-61
239.612,-35
239.637,20
239.662,88
239.687,150
239.712,201
239.737,247
239.762,298
239.787,347
239.812,384
239.837,402
239.862,409
239.887,421
239.912,448
239.937,488
239.962,537
239.987,590
240.012,644
240.037,690
240.062,724
240.087,747
240.112,762
240.137,772
240.162,769
240.187,747
240.212,707
240.237,664
240.262,623
240.287,578
240.312,519
240.337,455
240.362,416
240.387,431
240.412,498
240.437,581
240.462,635
240.487,636
240.512,583
240.537,486
240.562,351
240.587,179
240.612,-15
240.637,-205
240.662,-366
240.687,-484
240.712,-562
240.737,-604
240.762,-612
240.787,-583
240.812,-523
240.837,-446
240.862,-369
240.887,-303
240.912,-258
240.937,-241
240.962,-249
240.987,-272
241.012,-287
241.037,-279
241.062,-246
241.087,-197
241.112,-148
241.137,-104
241.162,-65
241.187,-27
241.212,11
241.237,55
241.262,110
241.287,181
241.312,262
241.337,340
241.362,394
241.387,415
241.412,409
241.437,398
241.462,397
241.487,409
241.512,419
241.537,416
241.562,402
241.587,394
241.612,405
241.637,431
241.662,459
241.687,480
241.712,495
241.737,505
241.762,494
241.787,436
241.812,325
241.837,199
241.862,117
241.887,114
241.912,170
241.937,227
241.962,241
241.987,216
242.012,188
242.037,187
242.062,205
242.087,215
242.112,201
242.137,172
242.162,150
242.187,148
242.212,164
242.237,188
242.262,207
242.287,214
242.312,204
242.337,182
242.362,156
242.387,137
242.412,126
242.437,118
242.462,107
242.487,98
242.512,96
242.537,100
242.562,104
242.587,108
242.612,126
242.637,176
242.662,253
242.687,334
242.712,392
242.737,422
242.762,444
242.787,474
242.812,508
242.837,525
242.862,518
242.887,498
242.912,484
242.937,479
242.962,473
242.987,451
243.012,418
243.037,386
243.062,361
243.087,341
243.112,317
243.137,287
243.162,256
243.187,226
243.212,194
243.237,160
243.262,127
243.287,98
243.312,68
243.337,34
243.362,4
243.387,-2
243.412,35
243.437,114
243.462,210
243.487,293
243.512,348
243.537,376
243.562,371
243.587,320
243.612,219
243.637,91
243.662,-18
243.687,-70
243.712,-62
243.737,-27
243.762,-6
243.787,-14
243.812,-37
243.837,-48
243.862,-30
243.887,17
243.912,80
243.937,132
243.962,145
243.987,104
244.012,24
244.037,-60
244.062,-109
244.087,-107
244.112,-68
244.137,-21
244.162,19
244.187,58
244.212,109
244.237,173
244.262,236
244.287,277
244.312,295
244.337,306
244.362,328
244.387,364
244.412,399
244.437,414
244.462,407
244.487,393
244.512,389
244.537,396
244.562,397
244.587,379
244.612,340
244.637,297
244.662,262
244.687,236
244.712,207
244.737,178
244.762,162
244.787,178
244.812,224
244.837,277
244.862,314
244.887,334
244.912,353
244.937,384
244.962,421
244.987,440
245.012,426
245.037,388
245.062,346
245.087,314
245.112,290
245.137,264
245.162,235
245.187,208
245.212,186
245.237,167
245.262,142
245.287,111
245.312,81
245.337,57
245.362,35
245.387,4
245.412,-35
245.437,-71
245.462,-87
245.487,-71
245.512,-31
245.537,19
245.562,70
245.587,118
245.612,167
245.637,217
245.662,257
245.687,276
245.712,270
245.737,254
245.762,244
245.787,251
245.812,268
245.837,277
245.862,267
245.887,238
245.912,206
245.937,183
245.962,173
245.987,167
246.012,156
246.037,135
246.062,106
246.087,78
246.112,59
246.137,57
246.162,77
246.187,115
246.212,159
246.237,198
246.262,232
246.287,266
246.312,310
246.337,358
246.362,395
246.387,409
246.412,400
246.437,379
246.462,360
246.487,347
246.512,338
246.537,327
246.562,314
246.587,297
246.612,273
246.637,237
246.662,194
246.687,153
246.712,124
246.737,105
246.762,85
246.787,56
246.812,24
246.837,6
246.862,14
246.887,47
246.912,86
246.937,117
246.962,137
246.987,153
247.012,173
247.037,196
247.062,210
247.087,210
247.112,198
247.137,183
247.162,172
247.187,164
247.212,155
247.237,142
247.262,128
247.287,113
247.312,95
247.337,73
247.362,49
247.387,31
247.412,21
247.437,13
247.462,-1
247.487,-23
247.512,-38
247.537,-29
247.562,7
247.587,56
247.612,98
247.637,123
247.662,144
247.687,174
247.712,215
247.737,254
247.762,276
247.787,286
247.812,297
247.837,319
247.862,345
247.887,365
247.912,375
247.937,387
247.962,408
247.987,436
248.012,460
248.037,477
248.062,499
248.087,538
248.112,592
248.137,649
248.162,698
248.187,748
248.212,813
248.237,895
248.262,980
248.287,1054
248.312,1119
248.337,1175
248.362,1208
248.387,1180
248.412,1060
248.437,855
248.462,612
248.487,381
248.512,176
248.537,-13
248.562,-198
248.587,-358
248.612,-461
248.637,-500
248.662,-501
248.687,-501
248.712,-518
248.737,-550
248.762,-598
248.787,-676
248.812,-789
248.837,-900
248.862,-951
248.887,-905
248.912,-786
248.937,-665
248.962,-594
248.987,-573
249.012,-559
249.037,-515
249.062,-437
249.087,-345
249.112,-252
249.137,-145
249.162,-10
249.187,147
249.212,305
249.237,439
249.262,542
249.287,617
249.312,675
249.337,722
249.362,764
249.387,808
249.412,852
249.437,884
249.462,886
249.487,849
249.512,780
249.537,700
249.562,629
249.587,574
249.612,530
249.637,491
249.662,453
249.687,429
249.712,435
249.737,480
249.762,557
249.787,640
249.812,696
249.837,703
249.862,656
249.887,570
249.912,464
249.937,364
249.962,288
249.987,244
250.012,224
250.037,208
250.062,177
250.087,124
250.112,55
250.137,-20
250.162,-91
250.187,-145
250.212,-170
250.237,-160
250.262,-127
250.287,-90
250.312,-67
250.337,-52
250.362,-26
250.387,17
250.412,67
250.437,103
250.462,115
250.487,118
250.512,129
250.537,149
250.562,165
250.587,167
250.612,159
250.637,151
250.662,146
250.687,140
250.712,125
250.737,104
250.762,79
250.787,49
250.812,16
250.837,-7
250.862,-5
250.887,26
250.912,71
250.937,100
250.962,105
250.987,111
251.012,144
251.037,205
251.062,267
251.087,306
251.112,326
251.137,353
251.162,395
251.187,427
251.212,415
251.237,358
251.262,290
251.287,257
251.312,273
251.337,315
251.362,348
251.387,357
251.412,344
251.437,322
251.462,297
251.487,275
251.512,266
251.537,278
251.562,308
251.587,346
251.612,378
251.637,392
251.662,384
251.687,352
251.712,301
251.737,245
251.762,203
251.787,188
251.812,194
251.837,200
251.862,189
251.887,157
251.912,115
251.937,77
251.962,52
251.987,45
252.012,51
252.037,61
252.062,64
252.087,56
252.112,41
252.137,30
252.162,29
252.187,37
252.212,54
252.237,82
252.262,128
252.287,185
252.312,237
252.337,269
252.362,284
252.387,299
252.412,326
252.437,358
252.462,377
252.487,372
252.512,355
252.537,349
252.562,363
252.587,386
252.612,397
252.637,384
252.662,354
252.687,323
252.712,302
252.737,288
252.762,268
252.787,232
252.812,182
252.837,134
252.862,108
252.887,118
252.912,158
252.937,206
252.962,239
252.987,250
253.012,248
253.037,248
253.062,256
253.087,269
253.112,279
253.137,282
253.162,279
253.187,269
253.212,252
253.237,226
253.262,196
253.287,165
253.312,134
253.337,101
253.362,68
253.387,39
253.412,15
253.437,-7
253.462,-38
253.487,-79
253.512,-119
253.537,-142
253.562,-138
253.587,-108
253.612,-62
253.637,-10
253.662,38
253.687,80
253.712,115
253.737,145
253.762,179
253.787,222
253.812,272
253.837,317
253.862,346
253.887,357
253.912,357
253.937,357
253.962,362
253.987,364
254.012,356
254.037,334
254.062,302
254.087,270
254.112,246
254.137,227
254.162,210
254.187,195
254.212,190
254.237,205
254.262,241
254.287,281
254.312,308
254.337,315
254.362,314
254.387,323
254.412,345
254.437,365
254.462,367
254.487,344
254.512,309
254.537,278
254.562,257
254.587,241
254.612,223
254.637,203
254.662,187
254.687,175
254.712,164
254.737,149
254.762,129
254.787,106
254.812,82
254.837,59
254.862,46
254.887,53
254.912,82
254.937,123
254.962,160
254.987,184
255.012,198
255.037,212
255.062,231
255.087,251
255.112,263
255.137,266
255.162,264
255.187,261
255.212,258
255.237,254
255.262,250
255.287,244
255.312,235
255.337,217
255.362,195
255.387,174
255.412,160
255.437,150
255.462,134
255.487,109
255.512,89
255.537,91
255.562,123
255.587,171
255.612,212
255.637,238
255.662,253
255.687,269
255.712,287
255.737,300
255.762,300
255.787,294
255.812,288
255.837,286
255.862,283
255.887,271
255.912,252
255.937,230
255.962,209
255.987,186
256.012,162
256.037,138
256.062,117
256.087,96
256.112,71
256.137,42
256.162,22
256.187,23
256.212,44
256.237,75
256.262,103
256.287,124
256.312,146
256.337,172
256.362,197
256.387,213
256.412,216
256.437,217
256.462,227
256.487,245
256.512,263
256.537,271
256.562,267
256.587,256
256.612,240
256.637,222
256.662,202
256.687,181
256.712,160
256.737,140
256.762,121
256.787,108
256.812,105
256.837,116
256.862,136
256.887,163
256.912,197
256.937,239
256.962,284
256.987,320
257.012,334
257.037,327
257.062,315
257.087,314
257.112,323
257.137,329
257.162,323
257.187,309
257.212,301
257.237,304
257.262,305
257.287,293
257.312,269
257.337,243
257.362,224
257.387,208
257.412,186
257.437,165
257.462,160
257.487,178
257.512,209
257.537,230
257.562,234
257.587,232
257.612,243
257.637,269
257.662,291
257.687,293
257.712,278
257.737,263
257.762,262
257.787,265
257.812,258
257.837,236
257.862,210
257.887,192
257.912,176
257.937,150
257.962,108
257.987,61
258.012,24
258.037,0
258.062,-24
258.087,-52
258.112,-75
258.137,-72
258.162,-38
258.187,10
258.212,54
258.237,82
258.262,104
258.287,131
258.312,165
258.337,195
258.362,214
258.387,227
258.412,241
258.437,260
258.462,281
258.487,296
258.512,307
258.537,313
258.562,314
258.587,309
258.612,295
258.637,277
258.662,258
258.687,238
258.712,214
258.737,187
258.762,167
258.787,163
258.812,177
258.837,200
258.862,222
258.887,239
258.912,253
258.937,266
258.962,279
258.987,286
259.012,287
259.037,284
259.062,282
259.087,278
259.112,269
259.137,256
259.162,240
259.187,227
259.212,217
259.237,205
259.262,192
259.287,178
259.312,165
259.337,153
259.362,135
259.387,111
259.412,87
259.437,74
259.462,80
259.487,102
259.512,131
259.537,159
259.562,183
259.587,204
259.612,225
259.637,241
259.662,249
259.687,252
259.712,252
259.737,254
259.762,258
259.787,260
259.812,256
259.837,249
259.862,242
259.887,236
259.912,227
259.937,214
259.962,197
259.987,180
260.012,164
260.037,148
260.062,131
260.087,117
260.112,114
260.137,129
260.162,157
260.187,189
260.212,216
260.237,238
260.262,258
260.287,276
260.312,289
260.337,291
260.362,288
260.387,286
260.412,287
260.437,288
260.462,283
260.487,270
260.512,256
260.537,244
260.562,234
260.587,220
260.612,203
260.637,186
260.662,174
260.687,161
260.712,144
260.737,121
260.762,104
260.787,102
260.812,117
260.837,140
260.862,160
260.887,176
260.912,190
260.937,205
260.962,220
260.987,230
261.012,237
261.037,245
261.062,249
261.087,242
261.112,220
261.137,190
261.162,165
261.187,154
261.212,150
261.237,142
261.262,127
261.287,113
261.312,105
261.337,101
261.362,91
261.387,70
261.412,52
261.437,54
261.462,81
261.487,121
261.512,158
261.537,183
261.562,204
261.587,226
261.612,250
261.637,267
261.662,274
261.687,273
261.712,273
261.737,275
261.762,276
261.787,270
261.812,258
261.837,247
261.862,239
261.887,232
261.912,223
261.937,213
261.962,205
261.987,201
262.012,197
262.037,185
262.062,167
262.087,148
262.112,141
262.137,152
262.162,177
262.187,207
262.212,233
262.237,255
262.262,273
262.287,291
262.312,305
262.337,314
262.362,315
262.387,309
262.412,300
262.437,292
262.462,283
262.487,273
262.512,259
262.537,241
262.562,218
262.587,196
262.612,177
262.637,162
262.662,146
262.687,126
262.712,102
262.737,83
262.762,77
262.787,89
262.812,114
262.837,141
262.862,164
262.887,183
262.912,202
262.937,219
262.962,231
262.987,233
263.012,227
263.037,219
263.062,213
263.087,210
263.112,209
263.137,204
263.162,196
263.187,184
263.212,167
263.237,150
263.262,133
263.287,120
263.312,107
263.337,92
263.362,74
263.387,58
263.412,55
263.437,68
263.462,95
263.487,125
263.512,153
263.537,178
263.562,207
263.587,238
263.612,264
263.637,275
263.662,273
263.687,267
263.712,269
263.737,279
263.762,288
263.787,287
263.812,280
263.837,275
263.862,278
263.887,283
263.912,280
263.937,270
263.962,264
263.987,266
264.012,269
264.037,262
264.062,248
264.087,247
264.112,275
264.137,325
264.162,371
264.187,400
264.212,426
264.237,464
264.262,495
264.287,469
264.312,355
264.337,193
264.362,74
264.387,68
264.412,151
264.437,233
264.462,234
264.487,153
264.512,52
264.537,-13
264.562,-44
264.587,-72
264.612,-110
264.637,-143
264.662,-156
264.687,-160
264.712,-183
264.737,-226
264.762,-255
264.787,-237
264.812,-177
264.837,-113
264.862,-71
264.887,-42
264.912,0
264.937,59
264.962,116
264.987,149
265.012,169
265.037,201
265.062,255
265.087,314
265.112,362
265.137,407
265.162,474
265.187,567
265.212,661
265.237,720
265.262,737
265.287,731
265.312,720
265.337,698
265.362,646
265.387,566
265.412,487
265.437,433
265.462,399
265.487,354
265.512,276
265.537,175
265.562,83
265.587,23
265.612,-1
265.637,-1
265.662,16
265.687,42
265.712,64
265.737,65
265.762,43
265.787,17
265.812,6
265.837,13
265.862,18
265.887,4
265.912,-28
265.937,-62
265.962,-85
265.987,-97
266.012,-103
266.037,-100
266.062,-73
266.087,-11
266.112,86
266.137,213
266.162,357
266.187,503
266.212,630
266.237,725
266.262,791
266.287,840
266.312,874
266.337,866
266.362,787
266.387,640
266.412,473
266.437,350
