df_hash,22ZHK4.CSFR2S
device,HZ2X61
project_hash,29R7
project_name,istanbul_aydin_university
person_hash,29R7.1ZQF
person_label,v129
date_time_start,2026-04-07_17-41-22.154000_+03
date_time_start_unix,1775565682.154
date_time_end,2026-04-07_17-49-40.004000_+03
length_difference_noticed,no

time,ppg_med
5.448,591
5.473,679
5.498,820
5.523,895
5.548,866
5.573,835
5.598,916
5.623,1064
5.648,1121
5.673,1029
5.698,932
5.723,983
5.748,1120
5.773,1129
5.798,932
5.823,724
5.848,713
5.873,816
5.898,742
5.923,392
5.948,27
5.973,-76
5.998,-28
6.023,-212
6.048,-756
6.073,-1316
6.098,-1527
6.123,-1536
6.148,-1838
6.173,-2595
6.198,-3361
6.223,-3665
6.248,-3694
6.273,-4083
6.298,-5038
6.323,-5983
6.348,-6318
6.373,-6282
6.398,-6682
6.423,-7770
6.448,-8819
6.473,-9074
6.498,-8833
6.523,-9111
6.548,-10224
6.573,-11258
6.598,-11268
6.623,-10629
6.648,-10610
6.673,-11603
6.698,-12470
6.723,-12032
6.748,-10762
6.773,-10239
6.798,-10958
6.823,-11502
6.848,-10399
6.873,-8241
6.898,-7007
6.923,-7323
6.948,-7417
6.973,-5442
6.998,-2140
7.023,-12
7.048,134
7.073,538
7.098,3556
7.123,8252
7.148,11404
7.173,11943
7.198,12757
7.223,16944
7.248,23305
7.273,27552
7.298,28188
7.323,29089
7.348,32767
7.373,32767
7.398,32767
7.423,32767
7.448,32767
7.473,32767
7.498,32767
7.523,32767
7.548,32767
7.573,32767
7.598,32767
7.623,32767
7.648,32767
7.673,32767
7.698,15725
7.723,-32768
7.748,-32768
7.773,-32768
7.798,-32768
7.823,-32768
7.848,-32768
7.873,-32768
7.898,-32768
7.923,-32768
7.948,-32768
7.973,-32768
7.998,-32768
8.023,-32768
8.048,-32768
8.073,-30072
8.098,-27580
8.123,-27474
8.148,-24782
8.173,-18736
8.198,-13247
8.223,-11299
8.248,-11178
8.273,-9227
8.298,-4820
8.323,-872
8.348,324
8.373,40
8.398,1102
8.423,4054
8.448,6688
8.473,7230
8.498,6653
8.523,7145
8.548,9127
8.573,10871
8.598,11001
8.623,10302
8.648,10487
8.673,11824
8.698,12868
8.723,12496
8.748,11366
8.773,10906
8.798,11378
8.823,11657
8.848,10866
8.873,9556
8.898,8874
8.923,9006
8.948,9013
8.973,8167
8.998,6907
9.023,6166
9.048,6093
9.073,5911
9.098,5009
9.123,3730
9.148,2857
9.173,2585
9.198,2377
9.223,1792
9.248,1089
9.273,827
9.298,1084
9.323,1369
9.348,1290
9.373,1028
9.398,1012
9.423,1303
9.448,1528
9.473,1399
9.498,1080
9.523,929
9.548,1007
9.573,1029
9.598,764
9.623,338
9.648,47
9.673,-14
9.698,-29
9.723,-173
9.748,-402
9.773,-554
9.798,-597
9.823,-647
9.848,-778
9.873,-885
9.898,-818
9.923,-577
9.948,-322
9.973,-184
9.998,-135
10.023,-65
10.048,37
10.073,63
10.098,-79
10.123,-337
10.148,-552
10.173,-617
10.198,-552
10.223,-435
10.248,-305
10.273,-174
10.298,-95
10.323,-43
10.348,-1
10.373,34
10.398,53
10.423,38
10.448,-15
10.473,-80
10.498,-109
10.523,-70
10.548,22
10.573,118
10.598,166
10.623,163
10.648,144
10.673,149
10.698,185
10.723,236
10.748,288
10.773,349
10.798,430
10.823,514
10.848,548
10.873,473
10.898,272
10.923,-8
10.948,-273
10.973,-428
10.998,-430
11.023,-317
11.048,-176
11.073,-84
11.098,-53
11.123,-36
11.148,26
11.173,139
11.198,251
11.223,305
11.248,296
11.273,274
11.298,296
11.323,369
11.348,455
11.373,509
11.398,525
11.423,530
11.448,547
11.473,570
11.498,576
11.523,555
11.548,525
11.573,506
11.598,499
11.623,486
11.648,452
11.673,408
11.698,378
11.723,367
11.748,339
11.773,245
11.798,70
11.823,-134
11.848,-276
11.873,-284
11.898,-150
11.923,74
11.948,321
11.973,551
11.998,763
12.023,962
12.048,1133
12.073,1235
12.098,1233
12.123,1122
12.148,942
12.173,754
12.198,609
12.223,515
12.248,442
12.273,348
12.298,215
12.323,63
12.348,-73
12.373,-184
12.398,-291
12.423,-429
12.448,-602
12.473,-771
12.498,-876
12.523,-872
12.548,-759
12.573,-572
12.598,-364
12.623,-179
12.648,-41
12.673,41
12.698,67
12.723,34
12.748,-58
12.773,-190
12.798,-313
12.823,-370
12.848,-337
12.873,-239
12.898,-131
12.923,-38
12.948,58
12.973,195
12.998,375
13.023,559
13.048,709
13.073,826
13.098,929
13.123,1008
13.148,1011
13.173,897
13.198,699
13.223,511
13.248,404
13.273,359
13.298,310
13.323,230
13.348,184
13.373,251
13.398,421
13.423,573
13.448,578
13.473,424
13.498,223
13.523,109
13.548,117
13.573,174
13.598,188
13.623,138
13.648,83
13.673,86
13.698,150
13.723,227
13.748,269
13.773,274
13.798,279
13.823,315
13.848,376
13.873,420
13.898,405
13.923,323
13.948,196
13.973,61
13.998,-48
14.023,-112
14.048,-112
14.073,-35
14.098,101
14.123,247
14.148,330
14.173,306
14.198,195
14.223,65
14.248,-12
14.273,-11
14.298,47
14.323,132
14.348,219
14.373,305
14.398,390
14.423,462
14.448,503
14.473,491
14.498,414
14.523,281
14.548,129
14.573,9
14.598,-46
14.623,-45
14.648,-23
14.673,-8
14.698,3
14.723,30
14.748,72
14.773,100
14.798,93
14.823,71
14.848,85
14.873,169
14.898,304
14.923,436
14.948,529
14.973,591
14.998,650
15.023,708
15.048,737
15.073,715
15.098,660
15.123,615
15.148,605
15.173,618
15.198,620
15.223,588
15.248,528
15.273,454
15.298,370
15.323,275
15.348,171
15.373,71
15.398,-9
15.423,-64
15.448,-92
15.473,-93
15.498,-66
15.523,-16
15.548,39
15.573,83
15.598,112
15.623,135
15.648,163
15.673,186
15.698,181
15.723,135
15.748,60
15.773,-9
15.798,-52
15.823,-67
15.848,-77
15.873,-97
15.898,-122
15.923,-137
15.948,-138
15.973,-142
15.998,-164
16.023,-191
16.048,-179
16.073,-96
16.098,48
16.123,203
16.148,317
16.173,374
16.198,396
16.223,409
16.248,415
16.273,402
16.298,368
16.323,338
16.348,340
16.373,378
16.398,431
16.423,469
16.448,481
16.473,468
16.498,434
16.523,383
16.548,314
16.573,234
16.598,151
16.623,81
16.648,45
16.673,72
16.698,177
16.723,340
16.748,504
16.773,606
16.798,621
16.823,577
16.848,523
16.873,488
16.898,467
16.923,442
16.948,410
16.973,380
16.998,358
17.023,338
17.048,308
17.073,269
17.098,231
17.123,198
17.148,166
17.173,134
17.198,111
17.223,110
17.248,123
17.273,111
17.298,39
17.323,-91
17.348,-229
17.373,-314
17.398,-317
17.423,-262
17.448,-186
17.473,-108
17.498,-15
17.523,108
17.548,248
17.573,366
17.598,426
17.623,431
17.648,416
17.673,415
17.698,431
17.723,439
17.748,418
17.773,366
17.798,298
17.823,227
17.848,154
17.873,77
17.898,6
17.923,-49
17.948,-93
17.973,-139
17.998,-191
18.023,-223
18.048,-194
18.073,-94
18.098,41
18.123,157
18.148,220
18.173,249
18.198,280
18.223,327
18.248,375
18.273,407
18.298,425
18.323,448
18.348,483
18.373,522
18.398,550
18.423,567
18.448,586
18.473,614
18.498,654
18.523,704
18.548,760
18.573,808
18.598,817
18.623,766
18.648,669
18.673,576
18.698,530
18.723,528
18.748,530
18.773,501
18.798,445
18.823,390
18.848,348
18.873,312
18.898,276
18.923,255
18.948,267
18.973,302
18.998,320
19.023,298
19.048,255
19.073,232
19.098,246
19.123,272
19.148,273
19.173,233
19.198,161
19.223,58
19.248,-81
19.273,-237
19.298,-354
19.323,-379
19.348,-318
19.373,-240
19.398,-214
19.423,-248
19.448,-295
19.473,-321
19.498,-333
19.523,-351
19.548,-348
19.573,-270
19.598,-103
19.623,82
19.648,179
19.673,141
19.698,26
19.723,-54
19.748,-34
19.773,68
19.798,182
19.823,234
19.848,190
19.873,63
19.898,-84
19.923,-173
19.948,-151
19.973,-51
19.998,27
20.023,-3
20.048,-130
20.073,-247
20.098,-252
20.123,-146
20.148,-26
20.173,17
20.198,-11
20.223,-27
20.248,50
20.273,221
20.298,411
20.323,547
20.348,610
20.373,631
20.398,642
20.423,644
20.448,618
20.473,567
20.498,530
20.523,562
20.548,679
20.573,838
20.598,974
20.623,1059
20.648,1120
20.673,1195
20.698,1265
20.723,1255
20.748,1117
20.773,899
20.798,720
20.823,653
20.848,658
20.873,623
20.898,492
20.923,313
20.948,168
20.973,64
20.998,-68
21.023,-279
21.048,-504
21.073,-617
21.098,-552
21.123,-365
21.148,-165
21.173,-5
21.198,143
21.223,310
21.248,460
21.273,523
21.298,485
21.323,410
21.348,377
21.373,395
21.398,409
21.423,376
21.448,310
21.473,259
21.498,243
21.523,234
21.548,209
21.573,180
21.598,182
21.623,229
21.648,295
21.673,337
21.698,327
21.723,267
21.748,174
21.773,74
21.798,-2
21.823,-43
21.848,-71
21.873,-129
21.898,-235
21.923,-343
21.948,-373
21.973,-274
21.998,-82
22.023,108
22.048,215
22.073,210
22.098,114
22.123,-33
22.148,-183
22.173,-277
22.198,-265
22.223,-141
22.248,40
22.273,206
22.298,313
22.323,366
22.348,382
22.373,364
22.398,323
22.423,306
22.448,373
22.473,525
22.498,663
22.523,657
22.548,462
22.573,161
22.598,-104
22.623,-266
22.648,-355
22.673,-423
22.698,-446
22.723,-345
22.748,-80
22.773,272
22.798,573
22.823,739
22.848,800
22.873,853
22.898,950
22.923,1058
22.948,1108
22.973,1064
22.998,946
23.023,803
23.048,674
23.073,575
23.098,503
23.123,444
23.148,374
23.173,276
23.198,168
23.223,100
23.248,115
23.273,206
23.298,312
23.323,367
23.348,346
23.373,273
23.398,181
23.423,76
23.448,-62
23.473,-249
23.498,-462
23.523,-645
23.548,-736
23.573,-710
23.598,-592
23.623,-452
23.648,-361
23.673,-340
23.698,-343
23.723,-290
23.748,-135
23.773,92
23.798,311
23.823,458
23.848,528
23.873,560
23.898,584
23.923,592
23.948,560
23.973,485
23.998,392
24.023,307
24.048,227
24.073,135
24.098,25
24.123,-84
24.148,-174
24.173,-242
24.198,-294
24.223,-321
24.248,-288
24.273,-163
24.298,51
24.323,317
24.348,582
24.373,811
24.398,987
24.423,1103
24.448,1157
24.473,1153
24.498,1106
24.523,1027
24.548,916
24.573,770
24.598,596
24.623,421
24.648,268
24.673,132
24.698,-5
24.723,-144
24.748,-249
24.773,-270
24.798,-186
24.823,-32
24.848,131
24.873,266
24.898,366
24.923,445
24.948,506
24.973,540
24.998,548
25.023,548
25.048,559
25.073,579
25.098,586
25.123,557
25.148,490
25.173,397
25.198,285
25.223,155
25.248,11
25.273,-118
25.298,-190
25.323,-180
25.348,-99
25.373,6
25.398,97
25.423,156
25.448,189
25.473,205
25.498,202
25.523,173
25.548,126
25.573,75
25.598,29
25.623,-15
25.648,-68
25.673,-128
25.698,-178
25.723,-207
25.748,-222
25.773,-243
25.798,-272
25.823,-280
25.848,-225
25.873,-94
25.898,80
25.923,245
25.948,362
25.973,424
25.998,445
26.023,435
26.048,392
26.073,321
26.098,239
26.123,170
26.148,126
26.173,109
26.198,118
26.223,155
26.248,219
26.273,293
26.298,353
26.323,385
26.348,399
26.373,422
26.398,476
26.423,565
26.448,675
26.473,782
26.498,857
26.523,877
26.548,839
26.573,766
26.598,694
26.623,650
26.648,635
26.673,631
26.698,617
26.723,579
26.748,498
26.773,349
26.798,126
26.823,-144
26.848,-403
26.873,-602
26.898,-728
26.923,-796
26.948,-805
26.973,-731
26.998,-561
27.023,-330
27.048,-115
27.073,18
27.098,72
27.123,105
27.148,177
27.173,302
27.198,452
27.223,593
27.248,706
27.273,780
27.298,797
27.323,738
27.348,608
27.373,430
27.398,236
27.423,50
27.448,-100
27.473,-181
27.498,-158
27.523,-33
27.548,140
27.573,295
27.598,387
27.623,424
27.648,432
27.673,427
27.698,405
27.723,365
27.748,325
27.773,301
27.798,292
27.823,276
27.848,234
27.873,172
27.898,114
27.923,70
27.948,31
27.973,-15
27.998,-62
28.023,-81
28.048,-47
28.073,39
28.098,152
28.123,259
28.148,340
28.173,392
28.198,420
28.223,428
28.248,419
28.273,399
28.298,371
28.323,333
28.348,283
28.373,218
28.398,147
28.423,83
28.448,35
28.473,1
28.498,-31
28.523,-71
28.548,-106
28.573,-110
28.598,-56
28.623,53
28.648,192
28.673,319
28.698,415
28.723,481
28.748,525
28.773,548
28.798,545
28.823,522
28.848,495
28.873,483
28.898,484
28.923,478
28.948,452
28.973,409
28.998,362
29.023,315
29.048,253
29.073,166
29.098,68
29.123,-1
29.148,-11
29.173,36
29.198,105
29.223,151
29.248,157
29.273,134
29.298,105
29.323,87
29.348,79
29.373,70
29.398,59
29.423,54
29.448,69
29.473,110
29.498,161
29.523,200
29.548,217
29.573,220
29.598,220
29.623,215
29.648,187
29.673,126
29.698,63
29.723,52
29.748,129
29.773,273
29.798,419
29.823,511
29.848,544
29.873,551
29.898,559
29.923,565
29.948,548
29.973,504
29.998,452
30.023,415
30.048,391
30.073,364
30.098,324
30.123,278
30.148,236
30.173,195
30.198,150
30.223,107
30.248,83
30.273,81
30.298,77
30.323,39
30.348,-33
30.373,-96
30.398,-94
30.423,-11
30.448,116
30.473,236
30.498,321
30.523,375
30.548,415
30.573,443
30.598,450
30.623,433
30.648,404
30.673,378
30.698,358
30.723,338
30.748,304
30.773,253
30.798,189
30.823,121
30.848,59
30.873,1
30.898,-64
30.923,-155
30.948,-270
30.973,-377
30.998,-425
31.023,-386
31.048,-282
31.073,-174
31.098,-110
31.123,-93
31.148,-84
31.173,-45
31.198,27
31.223,114
31.248,199
31.273,285
31.298,379
31.323,479
31.348,565
31.373,626
31.398,666
31.423,694
31.448,703
31.473,668
31.498,571
31.523,420
31.548,253
31.573,120
31.598,52
31.623,54
31.648,109
31.673,190
31.698,271
31.723,339
31.748,389
31.773,421
31.798,439
31.823,443
31.848,440
31.873,434
31.898,430
31.923,421
31.948,390
31.973,331
31.998,255
32.023,194
32.048,171
32.073,177
32.098,176
32.123,131
32.148,37
32.173,-65
32.198,-119
32.223,-86
32.248,22
32.273,165
32.298,295
32.323,385
32.348,437
32.373,465
32.398,477
32.423,475
32.448,460
32.473,435
32.498,403
32.523,363
32.548,311
32.573,253
32.598,207
32.623,193
32.648,207
32.673,219
32.698,188
32.723,98
32.748,-18
32.773,-104
32.798,-117
32.823,-62
32.848,18
32.873,90
32.898,153
32.923,226
32.948,318
32.973,406
32.998,458
33.023,470
33.048,467
33.073,472
33.098,476
33.123,439
33.148,338
33.173,193
33.198,56
33.223,-42
33.248,-119
33.273,-204
33.298,-291
33.323,-328
33.348,-263
33.373,-103
33.398,85
33.423,233
33.448,318
33.473,370
33.498,417
33.523,452
33.548,449
33.573,409
33.598,363
33.623,346
33.648,356
33.673,359
33.698,334
33.723,292
33.748,254
33.773,215
33.798,149
33.823,43
33.848,-65
33.873,-116
33.898,-83
33.923,0
33.948,77
33.973,120
33.998,151
34.023,199
34.048,264
34.073,314
34.098,330
34.123,333
34.148,361
34.173,423
34.198,488
34.223,516
34.248,499
34.273,455
34.298,395
34.323,299
34.348,140
34.373,-69
34.398,-265
34.423,-365
34.448,-333
34.473,-200
34.498,-42
34.523,79
34.548,148
34.573,189
34.598,227
34.623,273
34.648,318
34.673,355
34.698,387
34.723,413
34.748,421
34.773,398
34.798,342
34.823,276
34.848,228
34.873,207
34.898,188
34.923,139
34.948,59
34.973,-14
34.998,-28
35.023,39
35.048,174
35.073,334
35.098,486
35.123,618
35.148,736
35.173,842
35.198,934
35.223,998
35.248,1009
35.273,938
35.298,775
35.323,547
35.348,316
35.373,144
35.398,48
35.423,-3
35.448,-53
35.473,-118
35.498,-184
35.523,-243
35.548,-307
35.573,-390
35.598,-476
35.623,-509
35.648,-438
35.673,-269
35.698,-61
35.723,115
35.748,233
35.773,307
35.798,364
35.823,410
35.848,430
35.873,418
35.898,391
35.923,375
35.948,377
35.973,381
35.998,362
36.023,318
36.048,264
36.073,220
36.098,182
36.123,131
36.148,56
36.173,-27
36.198,-78
36.223,-59
36.248,28
36.273,148
36.298,256
36.323,330
36.348,378
36.373,419
36.398,453
36.423,468
36.448,453
36.473,417
36.498,382
36.523,361
36.548,349
36.573,328
36.598,291
36.623,243
36.648,193
36.673,145
36.698,99
36.723,56
36.748,18
36.773,-20
36.798,-70
36.823,-130
36.848,-178
36.873,-178
36.898,-111
36.923,3
36.948,120
36.973,202
36.998,248
37.023,284
37.048,332
37.073,385
37.098,423
37.123,434
37.148,428
37.173,426
37.198,433
37.223,437
37.248,422
37.273,387
37.298,344
37.323,302
37.348,257
37.373,202
37.398,140
37.423,80
37.448,24
37.473,-34
37.498,-105
37.523,-181
37.548,-230
37.573,-220
37.598,-146
37.623,-32
37.648,83
37.673,181
37.698,263
37.723,339
37.748,412
37.773,470
37.798,507
37.823,523
37.848,533
37.873,546
37.898,564
37.923,580
37.948,584
37.973,574
37.998,561
38.023,562
38.048,590
38.073,637
38.098,674
38.123,669
38.148,620
38.173,560
38.198,531
38.223,547
38.248,582
38.273,591
38.298,554
38.323,487
38.348,419
38.373,362
38.398,300
38.423,211
38.448,91
38.473,-42
38.498,-169
38.523,-280
38.548,-380
38.573,-474
38.598,-562
38.623,-640
38.648,-708
38.673,-775
38.698,-852
38.723,-940
38.748,-1020
38.773,-1056
38.798,-1011
38.823,-867
38.848,-642
38.873,-379
38.898,-125
38.923,95
38.948,284
38.973,446
38.998,580
39.023,676
39.048,736
39.073,779
39.098,823
39.123,875
39.148,919
39.173,941
39.198,942
39.223,933
39.248,922
39.273,905
39.298,872
39.323,823
39.348,769
39.373,717
39.398,662
39.423,587
39.448,488
39.473,380
39.498,293
39.523,249
39.548,252
39.573,282
39.598,318
39.623,348
39.648,374
39.673,405
39.698,440
39.723,466
39.748,465
39.773,436
39.798,387
39.823,332
39.848,274
39.873,205
39.898,127
39.923,51
39.948,-11
39.973,-64
39.998,-124
40.023,-198
40.048,-264
40.073,-294
40.098,-294
40.123,-316
40.148,-422
40.173,-616
40.198,-819
40.223,-919
40.248,-845
40.273,-605
40.298,-258
40.323,136
40.348,530
40.373,864
40.398,1064
40.423,1085
40.448,958
40.473,788
40.498,674
40.523,643
40.548,644
40.573,619
40.598,554
40.623,471
40.648,384
40.673,276
40.698,129
40.723,-35
40.748,-174
40.773,-259
40.798,-306
40.823,-342
40.848,-364
40.873,-338
40.898,-248
40.923,-125
40.948,-23
40.973,39
40.998,90
41.023,167
41.048,260
41.073,323
41.098,325
41.123,292
41.148,281
41.173,326
41.198,414
41.223,515
41.248,615
41.273,712
41.298,790
41.323,810
41.348,754
41.373,647
41.398,546
41.423,472
41.448,388
41.473,243
41.498,42
41.523,-138
41.548,-216
41.573,-173
41.598,-61
41.623,56
41.648,158
41.673,260
41.698,370
41.723,471
41.748,551
41.773,633
41.798,749
41.823,892
41.848,997
41.873,992
41.898,869
41.923,692
41.948,536
41.973,422
41.998,313
42.023,178
42.048,34
42.073,-64
42.098,-87
42.123,-48
42.148,7
42.173,51
42.198,78
42.223,100
42.248,122
42.273,138
42.298,142
42.323,125
42.348,80
42.373,6
42.398,-76
42.423,-138
42.448,-167
42.473,-186
42.498,-232
42.523,-322
42.548,-430
42.573,-515
42.598,-541
42.623,-481
42.648,-321
42.673,-73
42.698,186
42.723,321
42.748,220
42.773,-104
42.798,-497
42.823,-757
42.848,-757
42.873,-489
42.898,-10
42.923,612
42.948,1280
42.973,1826
42.998,2061
43.023,1908
43.048,1499
43.073,1089
43.098,863
43.123,794
43.148,716
43.173,505
43.198,199
43.223,-67
43.248,-202
43.273,-226
43.298,-220
43.323,-238
43.348,-278
43.373,-321
43.398,-358
43.423,-376
43.448,-352
43.473,-279
43.498,-193
43.523,-158
43.548,-205
43.573,-305
43.598,-401
43.623,-455
43.648,-458
43.673,-393
43.698,-224
43.723,49
43.748,353
43.773,563
43.798,610
43.823,537
43.848,459
43.873,446
43.898,478
43.923,489
43.948,459
43.973,429
43.998,448
44.023,517
44.048,587
44.073,618
44.098,605
44.123,566
44.148,514
44.173,463
44.198,435
44.223,450
44.248,496
44.273,531
44.298,524
44.323,491
44.348,479
44.373,514
44.398,567
44.423,589
44.448,570
44.473,549
44.498,562
44.523,592
44.548,575
44.573,470
44.598,297
44.623,119
44.648,-18
44.673,-118
44.698,-202
44.723,-270
44.748,-295
44.773,-255
44.798,-167
44.823,-77
44.848,-22
44.873,-5
44.898,-1
44.923,8
44.948,30
44.973,54
44.998,78
45.023,108
45.048,151
45.073,207
45.098,265
45.123,313
45.148,339
45.173,335
45.198,300
45.223,244
45.248,186
45.273,134
45.298,71
45.323,-30
45.348,-186
45.373,-356
45.398,-460
45.423,-428
45.448,-257
45.473,-22
45.498,177
45.523,286
45.548,322
45.573,348
45.598,408
45.623,508
45.648,622
45.673,728
45.698,817
45.723,873
45.748,875
45.773,801
45.798,657
45.823,473
45.848,287
45.873,125
45.898,-6
45.923,-112
45.948,-194
45.973,-252
45.998,-289
46.023,-298
46.048,-271
46.073,-195
46.098,-75
46.123,64
46.148,191
46.173,282
46.198,331
46.223,346
46.248,336
46.273,319
46.298,307
46.323,308
46.348,309
46.373,286
46.398,230
46.423,157
46.448,95
46.473,52
46.498,6
46.523,-69
46.548,-163
46.573,-226
46.598,-212
46.623,-123
46.648,-3
46.673,105
46.698,200
46.723,309
46.748,441
46.773,567
46.798,642
46.823,651
46.848,622
46.873,594
46.898,585
46.923,579
46.948,550
46.973,489
46.998,405
47.023,315
47.048,224
47.073,130
47.098,31
47.123,-67
47.148,-149
47.173,-188
47.198,-164
47.223,-76
47.248,48
47.273,169
47.298,264
47.323,342
47.348,426
47.373,526
47.398,620
47.423,676
47.448,678
47.473,637
47.498,577
47.523,511
47.548,437
47.573,344
47.598,228
47.623,95
47.648,-38
47.673,-153
47.698,-231
47.723,-273
47.748,-294
47.773,-315
47.798,-341
47.823,-359
47.848,-356
47.873,-339
47.898,-331
47.923,-343
47.948,-353
47.973,-322
47.998,-231
48.023,-98
48.048,35
48.073,143
48.098,225
48.123,298
48.148,368
48.173,434
48.198,495
48.223,556
48.248,620
48.273,674
48.298,694
48.323,669
48.348,613
48.373,562
48.398,553
48.423,597
48.448,678
48.473,759
48.498,803
48.523,791
48.548,721
48.573,609
48.598,468
48.623,308
48.648,144
48.673,6
48.698,-67
48.723,-56
48.748,22
48.773,121
48.798,198
48.823,241
48.848,266
48.873,290
48.898,311
48.923,314
48.948,299
48.973,279
48.998,273
49.023,280
49.048,284
49.073,268
49.098,226
49.123,166
49.148,94
49.173,19
49.198,-51
49.223,-109
49.248,-153
49.273,-193
49.298,-235
49.323,-269
49.348,-268
49.373,-209
49.398,-100
49.423,23
49.448,127
49.473,199
49.498,251
49.523,295
49.548,329
49.573,346
49.598,342
49.623,329
49.648,318
49.673,309
49.698,290
49.723,255
49.748,209
49.773,168
49.798,137
49.823,112
49.848,84
49.873,51
49.898,23
49.923,4
49.948,-14
49.973,-44
49.998,-86
50.023,-114
50.048,-91
50.073,3
50.098,151
50.123,304
50.148,417
50.173,478
50.198,509
50.223,537
50.248,568
50.273,591
50.298,599
50.323,605
50.348,628
50.373,660
50.398,668
50.423,616
50.448,508
50.473,389
50.498,300
50.523,234
50.548,140
50.573,-25
50.598,-245
50.623,-447
50.648,-558
50.673,-560
50.698,-496
50.723,-418
50.748,-347
50.773,-265
50.798,-146
50.823,9
50.848,177
50.873,331
50.898,458
50.923,556
50.948,625
50.973,664
50.998,676
51.023,670
51.048,663
51.073,659
51.098,651
51.123,632
51.148,597
51.173,554
51.198,509
51.223,461
51.248,405
51.273,342
51.298,282
51.323,239
51.348,207
51.373,151
51.398,28
51.423,-177
51.448,-421
51.473,-611
51.498,-661
51.523,-547
51.548,-320
51.573,-68
51.598,144
51.623,302
51.648,412
51.673,476
51.698,483
51.723,434
51.748,357
51.773,296
51.798,278
51.823,291
51.848,304
51.873,304
51.898,298
51.923,297
51.948,297
51.973,281
51.998,246
52.023,207
52.048,172
52.073,125
52.098,42
52.123,-64
52.148,-130
52.173,-80
52.198,101
52.223,344
52.248,546
52.273,648
52.298,670
52.323,666
52.348,659
52.373,622
52.398,522
52.423,371
52.448,219
52.473,116
52.498,71
52.523,61
52.548,62
52.573,70
52.598,86
52.623,108
52.648,130
52.673,148
52.698,156
52.723,139
52.748,73
52.773,-34
52.798,-132
52.823,-152
52.848,-75
52.873,37
52.898,90
52.923,40
52.948,-59
52.973,-108
52.998,-46
53.023,101
53.048,254
53.073,358
53.098,415
53.123,460
53.148,510
53.173,549
53.198,549
53.223,497
53.248,404
53.273,292
53.298,188
53.323,109
53.348,59
53.373,24
53.398,-10
53.423,-41
53.448,-36
53.473,31
53.498,149
53.523,252
53.548,276
53.573,217
53.598,142
53.623,132
53.648,213
53.673,340
53.698,442
53.723,488
53.748,501
53.773,516
53.798,534
53.823,523
53.848,454
53.873,334
53.898,206
53.923,105
53.948,35
53.973,-26
53.998,-99
54.023,-175
54.048,-225
54.073,-226
54.098,-191
54.123,-151
54.148,-131
54.173,-123
54.198,-91
54.223,-7
54.248,126
54.273,275
54.298,405
54.323,501
54.348,573
54.373,626
54.398,651
54.423,625
54.448,542
54.473,424
54.498,315
54.523,248
54.548,226
54.573,224
54.598,208
54.623,170
54.648,132
54.673,129
54.698,171
54.723,226
54.748,243
54.773,198
54.798,123
54.823,80
54.848,113
54.873,207
54.898,303
54.923,359
54.948,377
54.973,396
54.998,435
55.023,472
55.048,459
55.073,379
55.098,262
55.123,159
55.148,98
55.173,52
55.198,-19
55.223,-132
55.248,-242
55.273,-280
55.298,-202
55.323,-24
55.348,187
55.373,356
55.398,440
55.423,435
55.448,361
55.473,247
55.498,129
55.523,47
55.548,29
55.573,74
55.598,149
55.623,214
55.648,251
55.673,270
55.698,285
55.723,294
55.748,281
55.773,237
55.798,175
55.823,108
55.848,39
55.873,-34
55.898,-94
55.923,-101
55.948,-24
55.973,118
55.998,269
56.023,376
56.048,436
56.073,477
56.098,517
56.123,529
56.148,477
56.173,359
56.198,218
56.223,110
56.248,61
56.273,66
56.298,110
56.323,179
56.348,257
56.373,318
56.398,347
56.423,353
56.448,365
56.473,395
56.498,417
56.523,397
56.548,332
56.573,264
56.598,245
56.623,284
56.648,345
56.673,381
56.698,371
56.723,329
56.748,278
56.773,232
56.798,195
56.823,168
56.848,151
56.873,141
56.898,139
56.923,160
56.948,222
56.973,318
56.998,399
57.023,399
57.048,278
57.073,57
57.098,-191
57.123,-387
57.148,-482
57.173,-475
57.198,-409
57.223,-336
57.248,-290
57.273,-263
57.298,-210
57.323,-94
57.348,78
57.373,249
57.398,357
57.423,389
57.448,387
57.473,402
57.498,447
57.523,494
57.548,511
57.573,501
57.598,490
57.623,492
57.648,498
57.673,487
57.698,452
57.723,409
57.748,370
57.773,336
57.798,296
57.823,246
57.848,191
57.873,135
57.898,78
57.923,17
57.948,-33
57.973,-56
57.998,-39
58.023,7
58.048,63
58.073,117
58.098,171
58.123,232
58.148,294
58.173,343
58.198,364
58.223,356
58.248,330
58.273,296
58.298,259
58.323,224
58.348,194
58.373,180
58.398,181
58.423,186
58.448,178
58.473,148
58.498,104
58.523,61
58.548,22
58.573,-22
58.598,-76
58.623,-124
58.648,-133
58.673,-78
58.698,33
58.723,163
58.748,269
58.773,334
58.798,365
58.823,379
58.848,385
58.873,379
58.898,364
58.923,350
58.948,349
58.973,359
58.998,371
59.023,372
59.048,358
59.073,334
59.098,309
59.123,289
59.148,272
59.173,250
59.198,219
59.223,190
59.248,191
59.273,250
59.298,372
59.323,525
59.348,658
59.373,735
59.398,755
59.423,740
59.448,709
59.473,670
59.498,629
59.523,600
59.548,595
59.573,605
59.598,594
59.623,525
59.648,391
59.673,222
59.698,60
59.723,-69
59.748,-178
59.773,-293
59.798,-443
59.823,-635
59.848,-836
59.873,-982
59.898,-1017
59.923,-933
59.948,-785
59.973,-650
59.998,-559
60.023,-471
60.048,-326
60.073,-110
60.098,122
60.123,304
60.148,421
60.173,520
60.198,643
60.223,780
60.248,878
60.273,899
60.298,858
60.323,795
60.348,721
60.373,613
60.398,460
60.423,297
60.448,189
60.473,177
60.498,236
60.523,307
60.548,344
60.573,346
60.598,335
60.623,329
60.648,324
60.673,311
60.698,290
60.723,272
60.748,263
60.773,260
60.798,254
60.823,234
60.848,194
60.873,135
60.898,64
60.923,-10
60.948,-86
60.973,-167
60.998,-248
61.023,-308
61.048,-313
61.073,-243
61.098,-113
61.123,30
61.148,142
61.173,207
61.198,239
61.223,258
61.248,274
61.273,291
61.298,319
61.323,372
61.348,455
61.373,548
61.398,617
61.423,634
61.448,599
61.473,533
61.498,455
61.523,365
61.548,251
61.573,108
61.598,-37
61.623,-145
61.648,-179
61.673,-136
61.698,-49
61.723,34
61.748,93
61.773,130
61.798,164
61.823,201
61.848,231
61.873,244
61.898,247
61.923,258
61.948,287
61.973,319
61.998,334
62.023,323
62.048,303
62.073,296
62.098,302
62.123,297
62.148,258
62.173,191
62.198,129
62.223,113
62.248,153
62.273,233
62.298,319
62.323,391
62.348,441
62.373,470
62.398,479
62.423,464
62.448,426
62.473,372
62.498,318
62.523,275
62.548,240
62.573,208
62.598,176
62.623,146
62.648,121
62.673,86
62.698,15
62.723,-105
62.748,-257
62.773,-384
62.798,-426
62.823,-363
62.848,-224
62.873,-66
62.898,75
62.923,198
62.948,320
62.973,444
62.998,552
63.023,622
63.048,643
63.073,624
63.098,582
63.123,534
63.148,489
63.173,450
63.198,413
63.223,370
63.248,313
63.273,243
63.298,169
63.323,100
63.348,40
63.373,-11
63.398,-60
63.423,-112
63.448,-187
63.473,-301
63.498,-444
63.523,-563
63.548,-583
63.573,-460
63.598,-220
63.623,53
63.648,275
63.673,415
63.698,497
63.723,559
63.748,617
63.773,662
63.798,686
63.823,697
63.848,705
63.873,705
63.898,680
63.923,617
63.948,523
63.973,419
63.998,322
64.023,239
64.048,167
64.073,104
64.098,49
64.123,-3
64.148,-62
64.173,-124
64.198,-183
64.223,-235
64.248,-278
64.273,-305
64.298,-295
64.323,-221
64.348,-79
64.373,95
64.398,247
64.423,339
64.448,376
64.473,394
64.498,422
64.523,464
64.548,503
64.573,527
64.598,535
64.623,533
64.648,519
64.673,493
64.698,452
64.723,396
64.748,313
64.773,200
64.798,70
64.823,-35
64.848,-81
64.873,-71
64.898,-46
64.923,-40
64.948,-40
64.973,2
64.998,121
65.023,285
65.048,426
65.073,500
65.098,527
65.123,557
65.148,607
65.173,648
65.198,640
65.223,576
65.248,483
65.273,383
65.298,274
65.323,150
65.348,33
65.373,-43
65.398,-70
65.423,-80
65.448,-108
65.473,-158
65.498,-206
65.523,-253
65.548,-331
65.573,-460
65.598,-580
65.623,-587
65.648,-441
65.673,-237
65.698,-137
65.723,-210
65.748,-344
65.773,-340
65.798,-96
65.823,291
65.848,621
65.873,766
65.898,761
65.923,725
65.948,724
65.973,728
65.998,674
66.023,558
66.048,437
66.073,364
66.098,338
66.123,320
66.148,286
66.173,254
66.198,256
66.223,305
66.248,389
66.273,491
66.298,595
66.323,680
66.348,721
66.373,703
66.398,638
66.423,562
66.448,493
66.473,418
66.498,306
66.523,148
66.548,-26
66.573,-162
66.598,-214
66.623,-177
66.648,-87
66.673,2
66.698,51
66.723,56
66.748,48
66.773,60
66.798,94
66.823,117
66.848,93
66.873,28
66.898,-26
66.923,-20
66.948,51
66.973,144
66.998,210
67.023,233
67.048,230
67.073,214
67.098,180
67.123,124
67.148,77
67.173,88
67.198,177
67.223,302
67.248,387
67.273,380
67.298,300
67.323,211
67.348,166
67.373,166
67.398,170
67.423,144
67.448,81
67.473,4
67.498,-52
67.523,-66
67.548,-27
67.573,53
67.598,152
67.623,241
67.648,304
67.673,343
67.698,369
67.723,386
67.748,387
67.773,367
67.798,334
67.823,308
67.848,297
67.873,292
67.898,274
67.923,234
67.948,183
67.973,138
67.998,104
68.023,68
68.048,14
68.073,-55
68.098,-113
68.123,-123
68.148,-68
68.173,42
68.198,177
68.223,302
68.248,398
68.273,461
68.298,493
68.323,499
68.348,484
68.373,453
68.398,413
68.423,373
68.448,338
68.473,312
68.498,291
68.523,272
68.548,247
68.573,211
68.598,163
68.623,109
68.648,54
68.673,0
68.698,-61
68.723,-126
68.748,-185
68.773,-216
68.798,-195
68.823,-120
68.848,-11
68.873,98
68.898,183
68.923,242
68.948,286
68.973,327
68.998,364
69.023,386
69.048,388
69.073,381
69.098,384
69.123,402
69.148,422
69.173,426
69.198,412
69.223,395
69.248,386
69.273,377
69.298,344
69.323,275
69.348,189
69.373,126
69.398,109
69.423,129
69.448,162
69.473,205
69.498,276
69.523,392
69.548,539
69.573,670
69.598,742
69.623,745
69.648,702
69.673,634
69.698,549
69.723,447
69.748,338
69.773,239
69.798,153
69.823,62
69.848,-53
69.873,-186
69.898,-307
69.923,-391
69.948,-449
69.973,-510
69.998,-581
70.023,-630
70.048,-614
70.073,-525
70.098,-402
70.123,-298
70.148,-236
70.173,-204
70.198,-180
70.223,-159
70.248,-148
70.273,-141
70.298,-107
70.323,-14
70.348,136
70.373,308
70.398,452
70.423,540
70.448,577
70.473,586
70.498,589
70.523,595
70.548,595
70.573,567
70.598,498
70.623,395
70.648,296
70.673,248
70.698,274
70.723,360
70.748,468
70.773,561
70.798,627
70.823,671
70.848,697
70.873,702
70.898,681
70.923,634
70.948,572
70.973,504
70.998,442
71.023,395
71.048,372
71.073,374
71.098,387
71.123,386
71.148,351
71.173,277
71.198,178
71.223,80
71.248,-1
71.273,-70
71.298,-144
71.323,-231
71.348,-316
71.373,-360
71.398,-334
71.423,-244
71.448,-129
71.473,-29
71.498,45
71.523,112
71.548,185
71.573,252
71.598,295
71.623,310
71.648,313
71.673,312
71.698,290
71.723,226
71.748,137
71.773,84
71.798,125
71.823,253
71.848,392
71.873,451
71.898,393
71.923,252
71.948,88
71.973,-57
71.998,-184
72.023,-307
72.048,-441
72.073,-584
72.098,-713
72.123,-781
72.148,-734
72.173,-549
72.198,-259
72.223,61
72.248,366
72.273,666
72.298,994
72.323,1341
72.348,1615
72.373,1704
72.398,1565
72.423,1268
72.448,936
72.473,660
72.498,460
72.523,312
72.548,193
72.573,97
72.598,16
72.623,-69
72.648,-164
72.673,-255
72.698,-322
72.723,-381
72.748,-470
72.773,-600
72.798,-713
72.823,-713
72.848,-547
72.873,-264
72.898,17
72.923,207
72.948,301
72.973,360
72.998,434
73.023,515
73.048,562
73.073,554
73.098,505
73.123,448
73.148,399
73.173,363
73.198,347
73.223,365
73.248,412
73.273,438
73.298,377
73.323,204
73.348,-29
73.373,-212
73.398,-250
73.423,-122
73.448,107
73.473,346
73.498,531
73.523,647
73.548,717
73.573,759
73.598,778
73.623,769
73.648,734
73.673,687
73.698,639
73.723,592
73.748,536
73.773,463
73.798,369
73.823,255
73.848,109
73.873,-76
73.898,-294
73.923,-499
73.948,-629
73.973,-644
73.998,-564
74.023,-448
74.048,-349
74.073,-271
74.098,-176
74.123,-39
74.148,118
74.173,245
74.198,311
74.223,339
74.248,376
74.273,436
74.298,484
74.323,471
74.348,393
74.373,303
74.398,257
74.423,267
74.448,302
74.473,334
74.498,367
74.523,413
74.548,436
74.573,356
74.598,125
74.623,-197
74.648,-464
74.673,-541
74.698,-414
74.723,-192
74.748,0
74.773,114
74.798,193
74.823,293
74.848,417
74.873,521
74.898,569
74.923,561
74.948,521
74.973,459
74.998,372
75.023,263
75.048,161
75.073,107
75.098,121
75.123,190
75.148,275
75.173,318
75.198,267
75.223,101
75.248,-131
75.273,-322
75.298,-367
75.323,-252
75.348,-67
75.373,63
75.398,91
75.423,69
75.448,88
75.473,174
75.498,277
75.523,334
75.548,344
75.573,356
75.598,406
75.623,471
75.648,503
75.673,485
75.698,452
75.723,442
75.748,455
75.773,452
75.798,410
75.823,341
75.848,275
75.873,222
75.898,176
75.923,135
75.948,113
75.973,113
75.998,107
76.023,58
76.048,-28
76.073,-97
76.098,-96
76.123,-45
76.148,-25
76.173,-90
76.198,-196
76.223,-221
76.248,-86
76.273,167
76.298,416
76.323,570
76.348,634
76.373,671
76.398,711
76.423,727
76.448,688
76.473,609
76.498,540
76.523,498
76.548,448
76.573,358
76.598,248
76.623,171
76.648,133
76.673,63
76.698,-121
76.723,-409
76.748,-675
76.773,-776
76.798,-667
76.823,-423
76.848,-161
76.873,42
76.898,171
76.923,232
76.948,241
76.973,233
76.998,263
77.023,367
77.048,519
77.073,647
77.098,701
77.123,695
77.148,683
77.173,684
77.198,663
77.223,573
77.248,423
77.273,272
77.298,175
77.323,128
77.348,85
77.373,15
77.398,-70
77.423,-136
77.448,-155
77.473,-125
77.498,-60
77.523,22
77.548,104
77.573,162
77.598,185
77.623,184
77.648,182
77.673,188
77.698,192
77.723,176
77.748,142
77.773,108
77.798,90
77.823,88
77.848,91
77.873,93
77.898,88
77.923,69
77.948,30
77.973,-21
77.998,-62
78.023,-68
78.048,-39
78.073,1
78.098,39
78.123,82
78.148,149
78.173,241
78.198,329
78.223,380
78.248,390
78.273,387
78.298,396
78.323,422
78.348,449
78.373,462
78.398,466
78.423,467
78.448,465
78.473,452
78.498,422
78.523,383
78.548,345
78.573,313
78.598,282
78.623,241
78.648,183
78.673,111
78.698,38
78.723,-9
78.748,-9
78.773,44
78.798,126
78.823,198
78.848,236
78.873,243
78.898,239
78.923,240
78.948,238
78.973,222
78.998,191
79.023,159
79.048,136
79.073,120
79.098,98
79.123,60
79.148,12
79.173,-32
79.198,-64
79.223,-83
79.248,-94
79.273,-103
79.298,-105
79.323,-89
79.348,-44
79.373,31
79.398,124
79.423,210
79.448,273
79.473,312
79.498,339
79.523,363
79.548,380
79.573,387
79.598,384
79.623,379
79.648,379
79.673,381
79.698,375
79.723,359
79.748,337
79.773,314
79.798,286
79.823,253
79.848,216
79.873,179
79.898,141
79.923,92
79.948,30
79.973,-23
79.998,-40
80.023,0
80.048,84
80.073,174
80.098,243
80.123,288
80.148,319
80.173,347
80.198,367
80.223,376
80.248,379
80.273,383
80.298,390
80.323,391
80.348,381
80.373,363
80.398,343
80.423,315
80.448,275
80.473,223
80.498,171
80.523,126
80.548,79
80.573,16
80.598,-57
80.623,-109
80.648,-103
80.673,-38
80.698,52
80.723,127
80.748,172
80.773,201
80.798,227
80.823,248
80.848,251
80.873,235
80.898,211
80.923,197
80.948,192
80.973,192
80.998,190
81.023,191
81.048,193
81.073,191
81.098,177
81.123,153
81.148,121
81.173,82
81.198,31
81.223,-22
81.248,-50
81.273,-23
81.298,55
81.323,146
81.348,205
81.373,225
81.398,235
81.423,265
81.448,311
81.473,338
81.498,326
81.523,292
81.548,270
81.573,275
81.598,286
81.623,274
81.648,230
81.673,172
81.698,122
81.723,84
81.748,54
81.773,27
81.798,5
81.823,-12
81.848,-31
81.873,-49
81.898,-49
81.923,-8
81.948,74
81.973,174
81.998,255
82.023,303
82.048,335
82.073,374
82.098,423
82.123,461
82.148,471
82.173,458
82.198,448
82.223,457
82.248,476
82.273,483
82.298,466
82.323,433
82.348,401
82.373,373
82.398,342
82.423,295
82.448,235
82.473,180
82.498,141
82.523,110
82.548,65
82.573,-5
82.598,-86
82.623,-139
82.648,-130
82.673,-62
82.698,29
82.723,105
82.748,148
82.773,168
82.798,182
82.823,195
82.848,196
82.873,179
82.898,154
82.923,140
82.948,150
82.973,174
82.998,197
83.023,210
83.048,217
83.073,226
83.098,230
83.123,215
83.148,171
83.173,104
83.198,32
83.223,-27
83.248,-74
83.273,-115
83.298,-147
83.323,-151
83.348,-105
83.373,-5
83.398,125
83.423,247
83.448,329
83.473,363
83.498,369
83.523,371
83.548,381
83.573,396
83.598,406
83.623,405
83.648,403
83.673,408
83.698,424
83.723,440
83.748,433
83.773,389
83.798,312
83.823,227
83.848,158
83.873,114
83.898,86
83.923,59
83.948,31
83.973,22
83.998,54
84.023,132
84.048,231
84.073,317
84.098,369
84.123,389
84.148,390
84.173,381
84.198,357
84.223,316
84.248,263
84.273,214
84.298,180
84.323,164
84.348,162
84.373,167
84.398,174
84.423,178
84.448,170
84.473,146
84.498,110
84.523,70
84.548,28
84.573,-17
84.598,-71
84.623,-117
84.648,-131
84.673,-93
84.698,-13
84.723,80
84.748,159
84.773,215
84.798,261
84.823,304
84.848,337
84.873,347
84.898,335
84.923,314
84.948,300
84.973,296
84.998,291
85.023,278
85.048,259
85.073,240
85.098,222
85.123,195
85.148,158
85.173,118
85.198,87
85.223,62
85.248,33
85.273,-2
85.298,-28
85.323,-18
85.348,37
85.373,122
85.398,203
85.423,261
85.448,293
85.473,307
85.498,308
85.523,296
85.548,273
85.573,250
85.598,234
85.623,223
85.648,211
85.673,197
85.698,188
85.723,187
85.748,190
85.773,184
85.798,165
85.823,134
85.848,95
85.873,49
85.898,1
85.923,-29
85.948,-19
85.973,40
85.998,135
86.023,230
86.048,301
86.073,347
86.098,379
86.123,404
86.148,417
86.173,416
86.198,413
86.223,421
86.248,444
86.273,464
86.298,465
86.323,443
86.348,410
86.373,378
86.398,349
86.423,315
86.448,272
86.473,216
86.498,139
86.523,36
86.548,-79
86.573,-172
86.598,-199
86.623,-143
86.648,-30
86.673,89
86.698,172
86.723,210
86.748,216
86.773,212
86.798,206
86.823,198
86.848,184
86.873,164
86.898,139
86.923,115
86.948,94
86.973,74
86.998,49
87.023,19
87.048,-2
87.073,-1
87.098,18
87.123,31
87.148,10
87.173,-40
87.198,-79
87.223,-60
87.248,20
87.273,122
87.298,203
87.323,261
87.348,330
87.373,439
87.398,572
87.423,683
87.448,740
87.473,749
87.498,737
87.523,721
87.548,695
87.573,651
87.598,591
87.623,525
87.648,458
87.673,384
87.698,295
87.723,189
87.748,67
87.773,-64
87.798,-190
87.823,-278
87.848,-296
87.873,-240
87.898,-138
87.923,-24
87.948,83
87.973,183
87.998,257
88.023,271
88.048,209
88.073,107
88.098,33
88.123,20
88.148,24
88.173,-33
88.198,-182
88.223,-351
88.248,-435
88.273,-386
88.298,-251
88.323,-120
88.348,-40
88.373,4
88.398,47
88.423,106
88.448,182
88.473,286
88.498,428
88.523,584
88.548,681
88.573,650
88.598,495
88.623,304
88.648,181
88.673,167
88.698,223
88.723,287
88.748,335
88.773,382
88.798,443
88.823,498
88.848,516
88.873,484
88.898,425
88.923,369
88.948,329
88.973,290
88.998,238
89.023,177
89.048,133
89.073,127
89.098,165
89.123,231
89.148,297
89.173,346
89.198,372
89.223,386
89.248,399
89.273,408
89.298,402
89.323,378
89.348,345
89.373,316
89.398,296
89.423,277
89.448,245
89.473,201
89.498,155
89.523,116
89.548,77
89.573,25
89.598,-36
89.623,-87
89.648,-101
89.673,-66
89.698,0
89.723,76
89.748,141
89.773,191
89.798,227
89.823,246
89.848,244
89.873,216
89.898,166
89.923,105
89.948,45
89.973,1
89.998,-25
90.023,-40
90.048,-53
90.073,-71
90.098,-93
90.123,-125
90.148,-175
90.173,-256
90.198,-359
90.223,-450
90.248,-482
90.273,-424
90.298,-282
90.323,-94
90.348,97
90.373,263
90.398,392
90.423,480
90.448,528
90.473,541
90.498,535
90.523,530
90.548,542
90.573,579
90.598,631
90.623,684
90.648,714
90.673,707
90.698,661
90.723,588
90.748,506
90.773,425
90.798,341
90.823,251
90.848,171
90.873,128
90.898,138
90.923,191
90.948,253
90.973,296
90.998,316
91.023,329
91.048,344
91.073,346
91.098,315
91.123,251
91.148,179
91.173,134
91.198,126
91.223,140
91.248,150
91.273,142
91.298,124
91.323,101
91.348,69
91.373,17
91.398,-55
91.423,-130
91.448,-181
91.473,-185
91.498,-137
91.523,-51
91.548,48
91.573,137
91.598,200
91.623,236
91.648,253
91.673,259
91.698,260
91.723,258
91.748,252
91.773,245
91.798,233
91.823,212
91.848,177
91.873,138
91.898,107
91.923,86
91.948,64
91.973,28
91.998,-18
92.023,-50
92.048,-45
92.073,-2
92.098,54
92.123,105
92.148,144
92.173,177
92.198,201
92.223,205
92.248,190
92.273,175
92.298,181
92.323,209
92.348,236
92.373,240
92.398,222
92.423,201
92.448,181
92.473,150
92.498,97
92.523,34
92.548,-17
92.573,-55
92.598,-99
92.623,-157
92.648,-199
92.673,-180
92.698,-93
92.723,17
92.748,97
92.773,138
92.798,180
92.823,257
92.848,352
92.873,418
92.898,441
92.923,456
92.948,501
92.973,556
92.998,568
93.023,517
93.048,458
93.073,474
93.098,592
93.123,762
93.148,914
93.173,1024
93.198,1108
93.223,1172
93.248,1181
93.273,1102
93.298,961
93.323,831
93.348,754
93.373,698
93.398,595
93.423,425
93.448,251
93.473,154
93.498,148
93.523,165
93.548,120
93.573,-12
93.598,-183
93.623,-323
93.648,-399
93.673,-429
93.698,-452
93.723,-503
93.748,-589
93.773,-689
93.798,-758
93.823,-758
93.848,-684
93.873,-580
93.898,-502
93.923,-471
93.948,-455
93.973,-406
93.998,-312
94.023,-205
94.048,-128
94.073,-90
94.098,-57
94.123,2
94.148,91
94.173,180
94.198,239
94.223,266
94.248,282
94.273,311
94.298,362
94.323,430
94.348,507
94.373,579
94.398,626
94.423,622
94.448,554
94.473,425
94.498,263
94.523,107
94.548,-8
94.573,-65
94.598,-56
94.623,9
94.648,122
94.673,263
94.698,410
94.723,536
94.748,618
94.773,646
94.798,628
94.823,584
94.848,535
94.873,490
94.898,451
94.923,417
94.948,389
94.973,368
94.998,354
95.023,338
95.048,316
95.073,287
95.098,256
95.123,232
95.148,211
95.173,185
95.198,142
95.223,82
95.248,22
95.273,-10
95.298,3
95.323,61
95.348,142
95.373,215
95.398,266
95.423,296
95.448,316
95.473,330
95.498,331
95.523,313
95.548,282
95.573,252
95.598,233
95.623,220
95.648,199
95.673,164
95.698,121
95.723,84
95.748,56
95.773,30
95.798,-2
95.823,-40
95.848,-77
95.873,-110
95.898,-143
95.923,-175
95.948,-192
95.973,-168
95.998,-91
96.023,20
96.048,131
96.073,209
96.098,254
96.123,285
96.148,319
96.173,352
96.198,370
96.223,370
96.248,365
96.273,373
96.298,396
96.323,416
96.348,421
96.373,413
96.398,408
96.423,415
96.448,423
96.473,416
96.498,383
96.523,329
96.548,264
96.573,194
96.598,122
96.623,60
96.648,34
96.673,63
96.698,140
96.723,233
96.748,304
96.773,335
96.798,335
96.823,322
96.848,303
96.873,277
96.898,244
96.923,213
96.948,195
96.973,189
96.998,185
97.023,175
97.048,158
97.073,138
97.098,118
97.123,91
97.148,55
97.173,17
97.198,-14
97.223,-43
97.248,-82
97.273,-132
97.298,-174
97.323,-175
97.348,-117
97.373,-12
97.398,99
97.423,187
97.448,244
97.473,282
97.498,312
97.523,331
97.548,332
97.573,320
97.598,307
97.623,302
97.648,304
97.673,301
97.698,288
97.723,263
97.748,230
97.773,189
97.798,141
97.823,94
97.848,55
97.873,21
97.898,-20
97.923,-77
97.948,-131
97.973,-144
97.998,-91
98.023,17
98.048,142
98.073,239
98.098,295
98.123,326
98.148,351
98.173,370
98.198,373
98.223,359
98.248,338
98.273,328
98.298,330
98.323,333
98.348,327
98.373,313
98.398,302
98.423,296
98.448,286
98.473,262
98.498,224
98.523,185
98.548,153
98.573,118
98.598,69
98.623,9
98.648,-29
98.673,-10
98.698,76
98.723,201
98.748,318
98.773,399
98.798,449
98.823,491
98.848,536
98.873,567
98.898,561
98.923,519
98.948,467
98.973,437
98.998,430
99.023,423
99.048,389
99.073,324
99.098,248
99.123,181
99.148,126
99.173,74
99.198,20
99.223,-31
99.248,-78
99.273,-127
99.298,-187
99.323,-249
99.348,-281
99.373,-252
99.398,-161
99.423,-41
99.448,62
99.473,129
99.498,169
99.523,198
99.548,219
99.573,224
99.598,211
99.623,193
99.648,188
99.673,201
99.698,223
99.723,238
99.748,238
99.773,222
99.798,189
99.823,140
99.848,83
99.873,29
99.898,-17
99.923,-60
99.948,-104
99.973,-138
99.998,-134
100.023,-64
100.048,75
100.073,257
100.098,437
100.123,576
100.148,653
100.173,670
100.198,639
100.223,586
100.248,536
100.273,504
100.298,487
100.323,473
100.348,452
100.373,425
100.398,398
100.423,373
100.448,347
100.473,319
100.498,290
100.523,249
100.548,169
100.573,30
100.598,-158
100.623,-340
100.648,-448
100.673,-449
100.698,-363
100.723,-239
100.748,-118
100.773,-12
100.798,81
100.823,164
100.848,235
100.873,299
100.898,368
100.923,437
100.948,483
100.973,480
100.998,432
101.023,373
101.048,338
101.073,325
101.098,306
101.123,261
101.148,202
101.173,153
101.198,119
101.223,79
101.248,24
101.273,-21
101.298,-9
101.323,82
101.348,220
101.373,348
101.398,432
101.423,481
101.448,519
101.473,542
101.498,518
101.523,428
101.548,291
101.573,156
101.598,56
101.623,-4
101.648,-41
101.673,-63
101.698,-70
101.723,-65
101.748,-60
101.773,-64
101.798,-71
101.823,-71
101.848,-61
101.873,-57
101.898,-71
101.923,-89
101.948,-75
101.973,-8
101.998,99
102.023,213
102.048,307
102.073,378
102.098,437
102.123,485
102.148,513
102.173,512
102.198,492
102.223,472
102.248,464
102.273,468
102.298,475
102.323,475
102.348,460
102.373,418
102.398,347
102.423,253
102.448,146
102.473,35
102.498,-76
102.523,-182
102.548,-250
102.573,-245
102.598,-155
102.623,-7
102.648,141
102.673,253
102.698,322
102.723,368
102.748,400
102.773,407
102.798,379
102.823,326
102.848,277
102.873,247
102.898,230
102.923,207
102.948,171
102.973,134
102.998,110
103.023,98
103.048,86
103.073,63
103.098,28
103.123,-15
103.148,-69
103.173,-125
103.198,-157
103.223,-132
103.248,-42
103.273,85
103.298,203
103.323,282
103.348,330
103.373,372
103.398,417
103.423,452
103.448,462
103.473,455
103.498,450
103.523,452
103.548,431
103.573,348
103.598,198
103.623,23
103.648,-119
103.673,-198
103.698,-229
103.723,-245
103.748,-264
103.773,-278
103.798,-277
103.823,-268
103.848,-269
103.873,-286
103.898,-292
103.923,-249
103.948,-137
103.973,22
103.998,185
104.023,317
104.048,411
104.073,485
104.098,558
104.123,631
104.148,694
104.173,743
104.198,781
104.223,820
104.248,867
104.273,916
104.298,957
104.323,985
104.348,1005
104.373,1021
104.398,1029
104.423,1015
104.448,967
104.473,889
104.498,794
104.523,690
104.548,564
104.573,396
104.598,191
104.623,-7
104.648,-142
104.673,-180
104.698,-147
104.723,-108
104.748,-113
104.773,-168
104.798,-244
104.823,-313
104.848,-381
104.873,-461
104.898,-553
104.923,-626
104.948,-652
104.973,-629
104.998,-585
105.023,-546
105.048,-519
105.073,-489
105.098,-446
105.123,-391
105.148,-332
105.173,-272
105.198,-213
105.223,-161
105.248,-125
105.273,-97
105.298,-53
105.323,32
105.348,164
105.373,317
105.398,459
105.423,577
105.448,678
105.473,767
105.498,833
105.523,858
105.548,838
105.573,787
105.598,726
105.623,658
105.648,578
105.673,490
105.698,420
105.723,393
105.748,407
105.773,428
105.798,416
105.823,357
105.848,271
105.873,188
105.898,124
105.923,78
105.948,53
105.973,61
105.998,116
106.023,208
106.048,296
106.073,333
106.098,304
106.123,231
106.148,155
106.173,104
106.198,81
106.223,73
106.248,75
106.273,90
106.298,123
106.323,164
106.348,196
106.373,208
106.398,199
106.423,184
106.448,171
106.473,165
106.498,156
106.523,133
106.548,89
106.573,27
106.598,-29
106.623,-47
106.648,-4
106.673,89
106.698,193
106.723,264
106.748,291
106.773,295
106.798,308
106.823,342
106.848,381
106.873,407
106.898,418
106.923,428
106.948,444
106.973,457
106.998,451
107.023,418
107.048,367
107.073,310
107.098,255
107.123,199
107.148,136
107.173,60
107.198,-34
107.223,-140
107.248,-236
107.273,-282
107.298,-255
107.323,-161
107.348,-42
107.373,58
107.398,120
107.423,156
107.448,185
107.473,214
107.498,239
107.523,257
107.548,277
107.573,310
107.598,354
107.623,391
107.648,405
107.673,393
107.698,366
107.723,336
107.748,305
107.773,263
107.798,205
107.823,135
107.848,72
107.873,41
107.898,61
107.923,131
107.948,227
107.973,322
107.998,391
108.023,424
108.048,418
108.073,364
108.098,254
108.123,98
108.148,-67
108.173,-194
108.198,-250
108.223,-234
108.248,-177
108.273,-111
108.298,-56
108.323,-9
108.348,35
108.373,80
108.398,119
108.423,143
108.448,156
108.473,173
108.498,214
108.523,287
108.548,378
108.573,453
108.598,484
108.623,470
108.648,434
108.673,406
108.698,395
108.723,395
108.748,395
108.773,396
108.798,405
108.823,418
108.848,420
108.873,398
108.898,356
108.923,308
108.948,267
108.973,228
108.998,180
109.023,116
109.048,41
109.073,-29
109.098,-82
109.123,-98
109.148,-66
109.173,10
109.198,106
109.223,181
109.248,208
109.273,188
109.298,145
109.323,100
109.348,56
109.373,16
109.398,-4
109.423,19
109.448,97
109.473,207
109.498,314
109.523,401
109.548,478
109.573,561
109.598,642
109.623,690
109.648,686
109.673,636
109.698,567
109.723,496
109.748,423
109.773,350
109.798,295
109.823,285
109.848,325
109.873,387
109.898,432
109.923,440
109.948,415
109.973,378
109.998,340
110.023,306
110.048,285
110.073,283
110.098,299
110.123,317
110.148,322
110.173,311
110.198,290
110.223,261
110.248,215
110.273,142
110.298,51
110.323,-39
110.348,-125
110.373,-213
110.398,-309
110.423,-395
110.448,-443
110.473,-443
110.498,-419
110.523,-404
110.548,-405
110.573,-399
110.598,-377
110.623,-375
110.648,-454
110.673,-633
110.698,-858
110.723,-1038
110.748,-1117
110.773,-1110
110.798,-1069
110.823,-1021
110.848,-938
110.873,-771
110.898,-504
110.923,-168
110.948,169
110.973,454
110.998,662
111.023,804
111.048,915
111.073,1033
111.098,1178
111.123,1331
111.148,1457
111.173,1528
111.198,1552
111.223,1563
111.248,1588
111.273,1615
111.298,1601
111.323,1503
111.348,1312
111.373,1055
111.398,780
111.423,533
111.448,339
111.473,209
111.498,139
111.523,115
111.548,116
111.573,114
111.598,81
111.623,9
111.648,-81
111.673,-147
111.698,-153
111.723,-97
111.748,-16
111.773,49
111.798,87
111.823,116
111.848,160
111.873,219
111.898,272
111.923,303
111.948,317
111.973,332
111.998,350
112.023,360
112.048,349
112.073,313
112.098,260
112.123,194
112.148,113
112.173,21
112.198,-69
112.223,-153
112.248,-242
112.273,-353
112.298,-476
112.323,-565
112.348,-566
112.373,-468
112.398,-309
112.423,-147
112.448,-14
112.473,98
112.498,204
112.523,294
112.548,344
112.573,347
112.598,330
112.623,325
112.648,340
112.673,355
112.698,351
112.723,333
112.748,323
112.773,329
112.798,332
112.823,311
112.848,266
112.873,221
112.898,203
112.923,212
112.948,232
112.973,246
112.998,246
113.023,228
113.048,183
113.073,109
113.098,21
113.123,-49
113.148,-84
113.173,-84
113.198,-68
113.223,-46
113.248,-12
113.273,42
113.298,105
113.323,150
113.348,159
113.373,140
113.398,117
113.423,98
113.448,69
113.473,19
113.498,-37
113.523,-59
113.548,-18
113.573,75
113.598,179
113.623,256
113.648,300
113.673,325
113.698,344
113.723,353
113.748,341
113.773,310
113.798,272
113.823,243
113.848,231
113.873,229
113.898,226
113.923,213
113.948,185
113.973,145
113.998,105
114.023,71
114.048,43
114.073,9
114.098,-29
114.123,-55
114.148,-34
114.173,48
114.198,173
114.223,297
114.248,386
114.273,442
114.298,489
114.323,546
114.348,606
114.373,649
114.398,672
114.423,691
114.448,728
114.473,783
114.498,837
114.523,866
114.548,861
114.573,826
114.598,766
114.623,685
114.648,588
114.673,477
114.698,356
114.723,222
114.748,69
114.773,-101
114.798,-266
114.823,-388
114.848,-432
114.873,-392
114.898,-301
114.923,-213
114.948,-161
114.973,-142
114.998,-117
115.023,-56
115.048,28
115.073,101
115.098,139
115.123,163
115.148,213
115.173,286
115.198,323
115.223,262
115.248,104
115.273,-64
115.298,-154
115.323,-148
115.348,-114
115.373,-124
115.398,-189
115.423,-257
115.448,-284
115.473,-275
115.498,-253
115.523,-209
115.548,-99
115.573,95
115.598,328
115.623,516
115.648,617
115.673,652
115.698,658
115.723,644
115.748,591
115.773,504
115.798,429
115.823,412
115.848,443
115.873,468
115.898,443
115.923,367
115.948,267
115.973,153
115.998,17
116.023,-134
116.048,-277
116.073,-390
116.098,-484
116.123,-571
116.148,-626
116.173,-597
116.198,-472
116.223,-319
116.248,-232
116.273,-236
116.298,-265
116.323,-244
116.348,-181
116.373,-148
116.398,-180
116.423,-221
116.448,-204
116.473,-145
116.498,-126
116.523,-167
116.548,-171
116.573,-28
116.598,215
116.623,351
116.648,219
116.673,-72
116.698,-174
116.723,218
116.748,1089
116.773,2105
116.798,2869
116.823,3194
116.848,3162
116.873,2980
116.898,2807
116.923,2681
116.948,2557
116.973,2374
116.998,2110
117.023,1802
117.048,1514
117.073,1282
117.098,1058
117.123,740
117.148,262
117.173,-330
117.198,-910
117.223,-1370
117.248,-1691
117.273,-1917
117.298,-2084
117.323,-2195
117.348,-2260
117.373,-2307
117.398,-2331
117.423,-2260
117.448,-2006
117.473,-1584
117.498,-1147
117.523,-866
117.548,-774
117.573,-732
117.598,-575
117.623,-272
117.648,67
117.673,331
117.698,510
117.723,671
117.748,839
117.773,968
117.798,1018
117.823,1025
117.848,1059
117.873,1108
117.898,1056
117.923,798
117.948,383
117.973,18
117.998,-88
118.023,103
118.048,447
118.073,734
118.098,848
118.123,811
118.148,723
118.173,667
118.198,657
118.223,652
118.248,599
118.273,478
118.298,319
118.323,177
118.348,86
118.373,33
118.398,-16
118.423,-72
118.448,-108
118.473,-95
118.498,-51
118.523,-30
118.548,-64
118.573,-123
118.598,-146
118.623,-110
118.648,-55
118.673,-27
118.698,-14
118.723,48
118.748,198
118.773,392
118.798,536
118.823,575
118.848,528
118.873,446
118.898,351
118.923,227
118.948,77
118.973,-41
118.998,-64
119.023,14
119.048,121
119.073,180
119.098,175
119.123,158
119.148,166
119.173,183
119.198,162
119.223,95
119.248,38
119.273,53
119.298,146
119.323,265
119.348,356
119.373,412
119.398,466
119.423,540
119.448,622
119.473,684
119.498,719
119.523,740
119.548,758
119.573,757
119.598,709
119.623,602
119.648,456
119.673,306
119.698,184
119.723,102
119.748,60
119.773,42
119.798,28
119.823,-6
119.848,-84
119.873,-214
119.898,-383
119.923,-553
119.948,-667
119.973,-671
119.998,-541
120.023,-312
120.048,-56
120.073,154
120.098,289
120.123,361
120.148,397
120.173,411
120.198,405
120.223,387
120.248,374
120.273,379
120.298,399
120.323,417
120.348,420
120.373,407
120.398,384
120.423,356
120.448,331
120.473,313
120.498,296
120.523,261
120.548,188
120.573,88
120.598,11
120.623,9
120.648,89
120.673,198
120.698,269
120.723,276
120.748,251
120.773,233
120.798,227
120.823,205
120.848,146
120.873,62
120.898,-12
120.923,-63
120.948,-100
120.973,-138
120.998,-179
121.023,-211
121.048,-223
121.073,-208
121.098,-152
121.123,-44
121.148,105
121.173,252
121.198,334
121.223,313
121.248,193
121.273,16
121.298,-152
121.323,-251
121.348,-237
121.373,-123
121.398,4
121.423,40
121.448,-50
121.473,-165
121.498,-124
121.523,179
121.548,668
121.573,1122
121.598,1347
121.623,1313
121.648,1150
121.673,1001
121.698,910
121.723,828
121.748,700
121.773,533
121.798,373
121.823,244
121.848,130
121.873,9
121.898,-112
121.923,-205
121.948,-264
121.973,-319
121.998,-402
122.023,-497
122.048,-540
122.073,-472
122.098,-292
122.123,-64
122.148,134
122.173,262
122.198,334
122.223,379
122.248,410
122.273,419
122.298,402
122.323,382
122.348,389
122.373,431
122.398,482
122.423,508
122.448,500
122.473,482
122.498,474
122.523,470
122.548,454
122.573,434
122.598,448
122.623,515
122.648,600
122.673,622
122.698,534
122.723,371
122.748,222
122.773,144
122.798,112
122.823,50
122.848,-85
122.873,-267
122.898,-432
122.923,-542
122.948,-604
122.973,-633
122.998,-612
123.023,-511
123.048,-332
123.073,-123
123.098,53
123.123,171
123.148,247
123.173,310
123.198,364
123.223,385
123.248,355
123.273,288
123.298,225
123.323,196
123.348,201
123.373,208
123.398,188
123.423,140
123.448,102
123.473,118
123.498,205
123.523,333
123.548,451
123.573,521
123.598,547
123.623,555
123.648,561
123.673,552
123.698,508
123.723,428
123.748,340
123.773,269
123.798,221
123.823,180
123.848,133
123.873,83
123.898,40
123.923,4
123.948,-28
123.973,-57
123.998,-74
124.023,-79
124.048,-84
124.073,-102
124.098,-122
124.123,-111
124.148,-47
124.173,57
124.198,156
124.223,218
124.248,248
124.273,277
124.298,319
124.323,357
124.348,366
124.373,346
124.398,323
124.423,321
124.448,331
124.473,323
124.498,283
124.523,223
124.548,172
124.573,141
124.598,120
124.623,96
124.648,65
124.673,35
124.698,5
124.723,-32
124.748,-77
124.773,-104
124.798,-81
124.823,4
124.848,130
124.873,249
124.898,328
124.923,367
124.948,388
124.973,410
124.998,431
125.023,437
125.048,423
125.073,404
125.098,398
125.123,411
125.148,427
125.173,422
125.198,392
125.223,351
125.248,321
125.273,305
125.298,279
125.323,220
125.348,129
125.373,30
125.398,-48
125.423,-101
125.448,-138
125.473,-164
125.498,-167
125.523,-128
125.548,-52
125.573,32
125.598,94
125.623,124
125.648,139
125.673,158
125.698,183
125.723,203
125.748,210
125.773,214
125.798,230
125.823,260
125.848,291
125.873,310
125.898,312
125.923,303
125.948,291
125.973,280
125.998,267
126.023,249
126.048,221
126.073,184
126.098,139
126.123,96
126.148,61
126.173,31
126.198,-1
126.223,-37
126.248,-61
126.273,-46
126.298,20
126.323,123
126.348,229
126.373,310
126.398,360
126.423,388
126.448,405
126.473,412
126.498,404
126.523,382
126.548,354
126.573,332
126.598,316
126.623,305
126.648,294
126.673,278
126.698,254
126.723,223
126.748,192
126.773,167
126.798,148
126.823,126
126.848,91
126.873,48
126.898,9
126.923,-19
126.948,-46
126.973,-90
126.998,-147
127.023,-189
127.048,-177
127.073,-100
127.098,11
127.123,115
127.148,183
127.173,223
127.198,255
127.223,287
127.248,309
127.273,309
127.298,293
127.323,281
127.348,286
127.373,307
127.398,328
127.423,335
127.448,325
127.473,303
127.498,278
127.523,257
127.548,236
127.573,210
127.598,176
127.623,137
127.648,103
127.673,76
127.698,47
127.723,4
127.748,-47
127.773,-78
127.798,-57
127.823,20
127.848,124
127.873,215
127.898,285
127.923,354
127.948,443
127.973,535
127.998,588
128.023,579
128.048,529
128.073,483
128.098,465
128.123,458
128.148,434
128.173,394
128.198,364
128.223,359
128.248,350
128.273,283
128.298,136
128.323,-48
128.348,-197
128.373,-261
128.398,-245
128.423,-198
128.448,-167
128.473,-171
128.498,-199
128.523,-228
128.548,-233
128.573,-193
128.598,-109
128.623,1
128.648,107
128.673,189
128.698,247
128.723,294
128.748,337
128.773,371
128.798,385
128.823,384
128.848,380
128.873,383
128.898,391
128.923,393
128.948,384
128.973,368
128.998,349
129.023,323
129.048,284
129.073,230
129.098,172
129.123,124
129.148,88
129.173,57
129.198,22
129.223,-21
129.248,-64
129.273,-89
129.298,-74
129.323,-11
129.348,92
129.373,206
129.398,295
129.423,342
129.448,359
129.473,370
129.498,389
129.523,404
129.548,398
129.573,370
129.598,339
129.623,328
129.648,335
129.673,340
129.698,324
129.723,287
129.748,246
129.773,211
129.798,178
129.823,139
129.848,95
129.873,55
129.898,24
129.923,-7
129.948,-52
129.973,-101
129.998,-126
130.023,-95
130.048,-9
130.073,100
130.098,194
130.123,249
130.148,274
130.173,289
130.198,302
130.223,308
130.248,300
130.273,285
130.298,276
130.323,280
130.348,287
130.373,282
130.398,261
130.423,232
130.448,205
130.473,180
130.498,152
130.523,119
130.548,88
130.573,63
130.598,38
130.623,0
130.648,-56
130.673,-105
130.698,-114
130.723,-64
130.748,31
130.773,136
130.798,218
130.823,269
130.848,300
130.873,322
130.898,337
130.923,337
130.948,321
130.973,299
130.998,288
131.023,295
131.048,313
131.073,327
131.098,327
131.123,312
131.148,290
131.173,265
131.198,237
131.223,198
131.248,152
131.273,107
131.298,74
131.323,48
131.348,11
131.373,-44
131.398,-100
131.423,-118
131.448,-68
131.473,37
131.498,156
131.523,243
131.548,287
131.573,306
131.598,325
131.623,348
131.648,362
131.673,361
131.698,349
131.723,342
131.748,344
131.773,350
131.798,349
131.823,340
131.848,323
131.873,302
131.898,277
131.923,246
131.948,211
131.973,173
131.998,133
132.023,95
132.048,61
132.073,28
132.098,-11
132.123,-63
132.148,-117
132.173,-144
132.198,-113
132.223,-20
132.248,101
132.273,205
132.298,264
132.323,286
132.348,303
132.373,330
132.398,358
132.423,366
132.448,350
132.473,325
132.498,312
132.523,315
132.548,319
132.573,307
132.598,281
132.623,252
132.648,228
132.673,203
132.698,166
132.723,117
132.748,68
132.773,32
132.798,6
132.823,-24
132.848,-70
132.873,-122
132.898,-153
132.923,-138
132.948,-73
132.973,24
132.998,127
133.023,208
133.048,255
133.073,271
133.098,273
133.123,277
133.148,286
133.173,290
133.198,279
133.223,268
133.248,290
133.273,372
133.298,497
133.323,598
133.348,606
133.373,502
133.398,334
133.423,185
133.448,104
133.473,82
133.498,64
133.523,3
133.548,-108
133.573,-232
133.598,-306
133.623,-279
133.648,-138
133.673,82
133.698,317
133.723,504
133.748,618
133.773,674
133.798,701
133.823,710
133.848,699
133.873,668
133.898,632
133.923,601
133.948,565
133.973,501
133.998,407
134.023,317
134.048,270
134.073,269
134.098,273
134.123,240
134.148,169
134.173,92
134.198,31
134.223,-31
134.248,-126
134.273,-250
134.298,-362
134.323,-426
134.348,-440
134.373,-418
134.398,-344
134.423,-183
134.448,52
134.473,252
134.498,267
134.523,33
134.548,-346
134.573,-659
134.598,-744
134.623,-598
134.648,-343
134.673,-110
134.698,41
134.723,118
134.748,136
134.773,100
134.798,23
134.823,-58
134.848,-108
134.873,-117
134.898,-105
134.923,-80
134.948,-23
134.973,78
134.998,204
135.023,301
135.048,342
135.073,356
135.098,402
135.123,502
135.148,620
135.173,701
135.198,729
135.223,728
135.248,727
135.273,729
135.298,720
135.323,712
135.348,737
135.373,814
135.398,910
135.423,959
135.448,913
135.473,787
135.498,638
135.523,517
135.548,432
135.573,363
135.598,289
135.623,211
135.648,138
135.673,68
135.698,-5
135.723,-88
135.748,-167
135.773,-215
135.798,-211
135.823,-158
135.848,-84
135.873,-20
135.898,19
135.923,43
135.948,68
135.973,94
135.998,109
136.023,100
136.048,71
136.073,41
136.098,25
136.123,23
136.148,34
136.173,62
136.198,115
136.223,185
136.248,247
136.273,278
136.298,281
136.323,284
136.348,308
136.373,345
136.398,370
136.423,381
136.448,411
136.473,498
136.498,649
136.523,821
136.548,965
136.573,1064
136.598,1133
136.623,1191
136.648,1231
136.673,1234
136.698,1193
136.723,1129
136.748,1070
136.773,1021
136.798,964
136.823,877
136.848,753
136.873,598
136.898,422
136.923,229
136.948,27
136.973,-177
136.998,-389
137.023,-621
137.048,-886
137.073,-1166
137.098,-1421
137.123,-1619
137.148,-1767
137.173,-1905
137.198,-2075
137.223,-2291
137.248,-2541
137.273,-2817
137.298,-3123
137.323,-3463
137.348,-3825
137.373,-4192
137.398,-4556
137.423,-4920
137.448,-5285
137.473,-5645
137.498,-5997
137.523,-6348
137.548,-6705
137.573,-7050
137.598,-7353
137.623,-7596
137.648,-7794
137.673,-7956
137.698,-8059
137.723,-8066
137.748,-7973
137.773,-7812
137.798,-7594
137.823,-7262
137.848,-6756
137.873,-6103
137.898,-5407
137.923,-4707
137.948,-3900
137.973,-2889
137.998,-1804
138.023,-943
138.048,-352
138.073,521
138.098,2537
138.123,6019
138.148,10199
138.173,13668
138.198,15554
138.223,16291
138.248,17144
138.273,18996
138.298,21669
138.323,24439
138.348,27008
138.373,29725
138.398,32767
138.423,32767
138.448,32767
138.473,32767
138.498,32767
138.523,32767
138.548,32767
138.573,32767
138.598,32767
138.623,32767
138.648,32352
138.673,27402
138.698,20681
138.723,11336
138.748,-212
138.773,-11863
138.798,-20999
138.823,-26258
138.848,-28319
138.873,-29142
138.898,-30486
138.923,-32768
138.948,-32768
138.973,-32768
138.998,-32768
139.023,-32768
139.048,-32768
139.073,-32768
139.098,-32768
139.123,-32768
139.148,-32768
139.173,-32768
139.198,-32768
139.223,-32768
139.248,-32768
139.273,-26246
139.298,-17674
139.323,-10073
139.348,-5036
139.373,-2486
139.398,-961
139.423,1045
139.448,3991
139.473,7301
139.498,10233
139.523,12534
139.548,14356
139.573,15779
139.598,16657
139.623,16901
139.648,16736
139.673,16538
139.698,16465
139.723,16337
139.748,15901
139.773,15135
139.798,14234
139.823,13363
139.848,12508
139.873,11600
139.898,10674
139.923,9866
139.948,9253
139.973,8779
139.998,8358
140.023,7990
140.048,7726
140.073,7542
140.098,7303
140.123,6889
140.148,6317
140.173,5714
140.198,5162
140.223,4610
140.248,3946
140.273,3129
140.298,2239
140.323,1390
140.348,638
140.373,-36
140.398,-672
140.423,-1274
140.448,-1808
140.473,-2220
140.498,-2472
140.523,-2563
140.548,-2544
140.573,-2492
140.598,-2450
140.623,-2391
140.648,-2246
140.673,-1977
140.698,-1624
140.723,-1279
140.748,-1009
140.773,-814
140.798,-642
140.823,-448
140.848,-220
140.873,10
140.898,192
140.923,280
140.948,263
140.973,177
140.998,84
141.023,21
141.048,-28
141.073,-107
141.098,-219
141.123,-302
141.148,-280
141.173,-137
141.198,58
141.223,213
141.248,282
141.273,285
141.298,261
141.323,230
141.348,187
141.373,132
141.398,75
141.423,26
141.448,-20
141.473,-71
141.498,-123
141.523,-166
141.548,-208
141.573,-274
141.598,-376
141.623,-499
141.648,-615
141.673,-722
141.698,-851
141.723,-1019
141.748,-1187
141.773,-1265
141.798,-1185
141.823,-971
141.848,-725
141.873,-553
141.898,-479
141.923,-438
141.948,-336
141.973,-122
141.998,182
142.023,519
142.048,835
142.073,1103
142.098,1312
142.123,1454
142.148,1520
142.173,1510
142.198,1431
142.223,1294
142.248,1100
142.273,857
142.298,589
142.323,342
142.348,170
142.373,105
142.398,137
142.423,223
142.448,308
142.473,355
142.498,349
142.523,291
142.548,191
142.573,61
142.598,-81
142.623,-224
142.648,-362
142.673,-491
142.698,-598
142.723,-652
142.748,-608
142.773,-441
142.798,-174
142.823,124
142.848,367
142.873,495
142.898,500
142.923,428
142.948,344
142.973,307
142.998,344
143.023,443
143.048,557
143.073,632
143.098,639
143.123,591
143.148,521
143.173,444
143.198,347
143.223,210
143.248,51
143.273,-58
143.298,-51
143.323,80
143.348,268
143.373,420
143.398,491
143.423,506
143.448,506
143.473,495
143.498,439
143.523,325
143.548,199
143.573,145
143.598,210
143.623,362
143.648,519
143.673,619
143.698,658
143.723,668
143.748,671
143.773,660
143.798,626
143.823,576
143.848,530
143.873,500
143.898,475
143.923,443
143.948,399
143.973,345
143.998,280
144.023,198
144.048,104
144.073,13
144.098,-63
144.123,-143
144.148,-249
144.173,-377
144.198,-476
144.223,-484
144.248,-385
144.273,-228
144.298,-86
144.323,2
144.348,53
144.373,95
144.398,126
144.423,123
144.448,80
144.473,34
144.498,41
144.523,122
144.548,241
144.573,341
144.598,386
144.623,392
144.648,394
144.673,409
144.698,419
144.723,392
144.748,313
144.773,201
144.798,97
144.823,43
144.848,58
144.873,130
144.898,232
144.923,334
144.948,412
144.973,452
144.998,451
145.023,414
145.048,358
145.073,307
145.098,277
145.123,260
145.148,233
145.173,173
145.198,78
145.223,-27
145.248,-111
145.273,-145
145.298,-124
145.323,-59
145.348,29
145.373,124
145.398,220
145.423,326
145.448,457
145.473,616
145.498,777
145.523,897
145.548,942
145.573,910
145.598,833
145.623,748
145.648,675
145.673,614
145.698,555
145.723,495
145.748,437
145.773,380
145.798,316
145.823,242
145.848,160
145.873,79
145.898,0
145.923,-93
145.948,-212
145.973,-347
145.998,-461
146.023,-508
146.048,-468
146.073,-357
146.098,-227
146.123,-129
146.148,-90
146.173,-98
146.198,-123
146.223,-130
146.248,-101
146.273,-37
146.298,48
146.323,143
146.348,248
146.373,367
146.398,499
146.423,624
146.448,717
146.473,764
146.498,769
146.523,753
146.548,721
146.573,659
146.598,543
146.623,371
146.648,182
146.673,43
146.698,11
146.723,92
146.748,240
146.773,387
146.798,482
146.823,520
146.848,523
146.873,521
146.898,522
146.923,516
146.948,493
146.973,459
146.998,428
147.023,404
147.048,375
147.073,325
147.098,249
147.123,158
147.148,64
147.173,-36
147.198,-157
147.223,-296
147.248,-425
147.273,-514
147.298,-549
147.323,-539
147.348,-495
147.373,-408
147.398,-255
147.423,-33
147.448,226
147.473,470
147.498,662
147.523,792
147.548,869
147.573,892
147.598,859
147.623,781
147.648,694
147.673,636
147.698,616
147.723,612
147.748,591
147.773,540
147.798,472
147.823,410
147.848,364
147.873,331
147.898,296
147.923,242
147.948,150
147.973,20
147.998,-121
148.023,-220
148.048,-224
148.073,-125
148.098,30
148.123,178
148.148,274
148.173,318
148.198,330
148.223,325
148.248,298
148.273,245
148.298,179
148.323,125
148.348,92
148.373,62
148.398,11
148.423,-61
148.448,-131
148.473,-160
148.498,-139
148.523,-89
148.548,-44
148.573,-24
148.598,-30
148.623,-51
148.648,-82
148.673,-110
148.698,-106
148.723,-30
148.748,135
148.773,363
148.798,585
148.823,742
148.848,817
148.873,838
148.898,843
148.923,843
148.948,831
148.973,803
148.998,771
149.023,748
149.048,728
149.073,690
149.098,623
149.123,539
149.148,459
149.173,385
149.198,302
149.223,197
149.248,81
149.273,-26
149.298,-120
149.323,-227
149.348,-376
149.373,-553
149.398,-698
149.423,-743
149.448,-661
149.473,-483
149.498,-271
149.523,-69
149.548,111
149.573,274
149.598,413
149.623,514
149.648,568
149.673,594
149.698,627
149.723,690
149.748,769
149.773,826
149.798,827
149.823,776
149.848,704
149.873,639
149.898,579
149.923,504
149.948,402
149.973,289
149.998,193
150.023,117
150.048,36
150.073,-69
150.098,-181
150.123,-240
150.148,-195
150.173,-54
150.198,122
150.223,269
150.248,359
150.273,403
150.298,421
150.323,419
150.348,395
150.373,358
150.398,331
150.423,322
150.448,320
150.473,303
150.498,259
150.523,195
150.548,120
150.573,35
150.598,-49
150.623,-112
150.648,-121
150.673,-80
150.698,-33
150.723,-31
150.748,-77
150.773,-105
150.798,-36
150.823,143
150.848,362
150.873,523
150.898,582
150.923,573
150.948,560
150.973,572
150.998,587
151.023,571
151.048,524
151.073,474
151.098,441
151.123,421
151.148,394
151.173,348
151.198,287
151.223,210
151.248,111
151.273,-13
151.298,-147
151.323,-260
151.348,-337
151.373,-391
151.398,-441
151.423,-485
151.448,-489
151.473,-412
151.498,-240
151.523,-2
151.548,243
151.573,436
151.598,537
151.623,553
151.648,528
151.673,518
151.698,548
151.723,597
151.748,623
151.773,610
151.798,583
151.823,580
151.848,598
151.873,600
151.898,549
151.923,448
151.948,327
151.973,204
151.998,64
152.023,-96
152.048,-244
152.073,-318
152.098,-284
152.123,-176
152.148,-63
152.173,16
152.198,85
152.223,196
152.248,370
152.273,575
152.298,749
152.323,857
152.348,910
152.373,950
152.398,1014
152.423,1097
152.448,1163
152.473,1177
152.498,1144
152.523,1102
152.548,1074
152.573,1031
152.598,915
152.623,709
152.648,489
152.673,365
152.698,386
152.723,493
152.748,583
152.773,606
152.798,586
152.823,543
152.848,442
152.873,245
152.898,16
152.923,-74
152.948,100
152.973,475
152.998,796
153.023,815
153.048,486
153.073,-32
153.098,-536
153.123,-929
153.148,-1239
153.173,-1524
153.198,-1793
153.223,-2009
153.248,-2137
153.273,-2165
153.298,-2094
153.323,-1936
153.348,-1729
153.373,-1527
153.398,-1362
153.423,-1213
153.448,-1017
153.473,-721
153.498,-318
153.523,152
153.548,620
153.573,1010
153.598,1281
153.623,1458
153.648,1623
153.673,1825
153.698,1991
153.723,1949
153.748,1595
153.773,1051
153.798,621
153.823,549
153.848,797
153.873,1085
153.898,1152
153.923,983
153.948,770
153.973,680
153.998,694
154.023,677
154.048,549
154.073,368
154.098,232
154.123,160
154.148,93
154.173,0
154.198,-72
154.223,-40
154.248,109
154.273,310
154.298,485
154.323,609
154.348,692
154.373,738
154.398,732
154.423,672
154.448,593
154.473,535
154.498,500
154.523,461
154.548,402
154.573,338
154.598,289
154.623,239
154.648,138
154.673,-49
154.698,-301
154.723,-541
154.748,-683
154.773,-679
154.798,-530
154.823,-279
154.848,4
154.873,259
154.898,451
154.923,583
154.948,673
154.973,728
154.998,743
155.023,717
155.048,672
155.073,639
155.098,630
155.123,640
155.148,652
155.173,652
155.198,614
155.223,502
155.248,301
155.273,58
155.298,-134
155.323,-223
155.348,-258
155.373,-362
155.398,-606
155.423,-909
155.448,-1079
155.473,-970
155.498,-608
155.523,-168
155.548,173
155.573,360
155.598,455
155.623,542
155.648,637
155.673,699
155.698,685
155.723,607
155.748,515
155.773,448
155.798,409
155.823,377
155.848,330
155.873,272
155.898,215
155.923,160
155.948,94
155.973,0
155.998,-114
156.023,-216
156.048,-268
156.073,-262
156.098,-229
156.123,-201
156.148,-169
156.173,-84
156.198,97
156.223,350
156.248,588
156.273,731
156.298,766
156.323,747
156.348,730
156.373,725
156.398,703
156.423,649
156.448,572
156.473,495
156.498,418
156.523,331
156.548,234
156.573,144
156.598,67
156.623,-13
156.648,-111
156.673,-190
156.698,-180
156.723,-52
156.748,125
156.773,227
156.798,185
156.823,62
156.848,-5
156.873,64
156.898,226
156.923,367
156.948,419
156.973,415
156.998,430
157.023,489
157.048,543
157.073,531
157.098,444
157.123,329
157.148,234
157.173,164
157.198,91
157.223,-11
157.248,-143
157.273,-276
157.298,-377
157.323,-417
157.348,-391
157.373,-322
157.398,-256
157.423,-219
157.448,-196
157.473,-134
157.498,5
157.523,204
157.548,391
157.573,500
157.598,526
157.623,513
157.648,507
157.673,515
157.698,515
157.723,495
157.748,464
157.773,437
157.798,412
157.823,373
157.848,317
157.873,267
157.898,247
157.923,253
157.948,252
157.973,215
157.998,150
158.023,102
158.048,114
158.073,191
158.098,302
158.123,407
158.148,483
158.173,525
158.198,541
158.223,539
158.248,529
158.273,524
158.298,531
158.323,544
158.348,551
158.373,542
158.398,516
158.423,472
158.448,408
158.473,321
158.498,219
158.523,118
158.548,32
158.573,-41
158.598,-120
158.623,-201
158.648,-254
158.673,-240
158.698,-142
158.723,9
158.748,162
158.773,276
158.798,343
158.823,376
158.848,385
158.873,367
158.898,322
158.923,260
158.948,197
158.973,142
158.998,87
159.023,17
159.048,-72
159.073,-173
159.098,-268
159.123,-339
159.148,-375
159.173,-371
159.198,-329
159.223,-261
159.248,-185
159.273,-114
159.298,-45
159.323,30
159.348,124
159.373,234
159.398,348
159.423,455
159.448,544
159.473,614
159.498,664
159.523,693
159.548,694
159.573,666
159.598,616
159.623,559
159.648,506
159.673,456
159.698,389
159.723,286
159.748,150
159.773,11
159.798,-93
159.823,-149
159.848,-169
159.873,-183
159.898,-211
159.923,-247
159.948,-271
159.973,-255
159.998,-183
160.023,-49
160.048,133
160.073,333
160.098,507
160.123,627
160.148,692
160.173,726
160.198,756
160.223,786
160.248,808
160.273,810
160.298,791
160.323,758
160.348,718
160.373,670
160.398,616
160.423,560
160.448,501
160.473,432
160.498,348
160.523,256
160.548,171
160.573,100
160.598,32
160.623,-50
160.648,-144
160.673,-213
160.698,-208
160.723,-116
160.748,28
160.773,166
160.798,248
160.823,268
160.848,242
160.873,188
160.898,107
160.923,2
160.948,-110
160.973,-203
160.998,-250
161.023,-246
161.048,-202
161.073,-133
161.098,-57
161.123,8
161.148,47
161.173,56
161.198,48
161.223,43
161.248,46
161.273,42
161.298,17
161.323,-17
161.348,-23
161.373,34
161.398,157
161.423,307
161.448,442
161.473,544
161.498,619
161.523,679
161.548,715
161.573,715
161.598,683
161.623,643
161.648,619
161.673,610
161.698,596
161.723,559
161.748,501
161.773,436
161.798,373
161.823,306
161.848,228
161.873,138
161.898,40
161.923,-67
161.948,-187
161.973,-300
161.998,-369
162.023,-362
162.048,-282
162.073,-172
162.098,-74
162.123,2
162.148,79
162.173,176
162.198,283
162.223,370
162.248,422
162.273,454
162.298,492
162.323,537
162.348,569
162.373,569
162.398,540
162.423,499
162.448,451
162.473,390
162.498,308
162.523,215
162.548,125
162.573,35
162.598,-72
162.623,-201
162.648,-315
162.673,-352
162.698,-279
162.723,-126
162.748,38
162.773,160
162.798,239
162.823,305
162.848,376
162.873,435
162.898,455
162.923,433
162.948,394
162.973,365
162.998,350
163.023,335
163.048,309
163.073,278
163.098,251
163.123,226
163.148,192
163.173,146
163.198,98
163.223,56
163.248,16
163.273,-31
163.298,-80
163.323,-101
163.348,-65
163.373,29
163.398,152
163.423,260
163.448,331
163.473,372
163.498,398
163.523,414
163.548,418
163.573,407
163.598,390
163.623,379
163.648,378
163.673,380
163.698,373
163.723,354
163.748,320
163.773,274
163.798,218
163.823,157
163.848,100
163.873,48
163.898,-6
163.923,-62
163.948,-103
163.973,-97
163.998,-18
164.023,120
164.048,276
164.073,399
164.098,466
164.123,494
164.148,508
164.173,520
164.198,520
164.223,495
164.248,455
164.273,425
164.298,421
164.323,428
164.348,415
164.373,367
164.398,299
164.423,238
164.448,192
164.473,137
164.498,46
164.523,-79
164.548,-209
164.573,-311
164.598,-378
164.623,-425
164.648,-453
164.673,-440
164.698,-358
164.723,-210
164.748,-37
164.773,112
164.798,219
164.823,299
164.848,378
164.873,461
164.898,534
164.923,581
164.948,603
164.973,614
164.998,622
165.023,626
165.048,620
165.073,600
165.098,569
165.123,534
165.148,498
165.173,462
165.198,423
165.223,377
165.248,325
165.273,269
165.298,211
165.323,143
165.348,48
165.373,-81
165.398,-228
165.423,-349
165.448,-401
165.473,-373
165.498,-288
165.523,-181
165.548,-70
165.573,51
165.598,186
165.623,321
165.648,431
165.673,507
165.698,560
165.723,606
165.748,649
165.773,679
165.798,689
165.823,678
165.848,650
165.873,602
165.898,531
165.923,445
165.948,367
165.973,319
165.998,297
166.023,269
166.048,202
166.073,81
166.098,-83
166.123,-274
166.148,-460
166.173,-602
166.198,-652
166.223,-580
166.248,-405
166.273,-196
166.298,-24
166.323,81
166.348,150
166.373,226
166.398,325
166.423,430
166.448,518
166.473,587
166.498,647
166.523,697
166.548,720
166.573,699
166.598,644
166.623,583
166.648,529
166.673,464
166.698,366
166.723,231
166.748,82
166.773,-71
166.798,-247
166.823,-467
166.848,-707
166.873,-890
166.898,-934
166.923,-825
166.948,-624
166.973,-421
166.998,-261
167.023,-133
167.048,-5
167.073,131
167.098,266
167.123,390
167.148,514
167.173,641
167.198,759
167.223,839
167.248,869
167.273,862
167.298,834
167.323,800
167.348,775
167.373,793
167.398,884
167.423,1025
167.448,1124
167.473,1065
167.498,799
167.523,391
167.548,-20
167.573,-313
167.598,-441
167.623,-423
167.648,-301
167.673,-121
167.698,66
167.723,205
167.748,272
167.773,288
167.798,307
167.823,361
167.848,433
167.873,487
167.898,510
167.923,523
167.948,548
167.973,573
167.998,571
168.023,532
168.048,476
168.073,417
168.098,345
168.123,236
168.148,100
168.173,-5
168.198,-22
168.223,54
168.248,167
168.273,242
168.298,242
168.323,182
168.348,100
168.373,26
168.398,-18
168.423,-21
168.448,20
168.473,88
168.498,149
168.523,182
168.548,193
168.573,206
168.598,224
168.623,229
168.648,205
168.673,160
168.698,117
168.723,82
168.748,34
168.773,-40
168.798,-124
168.823,-171
168.848,-157
168.873,-105
168.898,-70
168.923,-78
168.948,-113
168.973,-140
168.998,-158
169.023,-191
169.048,-262
169.073,-351
169.098,-419
169.123,-447
169.148,-460
169.173,-495
169.198,-561
169.223,-637
169.248,-702
169.273,-771
169.298,-872
169.323,-1002
169.348,-1090
169.373,-1030
169.398,-752
169.423,-270
169.448,326
169.473,931
169.498,1476
169.523,1942
169.548,2333
169.573,2644
169.598,2862
169.623,2974
169.648,2972
169.673,2851
169.698,2600
169.723,2207
169.748,1694
169.773,1130
169.798,611
169.823,213
169.848,-42
169.873,-191
169.898,-284
169.923,-356
169.948,-420
169.973,-482
169.998,-552
170.023,-626
170.048,-674
170.073,-658
170.098,-563
170.123,-415
170.148,-269
170.173,-163
170.198,-101
170.223,-63
170.248,-31
170.273,-8
170.298,-1
170.323,-11
170.348,-24
170.373,-31
170.398,-36
170.423,-46
170.448,-64
170.473,-78
170.498,-77
170.523,-60
170.548,-42
170.573,-44
170.598,-82
170.623,-150
170.648,-217
170.673,-242
170.698,-198
170.723,-96
170.748,18
170.773,104
170.798,161
170.823,228
170.848,340
170.873,491
170.898,635
170.923,738
170.948,808
170.973,884
170.998,975
171.023,1041
171.048,1023
171.073,899
171.098,708
171.123,508
171.148,327
171.173,152
171.198,-33
171.223,-213
171.248,-339
171.273,-366
171.298,-286
171.323,-135
171.348,31
171.373,163
171.398,231
171.423,239
171.448,217
171.473,198
171.498,205
171.523,232
171.548,268
171.573,309
171.598,358
171.623,402
171.648,414
171.673,365
171.698,259
171.723,129
171.748,7
171.773,-104
171.798,-223
171.823,-343
171.848,-419
171.873,-397
171.898,-271
171.923,-95
171.948,59
171.973,157
171.998,212
172.023,258
172.048,303
172.073,333
172.098,338
172.123,325
172.148,319
172.173,330
172.198,350
172.223,362
172.248,359
172.273,346
172.298,334
172.323,327
172.348,324
172.373,312
172.398,283
172.423,242
172.448,209
172.473,212
172.498,263
172.523,339
172.548,399
172.573,413
172.598,391
172.623,370
172.648,379
172.673,416
172.698,450
172.723,453
172.748,421
172.773,373
172.798,329
172.823,296
172.848,266
172.873,225
172.898,169
172.923,105
172.948,46
172.973,-3
172.998,-51
173.023,-108
173.048,-174
173.073,-223
173.098,-222
173.123,-148
173.148,-17
173.173,128
173.198,247
173.223,323
173.248,363
173.273,384
173.298,398
173.323,404
173.348,401
173.373,388
173.398,368
173.423,338
173.448,297
173.473,243
173.498,178
173.523,112
173.548,53
173.573,3
173.598,-46
173.623,-108
173.648,-190
173.673,-271
173.698,-312
173.723,-277
173.748,-162
173.773,-5
173.798,142
173.823,246
173.848,308
173.873,344
173.898,369
173.923,387
173.948,397
173.973,406
173.998,418
174.023,432
174.048,441
174.073,441
174.098,434
174.123,422
174.148,406
174.173,383
174.198,351
174.223,310
174.248,253
174.273,175
174.298,87
174.323,24
174.348,34
174.373,134
174.398,287
174.423,423
174.448,485
174.473,467
174.498,416
174.523,380
174.548,380
174.573,403
174.598,421
174.623,415
174.648,379
174.673,318
174.698,250
174.723,192
174.748,151
174.773,118
174.798,79
174.823,31
174.848,-16
174.873,-56
174.898,-97
174.923,-158
174.948,-238
174.973,-302
174.998,-300
175.023,-210
175.048,-60
175.073,88
175.098,192
175.123,246
175.148,279
175.173,312
175.198,344
175.223,362
175.248,365
175.273,368
175.298,384
175.323,415
175.348,441
175.373,441
175.398,409
175.423,358
175.448,304
175.473,252
175.498,193
175.523,120
175.548,38
175.573,-24
175.598,-39
175.623,10
175.648,111
175.673,231
175.698,333
175.723,396
175.748,421
175.773,420
175.798,408
175.823,388
175.848,359
175.873,321
175.898,281
175.923,252
175.948,237
175.973,223
175.998,191
176.023,136
176.048,71
176.073,14
176.098,-33
176.123,-87
176.148,-159
176.173,-229
176.198,-251
176.223,-191
176.248,-60
176.273,86
176.298,192
176.323,238
176.348,247
176.373,254
176.398,273
176.423,297
176.448,309
176.473,310
176.498,308
176.523,314
176.548,327
176.573,336
176.598,331
176.623,310
176.648,284
176.673,264
176.698,252
176.723,241
176.748,214
176.773,164
176.798,98
176.823,34
176.848,-10
176.873,-22
176.898,7
176.923,77
176.948,170
176.973,253
176.998,302
177.023,324
177.048,353
177.073,406
177.098,462
177.123,479
177.148,453
177.173,446
177.198,527
177.223,690
177.248,831
177.273,830
177.298,660
177.323,411
177.348,209
177.373,101
177.398,42
177.423,-32
177.448,-127
177.473,-200
177.498,-222
177.523,-224
177.548,-254
177.573,-312
177.598,-340
177.623,-282
177.648,-144
177.673,11
177.698,122
177.723,176
177.748,202
177.773,230
177.798,271
177.823,315
177.848,356
177.873,397
177.898,443
177.923,494
177.948,549
177.973,599
177.998,635
178.023,645
178.048,629
178.073,596
178.098,552
178.123,486
178.148,379
178.173,233
178.198,84
178.223,-24
178.248,-80
178.273,-114
178.298,-167
178.323,-242
178.348,-296
178.373,-284
178.398,-198
178.423,-80
178.448,20
178.473,83
178.498,120
178.523,157
178.548,202
178.573,254
178.598,307
178.623,358
178.648,400
178.673,427
178.698,431
178.723,416
178.748,394
178.773,376
178.798,361
178.823,341
178.848,312
178.873,275
178.898,237
178.923,203
178.948,171
178.973,132
178.998,84
179.023,37
179.048,7
179.073,10
179.098,46
179.123,103
179.148,160
179.173,204
179.198,238
179.223,265
179.248,286
179.273,297
179.298,293
179.323,280
179.348,266
179.373,258
179.398,251
179.423,237
179.448,216
179.473,198
179.498,191
179.523,192
179.548,188
179.573,165
179.598,122
179.623,71
179.648,22
179.673,-26
179.698,-81
179.723,-138
179.748,-173
179.773,-155
179.798,-77
179.823,41
179.848,163
179.873,262
179.898,340
179.923,407
179.948,470
179.973,517
179.998,541
180.023,548
180.048,553
180.073,567
180.098,582
180.123,582
180.148,560
180.173,525
180.198,485
180.223,438
180.248,376
180.273,298
180.298,215
180.323,139
180.348,75
180.373,17
180.398,-37
180.423,-84
180.448,-123
180.473,-158
180.498,-192
180.523,-212
180.548,-195
180.573,-126
180.598,-21
180.623,82
180.648,156
180.673,202
180.698,240
180.723,285
180.748,327
180.773,350
180.798,354
180.823,357
180.848,377
180.873,406
180.898,427
180.923,427
180.948,411
180.973,390
180.998,370
181.023,346
181.048,316
181.073,285
181.098,257
181.123,229
181.148,191
181.173,143
181.198,94
181.223,53
181.248,15
181.273,-31
181.298,-86
181.323,-124
181.348,-111
181.373,-39
181.398,65
181.423,164
181.448,229
181.473,264
181.498,285
181.523,302
181.548,311
181.573,310
181.598,303
181.623,303
181.648,316
181.673,335
181.698,347
181.723,345
181.748,332
181.773,311
181.798,284
181.823,249
181.848,207
181.873,161
181.898,117
181.923,74
181.948,31
181.973,-13
181.998,-50
182.023,-63
182.048,-36
182.073,29
182.098,117
182.123,204
182.148,271
182.173,316
182.198,346
182.223,367
182.248,378
182.273,376
182.298,366
182.323,355
182.348,350
182.373,349
182.398,343
182.423,327
182.448,301
182.473,266
182.498,221
182.523,168
182.548,113
182.573,67
182.598,30
182.623,-6
182.648,-52
182.673,-96
182.698,-108
182.723,-62
182.748,37
182.773,155
182.798,246
182.823,297
182.848,323
182.873,348
182.898,379
182.923,401
182.948,405
182.973,396
182.998,389
183.023,393
183.048,401
183.073,398
183.098,380
183.123,355
183.148,327
183.173,296
183.198,258
183.223,214
183.248,166
183.273,117
183.298,68
183.323,23
183.348,-12
183.373,-41
183.398,-74
183.423,-121
183.448,-173
183.473,-199
183.498,-167
183.523,-73
183.548,54
183.573,170
183.598,251
183.623,303
183.648,346
183.673,387
183.698,415
183.723,423
183.748,420
183.773,424
183.798,443
183.823,465
183.848,474
183.873,464
183.898,442
183.923,418
183.948,389
183.973,352
183.998,307
184.023,263
184.048,227
184.073,193
184.098,153
184.123,104
184.148,56
184.173,16
184.198,-21
184.223,-71
184.248,-129
184.273,-164
184.298,-143
184.323,-58
184.348,59
184.373,165
184.398,233
184.423,266
184.448,284
184.473,293
184.498,292
184.523,282
184.548,272
184.573,271
184.598,272
184.623,252
184.648,201
184.673,129
184.698,58
184.723,-1
184.748,-58
184.773,-122
184.798,-186
184.823,-236
184.848,-266
184.873,-291
184.898,-331
184.923,-377
184.948,-392
184.973,-327
184.998,-161
185.023,92
185.048,394
185.073,701
185.098,976
185.123,1202
185.148,1377
185.173,1512
185.198,1611
185.223,1659
185.248,1631
185.273,1518
185.298,1344
185.323,1152
185.348,966
185.373,772
185.398,540
185.423,267
185.448,-8
185.473,-231
185.498,-373
185.523,-445
185.548,-482
185.573,-507
185.598,-531
185.623,-558
185.648,-590
185.673,-617
185.698,-611
185.723,-545
185.748,-425
185.773,-292
185.798,-190
185.823,-134
185.848,-100
185.873,-57
185.898,-1
185.923,49
185.948,77
185.973,89
185.998,106
186.023,141
186.048,184
186.073,222
186.098,248
186.123,268
186.148,289
186.173,308
186.198,312
186.223,289
186.248,238
186.273,172
186.298,113
186.323,76
186.348,60
186.373,47
186.398,18
186.423,-25
186.448,-60
186.473,-51
186.498,19
186.523,137
186.548,270
186.573,392
186.598,501
186.623,602
186.648,700
186.673,785
186.698,847
186.723,878
186.748,878
186.773,850
186.798,792
186.823,710
186.848,619
186.873,537
186.898,473
186.923,423
186.948,375
186.973,323
186.998,274
187.023,239
187.048,224
187.073,224
187.098,224
187.123,204
187.148,146
187.173,49
187.198,-71
187.223,-176
187.248,-229
187.273,-212
187.298,-138
187.323,-34
187.348,80
187.373,199
187.398,315
187.423,412
187.448,464
187.473,463
187.498,425
187.523,383
187.548,354
187.573,332
187.598,297
187.623,239
187.648,161
187.673,70
187.698,-30
187.723,-140
187.748,-251
187.773,-350
187.798,-429
187.823,-495
187.848,-552
187.873,-584
187.898,-560
187.923,-455
187.948,-279
187.973,-73
187.998,115
188.023,261
188.048,366
188.073,441
188.098,492
188.123,525
188.148,546
188.173,562
188.198,575
188.223,581
188.248,580
188.273,574
188.298,563
188.323,539
188.348,489
188.373,410
188.398,317
188.423,227
188.448,141
188.473,50
188.498,-43
188.523,-116
188.548,-137
188.573,-95
188.598,-15
188.623,68
188.648,136
188.673,198
188.698,266
188.723,336
188.748,389
188.773,417
188.798,430
188.823,450
188.848,480
188.873,509
188.898,515
188.923,493
188.948,451
188.973,398
188.998,338
189.023,272
189.048,202
189.073,134
189.098,67
189.123,-1
189.148,-71
189.173,-125
189.198,-137
189.223,-87
189.248,20
189.273,156
189.298,280
189.323,361
189.348,395
189.373,395
189.398,382
189.423,371
189.448,363
189.473,356
189.498,352
189.523,360
189.548,389
189.573,433
189.598,470
189.623,477
189.648,445
189.673,383
189.698,314
189.723,250
189.748,189
189.773,125
189.798,55
189.823,-13
189.848,-76
189.873,-139
189.898,-212
189.923,-293
189.948,-361
189.973,-381
189.998,-330
190.023,-217
190.048,-77
190.073,52
190.098,157
190.123,247
190.148,332
190.173,411
190.198,464
190.223,485
190.248,482
190.273,480
190.298,491
190.323,504
190.348,502
190.373,475
190.398,433
190.423,387
190.448,337
190.473,274
190.498,197
190.523,121
190.548,55
190.573,-2
190.598,-70
190.623,-152
190.648,-222
190.673,-239
190.698,-181
190.723,-66
190.748,57
190.773,154
190.798,216
190.823,259
190.848,296
190.873,326
190.898,342
190.923,342
190.948,334
190.973,328
190.998,323
191.023,317
191.048,309
191.073,300
191.098,292
191.123,281
191.148,261
191.173,232
191.198,198
191.223,165
191.248,140
191.273,121
191.298,102
191.323,72
191.348,28
191.373,-19
191.398,-48
191.423,-39
191.448,13
191.473,91
191.498,165
191.523,218
191.548,255
191.573,292
191.598,335
191.623,379
191.648,407
191.673,414
191.698,410
191.723,409
191.748,415
191.773,422
191.798,415
191.823,395
191.848,370
191.873,353
191.898,341
191.923,320
191.948,280
191.973,223
191.998,168
192.023,133
192.048,117
192.073,109
192.098,105
192.123,120
192.148,178
192.173,288
192.198,425
192.223,548
192.248,621
192.273,633
192.298,600
192.323,543
192.348,475
192.373,404
192.398,333
192.423,267
192.448,207
192.473,149
192.498,85
192.523,17
192.548,-48
192.573,-103
192.598,-144
192.623,-175
192.648,-202
192.673,-230
192.698,-263
192.723,-302
192.748,-353
192.773,-426
192.798,-523
192.823,-621
192.848,-667
192.873,-609
192.898,-431
192.923,-175
192.948,77
192.973,267
192.998,384
193.023,460
193.048,522
193.073,571
193.098,591
193.123,583
193.148,569
193.173,569
193.198,575
193.223,567
193.248,534
193.273,493
193.298,463
193.323,443
193.348,413
193.373,361
193.398,294
193.423,230
193.448,175
193.473,120
193.498,67
193.523,33
193.548,42
193.573,95
193.598,167
193.623,231
193.648,280
193.673,327
193.698,378
193.723,426
193.748,457
193.773,469
193.798,471
193.823,475
193.848,488
193.873,518
193.898,574
193.923,660
193.948,755
193.973,822
193.998,825
194.023,759
194.048,644
194.073,511
194.098,373
194.123,230
194.148,72
194.173,-105
194.198,-289
194.223,-450
194.248,-548
194.273,-556
194.298,-483
194.323,-372
194.348,-274
194.373,-208
194.398,-163
194.423,-123
194.448,-83
194.473,-49
194.498,-18
194.523,22
194.548,72
194.573,107
194.598,103
194.623,72
194.648,54
194.673,72
194.698,101
194.723,93
194.748,34
194.773,-34
194.798,-61
194.823,-42
194.848,-14
194.873,1
194.898,29
194.923,113
194.948,244
194.973,371
194.998,467
195.023,585
195.048,805
195.073,1122
195.098,1399
195.123,1458
195.148,1238
195.173,859
195.198,523
195.223,355
195.248,330
195.273,339
195.298,311
195.323,254
195.348,207
195.373,178
195.398,138
195.423,62
195.448,-40
195.473,-141
195.498,-225
195.523,-297
195.548,-363
195.573,-409
195.598,-411
195.623,-358
195.648,-266
195.673,-163
195.698,-72
195.723,4
195.748,70
195.773,128
195.798,174
195.823,205
195.848,225
195.873,245
195.898,275
195.923,316
195.948,357
195.973,386
195.998,400
196.023,409
196.048,424
196.073,441
196.098,445
196.123,430
196.148,408
196.173,395
196.198,391
196.223,374
196.248,330
196.273,277
196.298,252
196.323,274
196.348,311
196.373,309
196.398,249
196.423,171
196.448,142
196.473,186
196.498,263
196.523,307
196.548,292
196.573,246
196.598,219
196.623,224
196.648,232
196.673,206
196.698,139
196.723,61
196.748,2
196.773,-26
196.798,-37
196.823,-48
196.848,-64
196.873,-79
196.898,-86
196.923,-84
196.948,-79
196.973,-79
196.998,-97
197.023,-133
197.048,-172
197.073,-191
197.098,-169
197.123,-101
197.148,1
197.173,124
197.198,253
197.223,378
197.248,490
197.273,583
197.298,656
197.323,714
197.348,764
197.373,799
197.398,808
197.423,785
197.448,734
197.473,669
197.498,609
197.523,564
197.548,534
197.573,513
197.598,488
197.623,449
197.648,398
197.673,342
197.698,287
197.723,228
197.748,154
197.773,61
197.798,-37
197.823,-121
197.848,-184
197.873,-236
197.898,-289
197.923,-334
197.948,-347
197.973,-310
197.998,-236
198.023,-158
198.048,-103
198.073,-79
198.098,-77
198.123,-86
198.148,-104
198.173,-122
198.198,-121
198.223,-87
198.248,-20
198.273,59
198.298,135
198.323,206
198.348,282
198.373,369
198.398,456
198.423,527
198.448,569
198.473,581
198.498,574
198.523,562
198.548,555
198.573,556
198.598,544
198.623,490
198.648,373
198.673,214
198.698,68
198.723,-5
198.748,14
198.773,99
198.798,196
198.823,267
198.848,306
198.873,324
198.898,330
198.923,322
198.948,294
198.973,241
198.998,172
199.023,102
199.048,48
199.073,24
199.098,24
199.123,33
199.148,35
199.173,27
199.198,23
199.223,38
199.248,70
199.273,109
199.298,150
199.323,188
199.348,218
199.373,226
199.398,204
199.423,172
199.448,176
199.473,243
199.498,349
199.523,426
199.548,417
199.573,331
199.598,230
199.623,182
199.648,198
199.673,246
199.698,283
199.723,302
199.748,317
199.773,340
199.798,358
199.823,354
199.848,326
199.873,290
199.898,265
199.923,259
199.948,267
199.973,280
199.998,283
200.023,262
200.048,214
200.073,153
200.098,104
200.123,78
200.148,63
200.173,35
200.198,-7
200.223,-32
200.248,1
200.273,93
200.298,201
200.323,274
200.348,302
200.373,316
200.398,345
200.423,383
200.448,400
200.473,389
200.498,383
200.523,415
200.548,474
200.573,504
200.598,462
200.623,365
200.648,278
200.673,246
200.698,255
200.723,256
200.748,227
200.773,190
200.798,173
200.823,155
200.848,74
200.873,-101
200.898,-327
200.923,-498
200.948,-533
200.973,-434
200.998,-277
201.023,-139
201.048,-47
201.073,18
201.098,78
201.123,123
201.148,134
201.173,113
201.198,95
201.223,121
201.248,204
201.273,316
201.298,409
201.323,453
201.348,451
201.373,428
201.398,410
201.423,398
201.448,378
201.473,329
201.498,246
201.523,139
201.548,29
201.573,-57
201.598,-102
201.623,-93
201.648,-28
201.673,75
201.698,193
201.723,302
201.748,394
201.773,478
201.798,561
201.823,634
201.848,680
201.873,687
201.898,664
201.923,638
201.948,629
201.973,631
201.998,611
202.023,534
202.048,393
202.073,221
202.098,70
202.123,-25
202.148,-71
202.173,-107
202.198,-162
202.223,-228
202.248,-261
202.273,-228
202.298,-141
202.323,-49
202.348,6
202.373,23
202.398,37
202.423,77
202.448,139
202.473,192
202.498,217
202.523,219
202.548,218
202.573,229
202.598,252
202.623,288
202.648,343
202.673,417
202.698,487
202.723,529
202.748,537
202.773,528
202.798,519
202.823,494
202.848,414
202.873,265
202.898,94
202.923,-22
202.948,-35
202.973,33
202.998,120
203.023,174
203.048,191
203.073,197
203.098,206
203.123,208
203.148,191
203.173,160
203.198,132
203.223,113
203.248,98
203.273,86
203.298,89
203.323,118
203.348,161
203.373,189
203.398,181
203.423,144
203.448,101
203.473,63
203.498,23
203.523,-24
203.548,-62
203.573,-57
203.598,4
203.623,96
203.648,176
203.673,220
203.698,241
203.723,259
203.748,281
203.773,297
203.798,299
203.823,297
203.848,308
203.873,329
203.898,345
203.923,347
203.948,341
203.973,342
203.998,348
204.023,345
204.048,321
204.073,286
204.098,257
204.123,235
204.148,202
204.173,146
204.198,83
204.223,53
204.248,81
204.273,151
204.298,221
204.323,255
204.348,253
204.373,237
204.398,226
204.423,223
204.448,222
204.473,221
204.498,224
204.523,231
204.548,239
204.573,245
204.598,254
204.623,267
204.648,277
204.673,268
204.698,234
204.723,183
204.748,137
204.773,108
204.798,93
204.823,80
204.848,62
204.873,39
204.898,10
204.923,-29
204.948,-82
204.973,-130
204.998,-146
205.023,-107
205.048,-20
205.073,84
205.098,172
205.123,232
205.148,276
205.173,320
205.198,369
205.223,413
205.248,438
205.273,444
205.298,442
205.323,450
205.348,476
205.373,515
205.398,547
205.423,551
205.448,516
205.473,451
205.498,374
205.523,305
205.548,252
205.573,208
205.598,163
205.623,116
205.648,72
205.673,35
205.698,1
205.723,-38
205.748,-83
205.773,-118
205.798,-122
205.823,-81
205.848,-6
205.873,79
205.898,155
205.923,212
205.948,256
205.973,292
205.998,318
206.023,335
206.048,348
206.073,363
206.098,380
206.123,384
206.148,358
206.173,301
206.198,231
206.223,176
206.248,149
206.273,140
206.298,131
206.323,108
206.348,73
206.373,41
206.398,18
206.423,1
206.448,-18
206.473,-39
206.498,-51
206.523,-39
206.548,0
206.573,56
206.598,110
206.623,154
206.648,198
206.673,256
206.698,336
206.723,427
206.748,509
206.773,567
206.798,603
206.823,623
206.848,623
206.873,593
206.898,526
206.923,436
206.948,352
206.973,294
206.998,258
207.023,221
207.048,165
207.073,90
207.098,5
207.123,-83
207.148,-177
207.173,-267
207.198,-329
207.223,-332
207.248,-272
207.273,-178
207.298,-91
207.323,-28
207.348,23
207.373,92
207.398,183
207.423,279
207.448,364
207.473,437
207.498,514
207.523,598
207.548,666
207.573,689
207.598,659
207.623,601
207.648,544
207.673,498
207.698,441
207.723,349
207.748,224
207.773,98
207.798,10
207.823,-34
207.848,-62
207.873,-109
207.898,-190
207.923,-281
207.948,-344
207.973,-350
207.998,-303
208.023,-233
208.048,-165
208.073,-100
208.098,-21
208.123,86
208.148,212
208.173,320
208.198,379
208.223,393
208.248,401
208.273,446
208.298,535
208.323,636
208.348,705
208.373,727
208.398,716
208.423,694
208.448,665
208.473,616
208.498,547
208.523,481
208.548,449
208.573,446
208.598,427
208.623,341
208.648,183
208.673,4
208.698,-120
208.723,-152
208.748,-109
208.773,-41
208.798,7
208.823,31
208.848,43
208.873,63
208.898,93
208.923,125
208.948,149
208.973,158
208.998,149
209.023,125
209.048,97
209.073,80
209.098,87
209.123,118
209.148,163
209.173,201
209.198,213
209.223,194
209.248,154
209.273,111
209.298,80
209.323,60
209.348,39
209.373,5
209.398,-38
209.423,-72
209.448,-71
209.473,-26
209.498,55
209.523,153
209.548,251
209.573,334
209.598,396
209.623,434
209.648,453
209.673,462
209.698,468
209.723,467
209.748,444
209.773,385
209.798,293
209.823,190
209.848,104
209.873,48
209.898,16
209.923,-10
209.948,-46
209.973,-90
209.998,-130
210.023,-155
210.048,-172
210.073,-196
210.098,-236
210.123,-277
210.148,-284
210.173,-218
210.198,-59
210.223,179
210.248,461
210.273,737
210.298,964
210.323,1113
210.348,1168
210.373,1138
210.398,1049
210.423,938
210.448,836
210.473,765
210.498,735
210.523,759
210.548,839
210.573,963
210.598,1081
210.623,1130
210.648,1061
210.673,878
210.698,635
210.723,400
210.748,214
210.773,70
210.798,-60
210.823,-197
210.848,-328
210.873,-436
210.898,-518
210.923,-594
210.948,-684
210.973,-790
210.998,-893
211.023,-969
211.048,-1003
211.073,-985
211.098,-912
211.123,-790
211.148,-640
211.173,-491
211.198,-361
211.223,-257
211.248,-178
211.273,-130
211.298,-118
211.323,-126
211.348,-109
211.373,-38
211.398,69
211.423,160
211.448,212
211.473,289
211.498,499
211.523,883
211.548,1335
211.573,1657
211.598,1709
211.623,1527
211.648,1276
211.673,1107
211.698,1043
211.723,1000
211.748,900
211.773,753
211.798,624
211.823,553
211.848,511
211.873,442
211.898,326
211.923,193
211.948,79
211.973,-15
211.998,-123
212.023,-266
212.048,-436
212.073,-602
212.098,-734
212.123,-811
212.148,-816
212.173,-747
212.198,-631
212.223,-530
212.248,-496
212.273,-535
212.298,-589
212.323,-584
212.348,-487
212.373,-325
212.398,-149
212.423,4
212.448,142
212.473,283
212.498,433
212.523,583
212.548,723
212.573,855
212.598,974
212.623,1056
212.648,1068
212.673,1003
212.698,898
212.723,811
212.748,780
212.773,798
212.798,826
212.823,831
212.848,810
212.873,776
212.898,741
212.923,703
212.948,661
212.973,619
212.998,574
213.023,514
213.048,420
213.073,296
213.098,171
213.123,80
213.148,26
213.173,-22
213.198,-104
213.223,-226
213.248,-349
213.273,-422
213.298,-424
213.323,-371
213.348,-297
213.373,-222
213.398,-147
213.423,-66
213.448,20
213.473,98
213.498,150
213.523,170
213.548,160
213.573,134
213.598,104
213.623,77
213.648,52
213.673,25
213.698,5
213.723,8
213.748,44
213.773,98
213.798,144
213.823,169
213.848,190
213.873,242
213.898,334
213.923,431
213.948,477
213.973,454
213.998,396
214.023,361
214.048,376
214.073,413
214.098,427
214.123,405
214.148,372
214.173,355
214.198,355
214.223,346
214.248,309
214.273,253
214.298,202
214.323,167
214.348,139
214.373,109
214.398,78
214.423,51
214.448,23
214.473,-20
214.498,-80
214.523,-132
214.548,-146
214.573,-116
214.598,-57
214.623,6
214.648,70
214.673,139
214.698,205
214.723,246
214.748,240
214.773,190
214.798,125
214.823,70
214.848,29
214.873,-12
214.898,-62
214.923,-119
214.948,-171
214.973,-211
214.998,-225
215.023,-194
215.048,-99
215.073,50
215.098,217
215.123,349
215.148,416
215.173,418
215.198,378
215.223,324
215.248,281
215.273,274
215.298,318
215.323,402
215.348,488
215.373,531
215.398,521
215.423,482
215.448,454
215.473,448
215.498,450
215.523,442
215.548,427
215.573,423
215.598,437
215.623,455
215.648,458
215.673,441
215.698,416
215.723,394
215.748,370
215.773,335
215.798,291
215.823,250
215.848,219
215.873,184
215.898,131
215.923,61
215.948,5
215.973,-1
215.998,44
216.023,118
216.048,179
216.073,210
216.098,216
216.123,215
216.148,212
216.173,197
216.198,168
216.223,134
216.248,114
216.273,117
216.298,134
216.323,145
216.348,136
216.373,112
216.398,87
216.423,66
216.448,43
216.473,7
216.498,-41
216.523,-92
216.548,-135
216.573,-174
216.598,-219
216.623,-273
216.648,-314
216.673,-312
216.698,-251
216.723,-152
216.748,-52
216.773,18
216.798,63
216.823,103
216.848,150
216.873,200
216.898,244
216.923,293
216.948,370
216.973,483
216.998,603
217.023,684
217.048,706
217.073,698
217.098,708
217.123,748
217.148,772
217.173,711
217.198,544
217.223,328
217.248,154
217.273,75
217.298,67
217.323,67
217.348,36
217.373,-4
217.398,-8
217.423,45
217.448,135
217.473,216
217.498,266
217.523,294
217.548,321
217.573,354
217.598,389
217.623,418
217.648,441
217.673,463
217.698,481
217.723,484
217.748,465
217.773,426
217.798,375
217.823,321
217.848,265
217.873,211
217.898,158
217.923,110
217.948,70
217.973,38
217.998,13
218.023,-13
218.048,-45
218.073,-72
218.098,-67
218.123,-7
218.148,98
218.173,209
218.198,270
218.223,259
218.248,201
218.273,139
218.298,89
218.323,33
218.348,-48
218.373,-138
218.398,-181
218.423,-134
218.448,-10
218.473,132
218.498,237
218.523,281
218.548,270
218.573,216
218.598,124
218.623,10
218.648,-84
218.673,-120
218.698,-89
218.723,-34
218.748,-3
218.773,-12
218.798,-27
218.823,-2
218.848,80
218.873,197
218.898,307
218.923,382
218.948,422
218.973,440
218.998,454
219.023,479
219.048,527
219.073,596
219.098,670
219.123,725
219.148,749
219.173,748
219.198,738
219.223,723
219.248,694
219.273,646
219.298,587
219.323,529
219.348,461
219.373,353
219.398,187
219.423,-13
219.448,-190
219.473,-290
219.498,-311
219.523,-291
219.548,-265
219.573,-238
219.598,-199
219.623,-158
219.648,-147
219.673,-186
219.698,-248
219.723,-282
219.748,-254
219.773,-183
219.798,-115
219.823,-72
219.848,-43
219.873,-13
219.898,-1
219.923,-38
219.948,-114
219.973,-157
219.998,-78
220.023,146
220.048,445
220.073,692
220.098,797
220.123,762
220.148,657
220.173,565
220.198,523
220.223,521
220.248,523
220.273,500
220.298,452
220.323,403
220.348,378
220.373,379
220.398,390
220.423,395
220.448,402
220.473,435
220.498,499
220.523,576
220.548,636
220.573,679
220.598,727
220.623,790
220.648,832
220.673,799
220.698,670
220.723,492
220.748,336
220.773,235
220.798,158
220.823,59
220.848,-58
220.873,-148
220.898,-166
220.923,-120
220.948,-53
220.973,0
220.998,37
221.023,63
221.048,65
221.073,23
221.098,-55
221.123,-132
221.148,-169
221.173,-169
221.198,-164
221.223,-178
221.248,-200
221.273,-208
221.298,-203
221.323,-210
221.348,-239
221.373,-263
221.398,-248
221.423,-198
221.448,-159
221.473,-168
221.498,-208
221.523,-222
221.548,-172
221.573,-81
221.598,2
221.623,54
221.648,101
221.673,176
221.698,271
221.723,338
221.748,342
221.773,303
221.798,273
221.823,288
221.848,331
221.873,359
221.898,349
221.923,309
221.948,268
221.973,245
221.998,248
222.023,283
222.048,353
222.073,441
222.098,510
222.123,529
222.148,504
222.173,482
222.198,510
222.223,595
222.248,693
222.273,754
222.298,763
222.323,746
222.348,734
222.373,730
222.398,716
222.423,682
222.448,640
222.473,606
222.498,576
222.523,520
222.548,418
222.573,281
222.598,147
222.623,43
222.648,-28
222.673,-89
222.698,-152
222.723,-219
222.748,-292
222.773,-379
222.798,-482
222.823,-578
222.848,-615
222.873,-559
222.898,-430
222.923,-286
222.948,-181
222.973,-117
222.998,-56
223.023,38
223.048,158
223.073,266
223.098,333
223.123,367
223.148,392
223.173,421
223.198,444
223.223,444
223.248,418
223.273,384
223.298,356
223.323,337
223.348,317
223.373,284
223.398,236
223.423,178
223.448,121
223.473,72
223.498,32
223.523,-11
223.548,-68
223.573,-125
223.598,-145
223.623,-94
223.648,32
223.673,193
223.698,339
223.723,446
223.748,529
223.773,607
223.798,680
223.823,726
223.848,736
223.873,725
223.898,717
223.923,715
223.948,702
223.973,667
223.998,616
224.023,552
224.048,457
224.073,302
224.098,90
224.123,-119
224.148,-251
224.173,-274
224.198,-229
224.223,-188
224.248,-188
224.273,-214
224.298,-234
224.323,-248
224.348,-281
224.373,-335
224.398,-368
224.423,-333
224.448,-224
224.473,-88
224.498,15
224.523,66
224.548,76
224.573,64
224.598,28
224.623,-31
224.648,-80
224.673,-55
224.698,82
224.723,312
224.748,552
224.773,726
224.798,801
224.823,799
224.848,751
224.873,675
224.898,576
224.923,470
224.948,391
224.973,367
224.998,390
225.023,416
225.048,397
225.073,323
225.098,226
225.123,153
225.148,124
225.173,127
225.198,137
225.223,140
225.248,142
225.273,148
225.298,145
225.323,114
225.348,53
225.373,-18
225.398,-72
225.423,-97
225.448,-102
225.473,-100
225.498,-94
225.523,-81
225.548,-65
225.573,-56
225.598,-61
225.623,-72
225.648,-79
225.673,-87
225.698,-110
225.723,-145
225.748,-164
225.773,-129
225.798,-38
225.823,65
225.848,139
225.873,182
225.898,240
225.923,357
225.948,519
225.973,658
225.998,717
226.023,697
226.048,646
226.073,610
226.098,591
226.123,558
226.148,486
226.173,380
226.198,262
226.223,151
226.248,58
226.273,-14
226.298,-63
226.323,-98
226.348,-133
226.373,-172
226.398,-191
226.423,-154
226.448,-44
226.473,112
226.498,263
226.523,369
226.548,425
226.573,447
226.598,446
226.623,422
226.648,379
226.673,342
226.698,338
226.723,370
226.748,411
226.773,424
226.798,396
226.823,345
226.848,295
226.873,255
226.898,214
226.923,163
226.948,106
226.973,55
226.998,10
227.023,-42
227.048,-121
227.073,-222
227.098,-310
227.123,-333
227.148,-252
227.173,-82
227.198,120
227.223,283
227.248,370
227.273,390
227.298,384
227.323,379
227.348,377
227.373,365
227.398,345
227.423,333
227.448,342
227.473,362
227.498,372
227.523,359
227.548,333
227.573,308
227.598,285
227.623,254
227.648,209
227.673,160
227.698,118
227.723,80
227.748,33
227.773,-22
227.798,-56
227.823,-30
227.848,65
227.873,197
227.898,311
227.923,377
227.948,402
227.973,416
227.998,434
228.023,450
228.048,448
228.073,424
228.098,394
228.123,374
228.148,362
228.173,341
228.198,295
228.223,228
228.248,159
228.273,108
228.298,74
228.323,39
228.348,-14
228.373,-90
228.398,-176
228.423,-260
228.448,-339
228.473,-404
228.498,-431
228.523,-389
228.548,-269
228.573,-105
228.598,44
228.623,137
228.648,173
228.673,191
228.698,221
228.723,271
228.748,326
228.773,377
228.798,421
228.823,455
228.848,463
228.873,430
228.898,363
228.923,283
228.948,209
228.973,140
228.998,75
229.023,27
229.048,19
229.073,50
229.098,93
229.123,109
229.148,100
229.173,105
229.198,169
229.223,287
229.248,407
229.273,474
229.298,480
229.323,457
229.348,439
229.373,431
229.398,414
229.423,375
229.448,323
229.473,271
229.498,224
229.523,175
229.548,115
229.573,46
229.598,-23
229.623,-87
229.648,-141
229.673,-188
229.698,-235
229.723,-293
229.748,-369
229.773,-456
229.798,-540
229.823,-616
229.848,-691
229.873,-762
229.898,-790
229.923,-706
229.948,-466
229.973,-104
229.998,271
230.023,553
230.048,700
230.073,757
230.098,789
230.123,826
230.148,849
230.173,832
230.198,782
230.223,732
230.248,704
230.273,688
230.298,662
230.323,616
230.348,560
230.373,507
230.398,468
230.423,446
230.448,449
230.473,482
230.498,540
230.523,599
230.548,633
230.573,624
230.598,571
230.623,480
230.648,365
230.673,248
230.698,158
230.723,115
230.748,111
230.773,117
230.798,110
230.823,91
230.848,81
230.873,89
230.898,102
230.923,101
230.948,82
230.973,69
230.998,79
231.023,106
231.048,126
231.073,119
231.098,89
231.123,49
231.148,7
231.173,-45
231.198,-115
231.223,-189
231.248,-252
231.273,-299
231.298,-345
231.323,-399
231.348,-448
231.373,-454
231.398,-396
231.423,-281
231.448,-149
231.473,-31
231.498,62
231.523,146
231.548,231
231.573,314
231.598,384
231.623,438
231.648,481
231.673,524
231.698,569
231.723,606
231.748,623
231.773,612
231.798,576
231.823,519
231.848,444
231.873,356
231.898,258
231.923,158
231.948,61
231.973,-33
231.998,-128
232.023,-216
232.048,-276
232.073,-282
232.098,-223
232.123,-118
232.148,-5
232.173,79
232.198,127
232.223,152
232.248,175
232.273,203
232.298,234
232.323,264
232.348,297
232.373,333
232.398,365
232.423,382
232.448,379
232.473,362
232.498,340
232.523,320
232.548,299
232.573,273
232.598,238
232.623,192
232.648,131
232.673,57
232.698,-23
232.723,-99
232.748,-162
232.773,-211
232.798,-241
232.823,-239
232.848,-184
232.873,-67
232.898,93
232.923,258
232.948,393
232.973,489
232.998,558
233.023,617
233.048,667
233.073,696
233.098,700
233.123,683
233.148,666
233.173,660
233.198,665
233.223,664
233.248,633
233.273,551
233.298,415
233.323,241
233.348,56
233.373,-111
233.398,-247
233.423,-345
233.448,-406
233.473,-435
233.498,-445
233.523,-452
233.548,-457
233.573,-446
233.598,-393
233.623,-293
233.648,-168
233.673,-53
233.698,30
233.723,90
233.748,146
233.773,206
233.798,256
233.823,284
233.848,292
233.873,297
233.898,309
233.923,323
233.948,324
233.973,311
233.998,292
234.023,273
234.048,248
234.073,208
234.098,160
234.123,120
234.148,95
234.173,73
234.198,37
234.223,-4
234.248,-18
234.273,26
234.298,129
234.323,250
234.348,346
234.373,402
234.398,433
234.423,459
234.448,485
234.473,498
234.498,494
234.523,480
234.548,474
234.573,481
234.598,493
234.623,496
234.648,481
234.673,453
234.698,419
234.723,387
234.748,361
234.773,338
234.798,315
234.823,289
234.848,254
234.873,203
234.898,132
234.923,50
234.948,-14
234.973,-23
234.998,38
235.023,146
235.048,237
235.073,258
235.098,199
235.123,106
235.148,34
235.173,6
235.198,3
235.223,-12
235.248,-53
235.273,-92
235.298,-93
235.323,-36
235.348,59
235.373,152
235.398,203
235.423,198
235.448,149
235.473,87
235.498,36
235.523,3
235.548,-17
235.573,-27
235.598,-15
235.623,28
235.648,93
235.673,142
235.698,144
235.723,102
235.748,60
235.773,62
235.798,114
235.823,185
235.848,236
235.873,256
235.898,265
235.923,278
235.948,291
235.973,286
235.998,257
236.023,220
236.048,188
236.073,160
236.098,118
236.123,59
236.148,-1
236.173,-44
236.198,-68
236.223,-97
236.248,-146
236.273,-199
236.298,-215
236.323,-162
236.348,-54
236.373,53
236.398,109
236.423,105
236.448,82
236.473,97
236.498,171
236.523,278
236.548,374
236.573,437
236.598,474
236.623,508
236.648,544
236.673,566
236.698,560
236.723,534
236.748,511
236.773,503
236.798,502
236.823,488
236.848,459
236.873,427
236.898,403
236.923,377
236.948,331
236.973,267
236.998,213
237.023,197
237.048,217
237.073,236
237.098,225
237.123,192
237.148,174
237.173,198
237.198,252
237.223,298
237.248,312
237.273,298
237.298,278
237.323,267
237.348,261
237.373,244
237.398,208
237.423,156
237.448,100
237.473,53
237.498,28
237.523,27
237.548,38
237.573,43
237.598,32
237.623,10
237.648,-11
237.673,-30
237.698,-54
237.723,-87
237.748,-118
237.773,-137
237.798,-151
237.823,-178
237.848,-219
237.873,-244
237.898,-206
237.923,-90
237.948,63
237.973,191
237.998,259
238.023,287
238.048,319
238.073,374
238.098,431
238.123,457
238.148,448
238.173,429
238.198,428
238.223,443
238.248,451
238.273,431
238.298,390
238.323,347
238.348,313
238.373,276
238.398,219
238.423,139
238.448,51
238.473,-18
238.498,-56
238.523,-73
238.548,-90
238.573,-120
238.598,-153
238.623,-158
238.648,-111
238.673,-12
238.698,105
238.723,203
238.748,264
238.773,295
238.798,318
238.823,342
238.848,362
238.873,365
238.898,353
238.923,338
238.948,331
238.973,332
238.998,331
239.023,318
239.048,293
239.073,260
239.098,221
239.123,174
239.148,121
239.173,73
239.198,50
239.223,61
239.248,90
239.273,101
239.298,67
239.323,-7
239.348,-81
239.373,-108
239.398,-71
239.423,5
239.448,77
239.473,121
239.498,150
239.523,192
239.548,261
239.573,342
239.598,405
239.623,435
239.648,443
239.673,445
239.698,447
239.723,438
239.748,412
239.773,373
239.798,335
239.823,306
239.848,280
239.873,246
239.898,206
239.923,168
239.948,135
239.973,99
239.998,51
240.023,-1
240.048,-32
240.073,-14
240.098,53
240.123,143
240.148,219
240.173,263
240.198,281
240.223,288
240.248,288
240.273,279
240.298,257
240.323,222
240.348,178
240.373,130
240.398,84
240.423,51
240.448,41
240.473,46
240.498,43
240.523,12
240.548,-39
240.573,-75
240.598,-68
240.623,-22
240.648,23
240.673,35
240.698,19
240.723,16
240.748,71
240.773,192
240.798,343
240.823,474
240.848,548
240.873,554
240.898,505
240.923,424
240.948,340
240.973,274
240.998,232
241.023,207
241.048,184
241.073,156
241.098,131
241.123,118
241.148,119
241.173,119
241.198,99
241.223,53
241.248,-4
241.273,-46
241.298,-55
241.323,-35
241.348,-10
241.373,-5
241.398,-23
241.423,-43
241.448,-35
241.473,12
241.498,84
241.523,154
241.548,206
241.573,240
241.598,268
241.623,295
241.648,322
241.673,348
241.698,373
241.723,396
241.748,407
241.773,396
241.798,364
241.823,325
241.848,297
241.873,279
241.898,257
241.923,220
241.948,177
241.973,148
241.998,138
242.023,129
242.048,94
242.073,28
242.098,-36
242.123,-61
242.148,-27
242.173,42
242.198,116
242.223,174
242.248,223
242.273,272
242.298,320
242.323,349
242.348,344
242.373,311
242.398,272
242.423,245
242.448,234
242.473,236
242.498,243
242.523,249
242.548,246
242.573,229
242.598,196
242.623,156
242.648,119
242.673,83
242.698,37
242.723,-19
242.748,-70
242.773,-84
242.798,-42
242.823,40
242.848,126
242.873,185
242.898,216
242.923,236
242.948,259
242.973,283
242.998,297
243.023,297
243.048,294
243.073,298
243.098,308
243.123,319
243.148,321
243.173,314
243.198,293
243.223,255
243.248,203
243.273,147
243.298,102
243.323,67
243.348,30
243.373,-22
243.398,-83
243.423,-126
243.448,-127
243.473,-79
243.498,1
243.523,89
243.548,166
243.573,219
243.598,242
243.623,233
243.648,206
243.673,177
243.698,161
243.723,160
243.748,169
243.773,187
243.798,213
243.823,241
243.848,253
243.873,235
243.898,191
243.923,139
243.948,95
243.973,52
243.998,1
244.023,-48
244.048,-63
244.073,-11
244.098,98
244.123,223
244.148,318
244.173,370
244.198,395
244.223,413
244.248,425
244.273,422
244.298,406
244.323,391
244.348,385
244.373,382
244.398,370
244.423,347
244.448,320
244.473,288
244.498,245
244.523,184
244.548,120
244.573,75
244.598,57
244.623,50
244.648,38
244.673,28
244.698,49
244.723,113
244.748,192
244.773,234
244.798,212
244.823,146
244.848,81
244.873,44
244.898,24
244.923,0
244.948,-27
244.973,-40
244.998,-25
245.023,13
245.048,56
245.073,88
245.098,105
245.123,106
245.148,82
245.173,37
245.198,-15
245.223,-57
245.248,-86
245.273,-121
245.298,-174
245.323,-228
245.348,-241
245.373,-182
245.398,-60
245.423,88
245.448,230
245.473,355
245.498,471
245.523,580
245.548,666
245.573,714
245.598,724
245.623,709
245.648,682
245.673,642
245.698,583
245.723,502
245.748,408
245.773,318
245.798,245
245.823,197
245.848,168
245.873,146
245.898,117
245.923,79
245.948,43
245.973,27
245.998,44
246.023,90
246.048,148
246.073,200
246.098,235
246.123,253
246.148,260
246.173,266
246.198,273
246.223,276
246.248,269
246.273,251
246.298,232
246.323,227
246.348,230
246.373,223
246.398,185
246.423,125
246.448,72
246.473,54
246.498,60
246.523,49
246.548,-10
246.573,-112
246.598,-207
246.623,-253
246.648,-238
246.673,-185
246.698,-118
246.723,-45
246.748,31
246.773,105
246.798,161
246.823,186
246.848,185
246.873,174
246.898,167
246.923,172
246.948,188
246.973,208
246.998,221
247.023,219
247.048,203
247.073,181
247.098,157
247.123,123
247.148,76
247.173,30
247.198,21
247.223,76
247.248,183
247.273,299
247.298,390
247.323,460
247.348,531
247.373,597
247.398,607
247.423,516
247.448,343
247.473,169
247.498,77
247.523,75
247.548,106
247.573,117
247.598,111
247.623,131
247.648,189
247.673,239
247.698,221
247.723,132
247.748,29
247.773,-27
247.798,-36
247.823,-46
247.848,-88
247.873,-136
247.898,-129
247.923,-43
247.948,85
247.973,196
247.998,263
248.023,308
248.048,363
248.073,429
248.098,477
248.123,482
248.148,455
248.173,427
248.198,422
248.223,438
248.248,455
248.273,457
248.298,427
248.323,355
248.348,233
248.373,76
248.398,-74
248.423,-175
248.448,-209
248.473,-203
248.498,-203
248.523,-226
248.548,-250
248.573,-231
248.598,-155
248.623,-49
248.648,42
248.673,100
248.698,138
248.723,181
248.748,236
248.773,288
248.798,322
248.823,341
248.848,362
248.873,389
248.898,410
248.923,410
248.948,391
248.973,369
248.998,351
249.023,325
249.048,278
249.073,216
249.098,164
249.123,130
249.148,97
249.173,41
249.198,-29
249.223,-70
249.248,-40
249.273,52
249.298,156
249.323,221
249.348,246
249.373,266
249.398,304
249.423,349
249.448,372
249.473,368
249.498,361
249.523,373
249.548,399
249.573,415
249.598,409
249.623,395
249.648,384
249.673,370
249.698,338
249.723,286
249.748,231
249.773,186
249.798,131
249.823,40
249.848,-78
249.873,-174
249.898,-193
249.923,-133
249.948,-50
249.973,1
249.998,14
250.023,21
250.048,43
250.073,66
250.098,59
250.123,22
250.148,-6
250.173,0
250.198,36
250.223,63
250.248,55
250.273,25
250.298,0
250.323,-15
250.348,-33
250.373,-62
250.398,-86
250.423,-86
250.448,-64
250.473,-44
250.498,-45
250.523,-49
250.548,-20
250.573,58
250.598,165
250.623,262
250.648,328
250.673,374
250.698,418
250.723,462
250.748,492
250.773,500
250.798,497
250.823,501
250.848,521
250.873,547
250.898,557
250.923,534
250.948,482
250.973,416
250.998,357
251.023,314
251.048,281
251.073,241
251.098,187
251.123,131
251.148,101
251.173,123
251.198,193
251.223,283
251.248,356
251.273,394
251.298,398
251.323,388
251.348,377
251.373,367
251.398,347
251.423,302
251.448,236
251.473,176
251.498,163
251.523,216
251.548,304
251.573,358
251.598,317
251.623,179
251.648,-1
251.673,-159
251.698,-268
251.723,-339
251.748,-385
251.773,-389
251.798,-327
251.823,-201
251.848,-62
251.873,28
251.898,45
251.923,16
251.948,-10
251.973,-11
251.998,0
252.023,-3
252.048,-25
252.073,-44
252.098,-31
252.123,17
252.148,83
252.173,132
252.198,145
252.223,128
252.248,104
252.273,95
252.298,104
252.323,116
252.348,121
252.373,127
252.398,162
252.423,247
252.448,372
252.473,499
252.498,584
252.523,608
252.548,587
252.573,549
252.598,519
252.623,504
252.648,499
252.673,498
252.698,494
252.723,482
252.748,459
252.773,421
252.798,370
252.823,312
252.848,255
252.873,208
252.898,177
252.923,154
252.948,127
252.973,86
252.998,39
253.023,9
253.048,21
253.073,76
253.098,147
253.123,196
253.148,194
253.173,145
253.198,71
253.223,2
253.248,-42
253.273,-67
253.298,-80
253.323,-91
253.348,-99
253.373,-100
253.398,-99
253.423,-113
253.448,-158
253.473,-228
253.498,-296
253.523,-323
253.548,-286
253.573,-189
253.598,-50
253.623,113
253.648,284
253.673,439
253.698,544
253.723,578
253.748,551
253.773,502
253.798,467
253.823,455
253.848,449
253.873,435
253.898,419
253.923,420
253.948,436
253.973,448
253.998,431
254.023,388
254.048,346
254.073,328
254.098,336
254.123,344
254.148,332
254.173,297
254.198,259
254.223,240
254.248,247
254.273,273
254.298,304
254.323,327
254.348,334
254.373,322
254.398,295
254.423,260
254.448,227
254.473,201
254.498,184
254.523,173
254.548,164
254.573,149
254.598,126
254.623,97
254.648,70
254.673,46
254.698,13
254.723,-42
254.748,-121
254.773,-197
254.798,-232
254.823,-204
254.848,-126
254.873,-38
254.898,27
254.923,58
254.948,63
254.973,50
254.998,20
255.023,-26
255.048,-71
255.073,-92
255.098,-73
255.123,-24
255.148,28
255.173,69
255.198,100
255.223,128
255.248,149
255.273,145
255.298,104
255.323,46
255.348,13
255.373,46
255.398,146
255.423,275
255.448,384
255.473,444
255.498,462
255.523,464
255.548,469
255.573,476
255.598,477
255.623,467
255.648,450
255.673,432
255.698,412
255.723,382
255.748,341
255.773,297
255.798,253
255.823,205
255.848,142
255.873,64
255.898,-9
255.923,-44
255.948,-21
255.973,46
255.998,117
256.023,158
256.048,162
256.073,155
256.098,160
256.123,180
256.148,199
256.173,204
256.198,200
256.223,203
256.248,220
256.273,238
256.298,237
256.323,214
256.348,185
256.373,166
256.398,155
256.423,130
256.448,81
256.473,30
256.498,12
256.523,53
256.548,140
256.573,233
256.598,300
256.623,331
256.648,341
256.673,344
256.698,344
256.723,336
256.748,320
256.773,307
256.798,310
256.823,330
256.848,346
256.873,323
256.898,234
256.923,85
256.948,-83
256.973,-211
256.998,-260
257.023,-238
257.048,-184
257.073,-134
257.098,-87
257.123,-15
257.148,98
257.173,237
257.198,358
257.223,433
257.248,470
257.273,489
257.298,499
257.323,484
257.348,433
257.373,356
257.398,280
257.423,222
257.448,172
257.473,113
257.498,49
257.523,7
257.548,17
257.573,78
257.598,154
257.623,203
257.648,201
257.673,157
257.698,106
257.723,89
257.748,132
257.773,230
257.798,337
257.823,391
257.848,349
257.873,225
257.898,75
257.923,-39
257.948,-96
257.973,-108
257.998,-95
258.023,-55
258.048,22
258.073,127
258.098,217
258.123,255
258.148,240
258.173,204
258.198,179
258.223,154
258.248,97
258.273,-7
258.298,-128
258.323,-204
258.348,-196
258.373,-113
258.398,-1
258.423,92
258.448,150
258.473,180
258.498,195
258.523,205
258.548,219
258.573,243
258.598,276
258.623,311
258.648,341
258.673,366
258.698,387
258.723,404
258.748,406
258.773,386
258.798,347
258.823,303
258.848,263
258.873,222
258.898,171
258.923,118
258.948,91
258.973,115
258.998,190
259.023,280
259.048,345
259.073,370
259.098,367
259.123,361
259.148,358
259.173,348
259.198,327
259.223,307
259.248,307
259.273,327
259.298,342
259.323,322
259.348,263
259.373,191
259.398,138
259.423,107
259.448,72
259.473,5
259.498,-91
259.523,-193
259.548,-270
259.573,-321
259.598,-353
259.623,-362
259.648,-315
259.673,-182
259.698,31
259.723,270
259.748,460
259.773,558
259.798,576
259.823,559
259.848,548
259.873,551
259.898,556
259.923,548
259.948,525
259.973,490
259.998,432
260.023,331
260.048,167
260.073,-48
260.098,-268
260.123,-430
260.148,-497
260.173,-476
260.198,-408
260.223,-332
260.248,-258
260.273,-170
260.298,-55
260.323,74
260.348,188
260.373,267
260.398,320
260.423,379
260.448,460
260.473,549
260.498,608
260.523,608
260.548,553
260.573,477
260.598,414
