df_hash,22ZHK4.BZ66S1
device,HZ2X61
project_hash,29R7
project_name,istanbul_aydin_university
person_hash,29R7.L1ZD
person_label,V10
date_time_start,2025-05-22_10-16-55.154000_+03
date_time_start_unix,1747898215.154
date_time_end,2025-05-22_10-24-39.213000_+03
length_difference_noticed,no

time,ppg_med
5.934,530
5.959,609
5.984,735
6.009,803
6.034,776
6.059,748
6.084,821
6.109,955
6.134,1006
6.159,923
6.184,836
6.209,881
6.234,1006
6.259,1013
6.284,837
6.309,650
6.334,640
6.359,733
6.384,667
6.409,353
6.434,25
6.459,-67
6.484,-23
6.509,-189
6.534,-678
6.559,-1181
6.584,-1370
6.609,-1376
6.634,-1647
6.659,-2327
6.684,-3015
6.709,-3288
6.734,-3311
6.759,-3660
6.784,-4518
6.809,-5367
6.834,-5667
6.859,-5633
6.884,-5990
6.909,-6968
6.934,-7911
6.959,-8138
6.984,-7920
7.009,-8169
7.034,-9170
7.059,-10099
7.084,-10107
7.109,-9531
7.134,-9513
7.159,-10408
7.184,-11189
7.209,-10795
7.234,-9652
7.259,-9182
7.284,-9832
7.309,-10323
7.334,-9333
7.359,-7392
7.384,-6284
7.409,-6573
7.434,-6662
7.459,-4888
7.484,-1920
7.509,-10
7.534,114
7.559,471
7.584,3181
7.609,7401
7.634,10229
7.659,10704
7.684,11426
7.709,15186
7.734,20901
7.759,24712
7.784,25271
7.809,26068
7.834,30977
7.859,32767
7.884,32767
7.909,32767
7.934,32767
7.959,32767
7.984,32767
8.009,32767
8.034,32767
8.059,32767
8.084,32767
8.109,32767
8.134,32767
8.159,32767
8.184,13782
8.209,-32768
8.234,-32768
8.259,-32768
8.284,-32768
8.309,-32768
8.334,-32768
8.359,-32768
8.384,-32768
8.409,-32768
8.434,-32768
8.459,-32768
8.484,-32768
8.509,-32768
8.534,-32768
8.559,-27014
8.584,-24869
8.609,-24867
8.634,-22535
8.659,-17173
8.684,-12299
8.709,-10600
8.734,-10538
8.759,-8817
8.784,-4873
8.809,-1333
8.834,-257
8.859,-478
8.884,587
8.909,3452
8.934,6099
8.959,6859
8.984,6544
9.009,7113
9.034,8968
9.059,10560
9.084,10627
9.109,9849
9.134,9797
9.159,10796
9.184,11619
9.209,11259
9.234,10254
9.259,9840
9.284,10262
9.309,10538
9.334,9879
9.359,8730
9.384,8090
9.409,8153
9.434,8133
9.459,7396
9.484,6280
9.509,5562
9.534,5404
9.559,5225
9.584,4584
9.609,3782
9.634,3402
9.659,3482
9.684,3479
9.709,3011
9.734,2337
9.759,1956
9.784,1933
9.809,1860
9.834,1448
9.859,908
9.884,628
9.909,651
9.934,642
9.959,359
9.984,-50
10.009,-285
10.034,-296
10.059,-317
10.084,-517
10.109,-790
10.134,-929
10.159,-910
10.184,-903
10.209,-1025
10.234,-1196
10.259,-1277
10.284,-1257
10.309,-1235
10.334,-1240
10.359,-1168
10.384,-930
10.409,-600
10.434,-348
10.459,-251
10.484,-212
10.509,-100
10.534,82
10.559,223
10.584,252
10.609,232
10.634,275
10.659,396
10.684,503
10.709,521
10.734,479
10.759,444
10.784,407
10.809,377
10.834,339
10.859,289
10.884,232
10.909,174
10.934,116
10.959,58
10.984,2
11.009,-59
11.034,-138
11.059,-231
11.084,-304
11.109,-308
11.134,-214
11.159,-47
11.184,129
11.209,264
11.234,344
11.259,391
11.284,423
11.309,437
11.334,427
11.359,403
11.384,389
11.409,396
11.434,408
11.459,400
11.484,370
11.509,345
11.534,343
11.559,352
11.584,340
11.609,295
11.634,241
11.659,207
11.684,185
11.709,131
11.734,18
11.759,-115
11.784,-186
11.809,-138
11.834,0
11.859,140
11.884,211
11.909,213
11.934,195
11.959,198
11.984,210
12.009,197
12.034,148
12.059,94
12.084,78
12.109,115
12.134,179
12.159,227
12.184,232
12.209,190
12.234,124
12.259,60
12.284,13
12.309,-28
12.334,-84
12.359,-163
12.384,-230
12.409,-224
12.434,-106
12.459,103
12.484,334
12.509,515
12.534,621
12.559,672
12.584,700
12.609,725
12.634,751
12.659,774
12.684,790
12.709,786
12.734,759
12.759,720
12.784,690
12.809,668
12.834,622
12.859,523
12.884,387
12.909,270
12.934,204
12.959,152
12.984,37
13.009,-163
13.034,-367
13.059,-456
13.084,-389
13.109,-242
13.134,-126
13.159,-79
13.184,-50
13.209,21
13.234,126
13.259,200
13.284,213
13.309,206
13.334,242
13.359,324
13.384,394
13.409,392
13.434,317
13.459,216
13.484,128
13.509,59
13.534,-1
13.559,-57
13.584,-112
13.609,-182
13.634,-280
13.659,-380
13.684,-412
13.709,-316
13.734,-109
13.759,120
13.784,283
13.809,355
13.834,374
13.859,390
13.884,415
13.909,433
13.934,431
13.959,419
13.984,411
14.009,411
14.034,413
14.059,412
14.084,404
14.109,379
14.134,330
14.159,264
14.184,196
14.209,134
14.234,68
14.259,-17
14.284,-102
14.309,-131
14.334,-58
14.359,104
14.384,290
14.409,425
14.434,492
14.459,521
14.484,549
14.509,577
14.534,582
14.559,557
14.584,524
14.609,513
14.634,525
14.659,538
14.684,523
14.709,474
14.734,403
14.759,326
14.784,248
14.809,166
14.834,72
14.859,-36
14.884,-146
14.909,-223
14.934,-229
14.959,-146
14.984,-1
15.009,149
15.034,254
15.059,301
15.084,311
15.109,308
15.134,298
15.159,276
15.184,246
15.209,229
15.234,239
15.259,264
15.284,272
15.309,241
15.334,182
15.359,126
15.384,89
15.409,57
15.434,0
15.459,-87
15.484,-167
15.509,-183
15.534,-104
15.559,45
15.584,202
15.609,309
15.634,353
15.659,360
15.684,360
15.709,358
15.734,342
15.759,308
15.784,271
15.809,256
15.834,265
15.859,274
15.884,255
15.909,208
15.934,154
15.959,112
15.984,73
16.009,10
16.034,-83
16.059,-177
16.084,-217
16.109,-169
16.134,-45
16.159,111
16.184,253
16.209,355
16.234,415
16.259,445
16.284,455
16.309,453
16.334,442
16.359,424
16.384,407
16.409,395
16.434,385
16.459,363
16.484,318
16.509,250
16.534,178
16.559,118
16.584,67
16.609,3
16.634,-83
16.659,-165
16.684,-187
16.709,-114
16.734,34
16.759,197
16.784,319
16.809,390
16.834,431
16.859,461
16.884,476
16.909,466
16.934,437
16.959,411
16.984,403
17.009,406
17.034,399
17.059,372
17.084,330
17.109,280
17.134,225
17.159,164
17.184,101
17.209,37
17.234,-33
17.259,-118
17.284,-201
17.309,-237
17.334,-182
17.359,-34
17.384,149
17.409,296
17.434,375
17.459,407
17.484,430
17.509,455
17.534,465
17.559,444
17.584,409
17.609,388
17.634,391
17.659,395
17.684,377
17.709,333
17.734,280
17.759,228
17.784,173
17.809,106
17.834,37
17.859,-20
17.884,-70
17.909,-135
17.934,-220
17.959,-290
17.984,-284
18.009,-170
18.034,18
18.059,204
18.084,329
18.109,391
18.134,430
18.159,475
18.184,515
18.209,526
18.234,505
18.259,478
18.284,471
18.309,479
18.334,476
18.359,445
18.384,393
18.409,339
18.434,288
18.459,230
18.484,153
18.509,69
18.534,0
18.559,-51
18.584,-104
18.609,-185
18.634,-283
18.659,-347
18.684,-320
18.709,-187
18.734,2
18.759,179
18.784,296
18.809,357
18.834,395
18.859,434
18.884,468
18.909,482
18.934,471
18.959,452
18.984,445
19.009,451
19.034,455
19.059,437
19.084,395
19.109,345
19.134,300
19.159,259
19.184,208
19.209,141
19.234,69
19.259,12
19.284,-27
19.309,-72
19.334,-143
19.359,-227
19.384,-275
19.409,-232
19.434,-89
19.459,103
19.484,272
19.509,372
19.534,413
19.559,432
19.584,452
19.609,467
19.634,460
19.659,429
19.684,395
19.709,374
19.734,364
19.759,347
19.784,313
19.809,266
19.834,218
19.859,170
19.884,115
19.909,53
19.934,-3
19.959,-39
19.984,-58
20.009,-87
20.034,-149
20.059,-234
20.084,-295
20.109,-276
20.134,-158
20.159,23
20.184,206
20.209,339
20.234,416
20.259,460
20.284,495
20.309,523
20.334,534
20.359,526
20.384,514
20.409,516
20.434,531
20.459,543
20.484,533
20.509,503
20.534,470
20.559,443
20.584,414
20.609,370
20.634,312
20.659,259
20.684,221
20.709,184
20.734,122
20.759,31
20.784,-46
20.809,-47
20.834,62
20.859,250
20.884,445
20.909,581
20.934,641
20.959,649
20.984,633
21.009,601
21.034,553
21.059,491
21.084,427
21.109,373
21.134,323
21.159,264
21.184,191
21.209,113
21.234,44
21.259,-19
21.284,-96
21.309,-199
21.334,-320
21.359,-432
21.384,-513
21.409,-573
21.434,-635
21.459,-709
21.484,-764
21.509,-742
21.534,-607
21.559,-381
21.584,-134
21.609,63
21.634,189
21.659,272
21.684,347
21.709,423
21.734,481
21.759,507
21.784,515
21.809,537
21.834,588
21.859,648
21.884,685
21.909,686
21.934,663
21.959,634
21.984,598
22.009,540
22.034,455
22.059,361
22.084,282
22.109,219
22.134,156
22.159,85
22.184,41
22.209,72
22.234,200
22.259,381
22.284,539
22.309,623
22.334,643
22.359,645
22.384,664
22.409,686
22.434,685
22.459,655
22.484,622
22.509,605
22.534,589
22.559,527
22.584,391
22.609,205
22.634,26
22.659,-96
22.684,-153
22.709,-161
22.734,-137
22.759,-91
22.784,-44
22.809,-33
22.834,-83
22.859,-167
22.884,-212
22.909,-148
22.934,25
22.959,239
22.984,403
23.009,476
23.034,481
23.059,463
23.084,444
23.109,419
23.134,379
23.159,334
23.184,302
23.209,284
23.234,263
23.259,220
23.284,151
23.309,65
23.334,-33
23.359,-144
23.384,-266
23.409,-391
23.434,-513
23.459,-635
23.484,-764
23.509,-887
23.534,-972
23.559,-976
23.584,-890
23.609,-747
23.634,-607
23.659,-515
23.684,-467
23.709,-413
23.734,-283
23.759,-39
23.784,299
23.809,657
23.834,949
23.859,1128
23.884,1212
23.909,1251
23.934,1283
23.959,1298
23.984,1270
24.009,1188
24.034,1074
24.059,954
24.084,827
24.109,676
24.134,502
24.159,350
24.184,273
24.209,291
24.234,363
24.259,429
24.284,451
24.309,430
24.334,390
24.359,344
24.384,293
24.409,240
24.434,199
24.459,182
24.484,189
24.509,204
24.534,210
24.559,201
24.584,181
24.609,166
24.634,165
24.659,183
24.684,204
24.709,209
24.734,191
24.759,177
24.784,216
24.809,337
24.834,517
24.859,688
24.884,787
24.909,800
24.934,760
24.959,700
24.984,622
25.009,506
25.034,343
25.059,156
25.084,-15
25.109,-150
25.134,-251
25.159,-331
25.184,-397
25.209,-447
25.234,-480
25.259,-498
25.284,-504
25.309,-501
25.334,-505
25.359,-537
25.384,-600
25.409,-661
25.434,-652
25.459,-525
25.484,-293
25.509,-29
25.534,186
25.559,319
25.584,391
25.609,438
25.634,473
25.659,481
25.684,459
25.709,428
25.734,419
25.759,441
25.784,470
25.809,478
25.834,459
25.859,432
25.884,410
25.909,386
25.934,346
25.959,290
25.984,237
26.009,192
26.034,138
26.059,59
26.084,-21
26.109,-36
26.134,75
26.159,301
26.184,553
26.209,728
26.234,781
26.259,744
26.284,674
26.309,599
26.334,509
26.359,396
26.384,282
26.409,197
26.434,148
26.459,102
26.484,27
26.509,-76
26.534,-179
26.559,-258
26.584,-328
26.609,-415
26.634,-522
26.659,-622
26.684,-687
26.709,-725
26.734,-770
26.759,-833
26.784,-879
26.809,-852
26.834,-733
26.859,-565
26.884,-413
26.909,-313
26.934,-249
26.959,-186
26.984,-113
27.009,-43
27.034,12
27.059,68
27.084,144
27.109,239
27.134,330
27.159,403
27.184,465
27.209,537
27.234,623
27.259,707
27.284,778
27.309,849
27.334,942
27.359,1053
27.384,1150
27.409,1209
27.434,1260
27.459,1368
27.484,1581
27.509,1889
27.534,2234
27.559,2560
27.584,2846
27.609,3090
27.634,3283
27.659,3396
27.684,3404
27.709,3308
27.734,3141
27.759,2951
27.784,2776
27.809,2598
27.834,2318
27.859,1780
27.884,867
27.909,-388
27.934,-1781
27.959,-3036
27.984,-3972
28.009,-4570
28.034,-4898
28.059,-4984
28.084,-4782
28.109,-4268
28.134,-3549
28.159,-2838
28.184,-2312
28.209,-1978
28.234,-1705
28.259,-1362
28.284,-942
28.309,-537
28.334,-235
28.359,-39
28.384,111
28.409,259
28.434,391
28.459,468
28.484,482
28.509,470
28.534,475
28.559,511
28.584,548
28.609,551
28.634,511
28.659,446
28.684,387
28.709,360
28.734,382
28.759,473
28.784,645
28.809,883
28.834,1123
28.859,1287
28.884,1334
28.909,1297
28.934,1254
28.959,1252
28.984,1260
29.009,1207
29.034,1059
29.059,870
29.084,726
29.109,671
29.134,667
29.159,644
29.184,572
29.209,478
29.234,395
29.259,324
29.284,233
29.309,107
29.334,-32
29.359,-154
29.384,-244
29.409,-299
29.434,-311
29.459,-261
29.484,-148
29.509,-10
29.534,96
29.559,146
29.584,158
29.609,171
29.634,195
29.659,212
29.684,208
29.709,199
29.734,213
29.759,255
29.784,301
29.809,324
29.834,327
29.859,332
29.884,345
29.909,340
29.934,290
29.959,202
29.984,116
30.009,70
30.034,57
30.059,36
30.084,-19
30.109,-82
30.134,-90
30.159,6
30.184,193
30.209,400
30.234,552
30.259,618
30.284,620
30.309,601
30.334,588
30.359,579
30.384,561
30.409,531
30.434,497
30.459,468
30.484,438
30.509,399
30.534,346
30.559,281
30.584,207
30.609,126
30.634,38
30.659,-44
30.684,-110
30.709,-165
30.734,-235
30.759,-337
30.784,-448
30.809,-509
30.834,-461
30.859,-301
30.884,-89
30.909,96
30.934,213
30.959,270
30.984,299
31.009,318
31.034,321
31.059,301
31.084,273
31.109,265
31.134,285
31.159,319
31.184,342
31.209,345
31.234,335
31.259,321
31.284,294
31.309,243
31.334,174
31.359,108
31.384,65
31.409,35
31.434,-1
31.459,-48
31.484,-70
31.509,-22
31.534,109
31.559,285
31.584,441
31.609,534
31.634,562
31.659,548
31.684,515
31.709,473
31.734,432
31.759,406
31.784,404
31.809,419
31.834,435
31.859,439
31.884,432
31.909,418
31.934,392
31.959,349
31.984,292
32.009,234
32.034,179
32.059,116
32.084,35
32.109,-47
32.134,-83
32.159,-30
32.184,101
32.209,251
32.234,355
32.259,390
32.284,383
32.309,364
32.334,340
32.359,297
32.384,237
32.409,182
32.434,156
32.459,153
32.484,148
32.509,118
32.534,61
32.559,-8
32.584,-83
32.609,-164
32.634,-248
32.659,-325
32.684,-396
32.709,-473
32.734,-570
32.759,-667
32.784,-705
32.809,-629
32.834,-438
32.859,-195
32.884,17
32.909,160
32.934,248
32.959,323
32.984,404
33.009,483
33.034,543
33.059,588
33.084,629
33.109,671
33.134,701
33.159,705
33.184,682
33.209,641
33.234,588
33.259,521
33.284,441
33.309,363
33.334,298
33.359,241
33.384,167
33.409,62
33.434,-47
33.459,-98
33.484,-42
33.509,109
33.534,287
33.559,416
33.584,472
33.609,484
33.634,489
33.659,497
33.684,492
33.709,460
33.734,419
33.759,394
33.784,391
33.809,390
33.834,368
33.859,322
33.884,269
33.909,219
33.934,164
33.959,94
33.984,16
34.009,-51
34.034,-105
34.059,-166
34.084,-252
34.109,-347
34.134,-390
34.159,-325
34.184,-152
34.209,62
34.234,241
34.259,347
34.284,403
34.309,448
34.334,497
34.359,532
34.384,534
34.409,510
34.434,491
34.459,496
34.484,524
34.509,552
34.534,564
34.559,554
34.584,516
34.609,433
34.634,294
34.659,111
34.684,-69
34.709,-202
34.734,-274
34.759,-320
34.784,-385
34.809,-476
34.834,-546
34.859,-528
34.884,-393
34.909,-181
34.934,27
34.959,171
34.984,244
35.009,282
35.034,319
35.059,361
35.084,390
35.109,395
35.134,388
35.159,394
35.184,421
35.209,454
35.234,469
35.259,456
35.284,423
35.309,386
35.334,347
35.359,296
35.384,226
35.409,148
35.434,80
35.459,33
35.484,-7
35.509,-72
35.534,-168
35.559,-259
35.584,-285
35.609,-205
35.634,-36
35.659,153
35.684,298
35.709,374
35.734,404
35.759,422
35.784,440
35.809,444
35.834,429
35.859,408
35.884,405
35.909,424
35.934,444
35.959,440
35.984,409
36.009,366
36.034,327
36.059,284
36.084,227
36.109,158
36.134,95
36.159,51
36.184,11
36.209,-53
36.234,-143
36.259,-215
36.284,-207
36.309,-99
36.334,68
36.359,223
36.384,318
36.409,358
36.434,377
36.459,393
36.484,399
36.509,385
36.534,359
36.559,342
36.584,347
36.609,360
36.634,357
36.659,333
36.684,296
36.709,257
36.734,211
36.759,151
36.784,85
36.809,29
36.834,-13
36.859,-62
36.884,-137
36.909,-219
36.934,-253
36.959,-189
36.984,-35
37.009,141
37.034,273
37.059,339
37.084,368
37.109,392
37.134,415
37.159,418
37.184,395
37.209,368
37.234,362
37.259,376
37.284,386
37.309,371
37.334,331
37.359,281
37.384,226
37.409,163
37.434,93
37.459,30
37.484,-18
37.509,-66
37.534,-135
37.559,-220
37.584,-272
37.609,-231
37.634,-89
37.659,98
37.684,255
37.709,342
37.734,381
37.759,413
37.784,453
37.809,479
37.834,474
37.859,448
37.884,431
37.909,436
37.934,445
37.959,433
37.984,399
38.009,360
38.034,325
38.059,284
38.084,220
38.109,137
38.134,61
38.159,9
38.184,-32
38.209,-94
38.234,-188
38.259,-279
38.284,-310
38.309,-249
38.334,-108
38.359,62
38.384,210
38.409,310
38.434,368
38.459,404
38.484,434
38.509,455
38.534,456
38.559,434
38.584,402
38.609,386
38.634,400
38.659,425
38.684,424
38.709,365
38.734,251
38.759,114
38.784,-5
38.809,-85
38.834,-119
38.859,-119
38.884,-103
38.909,-103
38.934,-144
38.959,-217
38.984,-271
39.009,-241
39.034,-107
39.059,87
39.084,262
39.109,366
39.134,411
39.159,439
39.184,477
39.209,512
39.234,515
39.259,489
39.284,466
39.309,475
39.334,512
39.359,544
39.384,539
39.409,496
39.434,438
39.459,383
39.484,331
39.509,269
39.534,191
39.559,107
39.584,35
39.609,-19
39.634,-71
39.659,-141
39.684,-234
39.709,-321
39.734,-350
39.759,-281
39.784,-126
39.809,55
39.834,198
39.859,276
39.884,309
39.909,333
39.934,364
39.959,384
39.984,379
40.009,359
40.034,349
40.059,365
40.084,393
40.109,403
40.134,383
40.159,344
40.184,305
40.209,270
40.234,230
40.259,180
40.284,130
40.309,86
40.334,41
40.359,-22
40.384,-105
40.409,-171
40.434,-170
40.459,-80
40.484,69
40.509,214
40.534,309
40.559,349
40.584,361
40.609,368
40.634,374
40.659,369
40.684,356
40.709,347
40.734,351
40.759,359
40.784,353
40.809,329
40.834,293
40.859,256
40.884,218
40.909,175
40.934,128
40.959,87
40.984,53
41.009,5
41.034,-69
41.059,-156
41.084,-202
41.109,-160
41.134,-31
41.159,126
41.184,250
41.209,314
41.234,338
41.259,353
41.284,366
41.309,363
41.334,339
41.359,311
41.384,302
41.409,315
41.434,329
41.459,326
41.484,304
41.509,276
41.534,245
41.559,205
41.584,153
41.609,102
41.634,60
41.659,20
41.684,-37
41.709,-113
41.734,-172
41.759,-161
41.784,-63
41.809,86
41.834,222
41.859,306
41.884,346
41.909,376
41.934,411
41.959,439
41.984,439
42.009,418
42.034,398
42.059,399
42.084,410
42.109,408
42.134,381
42.159,337
42.184,290
42.209,243
42.234,187
42.259,118
42.284,49
42.309,-7
42.334,-52
42.359,-105
42.384,-182
42.409,-264
42.434,-307
42.459,-267
42.484,-142
42.509,20
42.534,163
42.559,256
42.584,307
42.609,346
42.634,386
42.659,417
42.684,424
42.709,410
42.734,396
42.759,400
42.784,417
42.809,421
42.834,397
42.859,350
42.884,298
42.909,250
42.934,199
42.959,137
42.984,70
43.009,15
43.034,-28
43.059,-79
43.084,-152
43.109,-228
43.134,-255
43.159,-195
43.184,-59
43.209,93
43.234,210
43.259,281
43.284,334
43.309,391
43.334,447
43.359,479
43.384,479
43.409,464
43.434,458
43.459,463
43.484,462
43.509,443
43.534,408
43.559,368
43.584,326
43.609,275
43.634,215
43.659,153
43.684,97
43.709,42
43.734,-17
43.759,-77
43.784,-127
43.809,-167
43.834,-219
43.859,-295
43.884,-369
43.909,-384
43.934,-294
43.959,-120
43.984,67
44.009,204
44.034,281
44.059,338
44.084,409
44.109,483
44.134,528
44.159,528
44.184,502
44.209,483
44.234,483
44.259,493
44.284,501
44.309,507
44.334,511
44.359,508
44.384,488
44.409,453
44.434,416
44.459,387
44.484,358
44.509,320
44.534,279
44.559,245
44.584,215
44.609,160
44.634,54
44.659,-84
44.684,-194
44.709,-215
44.734,-143
44.759,-32
44.784,48
44.809,72
44.834,60
44.859,50
44.884,60
44.909,81
44.934,100
44.959,114
44.984,136
45.009,175
45.034,220
45.059,254
45.084,260
45.109,238
45.134,203
45.159,171
45.184,146
45.209,122
45.234,95
45.259,74
45.284,72
45.309,88
45.334,108
45.359,118
45.384,122
45.409,136
45.434,161
45.459,173
45.484,164
45.509,166
45.534,239
45.559,410
45.584,631
45.609,807
45.634,878
45.659,862
45.684,818
45.709,780
45.734,729
45.759,639
45.784,520
45.809,407
45.834,319
45.859,243
45.884,161
45.909,87
45.934,50
45.959,52
45.984,62
46.009,58
46.034,56
46.059,83
46.084,120
46.109,98
46.134,-30
46.159,-230
46.184,-399
46.209,-465
46.234,-440
46.259,-390
46.284,-350
46.309,-295
46.334,-185
46.359,-22
46.384,147
46.409,281
46.434,368
46.459,420
46.484,450
46.509,465
46.534,475
46.559,490
46.584,508
46.609,511
46.634,492
46.659,460
46.684,424
46.709,374
46.734,295
46.759,197
46.784,115
46.809,63
46.834,5
46.859,-102
46.884,-247
46.909,-355
46.934,-392
46.959,-429
46.984,-582
47.009,-863
47.034,-1106
47.059,-1109
47.084,-833
47.109,-454
47.134,-183
47.159,-58
47.184,66
47.209,323
47.234,665
47.259,910
47.284,954
47.309,879
47.334,854
47.359,952
47.384,1088
47.409,1139
47.434,1081
47.459,993
47.484,947
47.509,935
47.534,902
47.559,826
47.584,738
47.609,668
47.634,609
47.659,536
47.684,446
47.709,360
47.734,286
47.759,218
47.784,158
47.809,139
47.834,193
47.859,298
47.884,379
47.909,374
47.934,290
47.959,192
47.984,131
48.009,101
48.034,65
48.059,11
48.084,-34
48.109,-45
48.134,-34
48.159,-35
48.184,-65
48.209,-107
48.234,-134
48.259,-146
48.284,-165
48.309,-203
48.334,-248
48.359,-280
48.384,-301
48.409,-333
48.434,-384
48.459,-425
48.484,-403
48.509,-294
48.534,-124
48.559,50
48.584,181
48.609,264
48.634,317
48.659,360
48.684,392
48.709,407
48.734,410
48.759,418
48.784,441
48.809,470
48.834,485
48.859,476
48.884,453
48.909,427
48.934,400
48.959,362
48.984,311
49.009,258
49.034,211
49.059,161
49.084,93
49.109,11
49.134,-44
49.159,-25
49.184,76
49.209,219
49.234,342
49.259,412
49.284,438
49.309,448
49.334,452
49.359,442
49.384,418
49.409,394
49.434,387
49.459,393
49.484,393
49.509,370
49.534,327
49.559,275
49.584,222
49.609,167
49.634,113
49.659,63
49.684,14
49.709,-45
49.734,-120
49.759,-183
49.784,-188
49.809,-109
49.834,30
49.859,169
49.884,259
49.909,295
49.934,303
49.959,303
49.984,296
50.009,276
50.034,252
50.059,243
50.084,254
50.109,272
50.134,275
50.159,258
50.184,227
50.209,192
50.234,154
50.259,113
50.284,74
50.309,34
50.334,-14
50.359,-81
50.384,-144
50.409,-159
50.434,-93
50.459,40
50.484,184
50.509,282
50.534,324
50.559,343
50.584,366
50.609,388
50.634,390
50.659,366
50.684,341
50.709,339
50.734,359
50.759,374
50.784,363
50.809,331
50.834,292
50.859,254
50.884,212
50.909,163
50.934,110
50.959,53
50.984,-14
51.009,-96
51.034,-162
51.059,-167
51.084,-84
51.109,57
51.134,187
51.159,256
51.184,269
51.209,275
51.234,305
51.259,346
51.284,364
51.309,348
51.334,326
51.359,330
51.384,355
51.409,370
51.434,351
51.459,307
51.484,267
51.509,241
51.534,211
51.559,158
51.584,89
51.609,29
51.634,-9
51.659,-49
51.684,-113
51.709,-192
51.734,-236
51.759,-197
51.784,-74
51.809,84
51.834,216
51.859,296
51.884,341
51.909,378
51.934,415
51.959,440
51.984,442
52.009,427
52.034,413
52.059,410
52.084,415
52.109,416
52.134,401
52.159,368
52.184,324
52.209,276
52.234,231
52.259,189
52.284,147
52.309,102
52.334,57
52.359,15
52.384,-31
52.409,-94
52.434,-174
52.459,-243
52.484,-255
52.509,-179
52.534,-32
52.559,124
52.584,234
52.609,284
52.634,305
52.659,329
52.684,359
52.709,376
52.734,369
52.759,352
52.784,351
52.809,368
52.834,385
52.859,380
52.884,354
52.909,322
52.934,288
52.959,246
52.984,190
53.009,129
53.034,82
53.059,49
53.084,12
53.109,-44
53.134,-105
53.159,-124
53.184,-64
53.209,64
53.234,207
53.259,313
53.284,365
53.309,384
53.334,399
53.359,417
53.384,424
53.409,412
53.434,390
53.459,377
53.484,381
53.509,389
53.534,383
53.559,354
53.584,311
53.609,266
53.634,225
53.659,179
53.684,122
53.709,58
53.734,0
53.759,-50
53.784,-100
53.809,-164
53.834,-232
53.859,-269
53.884,-236
53.909,-129
53.934,16
53.959,144
53.984,222
54.009,261
54.034,290
54.059,327
54.084,362
54.109,375
54.134,365
54.159,354
54.184,358
54.209,374
54.234,381
54.259,366
54.284,333
54.309,299
54.334,268
54.359,228
54.384,172
54.409,112
54.434,69
54.459,48
54.484,29
54.509,-14
54.534,-81
54.559,-131
54.584,-114
54.609,-14
54.634,129
54.659,256
54.684,328
54.709,354
54.734,365
54.759,385
54.784,405
54.809,410
54.834,397
54.859,382
54.884,383
54.909,397
54.934,403
54.959,385
54.984,349
55.009,308
55.034,271
55.059,228
55.084,173
55.109,112
55.134,60
55.159,18
55.184,-30
55.209,-98
55.234,-164
55.259,-183
55.284,-120
55.309,7
55.334,145
55.359,240
55.384,280
55.409,291
55.434,301
55.459,312
55.484,310
55.509,294
55.534,279
55.559,282
55.584,299
55.609,311
55.634,303
55.659,277
55.684,245
55.709,212
55.734,177
55.759,141
55.784,107
55.809,73
55.834,26
55.859,-36
55.884,-93
55.909,-101
55.934,-34
55.959,89
55.984,217
56.009,303
56.034,338
56.059,348
56.084,352
56.109,352
56.134,339
56.159,316
56.184,301
56.209,303
56.234,316
56.259,320
56.284,307
56.309,280
56.334,246
56.359,208
56.384,166
56.409,124
56.434,84
56.459,41
56.484,-17
56.509,-87
56.534,-133
56.559,-111
56.584,-10
56.609,130
56.634,251
56.659,316
56.684,337
56.709,346
56.734,361
56.759,370
56.784,359
56.809,337
56.834,326
56.859,335
56.884,349
56.909,345
56.934,318
56.959,282
56.984,247
57.009,208
57.034,157
57.059,98
57.084,47
57.109,11
57.134,-28
57.159,-95
57.184,-178
57.209,-230
57.234,-199
57.259,-82
57.284,70
57.309,198
57.334,274
57.359,316
57.384,354
57.409,392
57.434,412
57.459,404
57.484,382
57.509,371
57.534,379
57.559,390
57.584,384
57.609,357
57.634,322
57.659,287
57.684,247
57.709,193
57.734,131
57.759,75
57.784,32
57.809,-12
57.834,-74
57.859,-144
57.884,-180
57.909,-142
57.934,-28
57.959,115
57.984,234
58.009,302
58.034,337
58.059,367
58.084,398
58.109,417
58.134,408
58.159,382
58.184,360
58.209,357
58.234,363
58.259,358
58.284,334
58.309,302
58.334,275
58.359,251
58.384,218
58.409,169
58.434,116
58.459,73
58.484,37
58.509,-11
58.534,-84
58.559,-154
58.584,-172
58.609,-105
58.634,26
58.659,167
58.684,264
58.709,308
58.734,325
58.759,339
58.784,352
58.809,352
58.834,339
58.859,327
58.884,329
58.909,339
58.934,340
58.959,321
58.984,291
59.009,261
59.034,233
59.059,202
59.084,166
59.109,132
59.134,100
59.159,57
59.184,-7
59.209,-77
59.234,-106
59.259,-60
59.284,49
59.309,173
59.334,258
59.359,294
59.384,303
59.409,309
59.434,314
59.459,307
59.484,290
59.509,278
59.534,284
59.559,299
59.584,306
59.609,295
59.634,274
59.659,250
59.684,220
59.709,180
59.734,135
59.759,95
59.784,58
59.809,11
59.834,-49
59.859,-98
59.884,-91
59.909,-7
59.934,122
59.959,241
59.984,306
60.009,323
60.034,321
60.059,319
60.084,317
60.109,305
60.134,288
60.159,282
60.184,289
60.209,298
60.234,295
60.259,279
60.284,254
60.309,224
60.334,186
60.359,143
60.384,102
60.409,66
60.434,24
60.459,-33
60.484,-92
60.509,-111
60.534,-56
60.559,64
60.584,198
60.609,291
60.634,330
60.659,338
60.684,343
60.709,349
60.734,346
60.759,329
60.784,311
60.809,306
60.834,312
60.859,313
60.884,300
60.909,277
60.934,249
60.959,215
60.984,171
61.009,123
61.034,76
61.059,28
61.084,-30
61.109,-97
61.134,-139
61.159,-111
61.184,0
61.209,156
61.234,290
61.259,360
61.284,376
61.309,374
61.334,378
61.359,377
61.384,357
61.409,324
61.434,307
61.459,320
61.484,348
61.509,361
61.534,343
61.559,304
61.584,263
61.609,222
61.634,173
61.659,112
61.684,48
61.709,-9
61.734,-66
61.759,-127
61.784,-180
61.809,-190
61.834,-128
61.859,-2
61.884,138
61.909,242
61.934,296
61.959,322
61.984,344
62.009,367
62.034,374
62.059,359
62.084,337
62.109,330
62.134,340
62.159,350
62.184,342
62.209,315
62.234,281
62.259,248
62.284,208
62.309,157
62.334,104
62.359,60
62.384,23
62.409,-27
62.434,-102
62.459,-174
62.484,-187
62.509,-106
62.534,45
62.559,202
62.584,305
62.609,346
62.634,360
62.659,377
62.684,396
62.709,400
62.734,383
62.759,365
62.784,367
62.809,384
62.834,390
62.859,369
62.884,330
62.909,293
62.934,263
62.959,228
62.984,176
63.009,117
63.034,69
63.059,34
63.084,-9
63.109,-79
63.134,-151
63.159,-174
63.184,-110
63.209,25
63.234,172
63.259,275
63.284,322
63.309,335
63.334,340
63.359,341
63.384,333
63.409,317
63.434,305
63.459,307
63.484,320
63.509,330
63.534,328
63.559,311
63.584,280
63.609,239
63.634,196
63.659,161
63.684,133
63.709,98
63.734,40
63.759,-30
63.784,-77
63.809,-57
63.834,34
63.859,158
63.884,263
63.909,319
63.934,337
63.959,337
63.984,329
64.009,309
64.034,279
64.059,254
64.084,249
64.109,261
64.134,275
64.159,272
64.184,249
64.209,214
64.234,172
64.259,128
64.284,86
64.309,48
64.334,8
64.359,-44
64.384,-105
64.409,-146
64.434,-129
64.459,-39
64.484,97
64.509,229
64.534,316
64.559,358
64.584,374
64.609,380
64.634,375
64.659,359
64.684,339
64.709,328
64.734,325
64.759,321
64.784,305
64.809,281
64.834,253
64.859,223
64.884,185
64.909,139
64.934,94
64.959,55
64.984,10
65.009,-49
65.034,-110
65.059,-129
65.084,-69
65.109,59
65.134,203
65.159,303
65.184,346
65.209,356
65.234,364
65.259,371
65.284,365
65.309,344
65.334,326
65.359,330
65.384,350
65.409,364
65.434,360
65.459,340
65.484,316
65.509,287
65.534,248
65.559,201
65.584,156
65.609,114
65.634,61
65.659,-8
65.684,-68
65.709,-75
65.734,-3
65.759,119
65.784,231
65.809,288
65.834,296
65.859,292
65.884,298
65.909,305
65.934,293
65.959,265
65.984,245
66.009,251
66.034,271
66.059,282
66.084,270
66.109,242
66.134,207
66.159,168
66.184,125
66.209,82
66.234,43
66.259,3
66.284,-52
66.309,-123
66.334,-178
66.359,-168
66.384,-75
66.409,69
66.434,206
66.459,288
66.484,314
66.509,311
66.534,303
66.559,296
66.584,286
66.609,274
66.634,272
66.659,286
66.684,308
66.709,321
66.734,312
66.759,284
66.784,246
66.809,210
66.834,179
66.859,146
66.884,101
66.909,38
66.934,-21
66.959,-45
66.984,-4
67.009,101
67.034,233
67.059,341
67.084,393
67.109,394
67.134,372
67.159,349
67.184,335
67.209,323
67.234,314
67.259,309
67.284,309
67.309,309
67.334,297
67.359,266
67.384,223
67.409,181
67.434,147
67.459,117
67.484,78
67.509,18
67.534,-49
67.559,-97
67.584,-90
67.609,-15
67.634,106
67.659,230
67.684,315
67.709,346
67.734,339
67.759,319
67.784,306
67.809,299
67.834,291
67.859,279
67.884,269
67.909,266
67.934,267
67.959,259
67.984,232
68.009,188
68.034,141
68.059,99
68.084,56
68.109,-1
68.134,-71
68.159,-120
68.184,-110
68.209,-25
68.234,106
68.259,232
68.284,313
68.309,345
68.334,349
68.359,345
68.384,336
68.409,322
68.434,305
68.459,296
68.484,300
68.509,307
68.534,302
68.559,278
68.584,240
68.609,199
68.634,161
68.659,124
68.684,82
68.709,27
68.734,-38
68.759,-98
68.784,-118
68.809,-71
68.834,40
68.859,179
68.884,293
68.909,356
68.934,376
68.959,382
68.984,389
69.009,390
69.034,377
69.059,355
69.084,342
69.109,345
69.134,352
69.159,343
69.184,317
69.209,283
69.234,250
69.259,210
69.284,157
69.309,96
69.334,45
69.359,6
69.384,-37
69.409,-101
69.434,-169
69.459,-192
69.484,-130
69.509,1
69.534,144
69.559,241
69.584,280
69.609,295
69.634,316
69.659,343
69.684,355
69.709,344
69.734,329
69.759,334
69.784,359
69.809,378
69.834,371
69.859,339
69.884,303
69.909,274
69.934,244
69.959,200
69.984,143
70.009,92
70.034,56
70.059,26
70.084,-20
70.109,-88
70.134,-149
70.159,-157
70.184,-86
70.209,40
70.234,173
70.259,265
70.284,308
70.309,323
70.334,334
70.359,346
70.384,350
70.409,342
70.434,331
70.459,331
70.484,343
70.509,352
70.534,348
70.559,328
70.584,303
70.609,275
70.634,240
70.659,191
70.684,137
70.709,93
70.734,60
70.759,23
70.784,-32
70.809,-98
70.834,-130
70.859,-89
70.884,21
70.909,158
70.934,263
70.959,312
70.984,322
71.009,319
71.034,315
71.059,306
71.084,290
71.109,281
71.134,292
71.159,316
71.184,332
71.209,325
71.234,299
71.259,271
71.284,245
71.309,216
71.334,176
71.359,135
71.384,98
71.409,63
71.434,14
71.459,-46
71.484,-89
71.509,-72
71.534,17
71.559,147
71.584,262
71.609,328
71.634,347
71.659,340
71.684,324
71.709,301
71.734,276
71.759,260
71.784,261
71.809,274
71.834,285
71.859,283
71.884,269
71.909,246
71.934,216
71.959,178
71.984,139
72.009,106
72.034,77
72.059,38
72.084,-17
72.109,-71
72.134,-79
72.159,-13
72.184,109
72.209,238
72.234,323
72.259,353
72.284,350
72.309,340
72.334,333
72.359,325
72.384,313
72.409,303
72.434,301
72.459,306
72.484,307
72.509,296
72.534,269
72.559,231
72.584,191
72.609,155
72.634,124
72.659,84
72.684,24
72.709,-47
72.734,-98
72.759,-85
72.784,4
72.809,138
72.834,261
72.859,332
72.884,352
72.909,345
72.934,331
72.959,313
72.984,289
73.009,265
73.034,256
73.059,261
73.084,270
73.109,266
73.134,244
73.159,210
73.184,174
73.209,141
73.234,114
73.259,88
73.284,50
73.309,-6
73.334,-73
73.359,-115
73.384,-90
73.409,13
73.434,161
73.459,294
73.484,372
73.509,401
73.534,409
73.559,411
73.584,400
73.609,367
73.634,325
73.659,299
73.684,300
73.709,315
73.734,318
73.759,299
73.784,268
73.809,236
73.834,204
73.859,168
73.884,126
73.909,78
73.934,20
73.959,-46
73.984,-106
74.009,-122
74.034,-64
74.059,56
74.084,189
74.109,282
74.134,321
74.159,330
74.184,335
74.209,333
74.234,308
74.259,258
74.284,210
74.309,191
74.334,201
74.359,214
74.384,212
74.409,196
74.434,182
74.459,170
74.484,147
74.509,105
74.534,57
74.559,24
74.584,0
74.609,-37
74.634,-98
74.659,-150
74.684,-140
74.709,-43
74.734,108
74.759,248
74.784,333
74.809,368
74.834,385
74.859,404
74.884,417
74.909,411
74.934,393
74.959,384
74.984,395
75.009,414
75.034,421
75.059,409
75.084,387
75.109,361
75.134,325
75.159,272
75.184,209
75.209,156
75.234,120
75.259,84
75.284,23
75.309,-59
75.334,-119
75.359,-108
75.384,-14
75.409,118
75.434,231
75.459,291
75.484,308
75.509,310
75.534,314
75.559,314
75.584,309
75.609,303
75.634,310
75.659,328
75.684,339
75.709,331
75.734,306
75.759,276
75.784,246
75.809,209
75.834,158
75.859,103
75.884,59
75.909,30
75.934,-1
75.959,-53
75.984,-115
76.009,-143
76.034,-100
76.059,10
76.084,141
76.109,237
76.134,280
76.159,291
76.184,301
76.209,315
76.234,321
76.259,309
76.284,291
76.309,288
76.334,304
76.359,319
76.384,313
76.409,287
76.434,255
76.459,227
76.484,198
76.509,159
76.534,114
76.559,78
76.584,54
76.609,23
76.634,-30
76.659,-93
76.684,-120
76.709,-75
76.734,34
76.759,157
76.784,242
76.809,280
76.834,296
76.859,315
76.884,336
76.909,342
76.934,328
76.959,311
76.984,310
77.009,323
77.034,334
77.059,331
77.084,315
77.109,295
77.134,271
77.159,237
77.184,195
77.209,158
77.234,127
77.259,91
77.284,37
77.309,-22
77.334,-51
77.359,-13
77.384,85
77.409,201
77.434,288
77.459,332
77.484,353
77.509,370
77.534,385
77.559,388
77.584,376
77.609,363
77.634,354
77.659,338
77.684,299
77.709,235
77.734,164
77.759,103
77.784,52
77.809,3
77.834,-44
77.859,-78
77.884,-90
77.909,-97
77.934,-122
77.959,-162
77.984,-181
78.009,-134
78.034,-12
78.059,142
78.084,268
78.109,335
78.134,354
78.159,357
78.184,362
78.209,367
78.234,364
78.259,358
78.284,363
78.309,382
78.334,405
78.359,415
78.384,412
78.409,402
78.434,390
78.459,371
78.484,332
78.509,273
78.534,204
78.559,139
78.584,74
78.609,-2
78.634,-90
78.659,-164
78.684,-182
78.709,-123
78.734,-4
78.759,124
78.784,224
78.809,285
78.834,327
78.859,369
78.884,408
78.909,426
78.934,415
78.959,387
78.984,365
79.009,356
79.034,350
79.059,332
79.084,303
79.109,276
79.134,263
79.159,254
79.184,232
79.209,193
79.234,148
79.259,108
79.284,68
79.309,7
79.334,-77
79.359,-153
79.384,-168
79.409,-98
79.434,29
79.459,148
79.484,211
79.509,219
79.534,211
79.559,220
79.584,245
79.609,266
79.634,272
79.659,272
79.684,282
79.709,298
79.734,304
79.759,289
79.784,261
79.809,234
79.834,211
79.859,180
79.884,137
79.909,93
79.934,63
79.959,44
79.984,12
80.009,-43
80.034,-99
80.059,-103
80.084,-24
80.109,114
80.134,253
80.159,340
80.184,373
80.209,385
80.234,401
80.259,416
80.284,415
80.309,399
80.334,390
80.359,406
80.384,436
80.409,450
80.434,432
80.459,390
80.484,345
80.509,304
80.534,258
80.559,203
80.584,148
80.609,104
80.634,66
80.659,13
80.684,-56
80.709,-109
80.734,-93
80.759,8
80.784,159
80.809,295
80.834,374
80.859,400
80.884,405
80.909,405
80.934,393
80.959,363
80.984,328
81.009,310
81.034,315
81.059,320
81.084,303
81.109,261
81.134,210
81.159,163
81.184,116
81.209,59
81.234,-1
81.259,-51
81.284,-90
81.309,-135
81.334,-200
81.359,-265
81.384,-276
81.409,-201
81.434,-59
81.459,82
81.484,170
81.509,200
81.534,209
81.559,226
81.584,246
81.609,247
81.634,224
81.659,202
81.684,202
81.709,221
81.734,242
81.759,254
81.784,261
81.809,273
81.834,280
81.859,265
81.884,230
81.909,193
81.934,169
81.959,147
81.984,103
82.009,36
82.034,-11
82.059,13
82.084,119
82.109,260
82.134,371
82.159,423
82.184,434
82.209,439
82.234,449
82.259,450
82.284,431
82.309,404
82.334,389
82.359,392
82.384,395
82.409,384
82.434,358
82.459,327
82.484,296
82.509,254
82.534,200
82.559,144
82.584,97
82.609,52
82.634,-4
82.659,-74
82.684,-120
82.709,-99
82.734,1
82.759,139
82.784,253
82.809,311
82.834,328
82.859,334
82.884,342
82.909,340
82.934,322
82.959,300
82.984,294
83.009,305
83.034,314
83.059,303
83.084,272
83.109,237
83.134,204
83.159,166
83.184,118
83.209,68
83.234,27
83.259,-11
83.284,-65
83.309,-131
83.334,-176
83.359,-152
83.384,-46
83.409,99
83.434,222
83.459,285
83.484,302
83.509,306
83.534,313
83.559,318
83.584,313
83.609,306
83.634,309
83.659,321
83.684,327
83.709,315
83.734,288
83.759,258
83.784,227
83.809,190
83.834,146
83.859,105
83.884,71
83.909,35
83.934,-18
83.959,-80
83.984,-110
84.009,-65
84.034,54
84.059,200
84.084,313
84.109,368
84.134,381
84.159,380
84.184,374
84.209,358
84.234,334
84.259,317
84.284,322
84.309,340
84.334,349
84.359,336
84.384,306
84.409,275
84.434,243
84.459,206
84.484,162
84.509,118
84.534,77
84.559,28
84.584,-35
84.609,-99
84.634,-117
84.659,-53
84.684,76
84.709,216
84.734,306
84.759,334
84.784,328
84.809,321
84.834,317
84.859,303
84.884,278
84.909,258
84.934,263
84.959,284
84.984,298
85.009,287
85.034,254
85.059,213
85.084,172
85.109,128
85.134,80
85.159,34
85.184,-7
85.209,-56
85.234,-120
85.259,-180
85.284,-191
85.309,-120
85.334,23
85.359,181
85.384,296
85.409,349
85.434,364
85.459,371
85.484,377
85.509,373
85.534,357
85.559,346
85.584,350
85.609,364
85.634,367
85.659,352
85.684,324
85.709,294
85.734,259
85.759,208
85.784,145
85.809,92
85.834,58
85.859,25
85.884,-35
85.909,-119
85.934,-175
85.959,-144
85.984,-17
86.009,146
86.034,273
86.059,333
86.084,350
86.109,366
86.134,388
86.159,394
86.184,373
86.209,343
86.234,335
86.259,350
86.284,364
86.309,351
86.334,317
86.359,284
86.384,257
86.409,224
86.434,171
86.459,107
86.484,53
86.509,11
86.534,-38
86.559,-106
86.584,-162
86.609,-152
86.634,-52
86.659,103
86.684,248
86.709,332
86.734,359
86.759,363
86.784,364
86.809,360
86.834,343
86.859,324
86.884,319
86.909,329
86.934,338
86.959,330
86.984,308
87.009,282
87.034,256
87.059,223
87.084,178
87.109,130
87.134,87
87.159,44
87.184,-14
87.209,-83
87.234,-127
87.259,-100
87.284,6
87.309,156
87.334,289
87.359,363
87.384,383
87.409,373
87.434,356
87.459,336
87.484,313
87.509,291
87.534,277
87.559,274
87.584,276
87.609,275
87.634,264
87.659,237
87.684,196
87.709,149
87.734,108
87.759,70
87.784,23
87.809,-45
87.834,-117
87.859,-152
87.884,-110
87.909,6
87.934,151
87.959,269
87.984,328
88.009,338
88.034,329
88.059,318
88.084,309
88.109,302
88.134,299
88.159,304
88.184,314
88.209,322
88.234,317
88.259,296
88.284,261
88.309,219
88.334,180
88.359,151
88.384,121
88.409,76
88.434,11
88.459,-46
88.484,-54
88.509,14
88.534,143
88.559,278
88.584,371
88.609,411
88.634,416
88.659,408
88.684,396
88.709,378
88.734,358
88.759,347
88.784,349
88.809,353
88.834,343
88.859,314
88.884,271
88.909,220
88.934,165
88.959,109
88.984,53
89.009,-5
89.034,-78
89.059,-165
89.084,-240
89.109,-262
89.134,-205
89.159,-87
89.184,36
89.209,116
89.234,146
89.259,149
89.284,150
89.309,150
89.334,136
89.359,105
89.384,70
89.409,46
89.434,34
89.459,25
89.484,5
89.509,-27
89.534,-65
89.559,-90
89.584,-75
89.609,-4
89.634,104
89.659,205
89.684,256
89.709,267
89.734,301
89.759,420
89.784,626
89.809,855
89.834,1028
89.859,1111
89.884,1120
89.909,1083
89.934,1009
89.959,891
89.984,733
90.009,562
90.034,404
90.059,268
90.084,158
90.109,76
90.134,22
90.159,-17
90.184,-71
90.209,-152
90.234,-245
90.259,-317
90.284,-364
90.309,-409
90.334,-470
90.359,-525
90.384,-514
90.409,-405
90.434,-229
90.459,-56
90.484,58
90.509,120
90.534,163
90.559,208
90.584,244
90.609,258
90.634,257
90.659,263
90.684,288
90.709,319
90.734,337
90.759,335
90.784,321
90.809,302
90.834,282
90.859,262
90.884,243
90.909,223
90.934,195
90.959,155
90.984,124
91.009,137
91.034,213
91.059,336
91.084,458
91.109,541
91.134,581
91.159,599
91.184,613
91.209,622
91.234,620
91.259,612
91.284,605
91.309,597
91.334,572
91.359,514
91.384,425
91.409,323
91.434,225
91.459,133
91.484,44
91.509,-45
91.534,-137
91.559,-229
91.584,-315
91.609,-372
91.634,-368
91.659,-287
91.684,-149
91.709,-8
91.734,87
91.759,129
91.784,143
91.809,153
91.834,163
91.859,162
91.884,151
91.909,147
91.934,167
91.959,201
91.984,224
92.009,222
92.034,204
92.059,188
92.084,177
92.109,159
92.134,125
92.159,84
92.184,55
92.209,36
92.234,8
92.259,-40
92.284,-94
92.309,-112
92.334,-67
92.359,26
92.384,117
92.409,159
92.434,142
92.459,86
92.484,28
92.509,-11
92.534,-23
92.559,-7
92.584,38
92.609,112
92.634,210
92.659,328
92.684,455
92.709,572
92.734,655
92.759,686
92.784,673
92.809,642
92.834,620
92.859,609
92.884,586
92.909,536
92.934,472
92.959,433
92.984,446
93.009,507
93.034,576
93.059,619
93.084,623
93.109,594
93.134,542
93.159,469
93.184,378
93.209,286
93.234,218
93.259,184
93.284,174
93.309,160
93.334,118
93.359,41
93.384,-56
93.409,-154
93.434,-227
93.459,-268
93.484,-287
93.509,-304
93.534,-332
93.559,-357
93.584,-344
93.609,-266
93.634,-136
93.659,0
93.684,97
93.709,138
93.734,140
93.759,125
93.784,100
93.809,69
93.834,46
93.859,53
93.884,100
93.909,172
93.934,239
93.959,281
93.984,302
94.009,313
94.034,317
94.059,309
94.084,288
94.109,264
94.134,240
94.159,204
94.184,143
94.209,71
94.234,35
94.259,74
94.284,183
94.309,310
94.334,396
94.359,424
94.384,420
94.409,417
94.434,417
94.459,404
94.484,373
94.509,345
94.534,342
94.559,365
94.584,388
94.609,385
94.634,353
94.659,305
94.684,254
94.709,200
94.734,143
94.759,89
94.784,37
94.809,-19
94.834,-85
94.859,-142
94.884,-149
94.909,-74
94.934,68
94.959,221
94.984,327
95.009,372
95.034,385
95.059,396
95.084,411
95.109,414
95.134,400
95.159,386
95.184,388
95.209,403
95.234,407
95.259,384
95.284,335
95.309,272
95.334,194
95.359,98
95.384,-6
95.409,-93
95.434,-143
95.459,-165
95.484,-194
95.509,-243
95.534,-281
95.559,-254
95.584,-136
95.609,36
95.634,196
95.659,292
95.684,325
95.709,330
95.734,336
95.759,347
95.784,359
95.809,372
95.834,394
95.859,422
95.884,446
95.909,453
95.934,442
95.959,418
95.984,384
96.009,339
96.034,287
96.059,236
96.084,186
96.109,122
96.134,29
96.159,-78
96.184,-151
96.209,-139
96.234,-35
96.259,104
96.284,214
96.309,261
96.334,266
96.359,269
96.384,283
96.409,295
96.434,291
96.459,277
96.484,275
96.509,291
96.534,309
96.559,312
96.584,298
96.609,274
96.634,243
96.659,201
96.684,149
96.709,99
96.734,65
96.759,38
96.784,-1
96.809,-63
96.834,-121
96.859,-129
96.884,-61
96.909,57
96.934,177
96.959,260
96.984,300
97.009,315
97.034,318
97.059,311
97.084,297
97.109,286
97.134,286
97.159,293
97.184,296
97.209,293
97.234,286
97.259,280
97.284,268
97.309,243
97.334,206
97.359,169
97.384,137
97.409,100
97.434,43
97.459,-22
97.484,-58
97.509,-30
97.534,62
97.559,180
97.584,275
97.609,325
97.634,337
97.659,330
97.684,316
97.709,300
97.734,288
97.759,287
97.784,297
97.809,310
97.834,314
97.859,301
97.884,275
97.909,239
97.934,197
97.959,152
97.984,110
98.009,69
98.034,19
98.059,-41
98.084,-97
98.109,-115
98.134,-70
98.159,30
98.184,145
98.209,230
98.234,266
98.259,269
98.284,261
98.309,257
98.334,256
98.359,255
98.384,258
98.409,268
98.434,281
98.459,284
98.484,268
98.509,234
98.534,193
98.559,158
98.584,136
98.609,119
98.634,88
98.659,37
98.684,-19
98.709,-49
98.734,-18
98.759,74
98.784,198
98.809,309
98.834,382
98.859,420
98.884,438
98.909,443
98.934,439
98.959,427
98.984,420
99.009,425
99.034,437
99.059,443
99.084,436
99.109,413
99.134,377
99.159,322
99.184,247
99.209,161
99.234,79
99.259,6
99.284,-72
99.309,-163
99.334,-244
99.359,-269
99.384,-209
99.409,-84
99.434,45
99.459,133
99.484,178
99.509,210
99.534,251
99.559,292
99.584,312
99.609,309
99.634,302
99.659,312
99.684,337
99.709,357
99.734,357
99.759,338
99.784,308
99.809,274
99.834,237
99.859,198
99.884,155
99.909,110
99.934,64
99.959,21
99.984,-15
100.009,-53
100.034,-107
100.059,-184
100.084,-257
100.109,-278
100.134,-210
100.159,-70
100.184,81
100.209,190
100.234,250
100.259,292
100.284,348
100.309,410
100.334,451
100.359,456
100.384,445
100.409,444
100.434,459
100.459,472
100.484,463
100.509,429
100.534,385
100.559,342
100.584,300
100.609,256
100.634,210
100.659,167
100.684,127
100.709,90
100.734,57
100.759,27
100.784,-6
100.809,-60
100.834,-131
100.859,-189
100.884,-190
100.909,-112
100.934,19
100.959,152
100.984,245
101.009,297
101.034,337
101.059,381
101.084,420
101.109,439
101.134,439
101.159,441
101.184,459
101.209,485
101.234,495
101.259,480
101.284,450
101.309,421
101.334,397
101.359,367
101.384,323
101.409,273
101.434,230
101.459,196
101.484,158
101.509,108
101.534,50
101.559,1
101.584,-35
101.609,-72
101.634,-128
101.659,-198
101.684,-248
101.709,-235
101.734,-147
101.759,-13
101.784,115
101.809,202
101.834,244
101.859,264
101.884,280
101.909,295
101.934,300
101.959,295
101.984,291
102.009,300
102.034,319
102.059,332
102.084,325
102.109,303
102.134,278
102.159,260
102.184,243
102.209,218
102.234,183
102.259,149
102.284,122
102.309,95
102.334,52
102.359,-8
102.384,-59
102.409,-63
102.434,0
102.459,107
102.484,215
102.509,287
102.534,317
102.559,328
102.584,338
102.609,349
102.634,352
102.659,344
102.684,333
102.709,330
102.734,335
102.759,336
102.784,321
102.809,292
102.834,258
102.859,224
102.884,189
102.909,147
102.934,100
102.959,57
102.984,24
103.009,-9
103.034,-55
103.059,-112
103.084,-152
103.109,-139
103.134,-60
103.159,61
103.184,179
103.209,256
103.234,293
103.259,312
103.284,332
103.309,353
103.334,361
103.359,355
103.384,347
103.409,351
103.434,365
103.459,373
103.484,360
103.509,330
103.534,297
103.559,269
103.584,238
103.609,194
103.634,140
103.659,92
103.684,58
103.709,27
103.734,-20
103.759,-88
103.784,-146
103.809,-148
103.834,-75
103.859,48
103.884,173
103.909,257
103.934,299
103.959,322
103.984,346
104.009,370
104.034,381
104.059,374
104.084,363
104.109,364
104.134,377
104.159,387
104.184,376
104.209,344
104.234,303
104.259,264
104.284,227
104.309,183
104.334,131
104.359,83
104.384,47
104.409,14
104.434,-33
104.459,-101
104.484,-164
104.509,-179
104.534,-122
104.559,-6
104.584,121
104.609,216
104.634,268
104.659,295
104.684,320
104.709,346
104.734,363
104.759,362
104.784,353
104.809,350
104.834,359
104.859,367
104.884,360
104.909,335
104.934,302
104.959,273
104.984,242
105.009,202
105.034,153
105.059,110
105.084,85
105.109,68
105.134,31
105.159,-41
105.184,-122
105.209,-157
105.234,-105
105.259,21
105.284,164
105.309,265
105.334,308
105.359,321
105.384,334
105.409,349
105.434,355
105.459,343
105.484,329
105.509,328
105.534,338
105.559,343
105.584,329
105.609,300
105.634,268
105.659,236
105.684,202
105.709,161
105.734,121
105.759,87
105.784,50
105.809,-2
105.834,-65
105.859,-104
105.884,-80
105.909,11
105.934,137
105.959,245
105.984,307
106.009,329
106.034,333
106.059,332
106.084,325
106.109,313
106.134,300
106.159,294
106.184,291
106.209,288
106.234,282
106.259,271
106.284,254
106.309,225
106.334,184
106.359,140
106.384,102
106.409,63
106.434,11
106.459,-55
106.484,-107
106.509,-100
106.534,-16
106.559,115
106.584,239
106.609,315
106.634,343
106.659,346
106.684,342
106.709,332
106.734,312
106.759,290
106.784,281
106.809,289
106.834,302
106.859,304
106.884,289
106.909,260
106.934,221
106.959,180
106.984,140
107.009,103
107.034,63
107.059,8
107.084,-62
107.109,-118
107.134,-117
107.159,-38
107.184,94
107.209,220
107.234,297
107.259,320
107.284,319
107.309,319
107.334,318
107.359,306
107.384,284
107.409,268
107.434,266
107.459,275
107.484,280
107.509,278
107.534,275
107.559,272
107.584,257
107.609,221
107.634,167
107.659,110
107.684,57
107.709,0
107.734,-61
107.759,-108
107.784,-102
107.809,-23
107.834,103
107.859,225
107.884,303
107.909,338
107.934,358
107.959,377
107.984,386
108.009,372
108.034,345
108.059,332
108.084,346
108.109,368
108.134,369
108.159,338
108.184,292
108.209,254
108.234,228
108.259,194
108.284,140
108.309,76
108.334,23
108.359,-10
108.384,-45
108.409,-101
108.434,-169
108.459,-210
108.484,-180
108.509,-74
108.534,71
108.559,205
108.584,293
108.609,339
108.634,364
108.659,383
108.684,397
108.709,397
108.734,386
108.759,376
108.784,378
108.809,387
108.834,390
108.859,375
108.884,344
108.909,310
108.934,275
108.959,234
108.984,182
109.009,126
109.034,75
109.059,33
109.084,-14
109.109,-80
109.134,-148
109.159,-175
109.184,-126
109.209,-10
109.234,123
109.259,220
109.284,266
109.309,280
109.334,290
109.359,301
109.384,301
109.409,288
109.434,279
109.459,290
109.484,318
109.509,341
109.534,340
109.559,321
109.584,295
109.609,266
109.634,229
109.659,182
109.684,136
109.709,101
109.734,66
109.759,14
109.784,-53
109.809,-102
109.834,-86
109.859,4
109.884,136
109.909,252
109.934,321
109.959,349
109.984,356
110.009,355
110.034,345
110.059,329
110.084,318
110.109,320
110.134,329
110.159,330
110.184,319
110.209,299
110.234,274
110.259,241
110.284,195
110.309,145
110.334,102
110.359,68
110.384,25
110.409,-35
110.434,-92
110.459,-103
110.484,-37
110.509,85
110.534,210
110.559,290
110.584,321
110.609,327
110.634,329
110.659,325
110.684,309
110.709,285
110.734,270
110.759,272
110.784,281
110.809,279
110.834,263
110.859,237
110.884,207
110.909,169
110.934,126
110.959,84
110.984,49
111.009,13
111.034,-40
111.059,-105
111.084,-140
111.109,-101
111.134,19
111.159,173
111.184,294
111.209,351
111.234,360
111.259,356
111.284,357
111.309,355
111.334,342
111.359,327
111.384,325
111.409,336
111.434,343
111.459,332
111.484,303
111.509,269
111.534,235
111.559,197
111.584,151
111.609,105
111.634,63
111.659,19
111.684,-39
111.709,-107
111.734,-145
111.759,-112
111.784,-3
111.809,138
111.834,254
111.859,315
111.884,335
111.909,347
111.934,360
111.959,365
111.984,353
112.009,334
112.034,327
112.059,338
112.084,350
112.109,345
112.134,321
112.159,289
112.184,257
112.209,219
112.234,171
112.259,117
112.284,69
112.309,27
112.334,-21
112.359,-84
112.384,-137
112.409,-136
112.434,-56
112.459,77
112.484,206
112.509,286
112.534,314
112.559,320
112.584,330
112.609,341
112.634,338
112.659,321
112.684,307
112.709,308
112.734,318
112.759,320
112.784,304
112.809,277
112.834,248
112.859,215
112.884,171
112.909,120
112.934,73
112.959,33
112.984,-14
113.009,-78
113.034,-142
113.059,-159
113.084,-96
113.109,31
113.134,170
113.159,266
113.184,305
113.209,312
113.234,316
113.259,328
113.284,342
113.309,352
113.334,359
113.359,361
113.384,358
113.409,345
113.434,325
113.459,302
113.484,273
113.509,232
113.534,182
113.559,133
113.584,93
113.609,53
113.634,-1
113.659,-63
113.684,-98
113.709,-66
113.734,37
113.759,173
113.784,284
113.809,341
113.834,351
113.859,340
113.884,325
113.909,310
113.934,294
113.959,282
113.984,281
114.009,288
114.034,295
114.059,292
114.084,274
114.109,242
114.134,199
114.159,154
114.184,114
114.209,79
114.234,39
114.259,-14
114.284,-68
114.309,-89
114.334,-46
114.359,59
114.384,186
114.409,287
114.434,336
114.459,341
114.484,328
114.509,313
114.534,300
114.559,287
114.584,276
114.609,274
114.634,278
114.659,284
114.684,279
114.709,257
114.734,218
114.759,172
114.784,131
114.809,99
114.834,69
114.859,23
114.884,-36
114.909,-83
114.934,-74
114.959,8
114.984,140
115.009,265
115.034,340
115.059,364
115.084,363
115.109,360
115.134,356
115.159,346
115.184,328
115.209,315
115.234,312
115.259,314
115.284,306
115.309,282
115.334,245
115.359,203
115.384,159
115.409,118
115.434,78
115.459,36
115.484,-15
115.509,-78
115.534,-128
115.559,-129
115.584,-56
115.609,69
115.634,199
115.659,284
115.684,315
115.709,319
115.734,321
115.759,326
115.784,326
115.809,318
115.834,312
115.859,316
115.884,325
115.909,325
115.934,310
115.959,281
115.984,244
116.009,202
116.034,158
116.059,118
116.084,85
116.109,45
116.134,-13
116.159,-84
116.184,-127
116.209,-101
116.234,1
116.259,136
116.284,247
116.309,305
116.334,324
116.359,332
116.384,342
116.409,341
116.434,324
116.459,305
116.484,302
116.509,315
116.534,326
116.559,320
116.584,300
116.609,274
116.634,240
116.659,191
116.684,131
116.709,80
116.734,53
116.759,36
116.784,-3
116.809,-73
116.834,-134
116.859,-124
116.884,-24
116.909,123
116.934,244
116.959,301
116.984,311
117.009,319
117.034,340
117.059,354
117.084,342
117.109,317
117.134,307
117.159,325
117.184,349
117.209,351
117.234,326
117.259,294
117.284,272
117.309,252
117.334,215
117.359,162
117.384,111
117.409,78
117.434,49
117.459,2
117.484,-59
117.509,-94
117.534,-59
117.559,45
117.584,178
117.609,286
117.634,344
117.659,365
117.684,370
117.709,365
117.734,349
117.759,327
117.784,312
117.809,310
117.834,319
117.859,325
117.884,323
117.909,310
117.934,285
117.959,246
117.984,202
118.009,166
118.034,146
118.059,125
118.084,78
118.109,2
118.134,-70
118.159,-89
118.184,-31
118.209,79
118.234,191
118.259,265
118.284,294
118.309,292
118.334,271
118.359,241
118.384,213
118.409,198
118.434,196
118.459,198
118.484,194
118.509,182
118.534,171
118.559,158
118.584,132
118.609,87
118.634,31
118.659,-21
118.684,-68
118.709,-120
118.734,-180
118.759,-225
118.784,-213
118.809,-130
118.834,-6
118.859,102
118.884,163
118.909,184
118.934,198
118.959,225
118.984,264
119.009,304
119.034,342
119.059,385
119.084,433
119.109,479
119.134,509
119.159,520
119.184,512
119.209,493
119.234,469
119.259,442
119.284,409
119.309,360
119.334,285
119.359,202
119.384,150
119.409,168
119.434,257
119.459,373
119.484,458
119.509,482
119.534,460
119.559,428
119.584,401
119.609,371
119.634,326
119.659,269
119.684,215
119.709,178
119.734,153
119.759,125
119.784,84
119.809,34
119.834,-11
119.859,-46
119.884,-73
119.909,-105
119.934,-155
119.959,-214
119.984,-254
120.009,-239
120.034,-155
120.059,-27
120.084,98
120.109,182
120.134,219
120.159,228
120.184,232
120.209,233
120.234,230
120.259,223
120.284,223
120.309,235
120.334,251
120.359,258
120.384,251
120.409,233
120.434,210
120.459,184
120.484,154
120.509,124
120.534,93
120.559,54
120.584,3
120.609,-43
120.634,-49
120.659,15
120.684,143
120.709,285
120.734,389
120.759,440
120.784,458
120.809,470
120.834,479
120.859,477
120.884,463
120.909,452
120.934,454
120.959,456
120.984,435
121.009,385
121.034,325
121.059,277
121.084,242
121.109,203
121.134,153
121.159,105
121.184,74
121.209,51
121.234,11
121.259,-56
121.284,-119
121.309,-124
121.334,-48
121.359,73
121.384,180
121.409,233
121.434,241
121.459,237
121.484,241
121.509,247
121.534,243
121.559,236
121.584,243
121.609,271
121.634,302
121.659,315
121.684,301
121.709,276
121.734,255
121.759,237
121.784,211
121.809,170
121.834,126
121.859,90
121.884,59
121.909,10
121.934,-72
121.959,-169
121.984,-226
122.009,-196
122.034,-78
122.059,77
122.084,209
122.109,285
122.134,318
122.159,338
122.184,360
122.209,376
122.234,375
122.259,364
122.284,361
122.309,377
122.334,400
122.359,407
122.384,387
122.409,353
122.434,318
122.459,288
122.484,251
122.509,202
122.534,149
122.559,103
122.584,64
122.609,16
122.634,-49
122.659,-114
122.684,-137
122.709,-88
122.734,24
122.759,154
122.784,250
122.809,293
122.834,302
122.859,305
122.884,316
122.909,326
122.934,323
122.959,312
122.984,307
123.009,317
123.034,334
123.059,340
123.084,326
123.109,299
123.134,271
123.159,242
123.184,204
123.209,156
123.234,108
123.259,68
123.284,32
123.309,-17
123.334,-80
123.359,-126
123.384,-113
123.409,-24
123.434,107
123.459,226
123.484,292
123.509,313
123.534,318
123.559,323
123.584,323
123.609,312
123.634,296
123.659,293
123.684,309
123.709,327
123.734,328
123.759,309
123.784,280
123.809,250
123.834,216
123.859,172
123.884,127
123.909,91
123.934,59
123.959,15
123.984,-45
124.009,-94
124.034,-87
124.059,-1
124.084,131
124.109,254
124.134,324
124.159,342
124.184,336
124.209,327
124.234,319
124.259,307
124.284,297
124.309,297
124.334,307
124.359,315
124.384,309
124.409,288
124.434,255
124.459,216
124.484,173
124.509,132
124.534,99
124.559,67
124.584,21
124.609,-41
124.634,-96
124.659,-102
124.684,-32
124.709,93
124.734,222
124.759,308
124.784,342
124.809,345
124.834,338
124.859,326
124.884,310
124.909,294
124.934,288
124.959,294
124.984,303
125.009,303
125.034,289
125.059,263
125.084,229
125.109,188
125.134,146
125.159,106
125.184,65
125.209,10
125.234,-56
125.259,-107
125.284,-101
125.309,-18
125.334,111
125.359,233
125.384,306
125.409,332
125.434,339
125.459,345
125.484,345
125.509,330
125.534,308
125.559,297
125.584,304
125.609,316
125.634,315
125.659,294
125.684,261
125.709,225
125.734,185
125.759,140
125.784,94
125.809,48
125.834,-6
125.859,-74
125.884,-137
125.909,-154
125.934,-92
125.959,35
125.984,173
126.009,268
126.034,308
126.059,320
126.084,332
126.109,347
126.134,349
126.159,334
126.184,319
126.209,323
126.234,337
126.259,341
126.284,321
126.309,284
126.334,244
126.359,205
126.384,160
126.409,110
126.434,65
126.459,29
126.484,-10
126.509,-67
126.534,-130
126.559,-159
126.584,-114
126.609,1
126.634,142
126.659,253
126.684,313
126.709,340
126.734,362
126.759,387
126.784,404
126.809,404
126.834,393
126.859,390
126.884,399
126.909,410
126.934,405
126.959,379
126.984,341
127.009,304
127.034,269
127.059,226
127.084,171
127.109,113
127.134,65
127.159,30
127.184,-6
127.209,-61
127.234,-131
127.259,-182
127.284,-177
127.309,-102
127.334,17
127.359,135
127.384,217
127.409,262
127.434,288
127.459,311
127.484,331
127.509,340
127.534,336
127.559,332
127.584,338
127.609,354
127.634,365
127.659,357
127.684,330
127.709,296
127.734,265
127.759,237
127.784,201
127.809,154
127.834,104
127.859,65
127.884,40
127.909,15
127.934,-29
127.959,-94
127.984,-149
128.009,-154
128.034,-87
128.059,31
128.084,155
128.109,242
128.134,287
128.159,308
128.184,328
128.209,349
128.234,362
128.259,360
128.284,352
128.309,352
128.334,365
128.359,381
128.384,384
128.409,368
128.434,339
128.459,307
128.484,276
128.509,242
128.534,200
128.559,154
128.584,114
128.609,85
128.634,56
128.659,14
128.684,-41
128.709,-89
128.734,-93
128.759,-32
128.784,76
128.809,189
128.834,268
128.859,303
128.884,314
128.909,320
128.934,326
128.959,322
128.984,307
129.009,294
129.034,293
129.059,304
129.084,308
129.109,294
129.134,267
129.159,242
129.184,222
129.209,198
129.234,162
129.259,122
129.284,92
129.309,74
129.334,51
129.359,4
129.384,-54
129.409,-85
129.434,-52
129.459,45
129.484,165
129.509,258
129.534,302
129.559,312
129.584,314
129.609,317
129.634,315
129.659,303
129.684,288
129.709,283
129.734,293
129.759,306
129.784,307
129.809,291
129.834,265
129.859,238
129.884,210
129.909,178
129.934,143
129.959,111
129.984,83
130.009,47
130.034,-6
130.059,-67
130.084,-104
130.109,-82
130.134,2
130.159,116
130.184,212
130.209,266
130.234,286
130.259,297
130.284,310
130.309,317
130.334,311
130.359,296
130.384,290
130.409,300
130.434,314
130.459,317
130.484,302
130.509,278
130.534,255
130.559,231
130.584,196
130.609,149
130.634,102
130.659,66
130.684,32
130.709,-16
130.734,-84
130.759,-140
130.784,-140
130.809,-64
130.834,61
130.859,186
130.884,272
130.909,319
130.934,347
130.959,371
130.984,387
131.009,385
131.034,370
131.059,360
131.084,367
131.109,383
131.134,389
131.159,373
131.184,340
131.209,304
131.234,270
131.259,232
131.284,182
131.309,126
131.334,78
131.359,38
131.384,-5
131.409,-68
131.434,-138
131.459,-177
131.484,-146
131.509,-40
131.534,99
131.559,218
131.584,286
131.609,314
131.634,330
131.659,353
131.684,374
131.709,380
131.734,371
131.759,362
131.784,365
131.809,372
131.834,369
131.859,348
131.884,314
131.909,280
131.934,245
131.959,201
131.984,147
132.009,96
132.034,58
132.059,27
132.084,-18
132.109,-88
132.134,-150
132.159,-156
132.184,-79
132.209,53
132.234,183
132.259,265
132.284,298
132.309,313
132.334,330
132.359,345
132.384,341
132.409,324
132.434,314
132.459,326
132.484,349
132.509,355
132.534,333
132.559,295
132.584,259
132.609,232
132.634,201
132.659,158
132.684,112
132.709,73
132.734,37
132.759,-11
132.784,-75
132.809,-123
132.834,-115
132.859,-36
132.884,84
132.909,196
132.934,269
132.959,306
132.984,324
133.009,333
133.034,329
133.059,316
133.084,307
133.109,312
133.134,326
133.159,329
133.184,312
133.209,284
133.234,256
133.259,229
133.284,192
133.309,144
133.334,101
133.359,73
133.384,53
133.409,15
133.434,-40
133.459,-81
133.484,-63
133.509,25
133.534,146
133.559,245
133.584,295
133.609,310
133.634,313
133.659,311
133.684,297
133.709,273
133.734,261
133.759,278
133.784,315
133.809,340
133.834,334
133.859,300
133.884,261
133.909,231
133.934,206
133.959,179
133.984,144
134.009,103
134.034,48
134.059,-18
134.084,-80
134.109,-100
134.134,-49
134.159,59
134.184,178
134.209,261
134.234,300
134.259,319
134.284,339
134.309,356
134.334,357
134.359,339
134.384,321
134.409,317
134.434,325
134.459,326
134.484,311
134.509,286
134.534,260
134.559,231
134.584,192
134.609,144
134.634,98
134.659,58
134.684,14
134.709,-46
134.734,-108
134.759,-128
134.784,-71
134.809,51
134.834,184
134.859,272
134.884,306
134.909,314
134.934,327
134.959,345
134.984,352
135.009,339
135.034,322
135.059,319
135.084,328
135.109,332
135.134,317
135.159,289
135.184,255
135.209,217
135.234,168
135.259,110
135.284,58
135.309,20
135.334,-14
135.359,-61
135.384,-116
135.409,-140
135.434,-95
135.459,16
135.484,147
135.509,241
135.534,282
135.559,295
135.584,307
135.609,323
135.634,326
135.659,312
135.684,297
135.709,300
135.734,318
135.759,332
135.784,324
135.809,300
135.834,273
135.859,247
135.884,214
135.909,171
135.934,130
135.959,98
135.984,63
136.009,11
136.034,-52
136.059,-90
136.084,-58
136.109,44
136.134,172
136.159,266
136.184,307
136.209,317
136.234,326
136.259,337
136.284,336
136.309,316
136.334,295
136.359,292
136.384,307
136.409,318
136.434,309
136.459,283
136.484,253
136.509,223
136.534,187
136.559,145
136.584,106
136.609,74
136.634,40
136.659,-9
136.684,-68
136.709,-97
136.734,-58
136.759,47
136.784,175
136.809,271
136.834,317
136.859,327
136.884,328
136.909,327
136.934,316
136.959,298
136.984,285
137.009,288
137.034,299
137.059,302
137.084,288
137.109,262
137.134,235
137.159,206
137.184,170
137.209,130
137.234,91
137.259,52
137.284,3
137.309,-57
137.334,-105
137.359,-98
137.384,-19
137.409,107
137.434,225
137.459,295
137.484,322
137.509,331
137.534,343
137.559,350
137.584,342
137.609,324
137.634,314
137.659,321
137.684,332
137.709,329
137.734,307
137.759,276
137.784,245
137.809,209
137.834,162
137.859,111
137.884,67
137.909,32
137.934,-7
137.959,-64
137.984,-122
138.009,-136
138.034,-76
138.059,43
138.084,172
138.109,261
138.134,301
138.159,319
138.184,340
138.209,363
138.234,373
138.259,362
138.284,348
138.309,348
138.334,365
138.359,379
138.384,372
138.409,344
138.434,311
138.459,280
138.484,246
138.509,200
138.534,146
138.559,98
138.584,65
138.609,34
138.634,-14
138.659,-83
138.684,-140
138.709,-143
138.734,-68
138.759,58
138.784,186
138.809,273
138.834,311
138.859,322
138.884,330
138.909,337
138.934,335
138.959,320
138.984,303
139.009,298
139.034,308
139.059,318
139.084,313
139.109,289
139.134,258
139.159,229
139.184,199
139.209,161
139.234,113
139.259,67
139.284,34
139.309,12
139.334,-18
139.359,-74
139.384,-141
139.409,-179
139.434,-149
139.459,-46
139.484,89
139.509,206
139.534,274
139.559,304
139.584,321
139.609,342
139.634,362
139.659,369
139.684,365
139.709,365
139.734,379
139.759,398
139.784,403
139.809,383
139.834,346
139.859,309
139.884,276
139.909,237
139.934,189
139.959,139
139.984,101
140.009,74
140.034,39
140.059,-16
140.084,-79
140.109,-106
140.134,-61
140.159,48
140.184,175
140.209,267
140.234,309
140.259,321
140.284,330
140.309,342
140.334,346
140.359,334
140.384,318
140.409,315
140.434,328
140.459,340
140.484,332
140.509,303
140.534,266
140.559,231
140.584,195
140.609,152
140.634,105
140.659,66
140.684,39
140.709,7
140.734,-45
140.759,-111
140.784,-148
140.809,-116
140.834,-13
140.859,119
140.884,226
140.909,282
140.934,300
140.959,311
140.984,326
141.009,338
141.034,334
141.059,317
141.084,306
141.109,311
141.134,326
141.159,333
141.184,323
141.209,298
141.234,267
141.259,231
141.284,188
141.309,138
141.334,92
141.359,55
141.384,19
141.409,-32
141.434,-98
141.459,-150
141.484,-145
141.509,-65
141.534,66
141.559,196
141.584,282
141.609,321
141.634,339
141.659,353
141.684,359
141.709,346
141.734,318
141.759,298
141.784,303
141.809,324
141.834,335
141.859,322
141.884,292
141.909,262
141.934,238
141.959,211
141.984,176
142.009,140
142.034,110
142.059,80
142.084,31
142.109,-36
142.134,-88
142.159,-79
142.184,7
142.209,134
142.234,245
142.259,308
142.284,331
142.309,340
142.334,345
142.359,340
142.384,322
142.409,304
142.434,300
142.459,309
142.484,313
142.509,300
142.534,278
142.559,261
142.584,246
142.609,220
142.634,175
142.659,124
142.684,82
142.709,47
142.734,1
142.759,-57
142.784,-98
142.809,-78
142.834,17
142.859,153
142.884,269
142.909,329
142.934,340
142.959,332
142.984,323
143.009,314
143.034,301
143.059,287
143.084,281
143.109,282
143.134,282
143.159,273
143.184,252
143.209,224
143.234,190
143.259,154
143.284,119
143.309,85
143.334,46
143.359,-7
143.384,-69
143.409,-113
143.434,-102
143.459,-23
143.484,99
143.509,217
143.534,293
143.559,320
143.584,318
143.609,305
143.634,291
143.659,277
143.684,266
143.709,262
143.734,268
143.759,277
143.784,278
143.809,264
143.834,233
143.859,193
143.884,155
143.909,129
143.934,108
143.959,76
143.984,22
144.009,-37
144.034,-64
144.059,-22
144.084,83
144.109,211
144.134,311
144.159,365
144.184,386
144.209,399
144.234,407
144.259,403
144.284,387
144.309,372
144.334,373
144.359,386
144.384,393
144.409,381
144.434,350
144.459,309
144.484,259
144.509,201
144.534,137
144.559,75
144.584,16
144.609,-46
144.634,-116
144.659,-171
144.684,-170
144.709,-95
144.734,29
144.759,146
144.784,214
144.809,235
144.834,245
144.859,265
144.884,288
144.909,296
144.934,287
144.959,281
144.984,291
145.009,308
145.034,309
145.059,285
145.084,249
145.109,219
145.134,196
145.159,167
145.184,125
145.209,79
145.234,41
145.259,6
145.284,-41
145.309,-104
145.334,-150
145.359,-136
145.384,-49
145.409,78
145.434,192
145.459,259
145.484,290
145.509,314
145.534,345
145.559,372
145.584,379
145.609,367
145.634,355
145.659,359
145.684,375
145.709,381
145.734,365
145.759,333
145.784,298
145.809,266
145.834,230
145.859,184
145.884,134
145.909,94
145.934,63
145.959,27
145.984,-25
146.009,-84
146.034,-113
146.059,-78
146.084,18
146.109,138
146.134,236
146.159,291
146.184,315
146.209,333
146.234,355
146.259,370
146.284,372
146.309,365
146.334,366
146.359,379
146.384,394
146.409,392
146.434,367
146.459,334
146.484,307
146.509,286
146.534,260
146.559,218
146.584,169
146.609,128
146.634,98
146.659,63
146.684,8
146.709,-57
146.734,-103
146.759,-100
146.784,-48
146.809,22
146.834,82
146.859,122
146.884,152
146.909,182
146.934,210
146.959,227
146.984,236
147.009,249
147.034,273
147.059,299
147.084,310
147.109,298
147.134,272
147.159,246
147.184,222
147.209,195
147.234,163
147.259,131
147.284,102
147.309,70
147.334,24
147.359,-24
147.384,-46
147.409,-8
147.434,87
147.459,204
147.484,293
147.509,335
147.534,344
147.559,344
147.584,344
147.609,337
147.634,322
147.659,310
147.684,312
147.709,324
147.734,327
147.759,310
147.784,277
147.809,243
147.834,211
147.859,176
147.884,134
147.909,92
147.934,58
147.959,28
147.984,-9
148.009,-54
148.034,-77
148.059,-46
148.084,47
148.109,168
148.134,264
148.159,309
148.184,317
148.209,316
148.234,322
148.259,324
148.284,313
148.309,297
148.334,292
148.359,302
148.384,314
148.409,309
148.434,283
148.459,251
148.484,222
148.509,193
148.534,155
148.559,111
148.584,70
148.609,40
148.634,7
148.659,-40
148.684,-96
148.709,-124
148.734,-88
148.759,14
148.784,143
148.809,249
148.834,306
148.859,330
148.884,345
148.909,363
148.934,374
148.959,368
148.984,351
149.009,341
149.034,346
149.059,354
149.084,347
149.109,322
149.134,290
149.159,262
149.184,234
149.209,195
149.234,144
149.259,92
149.284,53
149.309,22
149.334,-21
149.359,-85
149.384,-143
149.409,-152
149.434,-87
149.459,33
149.484,160
149.509,247
149.534,290
149.559,308
149.584,326
149.609,343
149.634,349
149.659,339
149.684,327
149.709,326
149.734,338
149.759,348
149.784,344
149.809,325
149.834,298
149.859,266
149.884,225
149.909,174
149.934,121
149.959,75
149.984,37
150.009,-8
150.034,-69
150.059,-128
150.084,-144
150.109,-89
150.134,26
150.159,155
150.184,249
150.209,292
150.234,305
150.259,315
150.284,330
150.309,340
150.334,338
150.359,332
150.384,334
150.409,346
150.434,354
150.459,346
150.484,324
150.509,298
150.534,271
150.559,234
150.584,185
150.609,134
150.634,94
150.659,62
150.684,18
150.709,-45
150.734,-106
150.759,-114
150.784,-42
150.809,87
150.834,217
150.859,300
150.884,334
150.909,344
150.934,351
150.959,351
150.984,334
151.009,305
151.034,285
151.059,285
151.084,295
151.109,296
151.134,280
151.159,255
151.184,227
151.209,195
151.234,157
151.259,118
151.284,86
151.309,56
151.334,15
151.359,-40
151.384,-84
151.409,-77
151.434,-1
151.459,117
151.484,227
151.509,292
151.534,314
151.559,316
151.584,313
151.609,307
151.634,295
151.659,284
151.684,282
151.709,289
151.734,294
151.759,289
151.784,275
151.809,255
151.834,229
151.859,194
151.884,155
151.909,120
151.934,90
151.959,50
151.984,-7
152.009,-63
152.034,-77
152.059,-19
152.084,92
152.109,210
152.134,287
152.159,314
152.184,314
152.209,307
152.234,299
152.259,285
152.284,270
152.309,266
152.334,275
152.359,289
152.384,293
152.409,282
152.434,258
152.459,225
152.484,186
152.509,147
152.534,115
152.559,89
152.584,57
152.609,10
152.634,-38
152.659,-50
152.684,4
152.709,112
152.734,225
152.759,297
152.784,322
152.809,325
152.834,328
152.859,329
152.884,318
152.909,295
152.934,282
152.959,290
152.984,309
153.009,314
153.034,294
153.059,257
153.084,218
153.109,185
153.134,154
153.159,121
153.184,86
153.209,45
153.234,-8
153.259,-68
153.284,-105
153.309,-85
153.334,1
153.359,121
153.384,225
153.409,283
153.434,305
153.459,315
153.484,323
153.509,324
153.534,312
153.559,298
153.584,297
153.609,310
153.634,320
153.659,314
153.684,293
153.709,266
153.734,235
153.759,196
153.784,149
153.809,105
153.834,69
153.859,32
153.884,-20
153.909,-81
153.934,-113
153.959,-77
153.984,28
154.009,160
154.034,260
154.059,304
154.084,314
154.109,321
154.134,336
154.159,344
154.184,335
154.209,319
154.234,316
154.259,330
154.284,343
154.309,335
154.334,307
154.359,273
154.384,243
154.409,210
154.434,165
154.459,110
154.484,60
154.509,23
154.534,-13
154.559,-63
154.584,-118
154.609,-140
154.634,-94
154.659,19
154.684,156
154.709,263
154.734,317
154.759,330
154.784,329
154.809,328
154.834,324
154.859,316
154.884,312
154.909,320
154.934,335
154.959,342
154.984,333
155.009,311
155.034,287
155.059,261
155.084,228
155.109,186
155.134,146
155.159,115
155.184,86
155.209,42
155.234,-15
155.259,-57
155.284,-42
155.309,39
155.334,156
155.359,254
155.384,304
155.409,313
155.434,307
155.459,301
155.484,295
155.509,286
155.534,280
155.559,285
155.584,298
155.609,304
155.634,296
155.659,277
155.684,256
155.709,229
155.734,190
155.759,141
155.784,99
155.809,71
155.834,46
155.859,3
155.884,-53
155.909,-85
155.934,-52
155.959,48
155.984,170
156.009,256
156.034,287
156.059,287
156.084,286
156.109,293
156.134,293
156.159,278
156.184,261
156.209,258
156.234,273
156.259,291
156.284,292
156.309,272
156.334,238
156.359,200
156.384,165
156.409,138
156.434,117
156.459,90
156.484,43
156.509,-20
156.534,-68
156.559,-60
156.584,18
156.609,136
156.634,239
156.659,292
156.684,307
156.709,314
156.734,326
156.759,334
156.784,323
156.809,301
156.834,291
156.859,299
156.884,313
156.909,312
156.934,292
156.959,263
156.984,236
157.009,204
157.034,160
157.059,113
157.084,76
157.109,50
157.134,14
157.159,-43
157.184,-105
157.209,-122
157.234,-62
157.259,58
157.284,185
157.309,268
157.334,302
157.359,314
157.384,329
157.409,343
157.434,341
157.459,323
157.484,308
157.509,314
157.534,334
157.559,343
157.584,329
157.609,299
157.634,268
157.659,242
157.684,210
157.709,164
157.734,113
157.759,72
157.784,41
157.809,2
157.834,-54
157.859,-113
157.884,-133
157.909,-84
157.934,24
157.959,148
157.984,243
158.009,295
158.034,321
158.059,342
158.084,362
158.109,371
158.134,365
158.159,353
158.184,349
158.209,355
158.234,358
158.259,347
158.284,320
158.309,289
158.334,263
158.359,237
158.384,200
158.409,148
158.434,95
158.459,55
158.484,27
158.509,-7
158.534,-63
158.559,-126
158.584,-159
158.609,-122
158.634,-15
158.659,121
158.684,234
158.709,295
158.734,314
158.759,322
158.784,336
158.809,351
158.834,355
158.859,347
158.884,340
158.909,344
158.934,353
158.959,352
158.984,333
159.009,303
159.034,271
159.059,238
159.084,198
159.109,149
159.134,105
159.159,76
159.184,53
159.209,18
159.234,-36
159.259,-86
159.284,-86
159.309,-13
159.334,107
159.359,223
159.384,292
159.409,313
159.434,314
159.459,317
159.484,320
159.509,312
159.534,295
159.559,284
159.584,289
159.609,300
159.634,302
159.659,287
159.684,262
159.709,236
159.734,210
159.759,178
159.784,140
159.809,102
159.834,64
159.859,18
159.884,-37
159.909,-83
159.934,-84
159.959,-21
159.984,89
160.009,206
160.034,288
160.059,326
160.084,331
160.109,321
160.134,304
160.159,286
160.184,272
160.209,271
160.234,279
160.259,289
160.284,292
160.309,286
160.334,269
160.359,241
160.384,201
160.409,158
160.434,123
160.459,95
160.484,61
160.509,8
160.534,-48
160.559,-68
160.584,-19
160.609,88
160.634,208
160.659,291
160.684,324
160.709,325
160.734,320
160.759,317
160.784,308
160.809,293
160.834,279
160.859,276
160.884,284
160.909,289
160.934,281
160.959,258
160.984,225
161.009,190
161.034,159
161.059,130
161.084,97
161.109,48
161.134,-13
161.159,-63
161.184,-67
161.209,-5
161.234,104
161.259,215
161.284,290
161.309,320
161.334,323
161.359,318
161.384,309
161.409,297
161.434,283
161.459,274
161.484,274
161.509,276
161.534,272
161.559,260
161.584,240
161.609,211
161.634,172
161.659,131
161.684,95
161.709,64
161.734,25
161.759,-29
161.784,-81
161.809,-91
161.834,-30
161.859,86
161.884,207
161.909,284
161.934,310
161.959,313
161.984,315
162.009,320
162.034,317
162.059,306
162.084,300
162.109,306
162.134,317
162.159,317
162.184,300
162.209,273
162.234,243
162.259,207
162.284,164
162.309,120
162.334,82
162.359,46
162.384,1
162.409,-48
162.434,-72
162.459,-35
162.484,64
162.509,185
162.534,273
162.559,308
162.584,313
162.609,317
162.634,327
162.659,329
162.684,313
162.709,295
162.734,296
162.759,315
162.784,329
162.809,319
162.834,288
162.859,253
162.884,222
162.909,187
162.934,144
162.959,101
162.984,65
163.009,33
163.034,-13
163.059,-75
163.084,-125
163.109,-120
163.134,-43
163.159,76
163.184,189
163.209,260
163.234,292
163.259,310
163.284,328
163.309,343
163.334,348
163.359,345
163.384,345
163.409,353
163.434,361
163.459,358
163.484,343
163.509,320
163.534,296
163.559,268
163.584,229
163.609,180
163.634,132
163.659,94
163.684,68
163.709,38
163.734,-10
163.759,-74
163.784,-124
163.809,-127
163.834,-64
163.859,43
163.884,155
163.909,233
163.934,271
163.959,286
163.984,297
164.009,312
164.034,323
164.059,322
164.084,317
164.109,319
164.134,331
164.159,345
164.184,348
164.209,334
164.234,309
164.259,277
164.284,242
164.309,200
164.334,157
164.359,120
164.384,92
164.409,64
164.434,21
164.459,-32
164.484,-72
164.509,-62
164.534,11
164.559,125
164.584,230
164.609,289
164.634,304
164.659,300
164.684,303
164.709,312
164.734,311
164.759,295
164.784,276
164.809,274
164.834,289
164.859,302
164.884,295
164.909,270
164.934,241
164.959,217
164.984,192
165.009,156
165.034,112
165.059,72
165.084,41
165.109,8
165.134,-36
165.159,-83
165.184,-98
165.209,-53
165.234,40
165.259,143
165.284,214
165.309,246
165.334,261
165.359,277
165.384,293
165.409,299
165.434,292
165.459,284
165.484,289
165.509,301
165.534,309
165.559,302
165.584,286
165.609,267
165.634,244
165.659,215
165.684,184
165.709,158
165.734,133
165.759,97
165.784,41
165.809,-15
165.834,-32
165.859,19
165.884,126
165.909,241
165.934,319
165.959,353
165.984,364
166.009,374
166.034,382
166.059,378
166.084,359
166.109,340
166.134,333
166.159,336
166.184,331
166.209,309
166.234,275
166.259,238
166.284,200
166.309,158
166.334,113
166.359,72
166.384,34
166.409,-10
166.434,-73
166.459,-142
166.484,-178
166.509,-142
166.534,-37
166.559,92
166.584,192
166.609,242
166.634,258
166.659,271
166.684,293
166.709,308
166.734,304
166.759,289
166.784,284
166.809,299
166.834,320
166.859,324
166.884,303
166.909,269
166.934,236
166.959,207
166.984,174
167.009,133
167.034,93
167.059,60
167.084,28
167.109,-19
167.134,-83
167.159,-132
167.184,-123
167.209,-40
167.234,90
167.259,215
167.284,294
167.309,330
167.334,347
167.359,366
167.384,382
167.409,382
167.434,368
167.459,357
167.484,361
167.509,373
167.534,371
167.559,345
167.584,308
167.609,277
167.634,254
167.659,224
167.684,175
167.709,113
167.734,59
167.759,22
167.784,-12
167.809,-59
167.834,-106
167.859,-112
167.884,-48
167.909,75
167.934,205
167.959,290
167.984,320
168.009,324
168.034,335
168.059,358
168.084,372
168.109,365
168.134,347
168.159,342
168.184,353
168.209,363
168.234,354
168.259,324
168.284,285
168.309,244
168.334,198
168.359,143
168.384,88
168.409,46
168.434,17
168.459,-19
168.484,-76
168.509,-133
168.534,-145
168.559,-84
168.584,30
168.609,150
168.634,232
168.659,274
168.684,293
168.709,303
168.734,301
168.759,289
168.784,279
168.809,286
168.834,308
168.859,323
168.884,316
168.909,299
168.934,289
168.959,287
168.984,273
169.009,232
169.034,177
169.059,136
169.084,115
169.109,90
169.134,36
169.159,-30
169.184,-58
169.209,-6
169.234,109
169.259,230
169.284,303
169.309,322
169.334,316
169.359,309
169.384,302
169.409,286
169.434,262
169.459,246
169.484,247
169.509,261
169.534,274
169.559,273
169.584,255
169.609,221
169.634,175
169.659,132
169.684,100
169.709,77
169.734,44
169.759,-9
169.784,-64
169.809,-77
169.834,-15
169.859,107
169.884,235
169.909,316
169.934,337
169.959,326
169.984,317
170.009,316
170.034,313
170.059,299
170.084,282
170.109,277
170.134,287
170.159,299
170.184,297
170.209,277
170.234,246
170.259,215
170.284,189
170.309,161
170.334,120
170.359,59
170.384,-9
170.409,-56
170.434,-51
170.459,17
170.484,124
170.509,226
170.534,287
170.559,303
170.584,293
170.609,277
170.634,264
170.659,251
170.684,238
170.709,228
170.734,224
170.759,221
170.784,212
170.809,189
170.834,155
170.859,117
170.884,80
170.909,49
170.934,15
170.959,-32
170.984,-96
171.009,-160
171.034,-189
171.059,-152
171.084,-53
171.109,68
171.134,164
171.159,209
171.184,214
171.209,207
171.234,204
171.259,201
171.284,192
171.309,182
171.334,181
171.359,193
171.384,208
171.409,215
171.434,207
171.459,191
171.484,172
171.509,153
171.534,136
171.559,121
171.584,104
171.609,79
171.634,52
171.659,53
171.684,117
171.709,253
171.734,425
171.759,575
171.784,668
171.809,717
171.834,761
171.859,821
171.884,882
171.909,921
171.934,940
171.959,958
171.984,986
172.009,997
172.034,953
172.059,839
172.084,678
172.109,508
172.134,354
172.159,213
172.184,80
172.209,-46
172.234,-170
172.259,-297
172.284,-426
172.309,-531
172.334,-571
172.359,-525
172.384,-419
172.409,-308
172.434,-230
172.459,-182
172.484,-140
172.509,-93
172.534,-59
172.559,-53
172.584,-61
172.609,-53
172.634,-19
172.659,21
172.684,39
172.709,33
172.734,25
172.759,33
172.784,43
172.809,33
172.834,0
172.859,-30
172.884,-39
172.909,-42
172.934,-66
172.959,-113
172.984,-138
173.009,-83
173.034,63
173.059,247
173.084,394
173.109,467
173.134,489
173.159,500
173.184,521
173.209,538
173.234,539
173.259,527
173.284,522
173.309,535
173.334,551
173.359,552
173.384,533
173.409,506
173.434,478
173.459,445
173.484,398
173.509,339
173.534,282
173.559,235
173.584,190
173.609,130
173.634,58
173.659,8
173.684,16
173.709,91
173.734,204
173.759,303
173.784,361
173.809,379
173.834,379
173.859,371
173.884,355
173.909,331
173.934,309
173.959,304
173.984,316
174.009,327
174.034,320
174.059,293
174.084,258
174.109,223
174.134,186
174.159,138
174.184,81
174.209,27
174.234,-19
174.259,-70
174.284,-139
174.309,-224
174.334,-299
174.359,-327
174.384,-291
174.409,-207
174.434,-113
174.459,-45
174.484,-20
174.509,-32
174.534,-58
174.559,-75
174.584,-70
174.609,-41
174.634,5
174.659,66
174.684,138
174.709,213
174.734,274
174.759,304
174.784,301
174.809,277
174.834,253
174.859,237
174.884,225
174.909,212
174.934,197
174.959,179
174.984,152
175.009,111
175.034,75
175.059,95
175.084,219
175.109,439
175.134,687
175.159,868
175.184,938
175.209,924
175.234,888
175.259,862
175.284,831
175.309,761
175.334,648
175.359,529
175.384,440
175.409,383
175.434,338
175.459,285
175.484,231
175.509,187
175.534,150
175.559,101
175.584,33
175.609,-35
175.634,-84
175.659,-115
175.684,-154
175.709,-220
175.734,-291
175.759,-314
175.784,-259
175.809,-146
175.834,-35
175.859,28
175.884,46
175.909,56
175.934,85
175.959,129
175.984,166
176.009,187
176.034,204
176.059,232
176.084,270
176.109,299
176.134,306
176.159,295
176.184,278
176.209,259
176.234,234
176.259,202
176.284,170
176.309,146
176.334,122
176.359,80
176.384,17
176.409,-37
176.434,-37
176.459,38
176.484,166
176.509,290
176.534,367
176.559,391
176.584,385
176.609,370
176.634,350
176.659,325
176.684,299
176.709,286
176.734,291
176.759,303
176.784,305
176.809,289
176.834,262
176.859,230
176.884,197
176.909,156
176.934,112
176.959,70
176.984,33
177.009,-7
177.034,-57
177.059,-104
177.084,-111
177.109,-52
177.134,64
177.159,193
177.184,286
177.209,325
177.234,326
177.259,316
177.284,309
177.309,304
177.334,301
177.359,304
177.384,315
177.409,328
177.434,328
177.459,311
177.484,286
177.509,260
177.534,233
177.559,197
177.584,152
177.609,109
177.634,78
177.659,49
177.684,5
177.709,-51
177.734,-90
177.759,-69
177.784,21
177.809,148
177.834,258
177.859,320
177.884,336
177.909,330
177.934,319
177.959,305
177.984,289
178.009,277
178.034,278
178.059,291
178.084,304
178.109,307
178.134,294
178.159,267
178.184,230
178.209,188
178.234,149
178.259,118
178.284,91
178.309,53
178.334,0
178.359,-48
178.384,-59
178.409,-8
178.434,95
178.459,209
178.484,295
178.509,335
178.534,339
178.559,324
178.584,301
178.609,277
178.634,260
178.659,257
178.684,268
178.709,283
178.734,289
178.759,278
178.784,249
178.809,211
178.834,174
178.859,144
178.884,121
178.909,94
178.934,52
178.959,-1
178.984,-39
179.009,-26
179.034,49
179.059,162
179.084,267
179.109,329
179.134,346
179.159,337
179.184,320
179.209,301
179.234,281
179.259,266
179.284,264
179.309,274
179.334,285
179.359,283
179.384,264
179.409,229
179.434,188
179.459,148
179.484,113
179.509,81
179.534,43
179.559,-7
179.584,-62
179.609,-90
179.634,-60
179.659,35
179.684,163
179.709,272
179.734,330
179.759,341
179.784,333
179.809,324
179.834,318
179.859,308
179.884,297
179.909,293
179.934,298
179.959,302
179.984,294
180.009,273
180.034,242
180.059,208
180.084,175
180.109,141
180.134,105
180.159,61
180.184,4
180.209,-59
180.234,-104
180.259,-93
180.284,-11
180.309,115
180.334,233
180.359,304
180.384,328
180.409,333
180.434,340
180.459,346
180.484,338
180.509,319
180.534,305
180.559,305
180.584,313
180.609,310
180.634,291
180.659,261
180.684,232
180.709,202
180.734,163
180.759,118
180.784,78
180.809,45
180.834,9
180.859,-45
180.884,-106
180.909,-135
180.934,-95
180.959,12
180.984,143
181.009,244
181.034,293
181.059,308
181.084,317
181.109,332
181.134,344
181.159,343
181.184,336
181.209,337
181.234,349
181.259,361
181.284,356
181.309,331
181.334,299
181.359,272
181.384,246
181.409,209
181.434,160
181.459,111
181.484,75
181.509,50
181.534,19
181.559,-33
181.584,-94
181.609,-126
181.634,-95
181.659,0
181.684,122
181.709,222
181.734,277
181.759,296
181.784,306
181.809,321
181.834,337
181.859,343
181.884,335
181.909,326
181.934,328
181.959,337
181.984,341
182.009,329
182.034,303
182.059,274
182.084,251
182.109,227
182.134,193
182.159,148
182.184,105
182.209,74
182.234,47
182.259,7
182.284,-49
182.309,-101
182.334,-109
182.359,-48
182.384,63
182.409,180
182.434,261
182.459,296
182.484,305
182.509,309
182.534,313
182.559,312
182.584,305
182.609,303
182.634,314
182.659,332
182.684,340
182.709,330
182.734,307
182.759,279
182.784,251
182.809,218
182.834,176
182.859,137
182.884,109
182.909,86
182.934,51
182.959,-4
182.984,-61
183.009,-78
183.034,-30
183.059,71
183.084,181
183.109,259
183.134,293
183.159,300
183.184,301
183.209,300
183.234,292
183.259,279
183.284,274
183.309,285
183.334,307
183.359,320
183.384,313
183.409,292
183.434,267
183.459,243
183.484,212
183.509,172
183.534,129
183.559,94
183.584,66
183.609,29
183.634,-25
183.659,-79
183.684,-91
183.709,-36
183.734,70
183.759,181
183.784,256
183.809,288
183.834,299
183.859,308
183.884,316
183.909,313
183.934,299
183.959,289
183.984,293
184.009,305
184.034,310
184.059,298
184.084,276
184.109,252
184.134,226
184.159,192
184.184,150
184.209,111
184.234,82
184.259,51
184.284,4
184.309,-55
184.334,-94
184.359,-73
184.384,13
184.409,131
184.434,229
184.459,282
184.484,301
184.509,313
184.534,327
184.559,335
184.584,328
184.609,315
184.634,312
184.659,324
184.684,336
184.709,332
184.734,308
184.759,277
184.784,251
184.809,223
184.834,185
184.859,136
184.884,91
184.909,61
184.934,36
184.959,-3
184.984,-66
185.009,-129
185.034,-150
185.059,-101
185.084,5
185.109,129
185.134,227
185.159,283
185.184,307
185.209,320
185.234,333
185.259,346
185.284,354
185.309,354
185.334,355
185.359,361
185.384,370
185.409,374
185.434,364
185.459,339
185.484,308
185.509,276
185.534,242
185.559,201
185.584,152
185.609,106
185.634,71
185.659,44
185.684,5
185.709,-52
185.734,-112
185.759,-133
185.784,-82
185.809,31
185.834,161
185.859,257
185.884,304
185.909,321
185.934,335
185.959,352
185.984,363
186.009,360
186.034,349
186.059,346
186.084,355
186.109,366
186.134,367
186.159,353
186.184,329
186.209,300
186.234,265
186.259,227
186.284,187
186.309,146
186.334,104
186.359,62
186.384,25
186.409,-5
186.434,-39
186.459,-87
186.484,-148
186.509,-192
186.534,-177
186.559,-86
186.584,50
186.609,179
186.634,259
186.659,293
186.684,311
186.709,333
186.734,354
186.759,361
186.784,354
186.809,351
186.834,360
186.859,375
186.884,381
186.909,371
186.934,354
186.959,336
186.984,314
187.009,283
187.034,242
187.059,202
187.084,169
187.109,135
187.134,94
187.159,51
187.184,14
187.209,-16
187.234,-56
187.259,-111
187.284,-163
187.309,-168
187.334,-98
187.359,30
187.384,165
187.409,259
187.434,300
187.459,311
187.484,319
187.509,331
187.534,338
187.559,334
187.584,330
187.609,337
187.634,357
187.659,377
187.684,384
187.709,372
187.734,347
187.759,319
187.784,292
187.809,263
187.834,227
187.859,186
187.884,148
187.909,118
187.934,93
187.959,61
187.984,15
188.009,-30
188.034,-43
188.059,4
188.084,108
188.109,232
188.134,330
188.159,383
188.184,398
188.209,397
188.234,394
188.259,389
188.284,381
188.309,376
188.334,379
188.359,389
188.384,398
188.409,398
188.434,386
188.459,364
188.484,329
188.509,284
188.534,235
188.559,192
188.584,151
188.609,97
188.634,15
188.659,-84
188.684,-165
188.709,-190
188.734,-145
188.759,-49
188.784,64
188.809,168
188.834,243
188.859,276
188.884,263
188.909,217
188.934,164
188.959,128
188.984,109
189.009,87
189.034,43
189.059,-15
189.084,-66
189.109,-96
189.134,-117
189.159,-150
189.184,-195
189.209,-225
189.234,-203
189.259,-131
189.284,-52
189.309,-18
189.334,-44
189.359,-89
189.384,-85
189.409,11
189.434,186
189.459,382
189.484,538
189.509,625
189.534,650
189.559,639
189.584,618
189.609,606
189.634,602
189.659,591
189.684,556
189.709,490
189.734,415
189.759,363
189.784,354
189.809,365
189.834,356
189.859,305
189.884,232
189.909,173
189.934,134
189.959,76
189.984,-38
190.009,-188
190.034,-293
190.059,-277
190.084,-137
190.109,54
190.134,220
190.159,332
190.184,420
190.209,509
190.234,583
190.259,603
190.284,560
190.309,489
190.334,440
190.359,428
190.384,428
190.409,414
190.434,380
190.459,334
190.484,271
190.509,179
190.534,66
190.559,-28
190.584,-66
190.609,-53
190.634,-45
190.659,-92
190.684,-180
190.709,-240
190.734,-205
190.759,-82
190.784,60
190.809,160
190.834,205
190.859,228
190.884,255
190.909,274
190.934,267
190.959,238
190.984,217
191.009,219
191.034,224
191.059,199
191.084,152
191.109,131
191.134,180
191.159,290
191.184,394
191.209,428
191.234,382
191.259,287
191.284,178
191.309,61
191.334,-53
191.359,-132
191.384,-123
191.409,-12
191.434,151
191.459,284
191.484,337
191.509,324
191.534,295
191.559,281
191.584,276
191.609,261
191.634,239
191.659,228
191.684,239
191.709,257
191.734,262
191.759,248
191.784,227
191.809,206
191.834,184
191.859,156
191.884,128
191.909,109
191.934,95
191.959,66
191.984,11
192.009,-46
192.034,-62
192.059,-7
192.084,98
192.109,203
192.134,267
192.159,289
192.184,296
192.209,305
192.234,313
192.259,308
192.284,289
192.309,275
192.334,276
192.359,289
192.384,297
192.409,291
192.434,274
192.459,251
192.484,221
192.509,183
192.534,143
192.559,107
192.584,75
192.609,36
192.634,-11
192.659,-48
192.684,-41
192.709,26
192.734,135
192.759,239
192.784,302
192.809,323
192.834,324
192.859,324
192.884,322
192.909,312
192.934,299
192.959,297
192.984,309
193.009,322
193.034,315
193.059,285
193.084,248
193.109,223
193.134,206
193.159,182
193.184,145
193.209,105
193.234,74
193.259,47
193.284,8
193.309,-45
193.334,-85
193.359,-73
193.384,2
193.409,111
193.434,204
193.459,253
193.484,269
193.509,277
193.534,288
193.559,294
193.584,285
193.609,268
193.634,261
193.659,270
193.684,284
193.709,285
193.734,265
193.759,233
193.784,197
193.809,161
193.834,124
193.859,90
193.884,78
193.909,97
193.934,136
193.959,162
193.984,153
194.009,110
194.034,68
194.059,62
194.084,108
194.109,187
194.134,265
194.159,314
194.184,331
194.209,331
194.234,331
194.259,332
194.284,327
194.309,310
194.334,287
194.359,273
194.384,273
194.409,279
194.434,271
194.459,244
194.484,209
194.509,182
194.534,167
194.559,147
194.584,109
194.609,56
194.634,12
194.659,-9
194.684,-23
194.709,-58
194.734,-121
194.759,-176
194.784,-171
194.809,-85
194.834,52
194.859,182
194.884,266
194.909,310
194.934,343
194.959,381
194.984,413
195.009,424
195.034,416
195.059,408
195.084,416
195.109,437
195.134,449
195.159,437
195.184,405
195.209,366
195.234,332
195.259,302
195.284,268
195.309,223
195.334,172
195.359,126
195.384,96
195.409,75
195.434,42
195.459,-17
195.484,-97
195.509,-156
195.534,-150
195.559,-65
195.584,66
195.609,191
195.634,270
195.659,303
195.684,315
195.709,324
195.734,332
195.759,329
195.784,314
195.809,296
195.834,285
195.859,282
195.884,279
195.909,270
195.934,252
195.959,223
195.984,183
196.009,131
196.034,69
196.059,0
196.084,-71
196.109,-141
196.134,-202
196.159,-255
196.184,-312
196.209,-384
196.234,-468
196.259,-529
196.284,-528
196.309,-447
196.334,-317
196.359,-193
196.384,-114
196.409,-81
196.434,-69
196.459,-56
196.484,-42
196.509,-34
196.534,-30
196.559,-18
196.584,9
196.609,50
196.634,92
196.659,130
196.684,164
196.709,198
196.734,231
196.759,262
196.784,291
196.809,325
196.834,372
196.859,436
196.884,512
196.909,583
196.934,638
196.959,684
196.984,757
197.009,903
197.034,1137
197.059,1421
197.084,1688
197.109,1893
197.134,2049
197.159,2197
197.184,2359
197.209,2515
197.234,2639
197.259,2738
197.284,2833
197.309,2888
197.334,2781
197.359,2369
197.384,1602
197.409,596
197.434,-434
197.459,-1301
197.484,-1928
197.509,-2333
197.534,-2552
197.559,-2608
197.584,-2523
197.609,-2342
197.634,-2119
197.659,-1877
197.684,-1604
197.709,-1279
197.734,-919
197.759,-577
197.784,-304
197.809,-128
197.834,-46
197.859,-40
197.884,-78
197.909,-121
197.934,-139
197.959,-134
197.984,-140
198.009,-186
198.034,-259
198.059,-306
198.084,-285
198.109,-206
198.134,-117
198.159,-52
198.184,-6
198.209,43
198.234,94
198.259,111
198.284,68
198.309,-12
198.334,-76
198.359,-78
198.384,-22
198.409,54
198.434,122
198.459,177
198.484,232
198.509,288
198.534,333
198.559,365
198.584,394
198.609,438
198.634,496
198.659,555
198.684,602
198.709,638
198.734,674
198.759,712
198.784,742
198.809,753
198.834,744
198.859,725
198.884,708
198.909,689
198.934,660
198.959,614
198.984,564
199.009,535
199.034,546
199.059,596
199.084,664
199.109,719
199.134,739
199.159,724
199.184,687
199.209,646
199.234,607
199.259,565
199.284,519
199.309,473
199.334,438
199.359,417
199.384,398
199.409,365
199.434,313
199.459,251
199.484,192
199.509,140
199.534,83
199.559,12
199.584,-72
199.609,-158
199.634,-240
199.659,-325
199.684,-416
199.709,-493
199.734,-514
199.759,-453
199.784,-325
199.809,-188
199.834,-91
199.859,-38
199.884,5
199.909,73
199.934,154
199.959,209
199.984,212
200.009,186
200.034,178
200.059,206
200.084,247
200.109,263
200.134,248
200.159,231
200.184,244
200.209,278
200.234,298
200.259,277
200.284,227
200.309,177
200.334,142
200.359,104
200.384,49
200.409,-11
200.434,-36
200.459,2
200.484,97
200.509,206
200.534,292
200.559,346
200.584,377
200.609,393
200.634,392
200.659,372
200.684,347
200.709,336
200.734,346
200.759,363
200.784,367
200.809,351
200.834,322
200.859,293
200.884,265
200.909,232
200.934,192
200.959,151
200.984,112
201.009,69
201.034,15
201.059,-41
201.084,-74
201.109,-56
201.134,15
201.159,115
201.184,206
201.209,266
201.234,297
201.259,310
201.284,312
201.309,301
201.334,281
201.359,261
201.384,255
201.409,263
201.434,276
201.459,281
201.484,271
201.509,249
201.534,218
201.559,183
201.584,150
201.609,123
201.634,98
201.659,63
201.684,9
201.709,-48
201.734,-77
201.759,-46
201.784,42
201.809,153
201.834,242
201.859,289
201.884,307
201.909,318
201.934,327
201.959,325
201.984,304
202.009,277
202.034,268
202.059,292
202.084,337
202.109,379
202.134,398
202.159,387
202.184,348
202.209,285
202.234,207
202.259,131
202.284,80
202.309,60
202.334,54
202.359,33
202.384,-10
202.409,-51
202.434,-45
202.459,31
202.484,153
202.509,261
202.534,307
202.559,291
202.584,250
202.609,229
202.634,239
202.659,262
202.684,273
202.709,270
202.734,271
202.759,286
202.784,309
202.809,320
202.834,306
202.859,274
202.884,237
202.909,199
202.934,155
202.959,105
202.984,58
203.009,25
203.034,0
203.059,-35
203.084,-90
203.109,-144
203.134,-155
203.159,-97
203.184,16
203.209,141
203.234,234
203.259,287
203.284,319
203.309,351
203.334,381
203.359,395
203.384,385
203.409,363
203.434,344
203.459,335
203.484,331
203.509,330
203.534,335
203.559,347
203.584,356
203.609,340
203.634,287
203.659,211
203.684,140
203.709,89
203.734,48
203.759,-3
203.784,-69
203.809,-122
203.834,-120
203.859,-46
203.884,74
203.909,193
203.934,273
203.959,309
203.984,322
204.009,331
204.034,338
204.059,331
204.084,311
204.109,291
204.134,289
204.159,308
204.184,329
204.209,331
204.234,308
204.259,270
204.284,231
204.309,194
204.334,155
204.359,114
204.384,81
204.409,56
204.434,27
204.459,-22
204.484,-92
204.509,-147
204.534,-139
204.559,-54
204.584,78
204.609,200
204.634,274
204.659,305
204.684,322
204.709,344
204.734,362
204.759,357
204.784,327
204.809,296
204.834,288
204.859,304
204.884,321
204.909,318
204.934,294
204.959,264
204.984,238
205.009,212
205.034,179
205.059,140
205.084,106
205.109,84
205.134,64
205.159,28
205.184,-24
205.209,-70
205.234,-71
205.259,-8
205.284,102
205.309,219
205.334,305
205.359,347
205.384,354
205.409,345
205.434,331
205.459,316
205.484,304
205.509,300
205.534,302
205.559,305
205.584,301
205.609,288
205.634,271
205.659,251
205.684,225
205.709,189
205.734,150
205.759,116
205.784,90
205.809,56
205.834,3
205.859,-64
205.884,-111
205.909,-97
205.934,-14
205.959,106
205.984,215
206.009,280
206.034,305
206.059,313
206.084,316
206.109,314
206.134,300
206.159,282
206.184,278
206.209,294
206.234,316
206.259,324
206.284,310
206.309,283
206.334,256
206.359,230
206.384,200
206.409,161
206.434,121
206.459,87
206.484,53
206.509,6
206.534,-51
206.559,-96
206.584,-88
206.609,-10
206.634,113
206.659,232
206.684,308
206.709,337
206.734,341
206.759,342
206.784,343
206.809,336
206.834,318
206.859,302
206.884,301
206.909,311
206.934,316
206.959,305
206.984,278
207.009,248
207.034,220
207.059,187
207.084,145
207.109,96
207.134,50
207.159,12
207.184,-25
207.209,-67
207.234,-99
207.259,-91
207.284,-22
207.309,94
207.334,217
207.359,303
207.384,338
207.409,340
207.434,336
207.459,336
207.484,333
207.509,322
207.534,307
207.559,302
207.584,307
207.609,313
207.634,307
207.659,288
207.684,264
207.709,240
207.734,215
207.759,184
207.784,150
207.809,121
207.834,96
207.859,65
207.884,12
207.909,-52
207.934,-99
207.959,-87
207.984,-6
208.009,116
208.034,233
208.059,307
208.084,335
208.109,340
208.134,340
208.159,341
208.184,337
208.209,325
208.234,312
208.259,309
208.284,314
208.309,316
208.334,303
208.359,274
208.384,238
208.409,203
208.434,172
208.459,142
208.484,110
208.509,79
208.534,46
208.559,5
208.584,-47
208.609,-98
208.634,-115
208.659,-74
208.684,24
208.709,142
208.734,238
208.759,288
208.784,305
208.809,312
208.834,322
208.859,332
208.884,334
208.909,329
208.934,328
208.959,334
208.984,340
209.009,333
209.034,313
209.059,286
209.084,256
209.109,223
209.134,184
209.159,141
209.184,99
209.209,56
209.234,6
209.259,-47
209.284,-81
209.309,-64
209.334,11
209.359,124
209.384,231
209.409,301
209.434,332
209.459,340
209.484,336
209.509,321
209.534,296
209.559,273
209.584,265
209.609,273
209.634,283
209.659,284
209.684,273
209.709,258
209.734,240
209.759,214
209.784,179
209.809,142
209.834,109
209.859,77
209.884,32
209.909,-25
209.934,-70
209.959,-63
209.984,8
210.009,121
210.034,226
210.059,291
210.084,317
210.109,325
210.134,328
210.159,326
210.184,313
210.209,297
210.234,290
210.259,296
210.284,301
210.309,291
210.334,265
210.359,232
210.384,201
210.409,170
210.434,135
210.459,97
210.484,63
210.509,27
210.534,-18
210.559,-73
210.584,-114
210.609,-104
210.634,-28
210.659,87
210.684,197
210.709,267
210.734,298
210.759,313
210.784,328
210.809,338
210.834,333
210.859,319
210.884,311
210.909,319
210.934,335
210.959,340
210.984,326
211.009,302
211.034,275
211.059,244
211.084,203
211.109,151
211.134,102
211.159,65
211.184,31
211.209,-16
211.234,-78
211.259,-122
211.284,-108
211.309,-26
211.334,96
211.359,210
211.384,284
211.409,322
211.434,345
211.459,366
211.484,384
211.509,391
211.534,391
211.559,395
211.584,407
211.609,418
211.634,418
211.659,401
211.684,375
211.709,344
211.734,309
211.759,268
211.784,222
211.809,173
211.834,125
211.859,80
211.884,38
211.909,-1
211.934,-42
211.959,-93
211.984,-154
212.009,-210
212.034,-230
212.059,-186
212.084,-79
212.109,55
212.134,173
212.159,249
212.184,291
212.209,320
212.234,349
212.259,375
212.284,390
212.309,395
212.334,400
212.359,411
212.384,422
212.409,423
212.434,411
212.459,391
212.484,368
212.509,342
212.534,307
212.559,265
212.584,225
212.609,192
212.634,165
212.659,134
212.684,92
212.709,48
212.734,10
212.759,-20
212.784,-57
212.809,-112
212.834,-172
212.859,-203
212.884,-172
212.909,-78
212.934,48
212.959,162
212.984,235
213.009,270
213.034,289
213.059,307
213.084,328
213.109,343
213.134,352
213.159,360
213.184,373
213.209,388
213.234,395
213.259,389
213.284,373
213.309,355
213.334,337
213.359,313
213.384,282
213.409,245
213.434,210
213.459,181
213.484,149
213.509,109
213.534,66
213.559,32
213.584,15
213.609,3
213.634,-23
213.659,-70
213.684,-113
213.709,-112
213.734,-47
213.759,65
213.784,181
213.809,262
213.834,299
213.859,312
213.884,320
213.909,330
213.934,338
213.959,341
213.984,343
214.009,350
214.034,363
214.059,373
214.084,371
214.109,356
214.134,335
214.159,313
214.184,293
214.209,270
214.234,240
214.259,203
214.284,166
214.309,134
214.334,108
214.359,78
214.384,35
214.409,-14
214.434,-49
214.459,-39
214.484,23
214.509,121
214.534,214
214.559,275
214.584,300
214.609,309
214.634,317
214.659,325
214.684,322
214.709,306
214.734,290
214.759,287
214.784,297
214.809,308
214.834,306
214.859,292
214.884,276
214.909,259
214.934,237
214.959,203
214.984,165
215.009,136
215.034,118
215.059,93
215.084,41
215.109,-34
215.134,-101
215.159,-115
215.184,-61
215.209,36
215.234,133
215.259,199
215.284,234
215.309,255
215.334,272
215.359,280
215.384,271
215.409,247
215.434,221
215.459,208
215.484,206
215.509,208
215.534,204
215.559,191
215.584,171
215.609,142
215.634,102
215.659,55
215.684,9
215.709,-27
215.734,-57
215.759,-89
215.784,-133
215.809,-179
215.834,-199
215.859,-156
215.884,-34
215.909,150
215.934,353
215.959,523
215.984,629
216.009,668
216.034,658
216.059,617
216.084,558
216.109,491
216.134,427
216.159,378
216.184,351
216.209,338
216.234,327
216.259,306
216.284,274
216.309,235
216.334,196
216.359,161
216.384,132
216.409,109
216.434,85
216.459,49
216.484,-1
216.509,-55
216.534,-83
216.559,-57
216.584,24
216.609,136
216.634,239
216.659,307
216.684,336
216.709,337
216.734,323
216.759,302
216.784,279
216.809,263
216.834,261
216.859,275
216.884,296
216.909,311
216.934,310
216.959,293
216.984,268
217.009,241
217.034,215
217.059,187
217.084,153
217.109,115
217.134,81
217.159,55
217.184,31
217.209,-2
217.234,-51
217.259,-98
217.284,-112
217.309,-64
217.334,39
217.359,163
217.384,263
217.409,315
217.434,327
217.459,322
217.484,315
217.509,310
217.534,303
217.559,296
217.584,297
217.609,309
217.634,327
217.659,336
217.684,329
217.709,307
217.734,278
217.759,246
217.784,212
217.809,177
217.834,142
217.859,112
217.884,80
217.909,38
217.934,-15
217.959,-68
217.984,-90
218.009,-57
218.034,30
218.059,142
218.084,236
218.109,287
218.134,295
218.159,280
218.184,259
218.209,240
218.234,225
218.259,217
218.284,221
218.309,238
218.334,260
218.359,275
218.384,281
218.409,281
218.434,275
218.459,261
218.484,231
218.509,190
218.534,153
218.559,126
218.584,100
218.609,59
218.634,0
218.659,-46
218.684,-43
218.709,27
218.734,141
218.759,254
218.784,327
218.809,356
218.834,358
218.859,350
218.884,336
218.909,314
218.934,292
218.959,279
218.984,282
219.009,293
219.034,299
219.059,293
219.084,279
219.109,259
219.134,233
219.159,200
219.184,162
219.209,129
219.234,103
219.259,73
219.284,27
219.309,-30
219.334,-73
219.359,-69
219.384,-2
219.409,107
219.434,219
219.459,298
219.484,333
219.509,334
219.534,322
219.559,308
219.584,297
219.609,288
219.634,283
219.659,286
219.684,296
219.709,308
219.734,311
219.759,297
219.784,267
219.809,228
219.834,191
219.859,165
219.884,148
219.909,131
219.934,101
219.959,50
219.984,-8
220.009,-52
220.034,-53
220.059,0
220.084,89
220.109,183
220.134,250
220.159,279
220.184,281
220.209,272
220.234,264
220.259,258
220.284,251
220.309,245
220.334,244
220.359,251
220.384,264
220.409,276
220.434,283
220.459,277
220.484,253
220.509,212
220.534,162
220.559,119
220.584,83
220.609,44
220.634,-14
220.659,-84
220.684,-132
220.709,-119
220.734,-36
220.759,83
220.784,188
220.809,247
220.834,271
220.859,289
220.884,315
220.909,337
220.934,339
220.959,322
220.984,307
221.009,310
221.034,327
221.059,343
221.084,346
221.109,336
221.134,318
221.159,295
221.184,264
221.209,225
221.234,180
221.259,129
221.284,70
221.309,12
221.334,-13
221.359,24
221.384,127
221.409,255
221.434,351
221.459,382
221.484,364
221.509,332
221.534,307
221.559,287
221.584,263
221.609,241
221.634,235
221.659,246
221.684,254
221.709,239
221.734,205
221.759,167
221.784,141
221.809,122
221.834,97
221.859,63
221.884,22
221.909,-22
221.934,-76
221.959,-130
221.984,-155
222.009,-121
222.034,-31
222.059,71
222.084,140
222.109,164
222.134,182
222.159,239
222.184,339
222.209,442
222.234,502
222.259,507
222.284,479
222.309,446
222.334,418
222.359,389
222.384,355
222.409,315
222.434,273
222.459,229
222.484,184
222.509,141
222.534,102
222.559,58
222.584,3
222.609,-49
222.634,-68
222.659,-27
222.684,63
222.709,162
222.734,227
222.759,250
222.784,256
222.809,268
222.834,286
222.859,292
222.884,277
222.909,259
222.934,256
222.959,268
222.984,277
223.009,268
223.034,243
223.059,217
223.084,196
223.109,172
223.134,141
223.159,107
223.184,76
223.209,44
223.234,0
223.259,-58
223.284,-105
223.309,-103
223.334,-39
223.359,63
223.384,164
223.409,233
223.434,272
223.459,298
223.484,323
223.509,343
223.534,351
223.559,349
223.584,344
223.609,345
223.634,350
223.659,352
223.684,344
223.709,327
223.734,305
223.759,282
223.784,259
223.809,233
223.834,199
223.859,156
223.884,111
223.909,76
223.934,52
223.959,27
223.984,-18
224.009,-84
224.034,-138
224.059,-139
224.084,-72
224.109,33
224.134,131
224.159,194
224.184,231
224.209,270
224.234,321
224.259,368
224.284,393
224.309,394
224.334,389
224.359,396
224.384,414
224.409,429
224.434,432
224.459,424
224.484,412
224.509,398
224.534,380
224.559,357
224.584,327
224.609,292
224.634,251
224.659,206
224.684,164
224.709,129
224.734,96
224.759,58
224.784,18
224.809,-15
224.834,-38
224.859,-60
224.884,-102
224.909,-164
224.934,-213
224.959,-207
224.984,-128
225.009,-10
225.034,95
225.059,160
225.084,195
225.109,229
225.134,276
225.159,323
225.184,351
225.209,359
225.234,363
225.259,379
225.284,401
225.309,415
225.334,415
225.359,405
225.384,395
225.409,386
225.434,370
225.459,342
225.484,306
225.509,271
225.534,242
225.559,217
225.584,188
225.609,150
225.634,106
225.659,63
225.684,26
225.709,-8
225.734,-55
225.759,-123
225.784,-201
225.809,-256
225.834,-249
225.859,-170
225.884,-46
225.909,74
225.934,159
225.959,211
225.984,253
226.009,300
226.034,348
226.059,380
226.084,392
226.109,396
226.134,405
226.159,424
226.184,442
226.209,452
226.234,454
226.259,448
226.284,434
226.309,409
226.334,374
226.359,336
226.384,298
226.409,256
226.434,206
226.459,152
226.484,104
226.509,73
226.534,55
226.559,38
226.584,11
226.609,-28
226.634,-82
226.659,-149
226.684,-222
226.709,-276
226.734,-281
226.759,-220
226.784,-107
226.809,15
226.834,107
226.859,157
226.884,182
226.909,206
226.934,237
226.959,265
226.984,278
227.009,279
227.034,279
227.059,290
227.084,312
227.109,334
227.134,346
227.159,345
227.184,335
227.209,320
227.234,303
227.259,281
227.284,256
227.309,228
227.334,202
227.359,179
227.384,156
227.409,132
227.434,108
227.459,89
227.484,71
227.509,44
227.534,1
227.559,-49
227.584,-76
227.609,-43
227.634,57
227.659,197
227.684,332
227.709,432
227.734,506
227.759,581
227.784,670
227.809,760
227.834,829
227.859,873
227.884,911
227.909,963
227.934,1020
227.959,1046
227.984,1010
228.009,909
228.034,771
228.059,628
228.084,491
228.109,354
228.134,213
228.159,77
228.184,-38
228.209,-131
228.234,-206
228.259,-270
228.284,-322
228.309,-360
228.334,-395
228.359,-440
228.384,-494
228.409,-529
228.434,-507
228.459,-410
228.484,-261
228.509,-109
228.534,5
228.559,76
228.584,123
228.609,165
228.634,205
228.659,237
228.684,260
228.709,276
228.734,294
228.759,311
228.784,325
228.809,331
228.834,327
228.859,310
228.884,274
228.909,220
228.934,160
228.959,106
228.984,65
229.009,27
229.034,-16
229.059,-75
229.084,-147
229.109,-224
229.134,-299
229.159,-356
229.184,-376
229.209,-346
229.234,-278
229.259,-209
229.284,-175
229.309,-183
229.334,-201
229.359,-185
229.384,-108
229.409,21
229.434,177
229.459,337
229.484,489
229.509,629
229.534,746
229.559,824
229.584,854
229.609,841
229.634,801
229.659,749
229.684,696
229.709,646
229.734,598
229.759,544
229.784,470
229.809,372
229.834,263
229.859,181
229.884,158
229.909,201
229.934,284
229.959,366
229.984,420
230.009,443
230.034,444
230.059,431
230.084,404
230.109,364
230.134,323
230.159,294
230.184,282
230.209,279
230.234,270
230.259,248
230.284,218
230.309,183
230.334,146
230.359,102
230.384,56
230.409,13
230.434,-20
230.459,-56
230.484,-103
230.509,-158
230.534,-196
230.559,-181
230.584,-100
230.609,21
230.634,141
230.659,228
230.684,277
230.709,308
230.734,338
230.759,365
230.784,381
230.809,385
230.834,391
230.859,407
230.884,431
230.909,448
230.934,449
230.959,439
230.984,428
231.009,411
231.034,372
231.059,294
231.084,190
231.109,87
231.134,9
231.159,-50
231.184,-109
231.209,-172
231.234,-210
231.259,-185
231.284,-84
231.309,59
231.334,192
231.359,277
231.384,320
231.409,346
231.434,373
231.459,393
231.484,390
231.509,360
231.534,317
231.559,276
231.584,237
231.609,188
231.634,123
231.659,48
231.684,-20
231.709,-78
231.734,-134
231.759,-196
231.784,-258
231.809,-299
231.834,-308
231.859,-293
231.884,-276
231.909,-269
231.934,-257
231.959,-206
231.984,-97
232.009,53
232.034,203
232.059,316
232.084,384
232.109,426
232.134,460
232.159,487
232.184,499
232.209,495
232.234,488
232.259,488
232.284,494
232.309,492
232.334,474
232.359,446
232.384,422
232.409,402
232.434,376
232.459,333
232.484,281
232.509,237
232.534,210
232.559,184
232.584,138
232.609,74
232.634,24
232.659,29
232.684,104
232.709,221
232.734,327
232.759,390
232.784,407
232.809,406
232.834,405
232.859,407
232.884,402
232.909,386
232.934,369
232.959,360
232.984,358
233.009,350
233.034,329
233.059,298
233.084,264
233.109,229
233.134,187
233.159,137
233.184,91
233.209,54
233.234,20
233.259,-30
233.284,-99
233.309,-155
233.334,-155
233.359,-80
233.384,39
233.409,151
233.434,216
233.459,236
233.484,234
233.509,228
233.534,215
233.559,193
233.584,175
233.609,174
233.634,190
233.659,204
233.684,200
233.709,182
233.734,164
233.759,148
233.784,123
233.809,83
233.834,41
233.859,16
233.884,9
233.909,0
233.934,-29
233.959,-55
233.984,-37
234.009,47
234.034,175
234.059,293
234.084,365
234.109,398
234.134,414
234.159,421
234.184,412
234.209,382
234.234,351
234.259,340
234.284,352
234.309,367
234.334,364
234.359,342
234.384,313
234.409,284
234.434,249
234.459,205
234.484,163
234.509,127
234.534,90
234.559,36
234.584,-28
234.609,-66
234.634,-37
234.659,59
234.684,177
234.709,262
234.734,294
234.759,294
234.784,293
234.809,295
234.834,290
234.859,275
234.884,261
234.909,262
234.934,272
234.959,276
234.984,265
235.009,243
235.034,215
235.059,183
235.084,140
235.109,92
235.134,46
235.159,0
235.184,-56
235.209,-125
235.234,-178
235.259,-172
235.284,-90
235.309,36
235.334,149
235.359,215
235.384,244
235.409,267
235.434,293
235.459,309
235.484,303
235.509,288
235.534,287
235.559,308
235.584,330
235.609,332
235.634,313
235.659,287
235.684,262
235.709,232
235.734,187
235.759,137
235.784,92
235.809,52
235.834,0
235.859,-65
235.884,-113
235.909,-93
235.934,10
235.959,158
235.984,286
236.009,355
236.034,382
236.059,405
236.084,442
236.109,480
236.134,498
236.159,500
236.184,505
236.209,524
236.234,549
236.259,564
236.284,566
236.309,562
236.334,554
236.359,534
236.384,491
236.409,429
236.434,357
236.459,269
236.484,143
236.509,-34
236.534,-238
236.559,-407
236.584,-482
236.609,-456
236.634,-376
236.659,-298
236.684,-251
236.709,-217
236.734,-165
236.759,-87
236.784,0
236.809,71
236.834,125
236.859,173
236.884,229
236.909,283
236.934,319
236.959,328
236.984,322
237.009,317
237.034,317
237.059,311
237.084,286
237.109,247
237.134,205
237.159,166
237.184,120
237.209,60
237.234,-2
237.259,-29
237.284,9
237.309,110
237.334,230
237.359,322
237.384,364
237.409,372
237.434,376
237.459,387
237.484,398
237.509,400
237.534,399
237.559,405
237.584,421
237.609,432
237.634,425
237.659,400
237.684,368
237.709,337
237.734,302
237.759,255
237.784,199
237.809,150
237.834,111
237.859,71
237.884,11
237.909,-64
237.934,-124
237.959,-127
237.984,-63
238.009,38
238.034,134
238.059,193
238.084,219
238.109,228
238.134,233
238.159,231
238.184,221
238.209,209
238.234,203
238.259,207
238.284,211
238.309,206
238.334,192
238.359,171
238.384,145
238.409,113
238.434,76
238.459,42
238.484,14
238.509,-11
238.534,-46
238.559,-86
238.584,-108
238.609,-83
238.634,-1
238.659,114
238.684,227
238.709,308
238.734,352
238.759,365
238.784,359
238.809,346
238.834,336
238.859,336
238.884,347
238.909,358
238.934,362
238.959,359
238.984,355
239.009,349
239.034,332
239.059,299
239.084,259
239.109,228
239.134,209
239.159,186
239.184,144
239.209,94
239.234,75
239.259,117
239.284,211
239.309,308
239.334,362
239.359,361
239.384,327
239.409,287
239.434,248
239.459,211
239.484,180
239.509,168
239.534,181
239.559,205
239.584,222
239.609,224
239.634,220
239.659,219
239.684,218
239.709,208
239.734,187
239.759,165
239.784,152
239.809,141
239.834,118
239.859,89
239.884,84
239.909,137
239.934,250
239.959,386
239.984,488
240.009,520
240.034,484
240.059,404
240.084,311
240.109,229
240.134,179
240.159,167
240.184,185
240.209,207
240.234,212
240.259,193
240.284,162
240.309,133
240.334,106
240.359,70
240.384,23
240.409,-21
240.434,-52
240.459,-74
240.484,-111
240.509,-177
240.534,-254
240.559,-296
240.584,-263
240.609,-154
240.634,-3
240.659,143
240.684,262
240.709,355
240.734,426
240.759,472
240.784,483
240.809,464
240.834,437
240.859,428
240.884,435
240.909,431
240.934,391
240.959,317
240.984,243
241.009,199
241.034,187
241.059,177
241.084,139
241.109,72
241.134,-5
241.159,-79
241.184,-153
241.209,-234
241.234,-311
241.259,-349
241.284,-319
241.309,-234
241.334,-137
241.359,-63
241.384,-14
241.409,44
241.434,139
241.459,263
241.484,383
241.509,473
241.534,530
241.559,571
241.584,603
241.609,619
241.634,611
241.659,581
241.684,540
241.709,496
241.734,445
241.759,383
241.784,314
241.809,250
241.834,195
241.859,139
241.884,71
241.909,0
241.934,-49
241.959,-43
241.984,26
242.009,137
242.034,249
242.059,331
242.084,379
242.109,404
242.134,419
242.159,430
242.184,438
242.209,444
242.234,453
242.259,466
242.284,479
242.309,481
242.334,468
242.359,443
242.384,413
242.409,380
242.434,340
242.459,287
242.484,227
242.509,169
242.534,116
242.559,57
242.584,-18
242.609,-105
242.634,-172
242.659,-183
242.684,-130
242.709,-40
242.734,39
242.759,81
242.784,88
242.809,84
242.834,81
242.859,79
242.884,69
242.909,56
242.934,53
242.959,65
242.984,85
243.009,98
243.034,100
243.059,99
243.084,105
243.109,113
243.134,114
243.159,104
243.184,93
243.209,94
243.234,103
243.259,98
243.284,63
243.309,12
243.334,-14
243.359,22
243.384,121
243.409,243
243.434,338
243.459,384
243.484,396
243.509,400
243.534,409
243.559,414
243.584,403
243.609,379
243.634,362
243.659,365
243.684,379
243.709,384
243.734,368
243.759,337
243.784,308
243.809,284
243.834,260
243.859,226
243.884,184
243.909,142
243.934,102
243.959,54
243.984,-5
244.009,-62
244.034,-84
244.059,-47
244.084,43
244.109,155
244.134,247
244.159,300
244.184,319
244.209,322
244.234,323
244.259,326
244.284,328
244.309,326
244.334,322
244.359,318
244.384,312
244.409,302
244.434,282
244.459,251
244.484,211
244.509,168
244.534,128
244.559,89
244.584,50
244.609,14
244.634,-15
244.659,-41
244.684,-73
244.709,-117
244.734,-160
244.759,-170
244.784,-120
244.809,-11
244.834,118
244.859,222
244.884,279
244.909,305
244.934,326
244.959,354
244.984,377
245.009,383
245.034,375
245.059,370
245.084,378
245.109,390
245.134,390
245.159,372
245.184,345
245.209,319
245.234,290
245.259,249
245.284,196
245.309,144
245.334,106
245.359,74
245.384,31
245.409,-30
245.434,-88
245.459,-104
245.484,-55
245.509,43
245.534,151
245.559,231
245.584,274
245.609,293
245.634,302
245.659,305
245.684,298
245.709,287
245.734,281
245.759,288
245.784,306
245.809,322
245.834,330
245.859,330
245.884,322
245.909,303
245.934,265
245.959,212
245.984,160
246.009,122
246.034,92
246.059,53
246.084,-3
246.109,-59
246.134,-75
246.159,-27
246.184,71
246.209,178
246.234,253
246.259,289
246.284,300
246.309,304
246.334,302
246.359,293
246.384,281
246.409,278
246.434,290
246.459,306
246.484,316
246.509,313
246.534,303
246.559,289
246.584,266
246.609,229
246.634,184
246.659,140
246.684,100
246.709,53
246.734,-4
246.759,-57
246.784,-72
246.809,-28
246.834,58
246.859,149
246.884,211
246.909,240
246.934,253
246.959,261
246.984,262
247.009,254
247.034,244
247.059,243
247.084,254
247.109,266
247.134,267
247.159,257
247.184,242
247.209,227
247.234,209
247.259,184
247.284,156
247.309,127
247.334,93
247.359,48
247.384,3
247.409,-14
247.434,21
247.459,108
247.484,211
247.509,290
247.534,327
247.559,335
247.584,330
247.609,320
247.634,304
247.659,286
247.684,275
247.709,276
247.734,281
247.759,276
247.784,256
247.809,226
247.834,193
247.859,156
247.884,111
247.909,62
247.934,21
247.959,-6
247.984,-28
248.009,-47
248.034,-52
248.059,-19
248.084,60
248.109,165
248.134,255
248.159,302
248.184,313
248.209,315
248.234,324
248.259,339
248.284,348
248.309,350
248.334,350
248.359,352
248.384,353
248.409,346
248.434,330
248.459,305
248.484,273
248.509,231
248.534,182
248.559,133
248.584,88
248.609,39
248.634,-24
248.659,-92
248.684,-132
248.709,-111
248.734,-27
248.759,81
248.784,168
248.809,212
248.834,229
248.859,244
248.884,267
248.909,287
248.934,293
248.959,291
248.984,296
249.009,314
249.034,333
249.059,342
249.084,336
249.109,324
249.134,308
249.159,283
249.184,246
249.209,203
249.234,164
249.259,129
249.284,82
249.309,15
249.334,-52
249.359,-78
249.384,-34
249.409,68
249.434,182
249.459,266
249.484,309
249.509,330
249.534,349
249.559,364
249.584,365
249.609,350
249.634,334
249.659,332
249.684,339
249.709,339
249.734,324
249.759,298
249.784,269
249.809,238
249.834,198
249.859,149
249.884,101
249.909,60
249.934,17
249.959,-47
249.984,-130
250.009,-200
250.034,-214
250.059,-157
250.084,-59
250.109,28
250.134,77
250.159,93
250.184,100
250.209,111
250.234,120
250.259,121
250.284,121
250.309,129
250.334,148
250.359,165
250.384,170
250.409,166
250.434,160
250.459,151
250.484,132
250.509,99
250.534,64
250.559,39
250.584,19
250.609,-13
250.634,-62
250.659,-103
250.684,-93
250.709,-12
250.734,116
250.759,240
250.784,326
250.809,374
250.834,409
250.859,445
250.884,476
250.909,490
250.934,488
250.959,485
250.984,493
251.009,508
251.034,518
251.059,519
251.084,513
251.109,504
251.134,492
251.159,476
251.184,458
251.209,442
251.234,428
251.259,410
251.284,379
251.309,345
251.334,337
251.359,382
251.384,488
251.409,621
251.434,730
251.459,770
251.484,737
251.509,657
251.534,566
251.559,480
251.584,393
251.609,297
251.634,198
251.659,112
251.684,48
251.709,0
251.734,-39
251.759,-69
251.784,-85
251.809,-93
251.834,-121
251.859,-193
251.884,-299
251.909,-401
251.934,-469
251.959,-516
251.984,-578
252.009,-665
252.034,-730
252.059,-704
252.084,-562
252.109,-357
252.134,-176
252.159,-74
252.184,-33
252.209,-3
252.234,51
252.259,129
252.284,207
252.309,280
252.334,359
252.359,447
252.384,530
252.409,584
252.434,601
252.459,596
252.484,589
252.509,587
252.534,578
252.559,544
252.584,484
252.609,415
252.634,358
252.659,319
252.684,277
252.709,208
252.734,113
252.759,29
252.784,2
252.809,50
252.834,143
252.859,227
252.884,267
252.909,271
252.934,270
252.959,279
252.984,290
253.009,287
253.034,267
253.059,247
253.084,239
253.109,238
253.134,229
253.159,203
253.184,166
253.209,127
253.234,91
253.259,51
253.284,1
253.309,-59
253.334,-123
253.359,-178
253.384,-211
253.409,-222
253.434,-225
253.459,-237
253.484,-257
253.509,-258
253.534,-210
253.559,-109
253.584,13
253.609,124
253.634,214
253.659,293
253.684,366
253.709,418
253.734,436
253.759,438
253.784,460
253.809,517
253.834,584
253.859,628
253.884,646
253.909,664
253.934,697
253.959,725
253.984,721
254.009,698
254.034,702
254.059,754
254.084,812
254.109,826
254.134,810
254.159,850
254.184,1005
254.209,1208
254.234,1293
254.259,1136
254.284,769
254.309,354
254.334,33
254.359,-162
254.384,-291
254.409,-392
254.434,-448
254.459,-433
254.484,-373
254.509,-335
254.534,-351
254.559,-386
254.584,-383
254.609,-332
254.634,-280
254.659,-271
254.684,-295
254.709,-307
254.734,-285
254.759,-255
254.784,-258
254.809,-296
254.834,-323
254.859,-288
254.884,-180
254.909,-33
254.934,105
254.959,203
254.984,255
255.009,271
255.034,271
255.059,279
255.084,309
255.109,357
255.134,405
255.159,439
255.184,456
255.209,466
255.234,472
255.259,473
255.284,464
255.309,452
255.334,443
255.359,439
255.384,427
255.409,397
255.434,359
255.459,342
255.484,372
255.509,443
255.534,517
255.559,551
255.584,527
255.609,468
255.634,412
255.659,376
255.684,349
255.709,309
255.734,258
255.759,218
255.784,205
255.809,200
255.834,156
255.859,43
255.884,-113
255.909,-254
255.934,-331
255.959,-350
255.984,-360
256.009,-400
256.034,-463
256.059,-503
256.084,-480
256.109,-384
256.134,-237
256.159,-64
256.184,112
256.209,269
256.234,368
256.259,382
256.284,319
256.309,233
256.334,188
256.359,219
256.384,303
256.409,379
256.434,398
256.459,355
256.484,286
256.509,240
256.534,244
256.559,283
256.584,314
256.609,295
256.634,210
256.659,91
256.684,-3
256.709,-25
256.734,31
256.759,129
256.784,214
256.809,257
256.834,260
256.859,238
256.884,200
256.909,142
256.934,68
256.959,0
256.984,-37
257.009,-40
257.034,-28
257.059,-30
257.084,-63
257.109,-125
257.134,-200
257.159,-274
257.184,-329
257.209,-350
257.234,-333
257.259,-294
257.284,-265
257.309,-257
257.334,-246
257.359,-183
257.384,-44
257.409,150
257.434,341
257.459,482
257.484,568
257.509,630
257.534,697
257.559,767
257.584,812
257.609,805
257.634,751
257.659,686
257.684,646
257.709,641
257.734,649
257.759,636
257.784,597
257.809,562
257.834,568
257.859,618
257.884,668
257.909,662
257.934,584
257.959,471
257.984,378
258.009,331
258.034,312
258.059,286
258.084,232
258.109,155
258.134,71
258.159,-2
258.184,-52
258.209,-71
258.234,-64
258.259,-42
258.284,-4
258.309,78
258.334,245
258.359,502
258.384,807
258.409,1093
258.434,1318
258.459,1470
258.484,1531
258.509,1457
258.534,1217
258.559,855
258.584,497
258.609,255
258.634,135
258.659,44
258.684,-112
258.709,-340
258.734,-561
258.759,-708
258.784,-768
258.809,-754
258.834,-666
258.859,-510
258.884,-351
258.909,-287
258.934,-339
258.959,-371
258.984,-185
259.009,280
259.034,859
259.059,1286
259.084,1436
259.109,1414
259.134,1413
259.159,1501
259.184,1571
259.209,1502
259.234,1311
259.259,1120
259.284,989
259.309,831
259.334,520
259.359,60
259.384,-400
259.409,-718
259.434,-897
259.459,-1062
259.484,-1302
259.509,-1570
259.534,-1761
259.559,-1837
259.584,-1869
259.609,-1937
259.634,-2031
259.659,-2070
259.684,-1994
259.709,-1817
259.734,-1585
259.759,-1307
259.784,-961
259.809,-562
259.834,-189
259.859,76
259.884,238
259.909,391
259.934,625
259.959,931
259.984,1208
260.009,1360
260.034,1384
260.059,1355
260.084,1340
260.109,1335
260.134,1277
260.159,1114
260.184,870
260.209,632
260.234,493
260.259,490
260.284,584
260.309,691
260.334,733
260.359,682
260.384,568
260.409,456
260.434,416
260.459,488
260.484,665
260.509,885
260.534,1042
260.559,1038
260.584,841
260.609,517
260.634,195
260.659,-8
260.684,-61
260.709,-13
260.734,59
260.759,118
260.784,170
260.809,239
260.834,337
260.859,461
260.884,609
260.909,779
260.934,960
260.959,1122
260.984,1237
261.009,1304
261.034,1357
261.059,1427
261.084,1515
261.109,1592
261.134,1626
261.159,1612
261.184,1569
261.209,1514
261.234,1444
261.259,1335
261.284,1169
261.309,949
261.334,703
261.359,467
261.384,263
261.409,85
261.434,-95
261.459,-307
261.484,-548
261.509,-777
261.534,-942
261.559,-1020
261.584,-1033
261.609,-1025
261.634,-1023
261.659,-1021
261.684,-999
261.709,-954
261.734,-901
261.759,-856
261.784,-817
261.809,-765
261.834,-692
261.859,-607
261.884,-529
261.909,-470
261.934,-427
261.959,-392
261.984,-364
262.009,-345
262.034,-341
262.059,-364
262.084,-429
262.109,-541
262.134,-688
262.159,-847
262.184,-993
262.209,-1113
262.234,-1193
262.259,-1219
262.284,-1183
262.309,-1092
262.334,-961
262.359,-773
262.384,-467
262.409,15
262.434,652
262.459,1305
262.484,1795
262.509,2024
262.534,2046
262.559,2003
262.584,1997
262.609,2027
262.634,2032
262.659,1975
262.684,1874
262.709,1754
262.734,1609
262.759,1423
262.784,1226
262.809,1102
262.834,1109
262.859,1217
262.884,1322
262.909,1338
262.934,1263
262.959,1163
262.984,1084
263.009,1014
263.034,906
263.059,742
