df_hash,22ZHK4.MC7JBY
device,HZ2X61
project_hash,29R7
project_name,istanbul_aydin_university
person_hash,29R7.0QNP
person_label,V38
date_time_start,2025-10-27_13-06-31.896000_+03
date_time_start_unix,1761555991.896
date_time_end,2025-10-27_13-14-49.110000_+03
length_difference_noticed,no

time,ppg_ir,ppg_ambient,ppg_red
5.682,191266,169,217441
5.687,191269,174,217426
5.692,191278,172,217413
5.697,191287,171,217412
5.702,191285,170,217418
5.707,191307,169,217414
5.712,191287,169,217414
5.717,191302,170,217421
5.722,191303,171,217433
5.727,191274,170,217417
5.732,191283,169,217437
5.737,191282,168,217436
5.742,191266,173,217458
5.747,191245,171,217467
5.752,191231,171,217466
5.757,191245,170,217450
5.762,191232,169,217452
5.766,191226,170,217444
5.771,191226,169,217450
5.776,191213,169,217451
5.781,191208,173,217449
5.786,191200,172,217474
5.791,191206,171,217446
5.796,191192,169,217448
5.801,191198,168,217454
5.806,191188,173,217446
5.811,191197,171,217445
5.816,191180,173,217484
5.821,191183,171,217472
5.826,191189,170,217463
5.831,191197,168,217500
5.836,191186,173,217481
5.841,191163,171,217489
5.846,191182,169,217491
5.851,191180,169,217506
5.856,191189,173,217503
5.861,191189,172,217487
5.866,191177,168,217497
5.871,191186,172,217499
5.876,191184,171,217500
5.881,191196,170,217495
5.886,191166,169,217510
5.891,191178,169,217519
5.895,191194,173,217516
5.900,191183,171,217536
5.905,191172,170,217530
5.910,191191,170,217538
5.915,191185,174,217530
5.920,191179,172,217549
5.925,191165,170,217539
5.930,191194,169,217558
5.935,191177,168,217565
5.940,191172,173,217558
5.945,191187,171,217561
5.950,191193,170,217559
5.955,191186,169,217574
5.960,191215,169,217577
5.965,191182,169,217573
5.970,191177,168,217580
5.975,191170,173,217588
5.980,191196,172,217580
5.985,191188,171,217582
5.990,191182,170,217599
5.995,191196,169,217588
6.000,191204,168,217624
6.005,191205,173,217628
6.010,191204,169,217634
6.015,191204,169,217621
6.020,191209,168,217640
6.024,191192,172,217641
6.029,191199,171,217638
6.034,191203,170,217665
6.039,191197,169,217643
6.044,191214,168,217654
6.049,191226,172,217663
6.054,191211,170,217673
6.059,191211,172,217676
6.064,191211,171,217686
6.069,191208,170,217673
6.074,191218,169,217670
6.079,191212,173,217671
6.084,191236,171,217689
6.089,191209,170,217705
6.094,191224,169,217690
6.099,191233,174,217704
6.104,191222,172,217697
6.109,191243,174,217706
6.114,191245,172,217723
6.119,191236,170,217707
6.124,191243,169,217735
6.129,191231,169,217706
6.134,191259,168,217745
6.139,191244,172,217722
6.144,191240,171,217724
6.149,191236,170,217738
6.153,191227,169,217734
6.158,191242,169,217728
6.163,191238,168,217735
6.168,191246,174,217727
6.173,191243,172,217747
6.178,191234,171,217744
6.183,191249,170,217730
6.188,191254,170,217733
6.193,191260,169,217733
6.198,191238,168,217730
6.203,191243,168,217744
6.208,191255,169,217740
6.213,191248,168,217735
6.218,191263,173,217751
6.223,191257,172,217741
6.228,191260,171,217755
6.233,191276,170,217753
6.238,191276,170,217785
6.243,191287,170,217768
6.248,191281,169,217787
6.253,191271,170,217798
6.258,191290,169,217797
6.263,191291,169,217793
6.268,191289,169,217805
6.273,191303,174,217790
6.278,191292,172,217790
6.282,191306,172,217813
6.287,191309,171,217806
6.292,191302,170,217802
6.297,191296,169,217815
6.302,191323,172,217819
6.307,191308,171,217842
6.312,191307,170,217824
6.317,191297,169,217833
6.322,191299,169,217832
6.327,191278,168,217844
6.332,191258,168,217838
6.337,191268,173,217821
6.342,191261,172,217842
6.347,191249,171,217835
6.352,191241,173,217853
6.357,191267,172,217833
6.362,191242,172,217844
6.367,191241,172,217853
6.372,191231,171,217852
6.377,191230,170,217846
6.382,191215,169,217844
6.387,191206,169,217836
6.392,191206,168,217844
6.397,191201,173,217855
6.402,191221,169,217827
6.407,191198,168,217841
6.411,191181,173,217838
6.416,191188,172,217844
6.421,191179,170,217836
6.426,191190,169,217839
6.431,191175,169,217851
6.436,191176,173,217851
6.441,191159,172,217832
6.446,191165,172,217853
6.451,191167,173,217839
6.456,191175,171,217848
6.461,191175,170,217809
6.466,191166,169,217815
6.471,191162,168,217811
6.476,191158,173,217803
6.481,191160,172,217804
6.486,191136,170,217798
6.491,191123,169,217769
6.496,191126,169,217775
6.501,191125,170,217794
6.506,191125,169,217797
6.511,191127,173,217789
6.516,191140,172,217805
6.521,191159,171,217810
6.526,191165,170,217826
6.531,191159,169,217825
6.536,191157,169,217825
6.540,191163,168,217835
6.545,191159,170,217823
6.550,191156,171,217838
6.555,191146,170,217844
6.560,191167,170,217841
6.565,191155,169,217833
6.570,191148,168,217837
6.575,191147,173,217836
6.580,191164,172,217857
6.585,191161,170,217844
6.590,191162,169,217857
6.595,191166,173,217833
6.600,191162,170,217854
6.605,191158,169,217828
6.610,191144,168,217829
6.615,191148,173,217830
6.620,191145,172,217829
6.625,191133,171,217815
6.630,191139,170,217827
6.635,191127,169,217818
6.640,191132,168,217817
6.645,191136,173,217821
6.650,191138,172,217823
6.655,191134,171,217806
6.660,191114,169,217789
6.665,191124,169,217792
6.669,191112,174,217796
6.674,191109,172,217775
6.679,191093,170,217767
6.684,191106,169,217763
6.689,191109,168,217763
6.694,191081,170,217750
6.699,191083,169,217730
6.704,191084,168,217755
6.709,191087,173,217744
6.714,191080,172,217740
6.719,191071,171,217736
6.724,191079,171,217727
6.729,191087,170,217722
6.734,191078,169,217726
6.739,191069,170,217741
6.744,191076,170,217714
6.749,191066,169,217713
6.754,191089,169,217722
6.759,191088,168,217725
6.764,191085,173,217727
6.769,191089,171,217715
6.774,191072,170,217706
6.779,191083,169,217707
6.784,191088,169,217705
6.789,191065,171,217693
6.793,191090,170,217689
6.798,191067,169,217680
6.803,191077,169,217684
6.808,191058,168,217665
6.813,191072,174,217670
6.818,191067,172,217666
6.823,191069,171,217661
6.828,191076,170,217626
6.833,191067,169,217654
6.838,191089,172,217640
6.843,191066,169,217642
6.848,191084,168,217643
6.853,191088,173,217641
6.858,191086,172,217648
6.863,191093,171,217644
6.868,191083,170,217641
6.873,191087,169,217649
6.878,191065,169,217657
6.883,191032,173,217657
6.888,191036,169,217648
6.893,191031,169,217642
6.898,191023,168,217640
6.903,190995,173,217645
6.908,191002,172,217628
6.913,190995,171,217641
6.918,190982,170,217631
6.922,190996,169,217631
6.927,191006,168,217647
6.932,190985,172,217630
6.937,190975,169,217648
6.942,190962,168,217642
6.947,190965,173,217649
6.952,190952,171,217634
6.957,190952,171,217637
6.962,190924,171,217616
6.967,190934,170,217616
6.972,190930,169,217617
6.977,190918,169,217619
6.982,190908,169,217589
6.987,190899,170,217597
6.992,190918,170,217602
6.997,190899,170,217593
7.002,190887,169,217577
7.007,190888,169,217566
7.012,190865,168,217575
7.017,190868,172,217551
7.022,190869,171,217567
7.027,190813,171,217550
7.032,190833,176,217540
7.037,190839,172,217522
7.042,190813,170,217520
7.047,190814,169,217519
7.051,190794,168,217521
7.056,190804,173,217488
7.061,190796,172,217512
7.066,190782,172,217498
7.071,190785,171,217488
7.076,190793,170,217499
7.081,190790,172,217484
7.086,190778,171,217494
7.091,190791,170,217491
7.096,190786,170,217488
7.101,190772,169,217487
7.106,190771,168,217480
7.111,190778,173,217488
7.116,190775,172,217480
7.121,190760,171,217478
7.126,190750,171,217478
7.131,190737,173,217453
7.136,190731,172,217438
7.141,190720,170,217431
7.146,190707,170,217416
7.151,190710,169,217445
7.156,190702,169,217430
7.161,190709,169,217416
7.166,190692,174,217413
7.171,190707,173,217408
7.176,190681,172,217405
7.180,190683,169,217415
7.185,190694,169,217403
7.190,190683,169,217409
7.195,190671,168,217412
7.200,190675,173,217422
7.205,190670,171,217420
7.210,190679,170,217415
7.215,190665,170,217424
7.220,190651,169,217418
7.225,190666,168,217436
7.230,190671,170,217435
7.235,190675,169,217421
7.240,190660,169,217429
7.245,190653,174,217434
7.250,190646,172,217432
7.255,190649,172,217447
7.260,190657,171,217443
7.265,190658,170,217426
7.270,190647,170,217445
7.275,190655,171,217413
7.280,190648,168,217424
7.285,190661,168,217444
7.290,190650,173,217459
7.295,190659,172,217441
7.300,190658,171,217439
7.305,190638,170,217432
7.309,190638,169,217428
7.314,190637,168,217440
7.319,190642,173,217440
7.324,190645,169,217432
7.329,190634,170,217443
7.334,190615,169,217427
7.339,190597,169,217426
7.344,190608,168,217425
7.349,190615,173,217441
7.354,190616,172,217425
7.359,190600,171,217450
7.364,190597,171,217425
7.369,190615,171,217420
7.374,190599,173,217434
7.379,190613,172,217429
7.384,190598,171,217427
7.389,190587,170,217430
7.394,190580,170,217434
7.399,190588,169,217424
7.404,190572,168,217440
7.409,190593,174,217433
7.414,190574,172,217439
7.419,190583,171,217443
7.424,190585,168,217432
7.429,190589,169,217432
7.434,190597,168,217460
7.438,190602,173,217443
7.443,190600,172,217463
7.448,190597,171,217467
7.453,190611,170,217461
7.458,190607,169,217463
7.463,190609,168,217463
7.468,190606,174,217471
7.473,190603,169,217481
7.478,190596,169,217481
7.483,190577,168,217476
7.488,190574,173,217494
7.493,190573,171,217504
7.498,190559,170,217516
7.503,190537,169,217503
7.508,190542,169,217513
7.513,190528,173,217523
7.518,190515,172,217519
7.523,190519,169,217531
7.528,190510,168,217528
7.533,190492,173,217515
7.538,190496,171,217517
7.543,190489,170,217517
7.548,190480,169,217523
7.553,190462,169,217516
7.558,190443,168,217499
7.563,190453,172,217517
7.567,190426,171,217513
7.572,190446,168,217513
7.577,190432,173,217525
7.582,190410,172,217527
7.587,190401,171,217516
7.592,190407,170,217518
7.597,190423,170,217528
7.602,190407,169,217528
7.607,190394,168,217541
7.612,190397,168,217526
7.617,190390,170,217534
7.622,190372,168,217522
7.627,190385,173,217519
7.632,190353,172,217516
7.637,190350,171,217516
7.642,190344,170,217492
7.647,190344,169,217493
7.652,190324,168,217496
7.657,190326,174,217504
7.662,190323,172,217483
7.667,190333,169,217484
7.672,190314,169,217501
7.677,190290,168,217498
7.682,190286,174,217462
7.687,190275,172,217480
7.692,190282,171,217465
7.696,190286,170,217472
7.701,190268,170,217468
7.706,190276,169,217459
7.711,190271,168,217476
7.716,190278,170,217464
7.721,190264,172,217456
7.726,190263,170,217452
7.731,190252,170,217445
7.736,190241,169,217440
7.741,190233,174,217430
7.746,190243,171,217437
7.751,190240,170,217440
7.756,190216,169,217426
7.761,190236,168,217438
7.766,190218,170,217415
7.771,190208,169,217419
7.776,190209,168,217420
7.781,190214,173,217435
7.786,190198,171,217405
7.791,190191,169,217425
7.796,190196,168,217431
7.801,190201,172,217415
7.806,190184,171,217423
7.811,190168,170,217440
7.816,190188,171,217385
7.821,190189,170,217411
7.825,190184,169,217400
7.830,190177,168,217383
7.835,190162,172,217396
7.840,190182,170,217391
7.845,190176,169,217400
7.850,190156,168,217390
7.855,190164,171,217405
7.860,190156,170,217371
7.865,190155,172,217385
7.870,190162,170,217391
7.875,190161,169,217360
7.880,190151,168,217373
7.885,190148,172,217366
7.890,190144,170,217358
7.895,190159,169,217365
7.900,190144,168,217365
7.905,190155,172,217356
7.910,190144,168,217370
7.915,190137,172,217367
7.920,190129,170,217349
7.925,190144,169,217341
7.930,190140,168,217359
7.935,190130,173,217350
7.940,190117,171,217341
7.945,190117,169,217341
7.949,190120,169,217319
7.954,190123,173,217328
7.959,190135,170,217317
7.964,190108,170,217313
7.969,190116,169,217319
7.974,190103,168,217320
7.979,190113,172,217318
7.984,190119,170,217306
7.989,190113,169,217304
7.994,190108,168,217308
7.999,190119,172,217304
8.004,190114,171,217297
8.009,190106,169,217317
8.014,190110,168,217298
8.019,190113,172,217307
8.024,190119,171,217304
8.029,190122,170,217301
8.034,190120,169,217287
8.039,190122,173,217275
8.044,190116,171,217300
8.049,190121,169,217296
8.054,190112,168,217281
8.059,190127,169,217286
8.064,190126,168,217298
8.069,190128,173,217287
8.074,190119,171,217287
8.078,190127,169,217295
8.083,190124,168,217281
8.088,190115,172,217293
8.093,190101,170,217285
8.098,190123,169,217277
8.103,190107,169,217312
8.108,190123,168,217283
8.113,190090,173,217284
8.118,190116,171,217271
8.123,190127,170,217285
8.128,190118,169,217273
8.133,190121,168,217275
8.138,190114,172,217276
8.143,190133,171,217280
8.148,190120,170,217273
8.153,190134,171,217274
8.158,190126,170,217247
8.163,190111,169,217260
8.168,190120,169,217257
8.173,190116,173,217260
8.178,190109,171,217258
8.183,190135,169,217278
8.188,190126,168,217271
8.193,190123,172,217266
8.198,190129,169,217271
8.203,190131,171,217257
8.207,190134,170,217289
8.212,190149,169,217289
8.217,190152,173,217278
8.222,190124,171,217282
8.227,190141,170,217303
8.232,190110,168,217322
8.237,190125,173,217314
8.242,190091,170,217330
8.247,190098,169,217304
8.252,190089,170,217309
8.257,190074,169,217337
8.262,190082,169,217328
8.267,190064,172,217340
8.272,190046,171,217330
8.277,190060,170,217346
8.282,190040,169,217328
8.287,190024,173,217322
8.292,190023,171,217319
8.297,190027,172,217331
8.302,190015,172,217330
8.307,190010,171,217330
8.312,190025,169,217346
8.317,190012,168,217338
8.322,189998,168,217330
8.327,189992,172,217335
8.332,189983,171,217351
8.336,189997,170,217348
8.341,189995,169,217348
8.346,189987,168,217339
8.351,189989,173,217348
8.356,189988,172,217336
8.361,189999,171,217347
8.366,189994,170,217349
8.371,189979,168,217329
8.376,189954,173,217344
8.381,189989,173,217319
8.386,189977,172,217346
8.391,189974,171,217333
8.396,189965,171,217336
8.401,189959,171,217341
8.406,189947,170,217331
8.411,189953,169,217320
8.416,189934,169,217330
8.421,189938,173,217323
8.426,189911,172,217310
8.431,189909,170,217307
8.436,189925,169,217291
8.441,189910,169,217298
8.446,189918,169,217302
8.451,189922,169,217293
8.456,189905,168,217307
8.461,189920,173,217278
8.465,189909,172,217275
8.470,189919,170,217298
8.475,189914,169,217287
8.480,189908,169,217284
8.485,189912,173,217282
8.490,189900,172,217289
8.495,189899,173,217282
8.500,189884,171,217261
8.505,189888,170,217278
8.510,189897,168,217267
8.515,189884,173,217279
8.520,189879,171,217267
8.525,189882,170,217274
8.530,189871,169,217264
8.535,189867,169,217246
8.540,189863,172,217262
8.545,189879,169,217254
8.550,189870,172,217266
8.555,189861,171,217256
8.560,189857,169,217251
8.565,189871,169,217257
8.570,189854,172,217253
8.575,189852,171,217233
8.580,189870,169,217250
8.585,189859,168,217245
8.590,189847,172,217250
8.594,189857,168,217252
8.599,189854,171,217244
8.604,189857,169,217250
8.609,189855,168,217233
8.614,189859,172,217223
8.619,189860,170,217236
8.624,189874,169,217223
8.629,189861,168,217237
8.634,189853,172,217226
8.639,189862,171,217230
8.644,189859,169,217230
8.649,189863,168,217232
8.654,189853,172,217221
8.659,189855,170,217242
8.664,189865,169,217227
8.669,189867,173,217219
8.674,189859,171,217208
8.679,189837,169,217192
8.684,189853,169,217203
8.689,189858,173,217210
8.694,189855,171,217196
8.699,189841,170,217194
8.704,189858,169,217172
8.709,189852,173,217188
8.714,189840,170,217187
8.719,189850,169,217197
8.723,189855,173,217182
8.728,189850,171,217174
8.733,189871,169,217185
8.738,189848,171,217179
8.743,189853,170,217162
8.748,189861,168,217184
8.753,189862,172,217174
8.758,189858,171,217176
8.763,189844,169,217163
8.768,189875,168,217170
8.773,189847,172,217178
8.778,189873,169,217155
8.783,189854,169,217172
8.788,189874,169,217148
8.793,189872,168,217158
8.798,189853,172,217151
8.803,189862,171,217149
8.808,189885,169,217145
8.813,189863,168,217167
8.818,189850,173,217131
8.823,189865,171,217145
8.828,189867,170,217123
8.833,189849,169,217140
8.838,189850,170,217154
8.843,189845,169,217136
8.848,189867,169,217132
8.852,189858,173,217149
8.857,189875,171,217140
8.862,189882,169,217149
8.867,189879,173,217137
8.872,189882,171,217159
8.877,189891,169,217145
8.882,189884,168,217138
8.887,189889,172,217146
8.892,189878,170,217127
8.897,189890,169,217170
8.902,189893,168,217137
8.907,189874,173,217142
8.912,189892,172,217156
8.917,189890,170,217148
8.922,189906,169,217148
8.927,189876,168,217142
8.932,189908,173,217159
8.937,189880,169,217152
8.942,189897,168,217139
8.947,189896,172,217151
8.952,189899,170,217166
8.957,189901,169,217152
8.962,189916,168,217158
8.967,189922,172,217151
8.972,189918,170,217145
8.976,189919,170,217141
8.981,189900,168,217144
8.986,189914,170,217159
8.991,189914,169,217146
8.996,189918,173,217157
9.001,189912,172,217127
9.006,189918,171,217143
9.011,189925,170,217129
9.016,189916,169,217122
9.021,189923,169,217145
9.026,189908,168,217135
9.031,189926,169,217150
9.036,189939,168,217144
9.041,189943,173,217145
9.046,189956,172,217148
9.051,189958,170,217163
9.056,189960,170,217156
9.061,189957,169,217171
9.066,189948,168,217175
9.071,189948,173,217171
9.076,189925,172,217184
9.081,189918,170,217196
9.086,189915,171,217172
9.091,189913,170,217201
9.096,189897,169,217198
9.101,189887,169,217188
9.105,189875,168,217204
9.110,189890,172,217197
9.115,189885,171,217194
9.120,189866,170,217198
9.125,189878,169,217185
9.130,189858,171,217201
9.135,189863,170,217179
9.140,189840,169,217187
9.145,189854,169,217180
9.150,189835,169,217184
9.155,189826,173,217181
9.160,189822,172,217187
9.165,189821,172,217177
9.170,189816,171,217175
9.175,189831,171,217181
9.180,189828,174,217187
9.185,189827,172,217172
9.190,189805,171,217185
9.195,189829,171,217184
9.200,189821,170,217165
9.205,189817,169,217156
9.210,189819,168,217182
9.215,189822,173,217170
9.220,189811,171,217163
9.225,189801,172,217147
9.230,189806,173,217156
9.234,189799,173,217158
9.239,189800,173,217161
9.244,189779,173,217169
9.249,189783,172,217153
9.254,189760,172,217153
9.259,189787,172,217146
9.264,189773,171,217137
9.269,189778,171,217147
9.274,189770,168,217152
9.279,189780,174,217124
9.284,189772,173,217121
9.289,189772,173,217130
9.294,189780,172,217120
9.299,189795,171,217126
9.304,189780,171,217141
9.309,189777,171,217126
9.314,189790,170,217120
9.319,189788,169,217106
9.324,189786,171,217118
9.329,189790,170,217118
9.334,189771,169,217125
9.339,189763,169,217114
9.344,189767,169,217137
9.349,189801,173,217138
9.354,189794,172,217133
9.359,189795,171,217141
9.363,189783,170,217116
9.368,189783,170,217106
9.373,189790,171,217131
9.378,189781,171,217119
9.383,189788,169,217106
9.388,189782,169,217114
9.393,189776,168,217111
9.398,189781,172,217114
9.403,189791,171,217123
9.408,189795,170,217108
9.413,189812,169,217124
9.418,189797,168,217115
9.423,189800,169,217136
9.428,189792,169,217130
9.433,189821,168,217112
9.438,189809,173,217137
9.443,189805,172,217132
9.448,189812,171,217133
9.453,189817,169,217124
9.458,189819,169,217113
9.463,189803,168,217110
9.468,189810,169,217106
9.473,189810,172,217116
9.478,189832,171,217114
9.483,189818,170,217130
9.488,189823,170,217115
9.492,189812,169,217128
9.497,189806,169,217095
9.502,189834,169,217115
9.507,189825,168,217116
9.512,189819,172,217106
9.517,189828,169,217113
9.522,189844,168,217122
9.527,189837,168,217109
9.532,189836,173,217121
9.537,189856,173,217112
9.542,189858,172,217118
9.547,189853,171,217120
9.552,189864,170,217124
9.557,189852,170,217112
9.562,189877,170,217125
9.567,189883,172,217129
9.572,189869,169,217108
9.577,189876,168,217120
9.582,189882,168,217120
9.587,189879,173,217125
9.592,189880,172,217139
9.597,189892,173,217123
9.602,189887,172,217123
9.607,189902,172,217120
9.612,189888,172,217134
9.617,189901,169,217149
9.621,189906,169,217162
9.626,189909,170,217140
9.631,189908,170,217156
9.636,189902,169,217138
9.641,189932,169,217166
9.646,189936,169,217181
9.651,189939,168,217185
9.656,189957,168,217184
9.661,189959,174,217171
9.666,189958,169,217192
9.671,189984,169,217184
9.676,189984,168,217191
9.681,189983,173,217208
9.686,189988,172,217195
9.691,189988,171,217197
9.696,190004,170,217209
9.701,189994,170,217215
9.706,190004,169,217201
9.711,189991,169,217193
9.716,189995,170,217209
9.721,190024,170,217214
9.726,190019,170,217212
9.731,190022,169,217242
9.736,190015,170,217226
9.741,190029,170,217225
9.746,190034,171,217238
9.750,190047,170,217234
9.755,190052,170,217250
9.760,190059,172,217240
9.765,190064,169,217256
9.770,190081,169,217244
9.775,190071,169,217267
9.780,190073,169,217254
9.785,190087,169,217240
9.790,190090,168,217252
9.795,190086,168,217261
9.800,190084,168,217286
9.805,190086,173,217270
9.810,190107,169,217279
9.815,190101,170,217281
9.820,190111,170,217274
9.825,190114,169,217290
9.830,190117,169,217298
9.835,190122,168,217289
9.840,190123,168,217280
9.845,190140,173,217320
9.850,190144,173,217317
9.855,190165,172,217297
9.860,190181,168,217321
9.865,190176,168,217310
9.870,190200,168,217350
9.875,190186,168,217357
9.879,190189,173,217340
9.884,190187,173,217343
9.889,190180,173,217365
9.894,190172,173,217366
9.899,190153,173,217367
9.904,190150,172,217363
9.909,190163,169,217383
9.914,190157,169,217400
9.919,190159,169,217405
9.924,190163,169,217418
9.929,190154,169,217417
9.934,190165,169,217413
9.939,190164,169,217436
9.944,190153,168,217445
9.949,190165,173,217439
9.954,190151,172,217435
9.959,190158,169,217448
9.964,190158,169,217441
9.969,190154,168,217456
9.974,190146,168,217456
9.979,190167,173,217449
9.984,190150,173,217459
9.989,190151,171,217482
9.994,190157,171,217458
9.999,190165,170,217481
10.003,190170,170,217483
10.008,190170,171,217463
10.013,190160,171,217472
10.018,190167,170,217488
10.023,190154,170,217489
10.028,190143,169,217474
10.033,190162,169,217462
10.038,190153,169,217480
10.043,190148,169,217473
10.048,190167,168,217461
10.053,190137,168,217467
10.058,190146,171,217471
10.063,190153,170,217478
10.068,190164,169,217484
10.073,190155,169,217473
10.078,190154,169,217468
10.083,190174,168,217460
10.088,190168,173,217474
10.093,190174,172,217485
10.098,190165,172,217496
10.103,190175,168,217469
10.108,190188,168,217478
10.113,190186,173,217506
10.118,190206,172,217514
10.123,190173,172,217496
10.128,190187,171,217499
10.132,190187,171,217500
10.137,190199,170,217492
10.142,190197,170,217491
10.147,190194,169,217515
10.152,190218,171,217508
10.157,190220,171,217528
10.162,190216,171,217503
10.167,190227,171,217502
10.172,190233,170,217515
10.177,190216,170,217540
10.182,190232,169,217540
10.187,190230,169,217533
10.192,190239,169,217543
10.197,190237,169,217544
10.202,190227,174,217546
10.207,190243,173,217549
10.212,190224,173,217541
10.217,190254,173,217556
10.222,190242,173,217566
10.227,190239,172,217552
10.232,190236,172,217544
10.237,190251,171,217553
10.242,190249,171,217571
10.247,190259,171,217548
10.252,190259,173,217561
10.257,190260,173,217539
10.261,190243,173,217546
10.266,190266,172,217554
10.271,190260,172,217556
10.276,190270,171,217550
10.281,190281,171,217567
10.286,190273,170,217564
10.291,190263,171,217561
10.296,190272,170,217571
10.301,190275,174,217537
10.306,190292,173,217543
10.311,190280,172,217560
10.316,190298,171,217569
10.321,190284,171,217561
10.326,190286,170,217558
10.331,190294,170,217558
10.336,190312,169,217554
10.341,190294,168,217564
10.346,190319,170,217567
10.351,190294,170,217554
10.356,190318,170,217562
10.361,190310,169,217560
10.366,190335,169,217545
10.371,190318,169,217551
10.376,190331,169,217560
10.381,190327,168,217571
10.386,190334,173,217554
10.390,190326,172,217560
10.395,190348,170,217554
10.400,190337,170,217556
10.405,190356,170,217570
10.410,190347,170,217558
10.415,190367,169,217580
10.420,190363,169,217579
10.425,190358,169,217588
10.430,190397,168,217587
10.435,190387,173,217583
10.440,190410,173,217597
10.445,190427,172,217589
10.450,190409,172,217596
10.455,190425,172,217605
10.460,190428,172,217617
10.465,190464,171,217631
10.470,190476,171,217624
10.475,190469,171,217651
10.480,190473,171,217650
10.485,190488,171,217653
10.490,190483,170,217668
10.495,190484,169,217667
10.500,190509,171,217668
10.505,190528,170,217679
10.510,190515,170,217670
10.515,190532,170,217676
10.519,190540,169,217690
10.524,190524,169,217701
10.529,190544,169,217686
10.534,190559,168,217694
10.539,190526,168,217701
10.544,190532,169,217703
10.549,190534,169,217712
10.554,190527,169,217715
10.559,190530,169,217701
10.564,190505,169,217714
10.569,190512,168,217711
10.574,190498,173,217714
10.579,190499,172,217707
10.584,190485,171,217702
10.589,190528,171,217720
10.594,190490,168,217719
10.599,190481,173,217710
10.604,190463,172,217712
10.609,190471,171,217713
10.614,190468,170,217710
10.619,190444,170,217705
10.624,190443,169,217697
10.629,190444,169,217693
10.634,190449,169,217696
10.639,190429,173,217688
10.644,190415,170,217688
10.648,190423,169,217675
10.653,190417,170,217687
10.658,190413,169,217690
10.663,190419,169,217677
10.668,190410,169,217655
10.673,190388,169,217662
10.678,190396,169,217656
10.683,190379,168,217667
10.688,190392,171,217648
10.693,190380,172,217645
10.698,190373,172,217627
10.703,190382,171,217636
10.708,190357,171,217634
10.713,190360,171,217625
10.718,190354,170,217636
10.723,190352,170,217609
10.728,190342,170,217621
10.733,190353,169,217596
10.738,190349,173,217615
10.743,190344,172,217609
10.748,190354,172,217618
10.753,190366,171,217614
10.758,190377,171,217604
10.763,190370,170,217601
10.768,190367,170,217602
10.773,190374,169,217617
10.777,190357,169,217616
10.782,190364,169,217607
10.787,190364,170,217601
10.792,190372,170,217602
10.797,190367,169,217591
10.802,190374,169,217604
10.807,190364,168,217595
10.812,190371,169,217596
10.817,190366,168,217613
10.822,190357,173,217594
10.827,190364,172,217587
10.832,190349,176,217588
10.837,190355,168,217574
10.842,190376,174,217579
10.847,190352,173,217591
10.852,190361,172,217582
10.857,190359,171,217586
10.862,190375,171,217599
10.867,190356,170,217587
10.872,190375,170,217607
10.877,190353,169,217587
10.882,190364,172,217587
10.887,190351,169,217587
10.892,190369,168,217592
10.897,190367,173,217579
10.902,190370,173,217565
10.906,190352,172,217576
10.911,190360,172,217588
10.916,190352,172,217577
10.921,190374,171,217565
10.926,190347,170,217554
10.931,190361,173,217562
10.936,190361,173,217563
10.941,190368,173,217572
10.946,190335,172,217566
10.951,190355,172,217570
10.956,190360,171,217563
10.961,190386,170,217555
10.966,190352,170,217558
10.971,190373,169,217568
10.976,190375,169,217527
10.981,190385,168,217564
10.986,190378,169,217570
10.991,190389,169,217558
10.996,190394,169,217557
11.001,190381,169,217559
11.006,190376,168,217564
11.011,190369,168,217555
11.016,190369,173,217553
11.021,190371,173,217549
11.026,190379,173,217549
11.030,190392,170,217561
11.035,190399,170,217553
11.040,190400,169,217563
11.045,190395,169,217557
11.050,190393,169,217547
11.055,190398,169,217562
11.060,190423,169,217562
11.065,190413,173,217550
11.070,190397,172,217552
11.075,190426,174,217610
11.080,190434,169,217583
11.085,190435,168,217584
11.090,190443,173,217588
11.095,190472,171,217585
11.100,190464,170,217587
11.105,190469,170,217584
11.110,190491,170,217582
11.115,190488,170,217583
11.120,190471,170,217609
11.125,190440,172,217616
11.130,190475,172,217598
11.135,190465,172,217593
11.140,190465,171,217589
11.145,190446,170,217586
11.150,190421,170,217600
11.155,190418,169,217583
11.159,190413,169,217590
11.164,190396,168,217585
11.169,190392,172,217593
11.174,190383,169,217603
11.179,190397,168,217608
11.184,190394,173,217606
11.189,190389,172,217587
11.194,190388,171,217599
11.199,190396,171,217606
11.204,190377,170,217599
11.209,190349,170,217615
11.214,190362,169,217594
11.219,190359,169,217602
11.224,190351,171,217600
11.229,190360,171,217603
11.234,190354,170,217608
11.239,190353,169,217610
11.244,190358,169,217611
11.249,190339,168,217596
11.254,190330,173,217605
11.259,190328,172,217610
11.264,190336,172,217614
11.269,190330,170,217582
11.274,190326,173,217591
11.279,190313,172,217581
11.284,190304,171,217587
11.288,190309,170,217569
11.293,190307,169,217575
11.298,190300,168,217582
11.303,190300,173,217582
11.308,190279,172,217599
11.313,190293,171,217560
11.318,190279,171,217561
11.323,190271,169,217562
11.328,190284,169,217573
11.333,190274,168,217565
11.338,190279,174,217545
11.343,190263,172,217560
11.348,190261,171,217546
11.353,190288,170,217556
11.358,190283,169,217547
11.363,190277,169,217549
11.368,190287,173,217554
11.373,190277,171,217561
11.378,190286,170,217540
11.383,190287,169,217554
11.388,190287,168,217561
11.393,190278,168,217534
11.398,190277,173,217551
11.403,190275,173,217533
11.408,190261,172,217551
11.413,190284,171,217548
11.417,190282,168,217547
11.422,190273,173,217553
11.427,190270,171,217548
11.432,190288,170,217542
11.437,190287,169,217539
11.442,190271,169,217541
11.447,190267,173,217524
11.452,190268,171,217531
11.457,190260,170,217528
11.462,190260,169,217544
11.467,190271,170,217514
11.472,190244,169,217504
11.477,190270,168,217511
11.482,190240,173,217511
11.487,190241,172,217512
11.492,190248,170,217511
11.497,190266,170,217518
11.502,190257,169,217486
11.507,190255,168,217503
11.512,190251,173,217510
11.517,190259,169,217478
11.522,190258,168,217500
11.527,190254,173,217475
11.532,190261,172,217492
11.537,190246,170,217511
11.542,190288,170,217474
11.546,190268,169,217500
11.551,190281,169,217490
11.556,190273,173,217520
11.561,190271,173,217510
11.566,190281,169,217505
11.571,190294,168,217514
11.576,190293,173,217534
11.581,190304,172,217521
11.586,190282,171,217516
11.591,190283,170,217515
11.596,190302,170,217506
11.601,190305,169,217521
11.606,190301,169,217505
11.611,190315,169,217495
11.616,190306,170,217518
11.621,190317,170,217521
11.626,190319,169,217514
11.631,190293,169,217516
11.636,190311,169,217533
11.641,190323,168,217515
11.646,190316,168,217519
11.651,190331,173,217510
11.656,190313,171,217517
11.661,190349,173,217519
11.666,190323,173,217503
11.671,190328,172,217507
11.675,190330,171,217509
11.680,190329,170,217497
11.685,190336,170,217496
11.690,190329,169,217494
11.695,190336,169,217478
11.700,190317,168,217512
11.705,190305,174,217499
11.710,190310,171,217498
11.715,190257,172,217462
11.720,190257,171,217479
11.725,190244,171,217469
11.730,190238,170,217464
11.735,190229,169,217460
11.740,190217,169,217436
11.745,190209,169,217444
11.750,190207,168,217426
11.755,190189,173,217439
11.760,190187,169,217416
11.765,190172,169,217419
11.770,190162,168,217388
11.775,190162,173,217393
11.780,190129,173,217371
11.785,190125,171,217388
11.790,190112,171,217358
11.795,190106,170,217360
11.800,190095,170,217345
11.804,190087,169,217338
11.809,190070,171,217350
11.814,190073,170,217339
11.819,190074,169,217328
11.824,190052,169,217317
11.829,190043,169,217331
11.834,190047,168,217331
11.839,190046,168,217321
11.844,190039,174,217340
11.849,190039,172,217321
11.854,190039,171,217331
11.859,190024,168,217296
11.864,190019,173,217288
11.869,190029,172,217291
11.874,190008,172,217299
11.879,190005,171,217265
11.884,189990,171,217261
11.889,189998,171,217279
11.894,190000,171,217268
11.899,189980,170,217240
11.904,189963,169,217206
11.909,189970,173,217232
11.914,189941,172,217215
11.919,189938,171,217217
11.924,189920,170,217211
11.929,189926,169,217187
11.933,189948,169,217192
11.938,189925,168,217183
11.943,189928,172,217198
11.948,189923,171,217182
11.953,189952,168,217176
11.958,189923,170,217194
11.963,189918,169,217165
11.968,189901,169,217154
11.973,189904,173,217150
11.978,189894,172,217150
11.983,189896,171,217156
11.988,189871,170,217148
11.993,189888,169,217160
11.998,189872,169,217138
12.003,189885,171,217169
12.008,189882,170,217133
12.013,189880,169,217134
12.018,189879,168,217135
12.023,189871,173,217153
12.028,189876,173,217136
12.033,189870,172,217119
12.038,189875,171,217117
12.043,189856,171,217122
12.048,189847,170,217151
12.053,189860,173,217124
12.058,189878,172,217122
12.062,189886,170,217135
12.067,189869,170,217119
12.072,189866,170,217121
12.077,189865,169,217130
12.082,189862,168,217111
12.087,189853,173,217111
12.092,189857,171,217105
12.097,189864,171,217095
12.102,189846,173,217091
12.107,189841,171,217080
12.112,189838,171,217068
12.117,189841,170,217076
12.122,189843,170,217075
12.127,189826,169,217058
12.132,189831,169,217078
12.137,189826,168,217082
12.142,189833,173,217064
12.147,189834,172,217024
12.152,189839,174,217051
12.157,189831,173,217045
12.162,189835,172,217043
12.167,189809,170,217056
12.172,189819,169,217044
12.177,189827,169,217025
12.182,189822,173,217030
12.186,189811,172,217032
12.191,189821,171,217041
12.196,189816,172,217000
12.201,189795,173,217036
12.206,189813,171,217024
12.211,189807,171,216999
12.216,189837,170,217009
12.221,189828,169,216995
12.226,189805,169,217004
12.231,189823,173,217007
12.236,189808,172,217014
12.241,189810,170,216999
12.246,189823,172,216996
12.251,189814,170,217010
12.256,189807,169,216990
12.261,189841,168,217013
12.266,189831,173,217029
12.271,189839,171,217028
12.276,189831,170,217018
12.281,189825,169,217017
12.286,189814,168,217005
12.291,189832,173,217031
12.296,189826,169,217043
12.301,189810,168,217048
12.306,189821,172,217058
12.311,189800,171,217051
12.315,189794,170,217057
12.320,189769,170,217073
12.325,189769,169,217063
12.330,189770,169,217078
12.335,189733,168,217073
12.340,189748,173,217082
12.345,189738,169,217092
12.350,189737,168,217078
12.355,189728,168,217100
12.360,189704,173,217092
12.365,189707,171,217083
12.370,189714,170,217073
12.375,189688,169,217079
12.380,189689,168,217072
12.385,189685,168,217057
12.390,189664,173,217079
12.395,189664,171,217065
12.400,189665,170,217067
12.405,189656,169,217076
12.410,189631,168,217053
12.415,189633,168,217047
12.420,189616,173,217069
12.425,189623,172,217058
12.430,189623,171,217051
12.435,189623,170,217060
12.440,189612,171,217065
12.444,189591,171,217052
12.449,189614,170,217048
12.454,189593,170,217054
12.459,189590,169,217046
12.464,189577,169,217041
12.469,189576,168,217037
12.474,189558,174,217045
12.479,189555,172,217048
12.484,189548,172,217034
12.489,189570,174,217052
12.494,189517,169,217024
12.499,189520,169,217017
12.504,189524,168,217017
12.509,189519,173,217016
12.514,189507,173,217000
12.519,189509,172,217013
12.524,189523,171,217005
12.529,189502,171,216993
12.534,189519,170,217013
12.539,189510,172,217018
12.544,189513,171,217022
12.549,189500,170,217001
12.554,189505,169,217022
12.559,189512,169,217013
12.564,189493,168,217041
12.569,189476,173,217024
12.573,189510,172,217048
12.578,189494,171,217043
12.583,189509,170,217045
12.588,189518,172,217063
12.593,189508,171,217074
12.598,189501,170,217081
12.603,189504,169,217091
12.608,189510,169,217097
12.613,189495,168,217114
12.618,189507,168,217104
12.623,189518,173,217087
12.628,189497,172,217102
12.633,189499,171,217099
12.638,189488,173,217093
12.643,189500,173,217105
12.648,189503,172,217102
12.653,189497,172,217107
12.658,189493,171,217102
12.663,189482,170,217097
12.668,189504,170,217105
12.673,189466,169,217100
12.678,189477,169,217083
12.683,189492,169,217086
12.688,189477,171,217074
12.693,189475,170,217071
12.698,189473,170,217075
12.702,189474,169,217069
12.707,189484,169,217079
12.712,189485,168,217082
12.717,189472,168,217075
12.722,189473,173,217049
12.727,189474,172,217071
12.732,189484,173,217061
12.737,189474,172,217040
12.742,189462,171,217054
12.747,189453,170,217056
12.752,189446,169,217058
12.757,189468,168,217028
12.762,189455,168,217033
12.767,189461,173,217023
12.772,189460,171,217019
12.777,189434,170,217016
12.782,189452,173,217005
12.787,189441,171,217006
12.792,189444,171,216978
12.797,189446,169,216993
12.802,189429,170,216984
12.807,189447,169,216996
12.812,189456,168,216981
12.817,189440,174,216989
12.822,189461,172,216986
12.827,189462,171,216991
12.831,189493,170,216997
12.836,189460,172,216982
12.841,189481,171,216998
12.846,189481,170,216994
12.851,189475,169,217000
12.856,189486,169,216979
12.861,189477,168,216984
12.866,189489,168,216977
12.871,189484,173,216969
12.876,189488,172,216971
12.881,189484,170,216979
12.886,189496,169,216979
12.891,189489,169,216955
12.896,189501,169,216957
12.901,189505,174,216979
12.906,189503,173,216970
12.911,189504,172,216989
12.916,189498,171,216991
12.921,189509,170,216988
12.926,189521,169,216999
12.931,189525,172,216986
12.936,189543,170,216988
12.941,189529,170,216977
12.946,189524,169,217003
12.951,189530,169,216998
12.956,189537,169,216967
12.960,189531,173,216981
12.965,189546,173,216990
12.970,189549,172,216973
12.975,189535,174,216937
12.980,189541,168,216972
12.985,189537,173,216987
12.990,189557,172,216972
12.995,189531,172,216962
13.000,189560,170,216958
13.005,189566,171,216969
13.010,189571,170,216972
13.015,189576,169,216965
13.020,189577,169,216981
13.025,189604,171,216978
13.030,189582,172,216984
13.035,189592,172,216989
13.040,189590,171,216997
13.045,189586,171,216992
13.050,189575,171,217009
13.055,189569,171,216994
13.060,189565,171,217018
13.065,189547,171,217002
13.070,189520,171,217007
13.075,189546,168,217008
13.080,189528,168,217001
13.085,189505,173,217002
13.089,189506,172,217002
13.094,189484,171,216985
13.099,189463,170,216976
13.104,189453,169,216963
13.109,189441,169,216971
13.114,189438,169,216959
13.119,189434,168,216947
13.124,189466,170,216941
13.129,189419,173,216951
13.134,189420,172,216920
13.139,189417,172,216936
13.144,189401,171,216915
13.149,189403,170,216924
13.154,189401,169,216916
13.159,189389,169,216917
13.164,189381,168,216903
13.169,189381,173,216884
13.174,189376,172,216891
13.179,189382,171,216875
13.184,189376,170,216880
13.189,189369,170,216865
13.194,189355,169,216872
13.199,189331,168,216860
13.204,189334,172,216849
13.209,189326,172,216823
13.213,189312,171,216825
13.218,189325,171,216839
13.223,189304,173,216812
13.228,189296,172,216806
13.233,189296,171,216810
13.238,189283,171,216780
13.243,189284,170,216786
13.248,189289,170,216754
13.253,189270,170,216754
13.258,189279,169,216739
13.263,189258,169,216752
13.268,189256,168,216755
13.273,189254,170,216715
13.278,189255,169,216729
13.283,189253,169,216720
13.288,189250,169,216709
13.293,189257,168,216735
13.298,189257,168,216714
13.303,189227,173,216704
13.308,189251,172,216670
13.313,189250,170,216672
13.318,189227,173,216674
13.323,189222,173,216665
13.328,189220,171,216668
13.333,189197,171,216665
13.338,189220,170,216649
13.342,189214,170,216651
13.347,189216,169,216672
13.352,189218,169,216639
13.357,189194,168,216653
13.362,189213,173,216663
13.367,189206,169,216653
13.372,189204,169,216630
13.377,189197,169,216645
13.382,189206,168,216652
13.387,189187,174,216636
13.392,189199,172,216634
13.397,189193,172,216641
13.402,189197,171,216636
13.407,189182,170,216627
13.412,189185,170,216627
13.417,189176,169,216608
13.422,189187,169,216615
13.427,189182,169,216617
13.432,189188,168,216632
13.437,189174,173,216611
13.442,189179,172,216627
13.447,189161,171,216622
13.452,189173,170,216594
13.457,189158,169,216607
13.462,189187,168,216606
13.467,189176,170,216620
13.471,189192,169,216600
13.476,189169,168,216609
13.481,189158,173,216611
13.486,189154,171,216607
13.491,189165,170,216602
13.496,189172,169,216597
13.501,189176,169,216584
13.506,189155,168,216590
13.511,189173,174,216601
13.516,189175,171,216591
13.521,189167,170,216565
13.526,189175,169,216585
13.531,189159,173,216589
13.536,189169,172,216590
13.541,189179,170,216589
13.546,189183,169,216589
13.551,189175,169,216596
13.556,189176,168,216601
13.561,189196,170,216606
13.566,189185,169,216607
13.571,189195,169,216604
13.576,189185,168,216613
13.581,189198,173,216616
13.586,189214,172,216623
13.591,189209,171,216605
13.596,189207,171,216625
13.600,189208,171,216617
13.605,189223,170,216606
13.610,189209,173,216614
13.615,189223,172,216601
13.620,189214,170,216607
13.625,189236,170,216594
13.630,189225,169,216606
13.635,189231,168,216603
13.640,189228,172,216622
13.645,189213,171,216604
13.650,189226,170,216616
13.655,189209,169,216618
13.660,189223,171,216583
13.665,189220,170,216587
13.670,189220,170,216593
13.675,189232,169,216588
13.680,189247,168,216612
13.685,189234,168,216604
13.690,189231,173,216608
13.695,189252,173,216601
13.700,189244,172,216603
13.705,189244,170,216589
13.710,189254,173,216605
13.715,189267,172,216613
13.720,189265,171,216623
13.725,189259,170,216593
13.729,189263,169,216622
13.734,189266,169,216629
13.739,189275,168,216623
13.744,189281,174,216620
13.749,189275,172,216616
13.754,189288,171,216627
13.759,189294,168,216646
13.764,189296,173,216634
13.769,189313,172,216646
13.774,189323,172,216652
13.779,189326,172,216651
13.784,189337,172,216657
13.789,189325,172,216672
13.794,189328,171,216667
13.799,189353,171,216664
13.804,189346,177,216691
13.809,189334,170,216693
13.814,189354,170,216694
13.819,189328,169,216709
13.824,189316,169,216710
13.829,189318,169,216729
13.834,189312,168,216734
13.839,189307,173,216730
13.844,189299,172,216718
13.849,189308,172,216722
13.854,189289,168,216743
13.858,189299,168,216748
13.863,189304,173,216753
13.868,189293,172,216743
13.873,189285,171,216769
13.878,189275,169,216758
13.883,189278,169,216748
13.888,189293,168,216771
13.893,189271,173,216791
13.898,189269,171,216780
13.903,189267,168,216779
13.908,189272,168,216775
13.913,189279,173,216785
13.918,189282,171,216783
13.923,189257,170,216791
13.928,189285,170,216800
13.933,189286,169,216800
13.938,189289,169,216772
13.943,189274,168,216802
13.948,189270,172,216787
13.953,189299,170,216818
13.958,189288,171,216829
13.963,189269,170,216816
13.968,189284,169,216801
13.973,189285,169,216822
13.978,189277,169,216827
13.983,189276,168,216808
13.987,189267,173,216809
13.992,189274,172,216832
13.997,189283,171,216819
14.002,189277,169,216814
14.007,189270,168,216816
14.012,189279,173,216837
14.017,189264,172,216824
14.022,189265,172,216831
14.027,189257,171,216837
14.032,189287,170,216820
14.037,189295,169,216813
14.042,189281,169,216815
14.047,189297,170,216891
14.052,189290,170,216852
14.057,189301,169,216832
14.062,189287,168,216859
14.067,189311,168,216839
14.072,189282,173,216840
14.077,189297,173,216836
14.082,189293,173,216853
14.087,189291,172,216845
14.092,189292,171,216855
14.097,189281,173,216850
14.102,189325,172,216861
14.107,189306,172,216873
14.112,189315,171,216858
14.116,189324,170,216869
14.121,189313,170,216875
14.126,189316,170,216884
14.131,189312,169,216870
14.136,189308,169,216892
14.141,189314,168,216896
14.146,189326,169,216901
14.151,189323,169,216900
14.156,189323,169,216906
14.161,189319,168,216906
14.166,189333,168,216904
14.171,189335,173,216899
14.176,189330,171,216919
14.181,189332,171,216930
14.186,189320,171,216890
14.191,189345,170,216919
14.196,189335,172,216928
14.201,189332,172,216920
14.206,189336,171,216913
14.211,189344,170,216896
14.216,189337,169,216914
14.221,189357,169,216921
14.226,189352,169,216919
14.231,189355,169,216911
14.236,189358,173,216924
14.240,189354,171,216913
14.245,189361,170,216928
14.250,189381,170,216932
14.255,189388,169,216919
14.260,189392,168,216928
14.265,189381,173,216936
14.270,189390,172,216941
14.275,189384,171,216952
14.280,189405,170,216958
14.285,189399,169,216941
14.290,189393,169,216951
14.295,189409,168,216933
14.300,189398,173,216944
14.305,189405,172,216965
14.310,189432,171,216941
14.315,189434,170,216978
14.320,189428,170,216970
14.325,189442,169,216971
14.330,189453,169,216975
14.335,189451,168,216961
14.340,189442,172,216977
14.345,189446,172,216966
14.350,189464,171,216971
14.355,189450,171,216964
14.360,189464,170,216973
14.365,189457,170,216975
14.369,189462,169,216964
14.374,189472,169,216986
14.379,189467,168,216994
14.384,189478,172,216987
14.389,189478,168,216996
14.394,189491,172,217002
14.399,189480,171,216993
14.404,189501,170,216998
14.409,189505,169,217000
14.414,189497,169,217021
14.419,189500,169,217021
14.424,189523,168,217009
14.429,189528,172,217025
14.434,189524,171,217007
14.439,189509,173,217037
14.444,189550,173,217036
14.449,189558,171,217046
14.454,189555,170,217052
14.459,189567,170,217030
14.464,189531,170,217039
14.469,189579,168,217032
14.474,189558,168,217056
14.479,189571,173,217046
14.484,189568,172,217052
14.489,189571,168,217069
14.494,189566,173,217073
14.498,189570,172,217064
14.503,189574,172,217071
14.508,189567,171,217089
14.513,189563,170,217083
14.518,189544,169,217087
14.523,189554,169,217097
14.528,189538,168,217099
14.533,189550,174,217106
14.538,189550,169,217115
14.543,189542,169,217112
14.548,189548,173,217119
14.553,189531,172,217107
14.558,189541,171,217109
14.563,189531,170,217117
14.568,189517,170,217121
14.573,189535,169,217123
14.578,189523,169,217143
14.583,189521,168,217111
14.588,189530,169,217137
14.593,189532,169,217140
14.598,189536,168,217146
14.603,189520,174,217149
14.608,189514,172,217142
14.613,189532,171,217147
14.618,189533,170,217136
14.623,189534,170,217136
14.627,189535,169,217142
14.632,189547,168,217137
14.637,189509,169,217141
14.642,189518,173,217135
14.647,189521,172,217123
14.652,189519,171,217135
14.657,189509,170,217141
14.662,189519,169,217138
14.667,189505,169,217138
14.672,189504,169,217112
14.677,189503,168,217116
14.682,189504,170,217122
14.687,189486,169,217135
14.692,189488,169,217126
14.697,189508,168,217134
14.702,189501,173,217143
14.707,189528,171,217123
14.712,189519,170,217154
14.717,189524,169,217157
14.722,189539,169,217158
14.727,189545,168,217166
14.732,189540,170,217171
14.737,189550,170,217183
14.742,189540,169,217165
14.747,189538,169,217166
14.752,189535,173,217146
14.756,189543,173,217162
14.761,189545,172,217153
14.766,189531,171,217171
14.771,189532,171,217152
14.776,189563,171,217177
14.781,189546,173,217158
14.786,189551,172,217162
14.791,189540,172,217155
14.796,189543,171,217180
14.801,189558,170,217153
14.806,189543,170,217181
14.811,189545,169,217144
14.816,189539,169,217169
14.821,189532,174,217161
14.826,189535,172,217171
14.831,189553,169,217178
14.836,189556,168,217174
14.841,189557,173,217174
14.846,189564,172,217180
14.851,189555,171,217172
14.856,189559,170,217184
14.861,189544,169,217186
14.866,189553,169,217166
14.871,189554,168,217191
14.876,189581,168,217210
14.881,189540,169,217179
14.885,189566,168,217170
14.890,189567,172,217156
14.895,189579,171,217187
14.900,189565,170,217166
14.905,189570,169,217165
14.910,189575,168,217168
14.915,189576,168,217175
14.920,189587,172,217179
14.925,189573,169,217165
14.930,189587,168,217168
14.935,189576,169,217157
14.940,189577,168,217169
14.945,189594,173,217171
14.950,189583,172,217155
14.955,189590,171,217164
14.960,189590,170,217181
14.965,189608,169,217159
14.970,189597,168,217157
14.975,189602,169,217153
14.980,189600,168,217167
14.985,189613,168,217163
14.990,189608,172,217165
14.995,189597,171,217156
15.000,189608,170,217162
15.005,189608,169,217134
15.010,189627,169,217156
15.014,189615,169,217186
15.019,189618,173,217159
15.024,189616,172,217144
15.029,189626,170,217171
15.034,189635,169,217179
15.039,189650,169,217186
15.044,189647,168,217167
15.049,189640,172,217192
15.054,189644,170,217185
15.059,189658,170,217198
15.064,189658,169,217211
15.069,189680,168,217195
15.074,189688,169,217211
15.079,189685,168,217188
15.084,189695,172,217203
15.089,189691,171,217213
15.094,189689,169,217188
15.099,189691,168,217197
15.104,189699,173,217208
15.109,189698,172,217213
15.114,189701,170,217205
15.119,189695,170,217238
15.124,189685,171,217212
15.129,189671,170,217218
15.134,189650,169,217230
15.139,189656,168,217229
15.143,189637,173,217218
15.148,189647,171,217230
15.153,189642,170,217267
15.158,189651,169,217237
15.163,189651,173,217244
15.168,189635,168,217257
15.173,189629,173,217226
15.178,189616,172,217248
15.183,189617,170,217242
15.188,189624,169,217248
15.193,189612,168,217239
15.198,189618,173,217243
15.203,189601,172,217236
15.208,189615,171,217251
15.213,189605,170,217253
15.218,189608,172,217244
15.223,189590,171,217253
15.228,189592,170,217265
15.233,189612,169,217258
15.238,189600,168,217251
15.243,189611,172,217276
15.248,189596,171,217245
15.253,189620,170,217269
15.258,189603,170,217268
15.263,189604,169,217252
15.268,189592,171,217266
15.272,189586,170,217271
15.277,189601,169,217258
15.282,189586,169,217250
15.287,189595,168,217265
15.292,189593,173,217259
15.297,189581,171,217248
15.302,189581,170,217245
15.307,189586,170,217233
15.312,189554,169,217246
15.317,189571,169,217251
15.322,189560,173,217253
15.327,189575,172,217249
15.332,189595,170,217241
15.337,189591,170,217247
15.342,189570,169,217247
15.347,189595,168,217239
15.352,189585,173,217237
15.357,189601,172,217254
15.362,189605,172,217258
15.367,189588,168,217251
15.372,189595,173,217248
15.377,189606,171,217253
15.382,189591,170,217245
15.387,189604,169,217244
15.392,189597,168,217263
15.396,189608,168,217255
15.401,189596,173,217263
15.406,189607,171,217255
15.411,189625,172,217222
15.416,189586,172,217263
15.421,189620,171,217256
15.426,189601,170,217260
15.431,189604,169,217262
15.436,189609,169,217246
15.441,189612,168,217246
15.446,189602,168,217257
15.451,189598,173,217264
15.456,189583,172,217252
15.461,189603,168,217262
15.466,189594,170,217248
15.471,189593,169,217242
15.476,189589,168,217236
15.481,189588,168,217244
15.486,189581,172,217246
15.491,189594,171,217254
15.496,189601,170,217245
15.501,189606,169,217239
15.506,189592,168,217254
15.511,189615,169,217238
15.516,189588,169,217242
15.521,189605,169,217245
15.525,189613,169,217235
15.530,189596,168,217249
15.535,189596,168,217221
15.540,189610,172,217218
15.545,189601,171,217247
15.550,189611,170,217243
15.555,189609,169,217239
15.560,189622,170,217231
15.565,189613,169,217242
15.570,189589,169,217202
15.575,189610,168,217207
15.580,189616,173,217204
15.585,189597,172,217206
15.590,189617,171,217212
15.595,189600,170,217197
15.600,189616,169,217186
15.605,189603,168,217179
15.610,189597,169,217201
15.615,189618,169,217172
15.620,189607,174,217172
15.625,189594,172,217184
15.630,189613,171,217164
15.635,189599,170,217154
15.640,189601,169,217168
15.645,189601,168,217161
15.650,189600,173,217151
15.654,189599,172,217154
15.659,189603,168,217160
15.664,189600,173,217142
15.669,189600,172,217150
15.674,189589,170,217166
15.679,189605,169,217155
15.684,189591,169,217139
15.689,189611,168,217163
15.694,189591,172,217159
15.699,189609,171,217170
15.704,189616,177,217170
15.709,189625,172,217171
15.714,189638,171,217168
15.719,189623,169,217196
15.724,189653,169,217198
15.729,189612,168,217185
15.734,189619,174,217192
15.739,189604,172,217197
15.744,189608,171,217200
15.749,189596,170,217212
15.754,189595,173,217203
15.759,189578,168,217183
15.764,189552,173,217202
15.769,189543,172,217213
15.774,189540,171,217203
15.779,189552,170,217185
15.783,189533,169,217196
15.788,189519,169,217205
15.793,189503,168,217187
15.798,189496,172,217208
15.803,189488,168,217187
15.808,189477,172,217188
15.813,189486,170,217190
15.818,189470,170,217164
15.823,189454,169,217181
15.828,189455,168,217166
15.833,189459,172,217190
15.838,189455,170,217184
15.843,189442,169,217194
15.848,189436,169,217192
15.853,189427,170,217183
15.858,189437,169,217183
15.863,189445,173,217178
15.868,189420,171,217187
15.873,189421,170,217186
15.878,189411,169,217193
15.883,189427,168,217208
15.888,189412,173,217221
15.893,189403,171,217203
15.898,189405,170,217216
15.903,189398,173,217205
15.908,189385,171,217197
15.912,189399,170,217194
15.917,189393,170,217194
15.922,189367,169,217198
15.927,189380,169,217177
15.932,189369,173,217198
15.937,189371,172,217165
15.942,189356,171,217159
15.947,189342,171,217144
15.952,189338,173,217140
15.957,189333,171,217132
15.962,189331,171,217133
15.967,189332,170,217129
15.972,189325,169,217131
15.977,189343,169,217116
15.982,189351,168,217141
15.987,189327,168,217121
15.992,189327,173,217117
15.997,189335,169,217151
16.002,189328,170,217120
16.007,189316,170,217099
16.012,189328,169,217119
16.017,189321,169,217134
16.022,189314,169,217119
16.027,189306,169,217129
16.032,189314,169,217119
16.037,189323,169,217131
16.041,189309,168,217112
16.046,189292,170,217140
16.051,189305,173,217119
16.056,189310,172,217112
16.061,189301,170,217112
16.066,189296,169,217106
16.071,189294,169,217106
16.076,189285,168,217100
16.081,189297,173,217127
16.086,189311,171,217123
16.091,189305,171,217092
16.096,189291,172,217110
16.101,189279,172,217114
16.106,189304,170,217096
16.111,189296,169,217101
16.116,189292,169,217097
16.121,189286,173,217111
16.126,189282,171,217091
16.131,189299,170,217081
16.136,189301,169,217079
16.141,189287,170,217080
16.146,189288,170,217078
16.151,189270,169,217084
16.156,189288,168,217092
16.161,189285,168,217079
16.166,189277,168,217077
16.170,189290,172,217079
16.175,189282,171,217057
16.180,189284,170,217058
16.185,189276,169,217045
16.190,189274,169,217058
16.195,189268,170,217053
16.200,189265,169,217038
16.205,189268,169,217041
16.210,189255,169,217024
16.215,189275,169,217036
16.220,189263,168,217032
16.225,189280,172,217023
16.230,189248,171,217015
16.235,189258,170,217012
16.240,189258,170,217011
16.245,189264,171,217017
16.250,189244,170,217008
16.255,189248,170,217019
16.260,189262,170,217016
16.265,189271,169,217019
16.270,189261,168,217016
16.275,189262,173,217005
16.280,189253,172,216999
16.285,189267,172,216985
16.290,189261,168,217003
16.295,189240,168,216992
16.299,189252,172,217010
16.304,189276,171,217008
16.309,189267,170,216995
16.314,189250,169,217001
16.319,189250,169,216997
16.324,189256,168,216990
16.329,189255,173,216991
16.334,189250,172,216987
16.339,189257,168,216989
16.344,189255,173,216982
16.349,189260,171,216988
16.354,189258,170,216986
16.359,189253,169,216993
16.364,189270,168,216987
16.369,189261,173,216986
16.374,189270,172,216993
16.379,189263,171,216999
16.384,189268,170,216989
16.389,189266,168,216986
16.394,189267,168,216992
16.399,189269,173,217004
16.404,189289,171,217015
16.409,189293,170,216990
16.414,189294,169,217011
16.419,189302,168,217018
16.423,189296,172,217024
16.428,189274,171,217042
16.433,189287,170,217024
16.438,189265,169,217046
16.443,189276,168,217056
16.448,189252,173,217051
16.453,189225,171,217043
16.458,189243,170,217051
16.463,189227,169,217064
16.468,189220,169,217071
16.473,189219,168,217075
16.478,189211,173,217089
16.483,189203,173,217093
16.488,189222,171,217080
16.493,189198,170,217063
16.498,189199,170,217069
16.503,189183,169,217085
16.508,189181,168,217061
16.513,189175,173,217088
16.518,189159,171,217065
16.523,189151,170,217071
16.528,189145,169,217062
16.533,189132,169,217062
16.538,189141,170,217074
16.543,189126,170,217073
16.548,189117,169,217055
16.552,189119,169,217048
16.557,189123,169,217070
16.562,189134,168,217053
16.567,189113,173,217063
16.572,189112,172,217058
16.577,189101,172,217057
16.582,189100,168,217041
16.587,189101,168,217039
16.592,189092,173,217044
16.597,189088,173,217046
16.602,189087,172,217025
16.607,189081,171,217042
16.612,189069,171,217056
16.617,189076,170,217022
16.622,189060,169,217016
16.627,189044,169,217003
16.632,189047,170,217006
16.637,189046,170,217004
16.642,189039,170,216992
16.647,189014,169,217007
16.652,189035,169,217000
16.657,189029,168,216990
16.662,189015,172,216982
16.667,189020,171,216973
16.672,189005,170,216984
16.677,189010,169,216978
16.681,189005,171,216972
16.686,189022,170,216977
16.691,188998,170,216951
16.696,189004,169,216954
16.701,188988,169,216958
16.706,188999,168,216949
16.711,188976,173,216967
16.716,188981,172,216947
16.721,188991,171,216968
16.726,188985,170,216953
16.731,188986,172,216955
16.736,188990,172,216948
16.741,188978,171,216952
16.746,188984,170,216936
16.751,188981,169,216948
16.756,188974,169,216939
16.761,188954,169,216936
16.766,188961,169,216920
16.771,188956,169,216941
16.776,188956,170,216918
16.781,188970,170,216936
16.786,188961,169,216950
16.791,188961,168,216934
16.796,188967,173,216931
16.801,188961,172,216928
16.806,188962,171,216936
16.810,188964,169,216933
16.815,188973,169,216929
16.820,188986,168,216936
16.825,188987,169,216938
16.830,188959,170,216933
16.835,188945,170,216933
16.840,188959,169,216922
16.845,188959,168,216924
16.850,188962,173,216917
16.855,188969,171,216915
16.860,188963,170,216909
16.865,188964,169,216916
16.870,188966,168,216914
16.875,188966,169,216912
16.880,188954,169,216926
16.885,188967,168,216907
16.890,188971,168,216901
16.895,188952,173,216905
16.900,188955,172,216902
16.905,188948,171,216893
16.910,188967,171,216914
16.915,188967,169,216893
16.920,188956,169,216916
16.925,188968,171,216904
16.930,188958,171,216905
16.935,188972,169,216912
16.939,188974,169,216898
16.944,188969,168,216910
16.949,188966,173,216916
16.954,188977,171,216932
16.959,188976,170,216903
16.964,188974,169,216920
16.969,188974,169,216915
16.974,188982,170,216935
16.979,188994,169,216933
16.984,189004,169,216931
16.989,188996,168,216924
16.994,188983,172,216942
16.999,188999,172,216928
17.004,189003,170,216943
17.009,188996,169,216930
17.014,189005,170,216946
17.019,189006,168,216922
17.024,189000,170,216950
17.029,188986,169,216961
17.034,189012,168,216959
17.039,189008,173,216944
17.044,189021,172,216952
17.049,189033,171,216955
17.054,189016,170,216971
17.059,189006,170,216950
17.064,189026,169,216959
17.068,189046,170,216911
17.073,189027,172,216968
17.078,189024,171,216957
17.083,189029,170,216962
17.088,189026,169,216966
17.093,189029,169,216962
17.098,189040,169,216960
17.103,189034,169,216989
17.108,189041,168,216985
17.113,189036,173,216981
17.118,189055,170,216964
17.123,189036,169,216989
17.128,189045,168,216968
17.133,189041,168,216973
17.138,189052,173,216993
17.143,189061,172,216988
17.148,189069,171,216993
17.153,189053,170,216990
17.158,189076,170,216994
17.163,189080,169,217000
17.168,189068,173,217016
17.173,189063,172,217021
17.178,189073,170,217028
17.183,189058,169,217044
17.188,189055,169,217050
17.193,189042,168,217046
17.197,189047,173,217065
17.202,189013,172,217065
17.207,189025,171,217070
17.212,189034,170,217092
17.217,189029,169,217079
17.222,188996,169,217087
17.227,188985,168,217078
17.232,188982,173,217095
17.237,188978,172,217095
17.242,188978,171,217071
17.247,188976,170,217078
17.252,188955,169,217067
17.257,188963,169,217068
17.262,188952,168,217079
17.267,188943,170,217085
17.272,188943,169,217080
17.277,188941,169,217095
17.282,188929,168,217097
17.287,188918,173,217102
17.292,188926,171,217105
17.297,188924,171,217112
17.302,188924,170,217098
17.307,188922,169,217108
17.312,188896,171,217096
17.317,188898,170,217104
17.322,188904,170,217122
17.326,188874,169,217101
17.331,188890,168,217109
17.336,188876,172,217095
17.341,188885,170,217102
17.346,188869,169,217090
17.351,188866,169,217092
17.356,188856,173,217085
17.361,188841,168,217060
17.366,188834,173,217070
17.371,188842,171,217063
17.376,188828,170,217056
17.381,188830,169,217069
17.386,188830,168,217061
17.391,188827,172,217062
17.396,188803,170,217059
17.401,188821,169,217055
17.406,188823,168,217046
17.411,188822,170,217055
17.416,188823,169,217054
17.421,188825,169,217071
17.426,188805,168,217051
17.431,188827,173,217068
17.436,188812,173,217064
17.441,188786,172,217068
17.446,188789,171,217086
17.450,188782,170,217081
17.455,188810,169,217077
17.460,188777,171,217094
17.465,188792,169,217077
17.470,188778,169,217080
17.475,188788,168,217084
17.480,188792,173,217100
17.485,188787,171,217094
17.490,188782,170,217116
17.495,188784,169,217096
17.500,188793,169,217123
17.505,188774,168,217101
17.510,188770,170,217098
17.515,188778,169,217094
17.520,188765,169,217086
17.525,188760,168,217089
17.530,188752,173,217086
17.535,188763,171,217064
17.540,188750,171,217078
17.545,188743,170,217075
17.550,188748,169,217068
17.555,188749,169,217058
17.560,188747,173,217075
17.565,188750,172,217059
17.570,188742,171,217055
17.575,188745,171,217052
17.579,188743,170,217060
17.584,188742,169,217075
17.589,188750,169,217044
17.594,188738,168,217052
17.599,188731,168,217053
17.604,188736,172,217057
17.609,188741,169,217071
17.614,188710,168,217067
17.619,188733,168,217045
17.624,188724,173,217038
17.629,188719,172,217049
17.634,188717,171,217040
17.639,188716,170,217025
17.644,188702,170,217024
17.649,188719,169,217041
17.654,188723,171,217055
17.659,188730,170,217026
17.664,188734,169,217033
17.669,188731,169,217032
17.674,188721,169,217031
17.679,188726,168,217016
17.684,188713,168,217010
17.689,188715,173,216994
17.694,188723,172,216995
17.699,188712,172,216999
17.704,188730,168,216998
17.708,188709,168,217005
17.713,188725,168,216991
17.718,188722,168,217013
17.723,188710,173,217007
17.728,188709,173,216981
17.733,188716,172,216984
17.738,188720,172,216982
17.743,188741,171,216990
17.748,188726,171,216968
17.753,188723,169,216979
17.758,188717,173,216974
17.763,188742,172,216967
17.768,188722,171,216966
17.773,188748,170,216991
17.778,188744,170,216969
17.783,188746,169,216961
17.788,188745,169,216970
17.793,188750,168,216943
17.798,188750,168,216956
17.803,188742,169,216940
17.808,188747,169,216946
17.813,188757,168,216949
17.818,188758,168,216947
17.823,188749,173,216962
17.828,188756,173,216950
17.833,188763,172,216965
17.837,188756,171,216972
17.842,188767,171,216978
17.847,188773,171,216964
17.852,188771,171,216975
17.857,188794,170,216976
17.862,188811,170,217003
17.867,188802,170,216984
17.872,188810,170,217006
17.877,188808,169,216987
17.882,188819,168,217009
17.887,188807,174,217022
17.892,188827,172,217028
17.897,188806,168,217045
17.902,188811,169,217064
17.907,188793,168,217070
17.912,188793,168,217082
17.917,188782,173,217083
17.922,188804,173,217139
17.927,188793,173,217126
17.932,188797,172,217169
17.937,188806,172,217146
17.942,188808,172,217179
17.947,188808,169,217188
17.952,188815,170,217191
17.957,188798,169,217203
17.962,188795,169,217201
17.966,188789,168,217201
17.971,188792,168,217203
17.976,188770,168,217200
17.981,188780,173,217218
17.986,188777,172,217209
17.991,188754,171,217210
17.996,188754,173,217217
18.001,188759,172,217202
18.006,188756,172,217188
18.011,188759,171,217214
18.016,188757,170,217208
18.021,188745,170,217222
18.026,188756,169,217207
18.031,188743,169,217204
18.036,188748,169,217208
18.041,188746,168,217184
18.046,188746,169,217197
18.051,188738,169,217188
18.056,188747,169,217173
18.061,188732,169,217186
18.066,188718,168,217172
18.071,188728,168,217173
18.076,188731,173,217158
18.081,188738,172,217164
18.086,188721,172,217173
18.091,188727,171,217154
18.095,188729,173,217155
18.100,188708,173,217170
18.105,188730,171,217149
18.110,188725,170,217159
18.115,188727,169,217142
18.120,188719,169,217152
18.125,188716,168,217167
18.130,188732,168,217157
18.135,188732,173,217140
18.140,188709,171,217141
18.145,188709,168,217157
18.150,188723,173,217148
18.155,188719,171,217144
18.160,188724,170,217143
18.165,188717,169,217167
18.170,188723,169,217170
18.175,188733,168,217173
18.180,188738,173,217192
18.185,188732,171,217168
18.190,188741,168,217181
18.195,188735,173,217163
18.200,188757,172,217188
18.205,188742,170,217193
18.210,188747,169,217197
18.215,188734,169,217198
18.220,188752,169,217212
18.224,188768,168,217210
18.229,188753,172,217219
18.234,188744,171,217211
18.239,188760,169,217218
18.244,188768,169,217217
18.249,188766,169,217234
18.254,188750,168,217239
18.259,188772,173,217230
18.264,188768,172,217222
18.269,188767,171,217245
18.274,188774,171,217242
18.279,188775,170,217243
18.284,188777,170,217249
18.289,188775,169,217237
18.294,188780,168,217227
18.299,188789,172,217244
18.304,188778,171,217244
18.309,188776,170,217223
18.314,188769,170,217230
18.319,188768,169,217218
18.324,188772,169,217213
18.329,188783,169,217235
18.334,188770,168,217237
18.339,188784,170,217225
18.344,188799,170,217243
18.349,188790,170,217221
18.353,188807,170,217251
18.358,188798,169,217254
18.363,188798,168,217260
18.368,188798,168,217278
18.373,188807,168,217262
18.378,188810,173,217261
18.383,188833,173,217237
18.388,188835,169,217261
18.393,188836,169,217269
18.398,188856,168,217264
18.403,188860,173,217278
18.408,188852,172,217266
18.413,188844,172,217276
18.418,188849,171,217281
18.423,188868,171,217290
18.428,188860,171,217292
18.433,188899,168,217292
18.438,188880,171,217301
18.443,188885,170,217314
18.448,188894,170,217314
18.453,188893,169,217325
18.458,188899,169,217308
18.463,188888,168,217281
18.468,188901,168,217318
18.473,188906,173,217303
18.478,188911,172,217311
18.482,188920,168,217326
18.487,188911,168,217309
18.492,188926,173,217319
18.497,188931,172,217330
18.502,188962,171,217339
18.507,188958,170,217337
18.512,188965,169,217347
18.517,188955,169,217344
18.522,188987,168,217358
18.527,188969,173,217364
18.532,188983,170,217352
18.537,188977,170,217362
18.542,188986,169,217372
18.547,188980,168,217397
18.552,188964,168,217378
18.557,188968,173,217402
18.562,188946,172,217385
18.567,188956,171,217403
18.572,188962,170,217397
18.577,188957,168,217405
18.582,188936,170,217420
18.587,188943,169,217425
18.592,188938,169,217415
18.597,188933,169,217428
18.602,188934,168,217415
18.606,188920,168,217410
18.611,188921,172,217424
18.616,188905,172,217430
18.621,188904,170,217427
18.626,188890,170,217424
18.631,188905,169,217418
18.636,188909,169,217425
18.641,188897,173,217427
18.646,188910,172,217448
18.651,188889,170,217429
18.656,188900,169,217441
18.661,188908,169,217436
18.666,188894,168,217434
18.671,188891,173,217433
18.676,188895,174,217442
18.681,188887,168,217429
18.686,188900,172,217425
18.691,188886,170,217433
18.696,188896,169,217423
18.701,188905,168,217429
18.706,188898,172,217447
18.711,188891,171,217427
18.716,188884,170,217425
18.721,188883,170,217419
18.726,188901,171,217418
18.731,188890,171,217420
18.735,188885,170,217418
18.740,188878,169,217418
18.745,188890,169,217419
18.750,188890,168,217401
18.755,188914,172,217414
18.760,188914,171,217415
18.765,188914,170,217406
18.770,188931,169,217432
18.775,188919,168,217418
18.780,188916,172,217430
18.785,188917,171,217411
18.790,188942,170,217425
18.795,188939,169,217424
18.800,188940,168,217431
18.805,188937,172,217418
18.810,188943,171,217445
18.815,188960,171,217453
18.820,188951,169,217437
18.825,188961,171,217438
18.830,188957,170,217442
18.835,188958,169,217433
18.840,188964,168,217441
18.845,188970,168,217427
18.850,188974,173,217432
18.855,188973,172,217438
18.860,188965,171,217433
18.864,188967,169,217443
18.869,188972,169,217449
18.874,188972,170,217446
18.879,188970,170,217416
18.884,188981,169,217440
18.889,188986,168,217438
18.894,188991,173,217438
18.899,188988,171,217419
18.904,188976,170,217432
18.909,188994,169,217446
18.914,188994,169,217423
18.919,188981,168,217406
18.924,188991,173,217430
18.929,188990,172,217404
18.934,188985,171,217418
18.939,189001,171,217407
18.944,188994,170,217428
18.949,188984,169,217430
18.954,188993,169,217436
18.959,189010,168,217429
18.964,189003,168,217428
18.969,188998,169,217442
18.974,189027,168,217441
18.979,189011,168,217449
18.984,189009,173,217445
18.989,189013,171,217440
18.993,189028,170,217443
18.998,189034,169,217428
19.003,189041,168,217447
19.008,189036,173,217437
19.013,189047,171,217447
19.018,189060,169,217442
19.023,189046,170,217436
19.028,189075,169,217449
19.033,189065,169,217434
19.038,189071,168,217450
19.043,189062,168,217458
19.048,189082,173,217435
19.053,189072,171,217458
19.058,189079,171,217450
19.063,189090,170,217478
19.068,189082,169,217463
19.073,189092,168,217466
19.078,189109,173,217463
19.083,189113,172,217480
19.088,189116,171,217469
19.093,189126,170,217480
19.098,189140,169,217486
19.103,189160,169,217496
19.108,189141,168,217492
19.113,189156,174,217516
19.118,189159,169,217520
19.122,189177,168,217520
19.127,189149,172,217521
19.132,189154,171,217537
19.137,189155,170,217519
19.142,189151,170,217538
19.147,189121,169,217531
19.152,189126,169,217529
19.157,189120,169,217523
19.162,189120,169,217528
19.167,189097,170,217526
19.172,189114,169,217547
19.177,189100,169,217537
19.182,189110,168,217546
19.187,189087,173,217534
19.192,189074,172,217536
19.197,189078,171,217546
19.202,189070,170,217529
19.207,189074,169,217509
19.212,189078,171,217547
19.217,189072,171,217530
19.222,189053,169,217539
19.227,189061,169,217535
19.232,189066,168,217543
19.237,189055,173,217538
19.242,189061,172,217534
19.247,189054,170,217536
19.251,189058,170,217523
19.256,189056,169,217532
19.261,189059,171,217537
19.266,189067,170,217538
19.271,189055,169,217545
19.276,189053,169,217549
19.281,189054,169,217540
19.286,189069,168,217514
19.291,189049,173,217534
19.296,189057,171,217551
19.301,189062,170,217513
19.306,189054,170,217530
19.311,189070,173,217517
19.316,189050,168,217519
19.321,189047,172,217517
19.326,189040,171,217511
19.331,189060,170,217519
19.336,189059,169,217526
19.341,189055,168,217519
19.346,189096,173,217533
19.351,189076,172,217550
19.356,189101,170,217539
19.361,189092,170,217536
19.366,189087,169,217544
19.371,189094,168,217545
19.376,189076,173,217539
19.380,189093,171,217542
19.385,189089,170,217539
19.390,189086,169,217552
19.395,189094,168,217552
19.400,189105,171,217543
19.405,189117,170,217558
19.410,189120,169,217571
19.415,189121,168,217552
19.420,189123,172,217561
19.425,189124,170,217567
19.430,189135,169,217564
19.435,189115,169,217560
19.440,189108,174,217555
19.445,189117,171,217572
19.450,189129,171,217566
19.455,189120,170,217576
19.460,189117,169,217564
19.465,189120,168,217579
19.470,189144,173,217567
19.475,189133,171,217567
19.480,189128,170,217583
19.485,189144,169,217566
19.490,189148,168,217571
19.495,189150,173,217585
19.500,189156,171,217580
19.505,189153,173,217584
19.509,189178,169,217586
19.514,189155,169,217593
19.519,189167,168,217588
19.524,189158,173,217590
19.529,189165,171,217600
19.534,189160,170,217596
19.539,189174,170,217577
19.544,189168,169,217595
19.549,189181,168,217616
19.554,189180,170,217608
19.559,189191,169,217601
19.564,189191,169,217609
19.569,189191,173,217615
19.574,189202,172,217605
19.579,189212,171,217611
19.584,189198,170,217614
19.589,189205,169,217627
19.594,189224,168,217598
19.599,189217,168,217640
19.604,189235,170,217623
19.609,189235,169,217628
19.614,189229,169,217653
19.619,189233,169,217645
19.624,189254,168,217624
19.629,189242,168,217622
19.633,189255,168,217632
19.638,189262,168,217668
19.643,189255,173,217638
19.648,189260,173,217661
19.653,189285,169,217647
19.658,189286,168,217656
19.663,189290,173,217682
19.668,189302,172,217651
19.673,189307,170,217665
19.678,189325,170,217695
19.683,189301,169,217684
19.688,189305,169,217691
19.693,189326,169,217704
19.698,189287,169,217703
19.703,189282,170,217713
19.708,189289,169,217712
19.713,189278,169,217722
19.718,189255,168,217713
19.723,189259,168,217717
19.728,189245,172,217732
19.733,189250,171,217715
19.738,189233,171,217726
19.743,189231,170,217723
19.748,189228,171,217727
19.753,189236,171,217713
19.758,189220,171,217707
19.762,189214,170,217719
19.767,189211,169,217701
19.772,189187,169,217708
19.777,189198,168,217709
19.782,189193,173,217704
19.787,189197,172,217691
19.792,189187,170,217706
19.797,189165,174,217726
19.802,189190,169,217703
19.807,189186,169,217695
19.812,189200,168,217692
19.817,189190,173,217693
19.822,189173,172,217698
19.827,189192,171,217681
19.832,189182,170,217707
19.837,189185,169,217699
19.842,189178,168,217678
19.847,189162,169,217693
19.852,189165,169,217696
19.857,189176,168,217687
19.862,189180,173,217679
19.867,189164,172,217681
19.872,189177,171,217680
19.877,189160,170,217682
19.882,189147,169,217679
19.887,189177,168,217689
19.891,189148,168,217677
19.896,189162,169,217700
19.901,189154,168,217687
19.906,189171,173,217671
19.911,189165,171,217642
19.916,189168,170,217675
19.921,189178,169,217705
19.926,189187,168,217684
19.931,189180,173,217688
19.936,189175,172,217679
19.941,189191,170,217705
19.946,189183,171,217686
19.951,189189,172,217694
19.956,189184,171,217687
19.961,189186,170,217708
19.966,189195,170,217701
19.971,189192,169,217710
19.976,189194,169,217694
19.981,189199,169,217711
19.986,189194,168,217698
19.991,189198,168,217700
19.996,189200,169,217696
20.001,189195,168,217702
20.006,189187,168,217707
20.011,189177,168,217702
20.016,189190,173,217705
20.020,189171,172,217698
20.025,189188,171,217706
20.030,189211,170,217707
20.035,189194,170,217703
20.040,189198,176,217718
20.045,189193,169,217710
20.050,189216,169,217695
20.055,189205,168,217688
20.060,189222,173,217706
20.065,189203,172,217701
20.070,189206,171,217704
20.075,189202,170,217700
20.080,189207,170,217690
20.085,189201,169,217709
20.090,189216,171,217726
20.095,189217,170,217703
20.100,189224,169,217714
20.105,189220,169,217700
20.110,189228,168,217706
20.115,189241,173,217718
20.120,189213,172,217712
20.125,189222,171,217708
20.130,189234,170,217697
20.135,189234,170,217707
20.140,189233,172,217696
20.145,189245,171,217712
20.149,189252,170,217714
20.154,189252,170,217709
20.159,189244,169,217710
20.164,189240,168,217711
20.169,189254,172,217708
20.174,189265,171,217707
20.179,189248,170,217698
20.184,189275,169,217698
20.189,189257,172,217707
20.194,189258,171,217731
20.199,189267,170,217707
20.204,189272,170,217699
20.209,189268,169,217708
20.214,189294,168,217709
20.219,189284,172,217707
20.224,189297,171,217713
20.229,189308,170,217719
20.234,189289,169,217717
20.239,189287,170,217724
20.244,189296,169,217720
20.249,189296,168,217725
20.254,189294,173,217709
20.259,189284,171,217731
20.264,189280,170,217740
20.269,189273,170,217723
20.274,189250,168,217749
20.278,189243,173,217728
20.283,189232,172,217707
20.288,189233,168,217743
20.293,189218,172,217751
20.298,189202,171,217738
20.303,189194,169,217739
20.308,189197,169,217713
20.313,189187,173,217740
20.318,189170,172,217733
20.323,189168,170,217707
20.328,189162,170,217703
20.333,189173,171,217706
20.338,189154,170,217694
20.343,189148,170,217700
20.348,189136,169,217718
20.353,189122,169,217720
20.358,189118,172,217697
20.363,189112,171,217689
20.368,189107,169,217707
20.373,189100,168,217699
20.378,189094,168,217686
20.383,189105,169,217674
20.388,189095,169,217674
20.393,189098,168,217675
20.398,189086,173,217664
20.403,189085,171,217668
20.407,189079,170,217656
20.412,189068,169,217650
20.417,189063,168,217647
20.422,189051,173,217645
20.427,189047,172,217624
20.432,189050,168,217624
20.437,189027,172,217624
20.442,189031,172,217624
20.447,189016,171,217609
20.452,189016,170,217613
20.457,189002,169,217600
20.462,189015,169,217597
20.467,189008,168,217585
20.472,188999,173,217582
20.477,189016,172,217592
20.482,189008,170,217602
20.487,189023,169,217603
20.492,189028,168,217605
20.497,189020,168,217595
20.502,189036,172,217599
20.507,189025,171,217604
20.512,189018,170,217592
20.517,189015,170,217604
20.522,189019,169,217608
20.527,189006,169,217604
20.532,189014,170,217601
20.536,189012,169,217607
20.541,189019,169,217602
20.546,189007,173,217588
20.551,189014,172,217602
20.556,189007,171,217596
20.561,189016,170,217580
20.566,189009,168,217578
20.571,188991,168,217572
20.576,188986,168,217571
20.581,188974,169,217564
20.586,188973,168,217562
20.591,188970,172,217567
20.596,188966,171,217556
20.601,188969,169,217570
20.606,188962,169,217566
20.611,188966,168,217554
20.616,188964,173,217564
20.621,188974,171,217563
20.626,188955,172,217556
20.631,188965,172,217558
20.636,188966,171,217587
20.641,188967,169,217582
20.646,188976,168,217577
20.651,188964,172,217577
20.656,188965,171,217557
20.660,188962,170,217588
20.665,188972,169,217569
20.670,188953,173,217574
20.675,188960,169,217577
20.680,188964,168,217583
20.685,188975,171,217574
20.690,188970,170,217595
20.695,188966,168,217574
20.700,188969,172,217568
20.705,188955,170,217596
20.710,188960,170,217584
20.715,188959,169,217566
20.720,188965,173,217574
20.725,188956,169,217560
20.730,188980,168,217570
20.735,188957,172,217562
20.740,188964,170,217574
20.745,188954,169,217580
20.750,188968,168,217561
20.755,188959,174,217581
20.760,188959,171,217577
20.765,188958,170,217569
20.770,188964,169,217577
20.775,188957,171,217581
20.780,188959,170,217578
20.785,188984,169,217577
20.789,188967,168,217589
20.794,188984,172,217582
20.799,188985,171,217583
20.804,188970,169,217575
20.809,188980,168,217580
20.814,188985,173,217559
20.819,188985,171,217577
20.824,188984,168,217576
20.829,189012,173,217589
20.834,189000,172,217578
20.839,189014,171,217586
20.844,189000,170,217595
20.849,189000,169,217603
20.854,189011,168,217618
20.859,189012,173,217621
20.864,188988,171,217636
20.869,189019,172,217685
20.874,189019,172,217675
20.879,188979,168,217673
20.884,188973,172,217664
20.889,188973,170,217689
20.894,188969,170,217671
20.899,188964,169,217691
20.904,188972,168,217680
20.909,188956,172,217673
20.914,188934,170,217678
20.918,188944,171,217660
20.923,188915,170,217668
20.928,188928,169,217663
20.933,188920,168,217644
20.938,188913,168,217661
20.943,188900,172,217646
20.948,188895,170,217645
20.953,188876,169,217638
20.958,188891,168,217650
20.963,188893,168,217638
20.968,188858,169,217648
20.973,188861,168,217622
20.978,188864,173,217633
20.983,188861,171,217638
20.988,188855,171,217624
20.993,188845,170,217644
20.998,188845,169,217628
21.003,188839,168,217630
21.008,188840,173,217623
21.013,188851,171,217617
21.018,188834,169,217607
21.023,188803,172,217592
21.028,188814,170,217593
21.033,188812,169,217593
21.038,188815,168,217579
21.043,188794,172,217576
21.047,188785,171,217557
21.052,188793,169,217566
21.057,188772,169,217549
21.062,188769,168,217537
21.067,188772,169,217544
21.072,188766,169,217530
21.077,188757,173,217535
21.082,188785,172,217537
21.087,188776,171,217523
21.092,188774,170,217524
21.097,188781,169,217533
21.102,188756,169,217507
21.107,188773,168,217521
21.112,188782,173,217524
21.117,188770,168,217526
21.122,188767,174,217509
21.127,188753,172,217514
21.132,188747,171,217530
21.137,188758,169,217520
21.142,188776,169,217506
21.147,188751,168,217526
21.152,188761,172,217518
21.157,188751,171,217511
21.162,188797,172,217510
21.167,188742,169,217499
21.172,188755,168,217492
21.176,188753,172,217505
21.181,188756,171,217500
21.186,188743,169,217489
21.191,188750,168,217482
21.196,188745,173,217505
21.201,188750,171,217482
21.206,188750,170,217489
21.211,188760,172,217477
21.216,188754,170,217479
21.221,188750,169,217472
21.226,188755,169,217473
21.231,188754,172,217486
21.236,188749,171,217457
21.241,188746,170,217486
21.246,188747,169,217479
21.251,188748,168,217468
21.256,188759,172,217469
21.261,188746,169,217475
21.266,188756,173,217454
21.271,188751,171,217470
21.276,188750,170,217457
21.281,188762,169,217446
21.286,188753,168,217457
21.291,188740,173,217450
21.296,188755,172,217431
21.301,188763,170,217420
21.305,188769,171,217427
21.310,188742,171,217444
21.315,188748,170,217426
21.320,188745,168,217409
21.325,188752,172,217418
21.330,188756,170,217434
21.335,188772,169,217408
21.340,188760,169,217415
21.345,188752,173,217409
21.350,188763,172,217394
21.355,188762,170,217413
21.360,188775,171,217403
21.365,188783,170,217396
21.370,188768,169,217391
21.375,188764,168,217405
21.380,188785,172,217411
21.385,188779,170,217396
21.390,188776,169,217406
21.395,188772,168,217391
21.400,188778,171,217396
21.405,188784,173,217403
21.410,188779,171,217397
21.415,188788,170,217392
21.420,188788,169,217404
21.425,188794,168,217386
21.430,188787,171,217400
21.434,188783,169,217401
21.439,188781,168,217401
21.444,188792,172,217395
21.449,188801,170,217393
21.454,188795,172,217397
21.459,188784,169,217396
21.464,188810,173,217389
21.469,188815,171,217390
21.474,188808,170,217395
21.479,188828,169,217401
21.484,188834,173,217404
21.489,188842,171,217419
21.494,188844,169,217408
21.499,188843,168,217426
21.504,188833,169,217417
21.509,188823,168,217422
21.514,188804,172,217425
21.519,188819,170,217449
21.524,188797,169,217441
21.529,188790,168,217447
21.534,188774,171,217440
21.539,188786,169,217444
21.544,188770,169,217450
21.549,188755,168,217451
21.554,188770,171,217451
21.559,188741,170,217455
21.563,188739,169,217447
21.568,188737,168,217462
21.573,188724,172,217443
21.578,188723,170,217420
21.583,188706,169,217424
21.588,188694,173,217409
21.593,188683,171,217410
21.598,188682,169,217419
21.603,188681,171,217407
21.608,188678,170,217419
21.613,188678,169,217409
21.618,188666,168,217407
21.623,188673,171,217403
21.628,188666,170,217410
21.633,188672,169,217414
21.638,188658,168,217414
21.643,188661,173,217412
21.648,188662,171,217411
21.653,188662,168,217406
21.658,188662,172,217385
21.663,188655,171,217391
21.668,188655,170,217388
21.673,188669,169,217393
21.678,188652,168,217381
21.683,188648,168,217381
21.688,188654,172,217395
21.692,188635,171,217378
21.697,188643,175,217350
21.702,188630,168,217360
21.707,188630,172,217355
21.712,188608,171,217347
21.717,188606,169,217337
21.722,188622,168,217334
21.727,188631,172,217341
21.732,188638,171,217343
21.737,188637,169,217352
21.742,188639,168,217343
21.747,188631,169,217319
21.752,188633,169,217337
21.757,188619,173,217330
21.762,188612,171,217323
21.767,188605,171,217311
21.772,188623,169,217322
21.777,188605,169,217326
21.782,188620,168,217316
21.787,188621,172,217337
21.792,188620,171,217323
21.797,188613,172,217314
21.802,188625,171,217317
21.807,188619,170,217333
21.812,188620,169,217341
21.816,188631,168,217340
21.821,188616,173,217337
21.826,188648,171,217329
21.831,188648,170,217324
21.836,188640,169,217327
21.841,188620,169,217362
21.846,188625,170,217329
21.851,188618,169,217332
21.856,188627,168,217328
21.861,188629,172,217327
21.866,188614,171,217335
21.871,188639,169,217321
21.876,188635,169,217344
21.881,188627,173,217312
21.886,188626,171,217331
21.891,188652,170,217323
21.896,188640,171,217318
21.901,188635,169,217328
21.906,188656,168,217311
21.911,188645,173,217337
21.916,188640,171,217340
21.921,188625,170,217304
21.926,188644,169,217335
21.931,188633,169,217305
21.936,188632,168,217311
21.941,188643,172,217323
21.945,188643,168,217285
21.950,188635,172,217284
21.955,188643,170,217308
21.960,188644,170,217286
21.965,188648,169,217309
21.970,188654,168,217316
21.975,188665,172,217293
21.980,188655,171,217319
21.985,188654,169,217318
21.990,188634,169,217345
21.995,188667,168,217310
22.000,188679,172,217315
22.005,188662,170,217320
22.010,188674,169,217306
22.015,188679,168,217302
22.020,188659,172,217321
22.025,188676,171,217316
22.030,188680,170,217313
22.035,188690,168,217330
22.040,188705,169,217328
22.045,188681,173,217318
22.050,188696,171,217342
22.055,188709,169,217325
22.060,188705,168,217332
22.065,188693,171,217332
22.070,188712,170,217340
22.074,188713,169,217343
22.079,188707,173,217335
22.084,188699,171,217312
22.089,188721,168,217334
22.094,188729,172,217345
22.099,188728,171,217333
22.104,188739,170,217313
22.109,188734,169,217323
22.114,188734,168,217311
22.119,188730,172,217322
22.124,188730,171,217335
22.129,188750,170,217331
22.134,188736,169,217343
22.139,188742,170,217340
22.144,188742,169,217347
22.149,188749,168,217342
22.154,188762,172,217359
22.159,188784,171,217357
22.164,188778,170,217363
22.169,188778,169,217379
22.174,188795,168,217387
22.179,188796,173,217389
22.184,188798,170,217383
22.189,188779,172,217384
22.194,188767,170,217385
22.199,188769,169,217395
22.203,188756,168,217393
22.208,188735,172,217409
22.213,188744,171,217413
22.218,188708,170,217420
22.223,188728,169,217428
22.228,188715,168,217416
22.233,188710,169,217409
22.238,188714,168,217404
22.243,188693,173,217408
22.248,188699,171,217415
22.253,188678,170,217399
22.258,188683,169,217414
22.263,188673,168,217394
22.268,188660,172,217408
22.273,188668,172,217394
22.278,188650,170,217395
22.283,188658,173,217425
22.288,188646,171,217371
22.293,188648,171,217395
22.298,188646,170,217387
22.303,188651,169,217375
22.308,188641,168,217374
22.313,188639,171,217386
22.318,188641,170,217367
22.323,188632,169,217375
22.328,188646,173,217386
22.332,188643,168,217387
22.337,188647,172,217386
22.342,188660,171,217384
22.347,188632,170,217375
22.352,188644,169,217375
22.357,188644,173,217372
22.362,188636,171,217374
22.367,188631,169,217372
22.372,188643,168,217356
22.377,188635,168,217365
22.382,188608,168,217355
22.387,188633,173,217375
22.392,188626,171,217356
22.397,188623,170,217360
22.402,188614,169,217349
22.407,188628,168,217355
22.412,188626,171,217347
22.417,188631,170,217343
22.422,188625,169,217367
22.427,188642,168,217358
22.432,188619,169,217368
22.437,188639,168,217354
22.442,188613,173,217360
22.447,188641,172,217364
22.452,188621,170,217328
22.457,188647,169,217343
22.461,188632,168,217362
22.466,188634,171,217349
22.471,188642,170,217367
22.476,188632,169,217357
22.481,188645,170,217366
22.486,188643,169,217367
22.491,188633,168,217357
22.496,188640,172,217367
22.501,188627,170,217368
22.506,188610,169,217373
22.511,188634,168,217393
22.516,188634,168,217346
22.521,188634,172,217387
22.526,188634,170,217357
22.531,188652,172,217377
22.536,188633,171,217368
22.541,188653,170,217373
22.546,188640,169,217376
22.551,188664,168,217385
22.556,188654,173,217386
22.561,188655,170,217374
22.566,188652,170,217389
22.571,188664,169,217372
22.576,188658,170,217366
22.581,188656,169,217362
22.586,188655,168,217382
22.590,188668,172,217379
22.595,188654,170,217390
22.600,188658,169,217388
22.605,188663,168,217382
22.610,188659,172,217380
22.615,188662,171,217372
22.620,188665,170,217390
22.625,188639,172,217375
22.630,188664,171,217372
22.635,188667,170,217364
22.640,188675,169,217371
22.645,188663,169,217365
22.650,188664,168,217377
22.655,188661,173,217380
22.660,188673,172,217392
22.665,188682,170,217382
22.670,188663,169,217378
22.675,188687,168,217357
22.680,188695,168,217394
22.685,188691,172,217390
22.690,188692,170,217399
22.695,188700,169,217397
22.700,188695,168,217415
22.705,188715,172,217422
22.710,188724,170,217395
22.715,188706,169,217414
22.719,188704,168,217413
22.724,188718,169,217417
22.729,188716,168,217430
22.734,188725,171,217425
22.739,188737,170,217411
22.744,188723,169,217411
22.749,188734,168,217432
22.754,188753,173,217419
22.759,188756,171,217425
22.764,188744,170,217413
22.769,188736,169,217415
22.774,188754,170,217409
22.779,188742,169,217408
22.784,188760,168,217435
22.789,188759,172,217426
22.794,188754,170,217442
22.799,188737,169,217423
22.804,188753,168,217415
22.809,188760,173,217413
22.814,188777,171,217451
22.819,188783,170,217420
22.824,188770,171,217416
22.829,188771,170,217437
22.834,188779,169,217430
22.839,188785,168,217426
22.843,188784,172,217437
22.848,188796,170,217434
22.853,188804,169,217439
22.858,188793,168,217444
22.863,188789,173,217445
22.868,188803,169,217444
22.873,188816,168,217464
22.878,188827,172,217465
22.883,188841,170,217443
22.888,188836,169,217481
22.893,188855,168,217474
22.898,188848,168,217466
22.903,188862,172,217477
22.908,188855,171,217485
22.913,188850,170,217474
22.918,188837,168,217547
22.923,188833,170,217508
22.928,188833,169,217539
22.933,188808,168,217493
22.938,188809,168,217514
22.943,188811,172,217518
22.948,188785,171,217531
22.953,188772,170,217521
22.958,188778,169,217529
22.963,188763,168,217518
22.968,188785,169,217509
22.972,188776,169,217524
22.977,188760,168,217516
22.982,188753,173,217508
22.987,188751,172,217507
22.992,188751,171,217518
22.997,188713,170,217520
23.002,188734,169,217503
23.007,188725,168,217508
23.012,188737,172,217522
23.017,188729,168,217534
23.022,188729,173,217520
23.027,188737,172,217511
23.032,188731,170,217518
23.037,188746,169,217519
23.042,188722,169,217507
23.047,188729,168,217503
23.052,188723,168,217503
23.057,188735,173,217500
23.062,188741,174,217532
23.067,188714,168,217519
23.072,188711,173,217504
23.077,188733,172,217512
23.082,188732,170,217482
23.087,188733,169,217495
23.092,188716,168,217493
23.097,188712,173,217479
23.101,188731,171,217468
23.106,188696,170,217476
23.111,188755,172,217507
23.116,188720,169,217482
23.121,188721,168,217487
23.126,188728,172,217466
23.131,188720,171,217480
23.136,188724,170,217467
23.141,188732,169,217456
23.146,188735,168,217465
23.151,188718,172,217460
23.156,188725,171,217453
23.161,188722,173,217460
23.166,188727,171,217457
23.171,188711,170,217471
23.176,188731,169,217455
23.181,188730,168,217455
23.186,188723,173,217446
23.191,188732,172,217456
23.196,188722,171,217461
23.201,188714,170,217458
23.206,188718,168,217466
23.211,188740,170,217461
23.216,188735,169,217462
23.221,188739,169,217452
23.226,188732,168,217472
23.230,188734,172,217442
23.235,188737,171,217467
23.240,188737,170,217451
23.245,188749,169,217462
23.250,188742,169,217455
23.255,188729,168,217462
23.260,188737,169,217456
23.265,188740,168,217469
23.270,188754,173,217451
23.275,188750,171,217465
23.280,188743,169,217454
23.285,188765,169,217441
23.290,188761,168,217453
23.295,188759,173,217462
23.300,188755,171,217468
23.305,188746,170,217463
23.310,188750,172,217454
23.315,188762,171,217466
23.320,188749,170,217480
23.325,188754,169,217462
23.330,188746,168,217458
23.335,188752,168,217448
23.340,188751,172,217460
23.345,188757,170,217440
23.350,188741,170,217454
23.355,188763,169,217428
23.359,188759,169,217439
23.364,188760,168,217433
23.369,188763,172,217448
23.374,188771,171,217445
23.379,188774,169,217441
23.384,188762,169,217440
23.389,188784,168,217448
23.394,188795,171,217453
23.399,188805,170,217445
23.404,188778,170,217469
23.409,188789,169,217464
23.414,188807,169,217446
23.419,188815,173,217457
23.424,188802,171,217453
23.429,188814,169,217463
23.434,188811,169,217444
23.439,188815,172,217459
23.444,188817,170,217440
23.449,188808,169,217440
23.454,188824,170,217443
23.459,188838,169,217438
23.464,188824,168,217457
23.469,188843,171,217460
23.474,188823,170,217461
23.479,188841,169,217444
23.484,188828,168,217443
23.488,188842,172,217455
23.493,188852,170,217442
23.498,188862,169,217463
23.503,188849,170,217459
23.508,188868,170,217458
23.513,188877,169,217450
23.518,188876,168,217454
23.523,188874,172,217459
23.528,188886,171,217469
23.533,188898,170,217452
23.538,188873,169,217469
23.543,188896,169,217445
23.548,188898,168,217440
23.553,188914,169,217481
23.558,188897,169,217453
23.563,188896,168,217466
23.568,188914,172,217455
23.573,188906,171,217471
23.578,188913,170,217478
23.583,188932,169,217457
23.588,188902,169,217478
23.593,188935,168,217470
23.598,188933,168,217476
23.603,188943,169,217472
23.608,188959,168,217491
23.613,188950,172,217508
23.617,188972,171,217480
23.622,188969,171,217477
23.627,188983,170,217509
23.632,188971,169,217498
23.637,188989,168,217513
23.642,188993,172,217527
23.647,188982,173,217512
23.652,188978,173,217521
23.657,188969,171,217542
23.662,188959,170,217565
23.667,188952,169,217550
23.672,188929,168,217546
23.677,188945,172,217553
23.682,188940,170,217553
23.687,188940,169,217551
23.692,188940,168,217564
23.697,188923,170,217543
23.702,188940,169,217565
23.707,188937,168,217564
23.712,188924,173,217580
23.717,188915,171,217579
23.722,188915,170,217564
23.727,188921,169,217575
23.732,188920,168,217575
23.737,188900,172,217575
23.742,188909,170,217558
23.746,188910,172,217577
23.751,188906,171,217575
23.756,188922,169,217568
23.761,188900,168,217585
23.766,188909,168,217576
23.771,188916,172,217562
23.776,188928,171,217581
23.781,188919,170,217576
23.786,188936,169,217570
23.791,188942,169,217582
23.796,188956,168,217571
23.801,188933,172,217591
23.806,188946,171,217586
23.811,188933,170,217599
23.816,188935,169,217609
23.821,188916,168,217579
23.826,188935,173,217577
23.831,188908,172,217580
23.836,188933,170,217590
23.841,188929,169,217589
23.846,188939,170,217581
23.851,188930,169,217576
23.856,188942,169,217587
23.861,188948,169,217605
23.866,188947,173,217615
23.870,188961,171,217597
23.875,188967,170,217613
23.880,188960,170,217613
23.885,188969,169,217619
23.890,188969,170,217668
23.895,188974,169,217602
23.900,188962,169,217628
23.905,188965,168,217601
23.910,188990,168,217638
23.915,188967,172,217621
23.920,188979,170,217630
23.925,188983,169,217625
23.930,189000,169,217635
23.935,188988,168,217637
23.940,188995,169,217648
23.945,189011,168,217650
23.950,189006,173,217643
23.955,189015,171,217643
23.960,189002,170,217658
23.965,189011,169,217652
23.970,189002,168,217656
23.975,189001,172,217668
23.980,189024,170,217653
23.985,189021,169,217655
23.990,189005,170,217658
23.995,189023,169,217663
23.999,189012,169,217662
24.004,189014,173,217661
24.009,189011,171,217652
24.014,189038,170,217668
24.019,189028,169,217661
24.024,189037,168,217655
24.029,189036,173,217655
24.034,189034,172,217670
24.039,189033,168,217674
24.044,189023,173,217675
24.049,189047,172,217687
24.054,189066,170,217663
24.059,189059,169,217677
24.064,189059,168,217676
24.069,189046,172,217681
24.074,189064,171,217681
24.079,189057,170,217680
24.084,189066,170,217679
24.089,189063,171,217691
24.094,189089,170,217701
24.099,189084,169,217691
24.104,189061,168,217696
24.109,189075,172,217696
24.114,189090,171,217709
24.119,189094,170,217699
24.124,189098,169,217694
24.128,189103,168,217701
24.133,189096,172,217708
24.138,189114,171,217714
24.143,189112,170,217712
24.148,189119,169,217723
24.153,189122,168,217713
24.158,189121,168,217717
24.163,189113,172,217707
24.168,189110,170,217723
24.173,189140,169,217715
24.178,189130,168,217726
24.183,189151,168,217701
24.188,189150,169,217734
24.193,189151,169,217729
24.198,189151,169,217724
24.203,189149,173,217735
24.208,189150,171,217741
24.213,189166,170,217740
24.218,189152,170,217758
24.223,189166,169,217739
24.228,189184,168,217743
24.233,189198,169,217765
24.238,189197,168,217764
24.243,189198,173,217746
24.248,189197,171,217768
24.253,189204,170,217755
24.257,189211,169,217762
24.262,189194,169,217765
24.267,189209,168,217768
24.272,189238,173,217770
24.277,189211,171,217790
24.282,189201,168,217776
24.287,189200,172,217814
24.292,189204,170,217784
24.297,189208,169,217791
24.302,189199,169,217784
24.307,189192,168,217796
24.312,189188,172,217802
24.317,189173,170,217813
24.322,189181,169,217792
24.327,189171,168,217818
24.332,189173,171,217819
24.337,189180,170,217802
24.342,189168,170,217813
24.347,189180,169,217791
24.352,189136,169,217804
24.357,189164,168,217816
24.362,189135,173,217824
24.367,189136,172,217808
24.372,189131,171,217817
24.377,189162,170,217809
24.382,189139,169,217812
24.386,189124,169,217813
24.391,189133,168,217799
24.396,189140,168,217789
24.401,189139,172,217804
24.406,189122,171,217796
24.411,189128,170,217796
24.416,189145,169,217787
24.421,189140,168,217785
24.426,189135,173,217812
24.431,189130,169,217794
24.436,189125,173,217799
24.441,189139,171,217794
24.446,189123,170,217790
24.451,189141,169,217791
24.456,189128,168,217795
24.461,189144,172,217797
24.466,189138,171,217790
24.471,189145,169,217788
24.476,189140,170,217796
24.481,189137,169,217792
24.486,189147,168,217773
24.491,189136,168,217792
24.496,189131,168,217798
24.501,189158,172,217806
24.506,189157,170,217787
24.511,189164,169,217801
24.515,189163,168,217802
24.520,189161,172,217805
24.525,189157,168,217824
24.530,189160,168,217807
24.535,189170,172,217805
24.540,189175,171,217815
24.545,189170,170,217817
24.550,189192,169,217804
24.555,189188,168,217818
24.560,189177,173,217838
24.565,189191,172,217810
24.570,189191,171,217816
24.575,189205,168,217830
24.580,189174,173,217818
24.585,189187,171,217829
24.590,189174,170,217820
24.595,189177,170,217827
24.600,189181,172,217807
24.605,189188,171,217823
24.610,189179,172,217828
24.615,189185,172,217819
24.620,189204,172,217799
24.625,189178,168,217828
24.630,189176,168,217818
24.635,189190,168,217814
24.640,189196,168,217810
24.644,189204,172,217820
24.649,189192,171,217819
24.654,189206,170,217815
24.659,189191,169,217802
24.664,189196,169,217837
24.669,189207,168,217811
24.674,189205,170,217819
24.679,189218,169,217831
24.684,189223,168,217838
24.689,189206,173,217824
24.694,189209,172,217833
24.699,189207,171,217826
24.704,189208,169,217839
24.709,189226,169,217829
24.714,189219,168,217856
24.719,189230,169,217826
24.724,189234,168,217855
24.729,189240,168,217827
24.734,189226,173,217843
24.739,189234,171,217828
24.744,189236,170,217823
24.749,189256,169,217846
24.754,189252,169,217841
24.759,189243,168,217836
24.764,189259,172,217844
24.769,189279,169,217821
24.773,189266,170,217850
24.778,189256,169,217858
24.783,189273,168,217870
24.788,189255,168,217860
24.793,189271,172,217857
24.798,189272,171,217851
24.803,189268,170,217874
24.808,189277,169,217853
24.813,189286,168,217864
24.818,189289,169,217855
24.823,189293,168,217875
24.828,189302,168,217869
24.833,189303,172,217869
24.838,189323,172,217870
24.843,189320,171,217888
24.848,189325,170,217887
24.853,189326,169,217886
24.858,189327,169,217891
24.863,189334,169,217901
24.868,189317,169,217890
24.873,189331,169,217897
24.878,189330,168,217919
24.883,189317,168,217910
24.888,189311,172,217911
24.893,189292,171,217891
24.898,189284,170,217893
24.902,189276,169,217902
24.907,189292,169,217916
24.912,189262,168,217918
24.917,189269,172,217908
24.922,189263,171,217910
24.927,189254,169,217904
24.932,189237,169,217899
24.937,189226,168,217889
24.942,189234,173,217896
24.947,189229,171,217886
24.952,189234,170,217904
24.957,189213,169,217883
24.962,189207,169,217860
24.967,189213,170,217877
24.972,189218,169,217872
24.977,189207,168,217896
24.982,189213,168,217874
24.987,189197,172,217879
24.992,189206,171,217875
24.997,189203,170,217868
25.002,189191,169,217888
25.007,189209,168,217886
25.012,189203,169,217884
25.017,189218,169,217860
25.022,189210,168,217859
25.026,189194,172,217859
25.031,189203,171,217867
25.036,189187,170,217861
25.041,189183,169,217860
25.046,189193,168,217846
25.051,189169,171,217834
25.056,189178,170,217848
25.061,189178,172,217836
25.066,189169,170,217827
25.071,189170,169,217820
25.076,189156,169,217828
25.081,189176,173,217823
25.086,189188,171,217825
25.091,189184,170,217823
25.096,189179,169,217815
25.101,189168,173,217835
25.106,189176,171,217834
25.111,189191,168,217832
25.116,189184,172,217822
25.121,189188,170,217830
25.126,189183,169,217832
25.131,189193,168,217834
25.136,189199,172,217826
25.141,189182,170,217833
25.146,189176,169,217824
25.151,189180,168,217811
25.155,189201,173,217817
25.160,189188,170,217815
25.165,189193,170,217799
25.170,189165,169,217809
25.175,189184,168,217809
25.180,189172,173,217775
25.185,189189,171,217790
25.190,189179,170,217794
25.195,189160,169,217795
25.200,189175,168,217789
25.205,189169,172,217794
25.210,189187,168,217800
25.215,189185,173,217806
25.220,189191,172,217803
25.225,189178,171,217804
25.230,189178,170,217790
25.235,189174,170,217788
25.240,189173,169,217787
25.245,189181,169,217787
25.250,189177,169,217787
25.255,189163,168,217766
25.260,189161,172,217781
25.265,189170,171,217780
25.270,189171,171,217782
25.275,189168,170,217768
25.280,189168,169,217767
25.284,189168,169,217776
25.289,189178,168,217781
25.294,189182,168,217789
25.299,189198,173,217764
25.304,189208,169,217758
25.309,189177,172,217780
25.314,189187,171,217785
25.319,189196,170,217785
25.324,189187,169,217768
25.329,189193,168,217774
25.334,189190,171,217779
25.339,189175,170,217733
25.344,189179,169,217742
25.349,189187,168,217759
25.354,189185,169,217754
25.359,189189,168,217783
25.364,189207,172,217759
25.369,189188,171,217769
25.374,189199,170,217751
25.379,189194,169,217746
25.384,189199,168,217741
25.389,189194,173,217765
25.394,189202,171,217759
25.399,189213,170,217760
25.404,189216,169,217761
25.409,189221,168,217773
25.413,189231,172,217768
25.418,189243,170,217761
25.423,189232,169,217760
25.428,189232,169,217771
25.433,189244,168,217770
25.438,189222,172,217768
25.443,189244,171,217773
25.448,189210,170,217789
25.453,189213,171,217784
25.458,189187,170,217795
25.463,189186,169,217782
25.468,189161,168,217805
25.473,189159,173,217793
25.478,189146,171,217775
25.483,189145,170,217774
25.488,189141,169,217791
25.493,189132,168,217773
25.498,189139,172,217765
25.503,189118,168,217752
25.508,189103,172,217764
25.513,189102,171,217761
25.518,189079,170,217753
25.523,189071,169,217759
25.528,189090,168,217762
25.533,189075,172,217729
25.538,189066,170,217739
25.542,189059,169,217750
25.547,189056,168,217766
25.552,189058,169,217720
25.557,189053,168,217740
25.562,189064,173,217721
25.567,189039,171,217723
25.572,189042,170,217718
25.577,189040,169,217717
25.582,189041,168,217703
25.587,189033,172,217713
25.592,189041,171,217712
25.597,189042,172,217689
25.602,189016,168,217697
25.607,189005,172,217697
25.612,188996,171,217692
25.617,189001,170,217675
25.622,188978,168,217665
25.627,188980,173,217666
25.632,188980,171,217656
25.637,188965,169,217648
25.642,188962,169,217662
25.647,188969,169,217634
25.652,188972,168,217645
25.657,188965,173,217641
25.662,188988,172,217654
25.667,188983,170,217641
25.671,188969,169,217620
25.676,188964,168,217642
25.681,188973,168,217637
25.686,188954,171,217638
25.691,188973,170,217614
25.696,188961,171,217618
25.701,188960,170,217627
25.706,188969,169,217641
25.711,188964,168,217612
25.716,188962,173,217644
25.721,188944,171,217629
25.726,188957,170,217622
25.731,188951,169,217633
25.736,188952,168,217645
25.741,188939,173,217624
25.746,188948,169,217623
25.751,188948,173,217619
25.756,188935,171,217615
25.761,188947,170,217614
25.766,188957,168,217610
25.771,188941,172,217600
25.776,188965,171,217611
25.781,188929,170,217605
25.786,188923,169,217610
25.791,188938,168,217600
25.796,188932,169,217565
25.800,188934,168,217587
25.805,188927,172,217585
25.810,188921,171,217596
25.815,188916,170,217578
25.820,188932,169,217577
25.825,188931,173,217580
25.830,188932,171,217595
25.835,188915,170,217593
25.840,188935,172,217585
25.845,188937,169,217597
25.850,188923,169,217576
25.855,188930,168,217566
25.860,188926,171,217576
25.865,188913,169,217561
25.870,188924,169,217565
25.875,188927,172,217559
25.880,188928,171,217552
25.885,188924,170,217559
25.890,188896,172,217559
25.895,188925,170,217541
25.900,188932,169,217545
25.905,188935,168,217530
25.910,188912,169,217529
25.915,188920,170,217520
25.920,188906,169,217522
25.925,188922,168,217527
25.929,188930,173,217509
25.934,188921,170,217536
25.939,188933,171,217512
25.944,188924,170,217519
25.949,188931,169,217532
25.954,188950,168,217514
25.959,188938,173,217530
25.964,188953,171,217540
25.969,188946,170,217543
25.974,188961,168,217534
25.979,188964,173,217528
25.984,188974,172,217535
25.989,188946,168,217539
25.994,188941,172,217535
25.999,188953,171,217518
26.004,188961,170,217531
26.009,188974,169,217541
26.014,188964,168,217524
26.019,188980,172,217541
26.024,188976,171,217537
26.029,188992,171,217537
26.034,188983,170,217547
26.039,188986,170,217529
26.044,188975,170,217526
26.049,188990,169,217541
26.053,188981,168,217523
26.058,188959,168,217539
26.063,188932,172,217545
26.068,188935,170,217540
26.073,188932,170,217538
26.078,188911,168,217538
26.083,188887,168,217498
26.088,188913,173,217549
26.093,188903,171,217526
26.098,188886,170,217534
26.103,188878,169,217526
26.108,188865,168,217535
26.113,188857,172,217519
26.118,188853,170,217520
26.123,188845,169,217499
26.128,188812,169,217473
26.133,188860,169,217479
26.138,188800,169,217501
26.143,188805,168,217487
26.148,188809,172,217479
26.153,188772,170,217466
26.158,188775,169,217456
26.163,188775,168,217463
26.168,188787,172,217460
26.173,188791,170,217452
26.178,188765,169,217466
26.182,188761,170,217461
26.187,188754,169,217447
26.192,188752,169,217461
26.197,188743,168,217461
26.202,188743,173,217443
26.207,188745,171,217428
26.212,188745,170,217431
26.217,188732,169,217430
26.222,188714,168,217399
26.227,188730,168,217392
26.232,188705,169,217410
26.237,188697,168,217389
26.242,188683,168,217390
26.247,188695,172,217368
26.252,188687,172,217354
26.257,188681,171,217364
26.262,188673,170,217345
26.267,188652,170,217363
26.272,188673,170,217343
26.277,188668,170,217344
26.282,188672,168,217348
26.287,188669,173,217364
26.292,188682,171,217358
26.297,188674,171,217355
26.302,188680,170,217366
26.307,188650,169,217336
26.311,188661,169,217346
26.316,188663,168,217341
26.321,188653,172,217324
26.326,188653,171,217334
26.331,188642,173,217327
26.336,188661,172,217327
26.341,188656,171,217304
26.346,188656,171,217314
26.351,188636,170,217311
26.356,188649,169,217306
26.361,188643,168,217301
26.366,188647,172,217296
26.371,188626,170,217294
26.376,188630,171,217306
26.381,188630,171,217302
26.386,188654,170,217306
26.391,188630,169,217287
26.396,188638,169,217288
26.401,188629,168,217296
26.406,188627,173,217287
26.411,188615,171,217299
26.416,188624,170,217269
26.421,188634,169,217275
26.426,188621,170,217270
26.431,188618,169,217267
26.436,188625,168,217264
26.440,188619,172,217258
26.445,188607,170,217273
26.450,188628,169,217255
26.455,188626,168,217252
26.460,188623,172,217240
26.465,188619,170,217233
26.470,188620,169,217234
26.475,188612,170,217239
26.480,188609,169,217230
26.485,188611,168,217222
26.490,188612,171,217247
26.495,188613,169,217232
26.500,188619,168,217221
26.505,188619,173,217228
26.510,188632,171,217229
26.515,188630,170,217225
26.520,188610,169,217216
26.525,188612,169,217215
26.530,188629,168,217223
26.535,188605,172,217218
26.540,188632,170,217215
26.545,188606,169,217207
26.550,188617,168,217205
26.555,188614,173,217199
26.560,188616,171,217203
26.565,188632,170,217203
26.569,188630,169,217186
26.574,188624,170,217185
26.579,188630,169,217205
26.584,188633,168,217190
26.589,188622,172,217194
26.594,188634,170,217189
26.599,188628,169,217195
26.604,188631,168,217204
26.609,188640,173,217184
26.614,188641,171,217181
26.619,188645,170,217197
26.624,188666,171,217185
26.629,188647,170,217196
26.634,188653,169,217185
26.639,188661,168,217198
26.644,188654,172,217173
26.649,188646,170,217171
26.654,188647,169,217177
26.659,188641,169,217177
26.664,188663,168,217176
26.669,188646,171,217178
26.674,188660,168,217168
26.679,188663,168,217171
26.684,188673,172,217183
26.689,188665,171,217162
26.694,188658,170,217176
26.698,188669,169,217182
26.703,188679,169,217152
26.708,188670,168,217173
26.713,188668,172,217177
26.718,188692,168,217180
26.723,188678,170,217142
26.728,188675,169,217170
26.733,188680,169,217177
26.738,188692,168,217177
26.743,188674,173,217147
26.748,188685,171,217152
26.753,188676,170,217154
26.758,188693,169,217154
26.763,188685,168,217156
26.768,188689,171,217171
26.773,188697,168,217151
26.778,188687,172,217151
26.783,188702,171,217167
26.788,188720,170,217154
26.793,188721,169,217166
26.798,188735,169,217184
26.803,188752,168,217167
26.808,188733,172,217163
26.813,188761,171,217159
26.818,188752,168,217196
26.823,188754,172,217174
26.827,188755,170,217180
26.832,188716,169,217196
26.837,188726,169,217194
26.842,188706,168,217203
26.847,188700,172,217211
26.852,188699,170,217189
26.857,188681,169,217193
26.862,188667,168,217204
26.867,188671,169,217180
26.872,188663,168,217196
26.877,188653,173,217203
26.882,188658,172,217194
26.887,188645,170,217177
26.892,188625,170,217195
26.897,188614,169,217177
26.902,188601,168,217178
26.907,188585,168,217163
26.912,188601,173,217151
26.917,188575,168,217163
26.922,188584,173,217140
26.927,188565,172,217147
26.932,188567,170,217156
26.937,188561,170,217157
26.942,188546,169,217138
26.947,188568,168,217136
26.952,188551,173,217122
26.956,188552,171,217144
26.961,188589,173,217134
26.966,188562,172,217140
26.971,188539,170,217132
26.976,188546,170,217124
26.981,188547,169,217113
26.986,188544,168,217145
26.991,188517,173,217114
26.996,188528,171,217104
27.001,188507,170,217118
27.006,188520,168,217104
27.011,188472,170,217101
27.016,188489,170,217095
27.021,188502,169,217075
27.026,188471,168,217065
27.031,188467,172,217062
27.036,188467,171,217080
27.041,188464,170,217058
27.046,188470,169,217047
27.051,188458,168,217058
27.056,188446,173,217045
27.061,188472,169,217041
27.066,188476,168,217020
27.071,188468,172,217038
27.076,188468,171,217050
27.080,188480,170,217025
27.085,188478,169,217025
27.090,188454,169,217063
27.095,188468,168,217047
27.100,188446,172,217040
27.105,188460,171,217027
27.110,188448,168,217029
27.115,188435,173,217037
27.120,188451,171,217025
27.125,188463,171,217023
27.130,188461,170,217023
27.135,188458,169,217014
27.140,188458,168,217030
27.145,188453,173,217028
27.150,188442,172,217010
27.155,188437,171,217029
27.160,188450,169,217024
27.165,188451,169,217011
27.170,188451,168,217034
27.175,188446,173,217015
27.180,188438,172,217010
27.185,188435,171,217029
27.190,188442,170,217007
27.195,188447,169,216996
27.200,188448,169,216997
27.205,188429,169,217012
27.209,188431,171,216977
27.214,188432,170,217000
27.219,188438,169,216994
27.224,188434,168,216985
27.229,188420,173,216998
27.234,188416,171,217000
27.239,188425,171,216976
27.244,188437,170,216988
27.249,188426,169,216980
27.254,188433,170,216979
27.259,188425,169,216975
27.264,188432,169,216975
27.269,188429,168,216958
27.274,188428,173,216976
27.279,188436,171,216966
27.284,188428,170,216961
27.289,188430,169,216958
27.294,188420,168,216962
27.299,188425,172,216952
27.304,188420,168,216950
27.309,188424,173,216954
27.314,188435,171,216960
27.319,188434,170,216947
27.324,188419,169,216948
27.329,188447,168,216969
27.334,188430,168,216953
27.338,188430,168,216955
27.343,188443,168,216964
27.348,188441,173,216941
27.353,188458,169,216969
27.358,188453,170,216940
27.363,188466,169,216938
27.368,188465,168,216961
27.373,188452,173,216958
27.378,188459,172,216936
27.383,188475,171,216944
27.388,188474,170,216941
27.393,188461,169,216966
27.398,188458,169,216954
27.403,188483,169,216967
27.408,188466,171,216945
27.413,188471,170,216930
27.418,188474,169,216952
27.423,188475,169,216956
27.428,188494,173,216960
27.433,188485,171,216949
27.438,188473,170,216933
27.443,188494,169,216962
27.448,188481,169,216950
27.453,188488,170,216943
27.458,188482,169,216935
27.463,188482,168,216949
27.467,188483,172,216938
27.472,188488,170,216935
27.477,188498,169,216933
27.482,188497,169,216928
27.487,188495,173,216940
27.492,188508,171,216937
27.497,188509,171,216923
27.502,188521,171,216950
27.507,188516,169,216916
27.512,188513,169,216926
27.517,188514,168,216938
27.522,188510,172,216925
27.527,188526,171,216934
27.532,188526,170,216952
27.537,188536,169,216935
27.542,188514,169,216936
27.547,188528,170,216928
27.552,188542,169,216950
27.557,188551,169,216955
27.562,188554,168,216943
27.567,188561,168,216951
27.572,188552,173,216937
27.577,188557,172,216939
27.582,188555,171,216945
27.587,188572,170,216944
27.592,188553,169,216941
27.596,188556,171,216941
27.601,188573,170,216943
27.606,188580,169,216956
27.611,188566,169,216939
27.616,188591,168,216947
27.621,188578,173,216959
27.626,188594,172,216959
27.631,188592,171,216958
27.636,188596,170,216951
27.641,188591,169,216957
27.646,188609,171,216958
27.651,188598,170,216983
27.656,188607,170,216954
27.661,188608,168,216969
27.666,188622,169,216980
27.671,188628,168,216960
27.676,188623,172,216972
27.681,188631,171,216969
27.686,188633,170,216988
27.691,188646,169,216992
27.696,188650,172,216974
27.701,188663,171,216981
27.706,188668,170,216989
27.711,188679,169,216985
27.716,188667,168,217006
27.721,188670,168,217018
27.725,188655,172,217003
27.730,188650,171,217013
27.735,188653,170,217029
27.740,188643,172,217072
27.745,188627,172,217023
27.750,188636,172,217033
27.755,188625,171,217032
27.760,188601,171,217025
27.765,188599,171,217017
27.770,188592,170,217033
27.775,188591,170,217039
27.780,188581,170,217026
27.785,188582,169,217028
27.790,188543,171,217002
27.795,188561,171,217018
27.800,188547,170,217018
27.805,188559,170,217021
27.810,188548,169,217008
27.815,188557,168,217007
27.820,188560,168,217018
27.825,188557,172,217024
27.830,188553,171,217018
27.835,188533,170,217025
27.840,188568,173,217044
27.845,188529,169,217026
27.850,188550,173,217025
27.854,188565,171,217022
27.859,188538,170,217047
27.864,188556,169,217023
27.869,188554,173,217015
27.874,188538,171,217026
27.879,188567,170,217044
27.884,188548,169,217034
27.889,188567,169,217017
27.894,188549,168,217022
27.899,188530,172,217017
27.904,188540,171,217024
27.909,188556,169,217003
27.914,188534,168,217031
27.919,188525,173,216990
27.924,188512,171,217010
27.929,188510,170,216992
27.934,188513,169,216987
27.939,188507,170,216999
27.944,188526,169,216997
27.949,188521,168,217003
27.954,188521,173,216996
27.959,188522,171,217010
27.964,188545,169,217006
27.969,188547,169,217017
27.974,188531,168,217002
27.979,188542,171,217002
27.983,188533,170,217009
27.988,188538,171,217014
27.993,188539,170,217006
27.998,188543,169,217012
28.003,188514,168,217012
28.008,188549,172,217021
28.013,188552,171,216994
28.018,188549,171,217024
28.023,188548,170,217015
28.028,188533,169,217022
28.033,188549,169,217032
28.038,188552,170,217034
28.043,188538,169,217023
28.048,188559,169,217023
28.053,188549,168,217013
28.058,188564,173,217026
28.063,188564,171,217039
28.068,188559,169,217049
28.073,188550,169,217021
28.078,188538,169,217052
28.083,188559,170,217031
28.088,188567,169,217036
28.093,188563,168,217036
28.098,188561,173,217038
28.103,188562,171,217049
28.108,188581,170,217050
28.112,188570,169,217027
28.117,188559,168,217037
28.122,188568,173,217035
28.127,188578,171,217041
28.132,188569,168,217027
28.137,188570,171,217048
28.142,188584,170,217033
28.147,188571,169,217040
28.152,188573,168,217035
28.157,188581,172,217029
28.162,188588,171,217022
28.167,188575,169,217017
28.172,188571,169,217009
28.177,188587,168,217037
28.182,188591,169,217028
28.187,188609,169,217048
28.192,188603,168,217037
28.197,188592,173,217030
28.202,188610,172,217031
28.207,188603,170,217040
28.212,188593,170,217035
28.217,188597,169,217040
28.222,188624,168,217048
28.227,188623,173,217046
28.232,188623,170,217030
28.236,188627,169,217049
28.241,188634,169,217052
28.246,188627,168,217051
28.251,188635,172,217041
28.256,188641,171,217066
28.261,188654,169,217058
28.266,188662,168,217058
28.271,188659,173,217049
28.276,188666,172,217061
28.281,188662,168,217057
28.286,188660,172,217041
28.291,188648,170,217048
28.296,188661,169,217043
28.301,188660,169,217043
28.306,188645,168,217069
28.311,188692,172,217055
28.316,188669,171,217057
28.321,188683,170,217058
28.326,188640,170,217065
28.331,188686,171,217086
28.336,188684,170,217066
28.341,188678,169,217067
28.346,188699,168,217077
28.351,188700,172,217094
28.356,188684,171,217083
28.361,188702,169,217072
28.365,188721,168,217071
28.370,188708,173,217084
28.375,188724,168,217100
28.380,188714,172,217084
28.385,188719,171,217099
28.390,188735,169,217098
28.395,188734,169,217097
28.400,188744,168,217094
28.405,188741,173,217093
28.410,188720,171,217081
28.415,188747,170,217093
28.420,188753,168,217093
28.425,188758,169,217094
28.430,188752,169,217094
28.435,188739,172,217100
28.440,188777,170,217081
28.445,188767,169,217091
28.450,188771,168,217105
28.455,188776,173,217099
28.460,188773,170,217128
28.465,188785,169,217122
28.470,188790,168,217128
28.475,188796,169,217117
28.480,188791,168,217135
28.485,188801,173,217143
28.490,188811,172,217114
28.494,188801,170,217126
28.499,188819,169,217139
28.504,188808,168,217133
28.509,188817,172,217133
28.514,188814,171,217140
28.519,188819,169,217146
28.524,188819,169,217177
28.529,188836,168,217142
28.534,188847,172,217158
28.539,188853,171,217163
28.544,188842,170,217159
28.549,188846,169,217158
28.554,188858,168,217150
28.559,188880,172,217156
28.564,188884,170,217163
28.569,188872,171,217149
28.574,188871,170,217185
28.579,188882,169,217187
28.584,188880,168,217201
28.589,188873,173,217190
28.594,188862,171,217201
28.599,188850,169,217218
28.604,188837,168,217224
28.609,188843,173,217226
28.614,188838,171,217222
28.619,188860,172,217232
28.623,188852,171,217228
28.628,188840,170,217233
28.633,188851,169,217225
28.638,188824,168,217247
28.643,188811,168,217239
28.648,188821,172,217241
28.653,188816,171,217244
28.658,188811,170,217248
28.663,188821,168,217227
28.668,188799,170,217264
28.673,188824,169,217256
28.678,188810,168,217250
28.683,188807,172,217253
28.688,188798,171,217264
28.693,188802,170,217232
28.698,188789,168,217244
28.703,188801,173,217244
28.708,188802,171,217230
28.713,188780,170,217238
28.718,188794,172,217254
28.723,188779,170,217245
28.728,188785,169,217241
28.733,188782,168,217226
28.738,188800,173,217235
28.743,188785,171,217228
28.748,188790,170,217233
28.752,188773,169,217230
28.757,188778,168,217205
28.762,188796,173,217235
28.767,188777,168,217226
28.772,188755,168,217212
28.777,188773,172,217225
28.782,188788,170,217232
28.787,188782,169,217238
28.792,188780,168,217228
28.797,188788,172,217238
28.802,188811,171,217236
28.807,188839,169,217236
28.812,188798,168,217227
28.817,188812,169,217254
28.822,188820,168,217232
28.827,188808,172,217238
28.832,188807,170,217226
28.837,188813,169,217243
28.842,188805,168,217227
28.847,188790,173,217245
28.852,188818,171,217261
28.857,188825,169,217254
28.862,188800,169,217250
28.867,188812,169,217264
28.872,188823,168,217243
28.877,188813,172,217254
28.881,188824,170,217253
28.886,188825,169,217245
28.891,188833,168,217240
28.896,188836,172,217245
28.901,188817,170,217251
28.906,188817,169,217250
28.911,188809,174,217254
28.916,188818,171,217245
28.921,188812,171,217236
28.926,188815,170,217239
28.931,188812,169,217223
28.936,188827,168,217239
28.941,188818,168,217245
28.946,188817,172,217234
28.951,188823,171,217221
28.956,188843,169,217249
28.961,188819,170,217234
28.966,188825,169,217237
28.971,188820,168,217233
28.976,188845,171,217241
28.981,188824,169,217232
28.986,188832,168,217223
28.991,188840,172,217235
28.996,188836,170,217230
29.001,188834,169,217218
29.006,188829,168,217245
29.010,188841,169,217235
29.015,188831,173,217219
29.020,188841,171,217224
29.025,188834,169,217217
29.030,188844,168,217230
29.035,188840,172,217220
29.040,188847,170,217232
29.045,188871,169,217233
29.050,188863,168,217224
29.055,188870,172,217223
29.060,188877,170,217225
29.065,188864,169,217244
29.070,188877,173,217220
29.075,188881,171,217235
29.080,188870,169,217221
29.085,188866,168,217231
29.090,188884,168,217241
29.095,188886,171,217226
29.100,188879,170,217224
29.105,188880,169,217248
29.110,188884,171,217220
29.115,188896,170,217226
29.120,188896,169,217237
29.125,188898,168,217231
29.130,188911,173,217211
29.135,188915,171,217247
29.139,188902,170,217219
29.144,188913,169,217238
29.149,188903,168,217228
29.154,188917,168,217218
29.159,188903,169,217242
29.164,188931,168,217218
29.169,188928,172,217234
29.174,188927,170,217222
29.179,188927,169,217227
29.184,188933,168,217227
29.189,188937,173,217221
29.194,188921,171,217213
29.199,188933,170,217219
29.204,188948,172,217217
29.209,188926,168,217224
29.214,188942,173,217211
29.219,188945,170,217228
29.224,188966,169,217206
29.229,188950,168,217230
29.234,188964,172,217218
29.239,188958,171,217229
29.244,188954,170,217222
29.249,188964,169,217223
29.254,188982,171,217222
29.259,188960,170,217241
29.263,188960,169,217224
29.268,188960,168,217236
29.273,188958,172,217242
29.278,188949,170,217245
29.283,188931,169,217241
29.288,188950,169,217225
29.293,188931,168,217221
29.298,188923,172,217237
29.303,188937,168,217248
29.308,188923,172,217247
29.313,188906,171,217253
29.318,188909,171,217250
29.323,188907,169,217240
29.328,188896,168,217237
29.333,188876,168,217222
29.338,188868,172,217242
29.343,188867,170,217229
29.348,188879,168,217220
29.353,188869,168,217241
29.358,188845,172,217236
29.363,188847,170,217224
29.368,188864,169,217217
29.373,188853,172,217216
29.378,188854,170,217220
29.383,188837,169,217209
29.388,188841,168,217196
29.392,188842,172,217192
29.397,188851,171,217165
29.402,188833,172,217200
29.407,188816,170,217183
29.412,188845,169,217190
29.417,188850,169,217168
29.422,188832,168,217186
29.427,188820,172,217184
29.432,188817,170,217172
29.437,188824,170,217178
29.442,188830,169,217163
29.447,188823,169,217168
29.452,188813,169,217164
29.457,188802,168,217181
29.462,188802,172,217148
29.467,188799,171,217154
29.472,188813,170,217155
29.477,188800,169,217154
29.482,188806,169,217156
29.487,188817,168,217142
29.492,188802,173,217138
29.497,188809,169,217163
29.502,188804,168,217133
29.507,188813,171,217129
29.512,188801,170,217129
29.517,188800,169,217146
29.521,188796,169,217119
29.526,188806,168,217130
29.531,188805,172,217142
29.536,188804,170,217128
29.541,188789,169,217118
29.546,188797,171,217128
29.551,188797,170,217137
29.556,188804,169,217142
29.561,188800,169,217118
29.566,188800,168,217129
29.571,188803,168,217126
29.576,188797,172,217118
29.581,188803,170,217119
29.586,188798,169,217099
29.591,188797,169,217119
29.596,188800,170,217114
