df_hash,22ZHK4.VJETEC
device,HZ2X61
project_hash,29R7
project_name,istanbul_aydin_university
person_hash,29R7.A8GQ
person_label,V97
date_time_start,2025-11-04_18-40-06.966000_+03
date_time_start_unix,1762267206.966
date_time_end,2025-11-04_18-48-54.869000_+03
length_difference_noticed,no

time,ppg_med
5.362,486
5.387,559
5.412,674
5.437,736
5.462,712
5.487,687
5.512,754
5.537,876
5.562,922
5.587,847
5.612,767
5.637,809
5.662,922
5.687,929
5.712,768
5.737,597
5.762,587
5.787,671
5.812,610
5.837,323
5.862,23
5.887,-62
5.912,-23
5.937,-175
5.962,-623
5.987,-1083
6.012,-1257
6.037,-1265
6.062,-1513
6.087,-2136
6.112,-2766
6.137,-3016
6.162,-3040
6.187,-3361
6.212,-4145
6.237,-4922
6.262,-5199
6.287,-5170
6.312,-5498
6.337,-6392
6.362,-7255
6.387,-7465
6.412,-7268
6.437,-7496
6.462,-8411
6.487,-9261
6.512,-9269
6.537,-8744
6.562,-8728
6.587,-9544
6.612,-10256
6.637,-9896
6.662,-8852
6.687,-8421
6.712,-9011
6.737,-9456
6.762,-8549
6.787,-6775
6.812,-5758
6.837,-6016
6.862,-6090
6.887,-4466
6.912,-1750
6.937,0
6.962,124
6.987,460
7.012,2942
7.037,6803
7.062,9397
7.087,9843
7.112,10515
7.137,13958
7.162,19187
7.187,22680
7.212,23207
7.237,23950
7.262,28444
7.287,32767
7.312,32767
7.337,32767
7.362,32767
7.387,32767
7.412,32767
7.437,32767
7.462,32767
7.487,32767
7.512,32767
7.537,32767
7.562,32767
7.587,32767
7.612,12926
7.637,-32768
7.662,-32768
7.687,-32768
7.712,-32768
7.737,-32768
7.762,-32768
7.787,-32768
7.812,-32768
7.837,-32768
7.862,-32768
7.887,-32768
7.912,-32768
7.937,-32768
7.962,-31095
7.987,-25147
8.012,-23152
8.037,-23103
8.062,-20913
8.087,-15931
8.112,-11363
8.137,-9674
8.162,-9491
8.187,-7828
8.212,-4155
8.237,-838
8.262,262
8.287,179
8.312,1206
8.337,3760
8.362,6015
8.387,6521
8.412,6089
8.437,6525
8.462,8167
8.487,9571
8.512,9583
8.537,8850
8.562,8816
8.587,9749
8.612,10491
8.637,10120
8.662,9158
8.687,8771
8.712,9180
8.737,9456
8.762,8859
8.787,7813
8.812,7264
8.837,7394
8.862,7460
8.887,6860
8.912,5920
8.937,5385
8.962,5395
8.987,5352
9.012,4774
9.037,3916
9.062,3373
9.087,3268
9.112,3144
9.137,2632
9.162,1932
9.187,1500
9.212,1421
9.237,1338
9.262,963
9.287,456
9.312,168
9.337,162
9.362,154
9.387,-78
9.412,-416
9.437,-589
9.462,-542
9.487,-479
9.512,-565
9.537,-719
9.562,-755
9.587,-646
9.612,-548
9.637,-578
9.662,-668
9.687,-672
9.712,-567
9.737,-463
9.762,-441
9.787,-452
9.812,-397
9.837,-271
9.862,-167
9.887,-147
9.912,-166
9.937,-139
9.962,-54
9.987,22
10.012,37
10.037,18
10.062,28
10.087,79
10.112,128
10.137,143
10.162,156
10.187,199
10.212,230
10.237,247
10.262,247
10.287,242
10.312,241
10.337,242
10.362,238
10.387,224
10.412,203
10.437,186
10.462,175
10.487,166
10.512,152
10.537,136
10.562,124
10.587,117
10.612,110
10.637,100
10.662,88
10.687,83
10.712,87
10.737,95
10.762,97
10.787,95
10.812,101
10.837,126
10.862,169
10.887,214
10.912,244
10.937,256
10.962,259
10.987,263
11.012,269
11.037,271
11.062,268
11.087,264
11.112,264
11.137,269
11.162,278
11.187,289
11.212,305
11.237,324
11.262,342
11.287,351
11.312,352
11.337,351
11.362,355
11.387,354
11.412,332
11.437,277
11.462,199
11.487,120
11.512,62
11.537,30
11.562,13
11.587,-1
11.612,-21
11.637,-41
11.662,-55
11.687,-64
11.712,-70
11.737,-74
11.762,-75
11.787,-70
11.812,-61
11.837,-52
11.862,-45
11.887,-38
11.912,-30
11.937,-20
11.962,-12
11.987,-10
12.012,-12
12.037,-13
12.062,-8
12.087,1
12.112,8
12.137,8
12.162,9
12.187,27
12.212,76
12.237,153
12.262,238
12.287,307
12.312,350
12.337,378
12.362,406
12.387,443
12.412,484
12.437,518
12.462,542
12.487,554
12.512,556
12.537,541
12.562,507
12.587,457
12.612,404
12.637,358
12.662,319
12.687,283
12.712,247
12.737,216
12.762,192
12.787,174
12.812,154
12.837,130
12.862,112
12.887,114
12.912,138
12.937,174
12.962,208
12.987,232
13.012,247
13.037,257
13.062,258
13.087,243
13.112,212
13.137,174
13.162,143
13.187,126
13.212,118
13.237,109
13.262,97
13.287,84
13.312,74
13.337,70
13.362,77
13.387,97
13.412,127
13.437,160
13.462,184
13.487,200
13.512,222
13.537,268
13.562,337
13.587,411
13.612,467
13.637,496
13.662,508
13.687,513
13.712,505
13.737,468
13.762,392
13.787,291
13.812,193
13.837,121
13.862,75
13.887,43
13.912,14
13.937,-8
13.962,-18
13.987,-15
14.012,-6
14.037,-2
14.062,-10
14.087,-31
14.112,-63
14.137,-99
14.162,-128
14.187,-135
14.212,-108
14.237,-50
14.262,21
14.287,80
14.312,106
14.337,97
14.362,70
14.387,51
14.412,58
14.437,89
14.462,129
14.487,159
14.512,167
14.537,154
14.562,122
14.587,77
14.612,29
14.637,-7
14.662,-15
14.687,11
14.712,60
14.737,114
14.762,164
14.787,219
14.812,289
14.837,367
14.862,436
14.887,474
14.912,480
14.937,472
14.962,464
14.987,457
15.012,439
15.037,395
15.062,328
15.087,256
15.112,203
15.137,189
15.162,220
15.187,280
15.212,341
15.237,380
15.262,389
15.287,377
15.312,358
15.337,335
15.362,302
15.387,257
15.412,210
15.437,175
15.462,156
15.487,140
15.512,112
15.537,75
15.562,47
15.587,40
15.612,48
15.637,54
15.662,46
15.687,35
15.712,34
15.737,48
15.762,64
15.787,68
15.812,53
15.837,29
15.862,6
15.887,-10
15.912,-20
15.937,-27
15.962,-37
15.987,-53
16.012,-77
16.037,-103
16.062,-119
16.087,-113
16.112,-82
16.137,-35
16.162,18
16.187,71
16.212,120
16.237,161
16.262,190
16.287,209
16.312,228
16.337,258
16.362,300
16.387,343
16.412,375
16.437,393
16.462,402
16.487,410
16.512,416
16.537,413
16.562,400
16.587,384
16.612,375
16.637,379
16.662,394
16.687,410
16.712,423
16.737,434
16.762,446
16.787,458
16.812,467
16.837,462
16.862,438
16.887,396
16.912,341
16.937,284
16.962,232
16.987,191
17.012,159
17.037,132
17.062,110
17.087,92
17.112,75
17.137,55
17.162,24
17.187,-17
17.212,-62
17.237,-97
17.262,-109
17.287,-96
17.312,-71
17.337,-47
17.362,-33
17.387,-26
17.412,-17
17.437,-3
17.462,10
17.487,15
17.512,10
17.537,4
17.562,10
17.587,33
17.612,66
17.637,99
17.662,127
17.687,150
17.712,172
17.737,195
17.762,217
17.787,238
17.812,264
17.837,294
17.862,324
17.887,344
17.912,356
17.937,373
17.962,411
17.987,471
18.012,541
18.037,607
18.062,659
18.087,688
18.112,672
18.137,581
18.162,403
18.187,174
18.212,-34
18.237,-152
18.262,-156
18.287,-83
18.312,4
18.337,56
18.362,58
18.387,33
18.412,18
18.437,46
18.462,120
18.487,201
18.512,231
18.537,172
18.562,44
18.587,-87
18.612,-167
18.637,-197
18.662,-224
18.687,-278
18.712,-322
18.737,-287
18.762,-142
18.787,59
18.812,215
18.837,250
18.862,168
18.887,28
18.912,-107
18.937,-205
18.962,-255
18.987,-247
19.012,-182
19.037,-84
19.062,8
19.087,71
19.112,112
19.137,151
19.162,191
19.187,209
19.212,187
19.237,142
19.262,117
19.287,144
19.312,213
19.337,288
19.362,340
19.387,366
19.412,385
19.437,410
19.462,442
19.487,481
19.512,532
19.537,600
19.562,680
19.587,756
19.612,818
19.637,868
19.662,920
19.687,977
19.712,1032
19.737,1073
19.762,1095
19.787,1103
19.812,1102
19.837,1081
19.862,1019
19.887,900
19.912,731
19.937,546
19.962,383
19.987,261
20.012,167
20.037,71
20.062,-45
20.087,-171
20.112,-275
20.137,-337
20.162,-366
20.187,-387
20.212,-423
20.237,-468
20.262,-503
20.287,-515
20.312,-504
20.337,-481
20.362,-452
20.387,-413
20.412,-365
20.437,-315
20.462,-271
20.487,-236
20.512,-206
20.537,-179
20.562,-158
20.587,-142
20.612,-129
20.637,-107
20.662,-71
20.687,-24
20.712,26
20.737,75
20.762,122
20.787,167
20.812,207
20.837,238
20.862,260
20.887,273
20.912,275
20.937,265
20.962,242
20.987,215
21.012,191
21.037,171
21.062,151
21.087,126
21.112,106
21.137,107
21.162,138
21.187,190
21.212,241
21.237,275
21.262,295
21.287,315
21.312,343
21.337,376
21.362,400
21.387,411
21.412,414
21.437,420
21.462,433
21.487,444
21.512,444
21.537,430
21.562,408
21.587,391
21.612,386
21.637,388
21.662,385
21.687,366
21.712,330
21.737,288
21.762,246
21.787,207
21.812,165
21.837,118
21.862,77
21.887,59
21.912,70
21.937,103
21.962,138
21.987,161
22.012,173
22.037,186
22.062,207
22.087,230
22.112,247
22.137,252
22.162,250
22.187,248
22.212,247
22.237,241
22.262,225
22.287,199
22.312,169
22.337,141
22.362,118
22.387,98
22.412,82
22.437,68
22.462,57
22.487,49
22.512,44
22.537,41
22.562,38
22.587,36
22.612,37
22.637,50
22.662,79
22.687,123
22.712,170
22.737,205
22.762,223
22.787,228
22.812,230
22.837,236
22.862,243
22.887,246
22.912,248
22.937,254
22.962,267
22.987,283
23.012,296
23.037,301
23.062,300
23.087,295
23.112,286
23.137,274
23.162,255
23.187,232
23.212,206
23.237,181
23.262,156
23.287,134
23.312,116
23.337,100
23.362,81
23.387,56
23.412,30
23.437,17
23.462,29
23.487,64
23.512,111
23.537,152
23.562,179
23.587,196
23.612,212
23.637,227
23.662,238
23.687,239
23.712,232
23.737,224
23.762,222
23.787,224
23.812,228
23.837,231
23.862,231
23.887,228
23.912,222
23.937,214
23.962,207
23.987,200
24.012,188
24.037,168
24.062,145
24.087,132
24.112,139
24.137,161
24.162,179
24.187,175
24.212,147
24.237,118
24.262,112
24.287,134
24.312,171
24.337,202
24.362,217
24.387,224
24.412,233
24.437,244
24.462,247
24.487,237
24.512,222
24.537,212
24.562,212
24.587,212
24.612,200
24.637,173
24.662,146
24.687,134
24.712,138
24.737,146
24.762,140
24.787,116
24.812,83
24.837,53
24.862,29
24.887,6
24.912,-21
24.937,-61
24.962,-107
24.987,-151
25.012,-178
25.037,-177
25.062,-148
25.087,-99
25.112,-48
25.137,-7
25.162,26
25.187,64
25.212,119
25.237,191
25.262,273
25.287,357
25.312,441
25.337,522
25.362,593
25.387,646
25.412,672
25.437,671
25.462,650
25.487,611
25.512,560
25.537,502
25.562,442
25.587,386
25.612,333
25.637,279
25.662,225
25.687,178
25.712,142
25.737,118
25.762,97
25.787,74
25.812,57
25.837,61
25.862,93
25.887,144
25.912,192
25.937,221
25.962,230
25.987,232
26.012,235
26.037,240
26.062,239
26.087,230
26.112,216
26.137,203
26.162,191
26.187,177
26.212,157
26.237,136
26.262,121
26.287,116
26.312,114
26.337,109
26.362,99
26.387,89
26.412,87
26.437,93
26.462,98
26.487,95
26.512,82
26.537,66
26.562,52
26.587,38
26.612,18
26.637,-9
26.662,-37
26.687,-50
26.712,-38
26.737,-4
26.762,37
26.787,77
26.812,112
26.837,144
26.862,175
26.887,202
26.912,221
26.937,232
26.962,238
26.987,244
27.012,251
27.037,258
27.062,262
27.087,263
27.112,264
27.137,263
27.162,262
27.187,259
27.212,255
27.237,249
27.262,241
27.287,231
27.312,222
27.337,216
27.362,214
27.387,210
27.412,198
27.437,175
27.462,144
27.487,114
27.512,97
27.537,99
27.562,119
27.587,147
27.612,172
27.637,189
27.662,202
27.687,216
27.712,232
27.737,245
27.762,249
27.787,244
27.812,240
27.837,242
27.862,250
27.887,259
27.912,263
27.937,263
27.962,259
27.987,253
28.012,241
28.037,226
28.062,209
28.087,195
28.112,182
28.137,167
28.162,148
28.187,129
28.212,111
28.237,94
28.262,71
28.287,45
28.312,26
28.337,29
28.362,53
28.387,88
28.412,116
28.437,133
28.462,147
28.487,167
28.512,193
28.537,214
28.562,225
28.587,227
28.612,230
28.637,238
28.662,247
28.687,249
28.712,245
28.737,241
28.762,243
28.787,247
28.812,243
28.837,230
28.862,212
28.887,197
28.912,188
28.937,182
28.962,174
28.987,163
29.012,153
29.037,145
29.062,137
29.087,123
29.112,105
29.137,94
29.162,98
29.187,120
29.212,148
29.237,171
29.262,183
29.287,189
29.312,202
29.337,226
29.362,255
29.387,276
29.412,283
29.437,281
29.462,277
29.487,278
29.512,282
29.537,285
29.562,285
29.587,281
29.612,277
29.637,269
29.662,254
29.687,232
29.712,205
29.737,180
29.762,160
29.787,145
29.812,129
29.837,108
29.862,84
29.887,62
29.912,48
29.937,42
29.962,36
29.987,25
30.012,9
30.037,0
30.062,6
30.087,31
30.112,65
30.137,95
30.162,117
30.187,136
30.212,158
30.237,184
30.262,211
30.287,231
30.312,242
30.337,250
30.362,259
30.387,274
30.412,292
30.437,310
30.462,323
30.487,328
30.512,325
30.537,317
30.562,307
30.587,297
30.612,289
30.637,279
30.662,267
30.687,252
30.712,234
30.737,215
30.762,195
30.787,175
30.812,154
30.837,131
30.862,106
30.887,79
30.912,52
30.937,23
30.962,-8
30.987,-37
31.012,-54
31.037,-51
31.062,-27
31.087,8
31.112,40
31.137,63
31.162,81
31.187,104
31.212,130
31.237,155
31.262,171
31.287,179
31.312,187
31.337,200
31.362,216
31.387,229
31.412,237
31.437,241
31.462,246
31.487,251
31.512,253
31.537,251
31.562,247
31.587,245
31.612,245
31.637,249
31.662,254
31.687,259
31.712,263
31.737,266
31.762,267
31.787,265
31.812,262
31.837,259
31.862,256
31.887,254
31.912,254
31.937,254
31.962,254
31.987,250
32.012,243
32.037,239
32.062,245
32.087,270
32.112,312
32.137,359
32.162,395
32.187,406
32.212,391
32.237,356
32.262,314
32.287,273
32.312,229
32.337,181
32.362,129
32.387,81
32.412,49
32.437,35
32.462,32
32.487,29
32.512,25
32.537,23
32.562,30
32.587,44
32.612,57
32.637,62
32.662,57
32.687,49
32.712,41
32.737,33
32.762,24
32.787,16
32.812,12
32.837,12
32.862,11
32.887,0
32.912,-22
32.937,-42
32.962,-43
32.987,-13
33.012,42
33.037,106
33.062,165
33.087,212
33.112,251
33.137,288
33.162,322
33.187,348
33.212,364
33.237,372
33.262,379
33.287,387
33.312,397
33.337,403
33.362,404
33.387,401
33.412,396
33.437,391
33.462,382
33.487,366
33.512,344
33.537,316
33.562,286
33.587,254
33.612,221
33.637,186
33.662,150
33.687,115
33.712,82
33.737,54
33.762,27
33.787,-3
33.812,-41
33.837,-81
33.862,-109
33.887,-112
33.912,-89
33.937,-52
33.962,-17
33.987,11
34.012,40
34.037,75
34.062,114
34.087,147
34.112,168
34.137,179
34.162,195
34.187,221
34.212,256
34.237,290
34.262,318
34.287,339
34.312,356
34.337,369
34.362,375
34.387,375
34.412,373
34.437,370
34.462,366
34.487,356
34.512,338
34.537,314
34.562,291
34.587,269
34.612,248
34.637,220
34.662,180
34.687,128
34.712,64
34.737,0
34.762,-54
34.787,-82
34.812,-80
34.837,-54
34.862,-16
34.887,20
34.912,49
34.937,74
34.962,99
34.987,124
35.012,147
35.037,163
35.062,173
35.087,178
35.112,183
35.137,188
35.162,198
35.187,215
35.212,243
35.237,282
35.262,326
35.287,368
35.312,402
35.337,426
35.362,446
35.387,463
35.412,475
35.437,479
35.462,476
35.487,470
35.512,465
35.537,458
35.562,446
35.587,431
35.612,419
35.637,413
35.662,407
35.687,390
35.712,353
35.737,296
35.762,231
35.787,167
35.812,103
35.837,35
35.862,-35
35.887,-97
35.912,-140
35.937,-159
35.962,-161
35.987,-158
36.012,-155
36.037,-152
36.062,-140
36.087,-116
36.112,-84
36.137,-53
36.162,-33
36.187,-26
36.212,-28
36.237,-29
36.262,-25
36.287,-25
36.312,-38
36.337,-65
36.362,-90
36.387,-92
36.412,-61
36.437,-6
36.462,53
36.487,105
36.512,152
36.537,201
36.562,257
36.587,309
36.612,351
36.637,380
36.662,402
36.687,423
36.712,439
36.737,444
36.762,437
36.787,424
36.812,411
36.837,403
36.862,396
36.887,384
36.912,365
36.937,343
36.962,320
36.987,297
37.012,270
37.037,237
37.062,198
37.087,164
37.112,143
37.137,144
37.162,163
37.187,190
37.212,213
37.237,226
37.262,233
37.287,240
37.312,248
37.337,253
37.362,253
37.387,249
37.412,246
37.437,248
37.462,254
37.487,258
37.512,255
37.537,248
37.562,242
37.587,239
37.612,239
37.637,234
37.662,223
37.687,210
37.712,198
37.737,186
37.762,171
37.787,151
37.812,130
37.837,114
37.862,103
37.887,90
37.912,69
37.937,44
37.962,28
37.987,34
38.012,60
38.037,93
38.062,118
38.087,131
38.112,139
38.137,151
38.162,166
38.187,180
38.212,190
38.237,197
38.262,209
38.287,226
38.312,244
38.337,260
38.362,269
38.387,272
38.412,268
38.437,256
38.462,237
38.487,214
38.512,192
38.537,171
38.562,155
38.587,143
38.612,137
38.637,133
38.662,131
38.687,126
38.712,118
38.737,110
38.762,101
38.787,88
38.812,70
38.837,53
38.862,49
38.887,66
38.912,100
38.937,137
38.962,162
38.987,175
39.012,187
39.037,205
39.062,227
39.087,245
39.112,250
39.137,247
39.162,246
39.187,253
39.212,263
39.237,269
39.262,268
39.287,261
39.312,256
39.337,251
39.362,244
39.387,233
39.412,218
39.437,206
39.462,197
39.487,188
39.512,176
39.537,161
39.562,146
39.587,130
39.612,113
39.637,92
39.662,75
39.687,70
39.712,86
39.737,119
39.762,157
39.787,187
39.812,206
39.837,218
39.862,230
39.887,241
39.912,249
39.937,249
39.962,246
39.987,243
40.012,245
40.037,249
40.062,250
40.087,247
40.112,242
40.137,236
40.162,234
40.187,232
40.212,229
40.237,225
40.262,220
40.287,214
40.312,208
40.337,199
40.362,185
40.387,169
40.412,154
40.437,141
40.462,128
40.487,110
40.512,81
40.537,50
40.562,28
40.587,29
40.612,53
40.637,87
40.662,118
40.687,140
40.712,158
40.737,181
40.762,209
40.787,234
40.812,250
40.837,257
40.862,262
40.887,272
40.912,285
40.937,294
40.962,296
40.987,292
41.012,289
41.037,289
41.062,292
41.087,294
41.112,295
41.137,296
41.162,297
41.187,298
41.212,298
41.237,300
41.262,303
41.287,304
41.312,295
41.337,274
41.362,240
41.387,200
41.412,157
41.437,112
41.462,63
41.487,17
41.512,-15
41.537,-27
41.562,-17
41.587,0
41.612,16
41.637,26
41.662,39
41.687,61
41.712,90
41.737,118
41.762,139
41.787,154
41.812,170
41.837,192
41.862,214
41.887,230
41.912,237
41.937,242
41.962,248
41.987,255
42.012,257
42.037,254
42.062,248
42.087,246
42.112,247
42.137,246
42.162,237
42.187,221
42.212,205
42.237,190
42.262,175
42.287,156
42.312,133
42.337,112
42.362,95
42.387,79
42.412,57
42.437,34
42.462,23
42.487,38
42.512,79
42.537,131
42.562,176
42.587,205
42.612,224
42.637,243
42.662,262
42.687,275
42.712,278
42.737,273
42.762,266
42.787,263
42.812,263
42.837,264
42.862,264
42.887,263
42.912,262
42.937,260
42.962,254
42.987,244
43.012,231
43.037,213
43.062,193
43.087,173
43.112,157
43.137,145
43.162,132
43.187,114
43.212,90
43.237,67
43.262,48
43.287,31
43.312,12
43.337,-4
43.362,-5
43.387,20
43.412,69
43.437,125
43.462,171
43.487,206
43.512,241
43.537,283
43.562,324
43.587,349
43.612,350
43.637,335
43.662,321
43.687,316
43.712,319
43.737,322
43.762,324
43.787,327
43.812,335
43.837,345
43.862,351
43.887,351
43.912,344
43.937,331
43.962,311
43.987,282
44.012,247
44.037,211
44.062,176
44.087,145
44.112,118
44.137,94
44.162,69
44.187,40
44.212,5
44.237,-29
44.262,-51
44.287,-44
44.312,-11
44.337,34
44.362,75
44.387,102
44.412,122
44.437,143
44.462,169
44.487,194
44.512,212
44.537,225
44.562,237
44.587,250
44.612,262
44.637,269
44.662,270
44.687,267
44.712,263
44.737,257
44.762,250
44.787,241
44.812,233
44.837,224
44.862,215
44.887,205
44.912,194
44.937,184
44.962,173
44.987,158
45.012,140
45.037,124
45.062,113
45.087,104
45.112,89
45.137,65
45.162,43
45.187,40
45.212,66
45.237,113
45.262,163
45.287,201
45.312,224
45.337,241
45.362,259
45.387,276
45.412,286
45.437,287
45.462,283
45.487,281
45.512,282
45.537,284
45.562,282
45.587,276
45.612,269
45.637,264
45.662,259
45.687,251
45.712,239
45.737,225
45.762,212
45.787,199
45.812,186
45.837,167
45.862,143
45.887,117
45.912,99
45.937,90
45.962,87
45.987,78
46.012,55
46.037,24
46.062,0
46.087,1
46.112,32
46.137,79
46.162,124
46.187,153
46.212,170
46.237,186
46.262,209
46.287,234
46.312,251
46.337,257
46.362,254
46.387,253
46.412,259
46.437,269
46.462,277
46.487,276
46.512,270
46.537,263
46.562,258
46.587,255
46.612,250
46.637,243
46.662,235
46.687,228
46.712,217
46.737,202
46.762,183
46.787,161
46.812,140
46.837,116
46.862,88
46.887,59
46.912,38
46.937,37
46.962,57
46.987,89
47.012,119
47.037,137
47.062,149
47.087,164
47.112,186
47.137,211
47.162,229
47.187,238
47.212,242
47.237,249
47.262,261
47.287,274
47.312,283
47.337,288
47.362,291
47.387,294
47.412,297
47.437,297
47.462,294
47.487,293
47.512,294
47.537,292
47.562,283
47.587,264
47.612,239
47.637,213
47.662,186
47.687,152
47.712,110
47.737,67
47.762,35
47.787,26
47.812,36
47.837,54
47.862,70
47.887,82
47.912,92
47.937,104
47.962,119
47.987,131
48.012,141
48.037,152
48.062,169
48.087,193
48.112,220
48.137,241
48.162,250
48.187,247
48.212,237
48.237,226
48.262,217
48.287,211
48.312,203
48.337,191
48.362,178
48.387,166
48.412,157
48.437,148
48.462,139
48.487,130
48.512,123
48.537,117
48.562,108
48.587,95
48.612,83
48.637,85
48.662,105
48.687,140
48.712,177
48.737,204
48.762,218
48.787,228
48.812,240
48.837,256
48.862,270
48.887,276
48.912,274
48.937,270
48.962,268
48.987,271
49.012,274
49.037,273
49.062,268
49.087,262
49.112,256
49.137,252
49.162,246
49.187,237
49.212,226
49.237,216
49.262,205
49.287,194
49.312,179
49.337,162
49.362,146
49.387,133
49.412,120
49.437,102
49.462,79
49.487,62
49.512,65
49.537,89
49.562,124
49.587,155
49.612,171
49.637,179
49.662,191
49.687,210
49.712,228
49.737,233
49.762,223
49.787,208
49.812,201
49.837,207
49.862,221
49.887,232
49.912,234
49.937,231
49.962,229
49.987,228
50.012,225
50.037,216
50.062,205
50.087,198
50.112,193
50.137,188
50.162,179
50.187,168
50.212,161
50.237,158
50.262,153
50.287,138
50.312,116
50.337,102
50.362,107
50.387,132
50.412,162
50.437,181
50.462,185
50.487,180
50.512,176
50.537,174
50.562,170
50.587,160
50.612,150
50.637,148
50.662,158
50.687,181
50.712,208
50.737,234
50.762,251
50.787,257
50.812,252
50.837,241
50.862,228
50.887,214
50.912,198
50.937,182
50.962,166
50.987,155
51.012,149
51.037,146
51.062,142
51.087,138
51.112,134
51.137,130
51.162,121
51.187,112
51.212,113
51.237,135
51.262,176
51.287,223
51.312,260
51.337,283
51.362,299
51.387,318
51.412,341
51.437,357
51.462,360
51.487,354
51.512,347
51.537,344
51.562,338
51.587,323
51.612,298
51.637,269
51.662,245
51.687,227
51.712,211
51.737,197
51.762,182
51.787,169
51.812,157
51.837,143
51.862,128
51.887,115
51.912,104
51.937,93
51.962,81
51.987,68
52.012,57
52.037,44
52.062,27
52.087,4
52.112,-17
52.137,-24
52.162,-6
52.187,30
52.212,72
52.237,105
52.262,127
52.287,146
52.312,169
52.337,196
52.362,220
52.387,235
52.412,243
52.437,249
52.462,261
52.487,278
52.512,293
52.537,302
52.562,304
52.587,301
52.612,299
52.637,296
52.662,292
52.687,284
52.712,273
52.737,263
52.762,253
52.787,241
52.812,223
52.837,201
52.862,178
52.887,156
52.912,132
52.937,103
52.962,71
52.987,49
53.012,49
53.037,73
53.062,108
53.087,139
53.112,157
53.137,168
53.162,183
53.187,204
53.212,222
53.237,230
53.262,230
53.287,232
53.312,242
53.337,258
53.362,269
53.387,271
53.412,267
53.437,263
53.462,262
53.487,260
53.512,252
53.537,240
53.562,226
53.587,215
53.612,205
53.637,196
53.662,186
53.687,176
53.712,163
53.737,143
53.762,117
53.787,96
53.812,94
53.837,116
53.862,153
53.887,188
53.912,209
53.937,220
53.962,230
53.987,246
54.012,262
54.037,268
54.062,258
54.087,234
54.112,208
54.137,188
54.162,176
54.187,168
54.212,156
54.237,139
54.262,118
54.287,101
54.312,92
54.337,94
54.362,106
54.387,126
54.412,148
54.437,171
54.462,189
54.487,200
54.512,207
54.537,212
54.562,216
54.587,212
54.612,192
54.637,155
54.662,115
54.687,89
54.712,90
54.737,110
54.762,132
54.787,145
54.812,152
54.837,166
54.862,192
54.887,220
54.912,239
54.937,247
54.962,251
54.987,262
55.012,281
55.037,300
55.062,312
55.087,318
55.112,321
55.137,325
55.162,327
55.187,323
55.212,313
55.237,300
55.262,287
55.287,275
55.312,265
55.337,253
55.362,238
55.387,215
55.412,188
55.437,162
55.462,138
55.487,113
55.512,82
55.537,45
55.562,15
55.587,10
55.612,34
55.637,74
55.662,107
55.687,126
55.712,138
55.737,155
55.762,180
55.787,203
55.812,214
55.837,214
55.862,214
55.887,220
55.912,229
55.937,236
55.962,238
55.987,239
56.012,239
56.037,235
56.062,223
56.087,205
56.112,190
56.137,181
56.162,179
56.187,177
56.212,173
56.237,166
56.262,156
56.287,141
56.312,119
56.337,92
56.362,65
56.387,38
56.412,7
56.437,-28
56.462,-62
56.487,-80
56.512,-69
56.537,-35
56.562,8
56.587,47
56.612,79
56.637,116
56.662,166
56.687,228
56.712,290
56.737,344
56.762,386
56.787,423
56.812,458
56.837,489
56.862,506
56.887,505
56.912,490
56.937,466
56.962,438
56.987,404
57.012,363
57.037,318
57.062,275
57.087,240
57.112,213
57.137,188
57.162,163
57.187,139
57.212,121
57.237,105
57.262,86
57.287,65
57.312,49
57.337,54
57.362,83
57.387,126
57.412,167
57.437,193
57.462,208
57.487,220
57.512,233
57.537,245
57.562,250
57.587,249
57.612,249
57.637,255
57.662,265
57.687,271
57.712,269
57.737,262
57.762,253
57.787,246
57.812,236
57.837,221
57.862,201
57.887,178
57.912,156
57.937,134
57.962,109
57.987,80
58.012,50
58.037,23
58.062,0
58.087,-22
58.112,-51
58.137,-82
58.162,-106
58.187,-108
58.212,-84
58.237,-41
58.262,5
58.287,44
58.312,75
58.337,105
58.362,139
58.387,175
58.412,207
58.437,230
58.462,244
58.487,257
58.512,275
58.537,296
58.562,313
58.587,321
58.612,322
58.637,320
58.662,319
58.687,318
58.712,310
58.737,294
58.762,274
58.787,257
58.812,245
58.837,238
58.862,232
58.887,223
58.912,213
58.937,201
58.962,184
58.987,162
59.012,141
59.037,134
59.062,150
59.087,184
59.112,218
59.137,242
59.162,255
59.187,266
59.212,284
59.237,302
59.262,310
59.287,302
59.312,287
59.337,276
59.362,273
59.387,271
59.412,262
59.437,244
59.462,223
59.487,208
59.512,199
59.537,192
59.562,185
59.587,176
59.612,168
59.637,163
59.662,158
59.687,150
59.712,139
59.737,125
59.762,110
59.787,94
59.812,75
59.837,53
59.862,33
59.887,25
59.912,37
59.937,67
59.962,103
59.987,134
60.012,154
60.037,168
60.062,184
60.087,203
60.112,219
60.137,225
60.162,224
60.187,224
60.212,231
60.237,242
60.262,250
60.287,249
60.312,245
60.337,242
60.362,244
60.387,245
60.412,240
60.437,230
60.462,218
60.487,209
60.512,200
60.537,190
60.562,177
60.587,164
60.612,150
60.637,130
60.662,105
60.687,85
60.712,84
60.737,106
60.762,142
60.787,173
60.812,188
60.837,192
60.862,197
60.887,208
60.912,222
60.937,231
60.962,231
60.987,229
61.012,229
61.037,233
61.062,234
61.087,231
61.112,223
61.137,216
61.162,211
61.187,205
61.212,198
61.237,188
61.262,178
61.287,169
61.312,158
61.337,146
61.362,134
61.387,123
61.412,115
61.437,108
61.462,102
61.487,95
61.512,88
61.537,82
61.562,83
61.587,95
61.612,122
61.637,161
61.662,200
61.687,228
61.712,243
61.737,253
61.762,267
61.787,286
61.812,302
61.837,309
61.862,307
61.887,301
61.912,299
61.937,301
61.962,301
61.987,296
62.012,285
62.037,274
62.062,265
62.087,258
62.112,251
62.137,243
62.162,233
62.187,220
62.212,204
62.237,189
62.262,174
62.287,160
62.312,146
62.337,131
62.362,117
62.387,105
62.412,95
62.437,81
62.462,61
62.487,40
62.512,32
62.537,43
62.562,72
62.587,107
62.612,135
62.637,154
62.662,168
62.687,184
62.712,202
62.737,218
62.762,230
62.787,238
62.812,246
62.837,256
62.862,267
62.887,273
62.912,275
62.937,274
62.962,273
62.987,272
63.012,269
63.037,265
63.062,257
63.087,247
63.112,235
63.137,222
63.162,211
63.187,201
63.212,191
63.237,178
63.262,163
63.287,147
63.312,134
63.337,123
63.362,111
63.387,94
63.412,73
63.437,59
63.462,59
63.487,77
63.512,106
63.537,135
63.562,155
63.587,169
63.612,184
63.637,202
63.662,220
63.687,233
63.712,240
63.737,242
63.762,246
63.787,252
63.812,260
63.837,266
63.862,268
63.887,267
63.912,264
63.937,260
63.962,255
63.987,249
64.012,241
64.037,233
64.062,223
64.087,211
64.112,198
64.137,182
64.162,166
64.187,151
64.212,138
64.237,125
64.262,107
64.287,84
64.312,63
64.337,59
64.362,76
64.387,109
64.412,142
64.437,163
64.462,173
64.487,181
64.512,196
64.537,214
64.562,228
64.587,234
64.612,237
64.637,243
64.662,253
64.687,261
64.712,264
64.737,262
64.762,260
64.787,261
64.812,260
64.837,253
64.862,238
64.887,220
64.912,202
64.937,188
64.962,178
64.987,169
65.012,159
65.037,146
65.062,131
65.087,112
65.112,94
65.137,76
65.162,56
65.187,34
65.212,11
65.237,0
65.262,6
65.287,35
65.312,76
65.337,115
65.362,145
65.387,169
65.412,196
65.437,228
65.462,259
65.487,280
65.512,290
65.537,299
65.562,313
65.587,333
65.612,353
65.637,368
65.662,377
65.687,382
65.712,382
65.737,374
65.762,358
65.787,338
65.812,323
65.837,311
65.862,299
65.887,280
65.912,255
65.937,229
65.962,206
65.987,184
66.012,160
66.037,136
66.062,118
66.087,106
66.112,95
66.137,77
66.162,54
66.187,39
66.212,44
66.237,71
66.262,106
66.287,133
66.312,147
66.337,155
66.362,167
66.387,184
66.412,201
66.437,210
66.462,213
66.487,215
66.512,224
66.537,240
66.562,255
66.587,263
66.612,259
66.637,246
66.662,233
66.687,221
66.712,207
66.737,184
66.762,150
66.787,109
66.812,71
66.837,44
66.862,30
66.887,28
66.912,30
66.937,29
66.962,20
66.987,4
67.012,-8
67.037,-1
67.062,37
67.087,103
67.112,178
67.137,244
67.162,296
67.187,341
67.212,384
67.237,417
67.262,430
67.287,418
67.312,389
67.337,357
67.362,331
67.387,311
67.412,292
67.437,271
67.462,250
67.487,232
67.512,216
67.537,201
67.562,188
67.587,175
67.612,160
67.637,139
67.662,111
67.687,82
67.712,58
67.737,44
67.762,34
67.787,20
67.812,-3
67.837,-36
67.862,-68
67.887,-84
67.912,-74
67.937,-36
67.962,16
67.987,68
68.012,110
68.037,146
68.062,188
68.087,240
68.112,292
68.137,332
68.162,351
68.187,357
68.212,363
68.237,377
68.262,393
68.287,405
68.312,405
68.337,395
68.362,380
68.387,360
68.412,338
68.437,313
68.462,290
68.487,271
68.512,259
68.537,252
68.562,247
68.587,239
68.612,228
68.637,212
68.662,190
68.687,161
68.712,123
68.737,82
68.762,50
68.787,42
68.812,62
68.837,100
68.862,136
68.887,158
68.912,165
68.937,170
68.962,182
68.987,201
69.012,220
69.037,232
69.062,238
69.087,245
69.112,256
69.137,266
69.162,271
69.187,268
69.212,259
69.237,247
69.262,231
69.287,211
69.312,189
69.337,170
69.362,155
69.387,141
69.412,125
69.437,107
69.462,92
69.487,81
69.512,72
69.537,57
69.562,35
69.587,13
69.612,5
69.637,18
69.662,49
69.687,88
69.712,125
69.737,157
69.762,185
69.787,210
69.812,229
69.837,241
69.862,250
69.887,265
69.912,288
69.937,312
69.962,324
69.987,316
70.012,294
70.037,267
70.062,247
70.087,232
70.112,218
70.137,200
70.162,181
70.187,163
70.212,150
70.237,140
70.262,133
70.287,127
70.312,119
70.337,105
70.362,86
70.387,68
70.412,63
70.437,80
70.462,116
70.487,158
70.512,189
70.537,208
70.562,220
70.587,233
70.612,248
70.637,257
70.662,257
70.687,251
70.712,247
70.737,250
70.762,255
70.787,257
70.812,253
70.837,245
70.862,240
70.887,238
70.912,237
70.937,234
70.962,227
70.987,219
71.012,211
71.037,204
71.062,198
71.087,191
71.112,184
71.137,176
71.162,166
71.187,155
71.212,139
71.237,119
71.262,100
71.287,91
71.312,101
71.337,132
71.362,171
71.387,206
71.412,228
71.437,243
71.462,262
71.487,288
71.512,313
71.537,325
71.562,322
71.587,314
71.612,311
71.637,318
71.662,327
71.687,329
71.712,322
71.737,309
71.762,294
71.787,279
71.812,264
71.837,248
71.862,231
71.887,215
71.912,198
71.937,180
71.962,159
71.987,136
72.012,109
72.037,77
72.062,42
72.087,10
72.112,-19
72.137,-47
72.162,-79
72.187,-111
72.212,-135
72.237,-143
72.262,-133
72.287,-112
72.312,-90
72.337,-73
72.362,-58
72.387,-40
72.412,-20
72.437,1
72.462,24
72.487,55
72.512,99
72.537,156
72.562,220
72.587,283
72.612,340
72.637,388
72.662,426
72.687,454
72.712,471
72.737,479
72.762,483
72.787,484
72.812,482
72.837,472
72.862,451
72.887,421
72.912,388
72.937,358
72.962,330
72.987,300
73.012,263
73.037,221
73.062,184
73.087,161
73.112,156
73.137,162
73.162,168
73.187,170
73.212,169
73.237,171
73.262,179
73.287,184
73.312,180
73.337,165
73.362,150
73.387,143
73.412,148
73.437,160
73.462,171
73.487,177
73.512,178
73.537,177
73.562,174
73.587,171
73.612,169
73.637,166
73.662,162
73.687,158
73.712,154
73.737,152
73.762,149
73.787,144
73.812,134
73.837,123
73.862,114
73.887,108
73.912,101
73.937,86
73.962,66
73.987,55
74.012,65
74.037,96
74.062,134
74.087,161
74.112,172
74.137,176
74.162,186
74.187,208
74.212,234
74.237,252
74.262,261
74.287,268
74.312,283
74.337,306
74.362,328
74.387,340
74.412,337
74.437,325
74.462,311
74.487,300
74.512,293
74.537,287
74.562,279
74.587,267
74.612,251
74.637,231
74.662,210
74.687,191
74.712,172
74.737,151
74.762,127
74.787,100
74.812,76
74.837,54
74.862,34
74.887,13
74.912,-5
74.937,-13
74.962,0
74.987,35
75.012,80
75.037,119
75.062,145
75.087,162
75.112,179
75.137,201
75.162,224
75.187,241
75.212,248
75.237,249
75.262,253
75.287,263
75.312,274
75.337,281
75.362,281
75.387,275
75.412,270
75.437,267
75.462,262
75.487,251
75.512,231
75.537,206
75.562,182
75.587,165
75.612,152
75.637,141
75.662,128
75.687,113
75.712,100
75.737,91
75.762,83
75.787,71
75.812,51
75.837,29
75.862,15
75.887,20
75.912,46
75.937,84
75.962,121
75.987,150
76.012,171
76.037,190
76.062,212
76.087,235
76.112,254
76.137,265
76.162,272
76.187,280
76.212,290
76.237,302
76.262,313
76.287,321
76.312,327
76.337,330
76.362,330
76.387,326
76.412,321
76.437,316
76.462,313
76.487,308
76.512,297
76.537,278
76.562,255
76.587,232
76.612,212
76.637,197
76.662,185
76.687,173
76.712,152
76.737,121
76.762,84
76.787,55
76.812,50
76.837,73
76.862,113
76.887,151
76.912,176
76.937,188
76.962,196
76.987,203
77.012,207
77.037,203
77.062,194
77.087,189
77.112,193
77.137,201
77.162,206
77.187,201
77.212,187
77.237,170
77.262,156
77.287,142
77.312,127
77.337,110
77.362,93
77.387,76
77.412,57
77.437,36
77.462,17
77.487,3
77.512,-4
77.537,-10
77.562,-16
77.587,-22
77.612,-16
77.637,9
77.662,57
77.687,114
77.712,166
77.737,201
77.762,222
77.787,237
77.812,257
77.837,283
77.862,309
77.887,329
77.912,339
77.937,341
77.962,343
77.987,346
78.012,351
78.037,355
78.062,357
78.087,357
78.112,356
78.137,352
78.162,344
78.187,330
78.212,311
78.237,289
78.262,269
78.287,251
78.312,233
78.337,213
78.362,191
78.387,169
78.412,147
78.437,122
78.462,90
78.487,54
78.512,23
78.537,9
78.562,17
78.587,43
78.612,75
78.637,101
78.662,120
78.687,137
78.712,158
78.737,181
78.762,202
78.787,215
78.812,219
78.837,220
78.862,223
78.887,229
78.912,236
78.937,240
78.962,241
78.987,239
79.012,234
79.037,227
79.062,218
79.087,212
79.112,209
79.137,212
79.162,217
79.187,218
79.212,210
79.237,192
79.262,169
79.287,144
79.312,120
79.337,97
79.362,71
79.387,45
79.412,25
79.437,22
79.462,40
79.487,76
79.512,119
79.537,155
79.562,179
79.587,194
79.612,205
79.637,218
79.662,230
79.687,240
79.712,244
79.737,248
79.762,253
79.787,260
79.812,266
79.837,268
79.862,263
79.887,255
79.912,245
79.937,236
79.962,229
79.987,223
80.012,219
80.037,214
80.062,206
80.087,195
80.112,183
80.137,171
80.162,159
80.187,143
80.212,124
80.237,104
80.262,94
80.287,101
80.312,122
80.337,150
80.362,173
80.387,187
80.412,195
80.437,204
80.462,214
80.487,223
80.512,227
80.537,227
80.562,227
80.587,230
80.612,234
80.637,236
80.662,234
80.687,228
80.712,222
80.737,218
80.762,214
80.787,207
80.812,197
80.837,187
80.862,177
80.887,166
80.912,153
80.937,138
80.962,123
80.987,113
81.012,106
81.037,96
81.062,79
81.087,60
81.112,48
81.137,52
81.162,74
81.187,105
81.212,135
81.237,159
81.262,175
81.287,190
81.312,206
81.337,222
81.362,236
81.387,248
81.412,256
81.437,261
81.462,265
81.487,270
81.512,276
81.537,283
81.562,285
81.587,280
81.612,270
81.637,257
81.662,246
81.687,236
81.712,226
81.737,212
81.762,197
81.787,185
81.812,175
81.837,165
81.862,150
81.887,133
81.912,115
81.937,100
81.962,82
81.987,61
82.012,39
82.037,28
82.062,36
82.087,63
82.112,98
82.137,127
82.162,146
82.187,161
82.212,180
82.237,206
82.262,230
82.287,246
82.312,254
82.337,260
82.362,270
82.387,284
82.412,298
82.437,307
82.462,311
82.487,313
82.512,313
82.537,312
82.562,310
82.587,304
82.612,296
82.637,286
82.662,273
82.687,257
82.712,240
82.737,223
82.762,205
82.787,185
82.812,163
82.837,143
82.862,124
82.887,105
82.912,82
82.937,54
82.962,27
82.987,12
83.012,18
83.037,41
83.062,68
83.087,88
83.112,99
83.137,108
83.162,124
83.187,145
83.212,165
83.237,178
83.262,184
83.287,191
83.312,204
83.337,220
83.362,233
83.387,241
83.412,244
83.437,247
83.462,251
83.487,254
83.512,254
83.537,250
83.562,244
83.587,236
83.612,226
83.637,216
83.662,207
83.687,198
83.712,189
83.737,179
83.762,168
83.787,156
83.812,142
83.837,124
83.862,104
83.887,90
83.912,93
83.937,114
83.962,143
83.987,166
84.012,178
84.037,183
84.062,187
84.087,194
84.112,199
84.137,198
84.162,199
84.187,209
84.212,234
84.237,265
84.262,289
84.287,299
84.312,297
84.337,288
84.362,279
84.387,269
84.412,256
84.437,242
84.462,226
84.487,211
84.512,198
84.537,187
84.562,181
84.587,177
84.612,170
84.637,158
84.662,143
84.687,128
84.712,112
84.737,91
84.762,62
84.787,32
84.812,15
84.837,23
84.862,54
84.887,92
84.912,126
84.937,150
84.962,172
84.987,198
85.012,224
85.037,245
85.062,258
85.087,264
85.112,270
85.137,280
85.162,291
85.187,301
85.212,308
85.237,312
85.262,312
85.287,306
85.312,296
85.337,287
85.362,281
85.387,277
85.412,268
85.437,253
85.462,233
85.487,212
85.512,192
85.537,172
85.562,148
85.587,121
85.612,92
85.637,67
85.662,42
85.687,15
85.712,-16
85.737,-46
85.762,-62
85.787,-54
85.812,-22
85.837,21
85.862,63
85.887,97
85.912,126
85.937,157
85.962,193
85.987,228
86.012,255
86.037,274
86.062,291
86.087,310
86.112,329
86.137,344
86.162,352
86.187,353
86.212,351
86.237,345
86.262,336
86.287,324
86.312,311
86.337,300
86.362,290
86.387,277
86.412,258
86.437,234
86.462,207
86.487,181
86.512,157
86.537,136
86.562,114
86.587,89
86.612,57
86.637,21
86.662,-8
86.687,-18
86.712,0
86.737,37
86.762,79
86.787,111
86.812,133
86.837,151
86.862,172
86.887,192
86.912,206
86.937,211
86.962,214
86.987,222
87.012,234
87.037,247
87.062,254
87.087,254
87.112,252
87.137,249
87.162,246
87.187,239
87.212,230
87.237,220
87.262,212
87.287,204
87.312,193
87.337,179
87.362,163
87.387,148
87.412,132
87.437,111
87.462,83
87.487,52
87.512,31
87.537,29
87.562,49
87.587,82
87.612,118
87.637,146
87.662,168
87.687,188
87.712,208
87.737,227
87.762,239
87.787,242
87.812,241
87.837,242
87.862,249
87.887,259
87.912,267
87.937,270
87.962,268
87.987,265
88.012,261
88.037,256
88.062,246
88.087,234
88.112,219
88.137,205
88.162,195
88.187,186
88.212,177
88.237,167
88.262,154
88.287,143
88.312,132
88.337,120
88.362,105
88.387,92
88.412,92
88.437,112
88.462,150
88.487,192
88.512,223
88.537,239
88.562,247
88.587,256
88.612,269
88.637,281
88.662,284
88.687,280
88.712,273
88.737,271
88.762,271
88.787,269
88.812,262
88.837,250
88.862,237
88.887,228
88.912,224
88.937,223
88.962,222
88.987,218
89.012,209
89.037,198
89.062,189
89.087,185
89.112,183
89.137,180
89.162,172
89.187,158
89.212,138
89.237,114
89.262,89
89.287,72
89.312,73
89.337,94
89.362,125
89.387,154
89.412,171
89.437,179
89.462,186
89.487,198
89.512,209
89.537,212
89.562,206
89.587,197
89.612,192
89.637,196
89.662,202
89.687,204
89.712,200
89.737,192
89.762,183
89.787,173
89.812,162
89.837,149
89.862,135
89.887,121
89.912,107
89.937,93
89.962,81
89.987,70
90.012,63
90.037,60
90.062,60
90.087,60
90.112,58
90.137,54
90.162,55
90.187,70
90.212,101
90.237,143
90.262,186
90.287,221
90.312,246
90.337,266
90.362,283
90.387,297
90.412,306
90.437,310
90.462,315
90.487,323
90.512,333
90.537,339
90.562,337
90.587,329
90.612,318
90.637,305
90.662,290
90.687,274
90.712,258
90.737,243
90.762,228
90.787,212
90.812,192
90.837,172
90.862,153
90.887,136
90.912,120
90.937,101
90.962,79
90.987,58
91.012,43
91.037,41
91.062,53
91.087,78
91.112,111
91.137,142
91.162,164
91.187,177
91.212,187
91.237,197
91.262,210
91.287,219
91.312,222
91.337,222
91.362,224
91.387,233
91.412,245
91.437,254
91.462,257
91.487,253
91.512,247
91.537,242
91.562,236
91.587,229
91.612,220
91.637,210
91.662,202
91.687,195
91.712,188
91.737,180
91.762,168
91.787,155
91.812,142
91.837,128
91.862,111
91.887,94
91.912,79
91.937,77
91.962,93
91.987,127
92.012,168
92.037,202
92.062,225
92.087,239
92.112,253
92.137,270
92.162,284
92.187,290
92.212,288
92.237,283
92.262,283
92.287,287
92.312,292
92.337,291
92.362,285
92.387,275
92.412,265
92.437,256
92.462,248
92.487,237
92.512,223
92.537,207
92.562,191
92.587,175
92.612,160
92.637,145
92.662,129
92.687,115
92.712,104
92.737,91
92.762,73
92.787,47
92.812,23
92.837,14
92.862,31
92.887,67
92.912,106
92.937,133
92.962,146
92.987,157
93.012,175
93.037,197
93.062,216
93.087,225
93.112,229
93.137,234
93.162,245
93.187,258
93.212,267
93.237,268
93.262,264
93.287,258
93.312,251
93.337,241
93.362,229
93.387,218
93.412,209
93.437,199
93.462,188
93.487,174
93.512,160
93.537,147
93.562,133
93.587,111
93.612,83
93.637,59
93.662,51
93.687,65
93.712,94
93.737,126
93.762,152
93.787,171
93.812,189
93.837,209
93.862,231
93.887,249
93.912,261
93.937,270
93.962,280
93.987,291
94.012,302
94.037,309
94.062,311
94.087,307
94.112,300
94.137,291
94.162,279
94.187,266
94.212,251
94.237,236
94.262,221
94.287,204
94.312,187
94.337,169
94.362,152
94.387,137
94.412,122
94.437,105
94.462,85
94.487,59
94.512,34
94.537,16
94.562,15
94.587,35
94.612,68
94.637,105
94.662,134
94.687,153
94.712,167
94.737,181
94.762,194
94.787,202
94.812,202
94.837,198
94.862,195
94.887,199
94.912,210
94.937,224
94.962,239
94.987,254
95.012,267
95.037,277
95.062,283
95.087,285
95.112,286
95.137,284
95.162,278
95.187,267
95.212,250
95.237,231
95.262,214
95.287,199
95.312,184
95.337,168
95.362,147
95.387,121
95.412,92
95.437,67
95.462,55
95.487,64
95.512,91
95.537,124
95.562,151
95.587,168
95.612,181
95.637,197
95.662,219
95.687,239
95.712,250
95.737,251
95.762,251
95.787,257
95.812,268
95.837,279
95.862,285
95.887,283
95.912,277
95.937,268
95.962,258
95.987,246
96.012,234
96.037,224
96.062,217
96.087,209
96.112,196
96.137,179
96.162,161
96.187,149
96.212,143
96.237,136
96.262,122
96.287,98
96.312,73
96.337,61
96.362,70
96.387,99
96.412,133
96.437,161
96.462,176
96.487,184
96.512,192
96.537,202
96.562,211
96.587,214
96.612,214
96.637,214
96.662,218
96.687,225
96.712,233
96.737,237
96.762,236
96.787,231
96.812,224
96.837,217
96.862,210
96.887,203
96.912,195
96.937,187
96.962,179
96.987,169
97.012,157
97.037,145
97.062,134
97.087,122
97.112,107
97.137,85
97.162,64
97.187,52
97.212,61
97.237,92
97.262,133
97.287,171
97.312,197
97.337,214
97.362,229
97.387,243
97.412,256
97.437,264
97.462,267
97.487,271
97.512,278
97.537,286
97.562,290
97.587,287
97.612,280
97.637,273
97.662,268
97.687,265
97.712,259
97.737,248
97.762,233
97.787,217
97.812,203
97.837,193
97.862,182
97.887,165
97.912,145
97.937,124
97.962,108
97.987,94
98.012,74
98.037,49
98.062,26
98.087,21
98.112,42
98.137,81
98.162,120
98.187,148
98.212,165
98.237,180
98.262,199
98.287,218
98.312,231
98.337,236
98.362,240
98.387,247
98.412,258
98.437,268
98.462,274
98.487,278
98.512,282
98.537,286
98.562,285
98.587,278
98.612,265
98.637,249
98.662,232
98.687,215
98.712,200
98.737,187
98.762,174
98.787,161
98.812,146
98.837,132
98.862,120
98.887,107
98.912,89
98.937,65
98.962,47
98.987,49
99.012,76
99.037,119
99.062,157
99.087,180
99.112,191
99.137,202
99.162,221
99.187,242
99.212,256
99.237,258
99.262,252
99.287,251
99.312,259
99.337,270
99.362,278
99.387,278
99.412,271
99.437,263
99.462,256
99.487,249
99.512,238
99.537,223
99.562,209
99.587,198
99.612,190
99.637,182
99.662,171
99.687,156
99.712,141
99.737,129
99.762,117
99.787,101
99.812,81
99.837,65
99.862,64
99.887,83
99.912,116
99.937,149
99.962,174
99.987,191
100.012,206
100.037,223
100.062,239
100.087,247
100.112,247
100.137,244
100.162,245
100.187,253
100.212,263
100.237,269
100.262,267
100.287,259
100.312,251
100.337,245
100.362,238
100.387,227
100.412,211
100.437,195
100.462,183
100.487,173
100.512,162
100.537,146
100.562,128
100.587,112
100.612,98
100.637,81
100.662,58
100.687,35
100.712,27
100.737,46
100.762,85
100.787,127
100.812,158
100.837,176
100.862,191
100.887,210
100.912,233
100.937,248
100.962,254
100.987,257
101.012,265
101.037,280
101.062,295
101.087,302
101.112,300
101.137,294
101.162,287
101.187,281
101.212,274
101.237,264
101.262,253
101.287,242
101.312,231
101.337,218
101.362,201
101.387,183
101.412,164
101.437,147
101.462,133
101.487,118
101.512,99
101.537,73
101.562,47
101.587,31
101.612,37
101.637,65
101.662,104
101.687,139
101.712,161
101.737,174
101.762,185
101.787,201
101.812,220
101.837,233
101.862,239
101.887,240
101.912,242
101.937,251
101.962,267
101.987,285
102.012,300
102.037,311
102.062,316
102.087,317
102.112,314
102.137,304
102.162,287
102.187,264
102.212,239
102.237,215
102.262,190
102.287,162
102.312,130
102.337,97
102.362,68
102.387,42
102.412,13
102.437,-17
102.462,-43
102.487,-52
102.512,-37
102.537,-4
102.562,33
102.587,64
102.612,87
102.637,111
102.662,139
102.687,169
102.712,195
102.737,216
102.762,236
102.787,262
102.812,293
102.837,320
102.862,336
102.887,339
102.912,333
102.937,323
102.962,310
102.987,294
103.012,276
103.037,260
103.062,248
103.087,238
103.112,226
103.137,211
103.162,196
103.187,184
103.212,176
103.237,165
103.262,148
103.287,131
103.312,126
103.337,140
103.362,171
103.387,204
103.412,230
103.437,244
103.462,255
103.487,265
103.512,275
103.537,280
103.562,279
103.587,279
103.612,282
103.637,286
103.662,287
103.687,281
103.712,271
103.737,262
103.762,254
103.787,245
103.812,233
103.837,221
103.862,213
103.887,208
103.912,202
103.937,189
103.962,173
103.987,161
104.012,156
104.037,152
104.062,140
104.087,119
104.112,96
104.137,87
104.162,97
104.187,122
104.212,151
104.237,174
104.262,190
104.287,201
104.312,210
104.337,219
104.362,224
104.387,224
104.412,217
104.437,207
104.462,197
104.487,189
104.512,181
104.537,170
104.562,156
104.587,137
104.612,116
104.637,91
104.662,64
104.687,39
104.712,21
104.737,11
104.762,3
104.787,-7
104.812,-23
104.837,-38
104.862,-45
104.887,-41
104.912,-31
104.937,-21
104.962,-6
104.987,25
105.012,77
105.037,142
105.062,202
105.087,245
105.112,275
105.137,299
105.162,324
105.187,348
105.212,362
105.237,366
105.262,367
105.287,376
105.312,393
105.337,412
105.362,423
105.387,422
105.412,413
105.437,400
105.462,389
105.487,380
105.512,370
105.537,359
105.562,348
105.587,338
105.612,328
105.637,318
105.662,306
105.687,292
105.712,276
105.737,260
105.762,241
105.787,216
105.812,184
105.837,149
105.862,122
105.887,110
105.912,110
105.937,115
105.962,112
105.987,99
106.012,76
106.037,54
106.062,35
106.087,19
106.112,3
106.137,-10
106.162,-18
106.187,-14
106.212,3
106.237,27
106.262,49
106.287,64
106.312,72
106.337,76
106.362,79
106.387,78
106.412,76
106.437,78
106.462,90
106.487,115
106.512,146
106.537,174
106.562,197
106.587,217
106.612,237
106.637,252
106.662,256
106.687,245
106.712,230
106.737,226
106.762,241
106.787,269
106.812,295
106.837,311
106.862,316
106.887,322
106.912,336
106.937,357
106.962,375
106.987,383
107.012,381
107.037,370
107.062,355
107.087,337
107.112,313
107.137,284
107.162,252
107.187,222
107.212,201
107.237,190
107.262,186
107.287,188
107.312,192
107.337,197
107.362,196
107.387,183
107.412,151
107.437,105
107.462,57
107.487,18
107.512,-12
107.537,-42
107.562,-79
107.587,-116
107.612,-141
107.637,-143
107.662,-123
107.687,-92
107.712,-57
107.737,-22
107.762,18
107.787,65
107.812,114
107.837,162
107.862,210
107.887,259
107.912,305
107.937,343
107.962,367
107.987,376
108.012,372
108.037,361
108.062,346
108.087,331
108.112,322
108.137,321
108.162,328
108.187,343
108.212,362
108.237,384
108.262,406
108.287,419
108.312,418
108.337,401
108.362,372
108.387,336
108.412,295
108.437,250
108.462,208
108.487,177
108.512,162
108.537,160
108.562,159
108.587,150
108.612,136
108.637,123
108.662,117
108.687,114
108.712,111
108.737,107
108.762,111
108.787,125
108.812,146
108.837,163
108.862,171
108.887,170
108.912,167
108.937,164
108.962,160
108.987,152
109.012,143
109.037,135
109.062,128
109.087,119
109.112,104
109.137,86
109.162,69
109.187,54
109.212,36
109.237,15
109.262,-5
109.287,-15
109.312,-6
109.337,18
109.362,47
109.387,71
109.412,87
109.437,100
109.462,117
109.487,138
109.512,157
109.537,170
109.562,177
109.587,180
109.612,182
109.637,184
109.662,188
109.687,196
109.712,209
109.737,227
109.762,242
109.787,248
109.812,240
109.837,224
109.862,207
109.887,196
109.912,194
109.937,198
109.962,202
109.987,201
110.012,194
110.037,179
110.062,159
110.087,139
110.112,126
110.137,127
110.162,149
110.187,192
110.212,248
110.237,305
110.262,352
110.287,384
110.312,403
110.337,411
110.362,408
110.387,394
110.412,372
110.437,348
110.462,329
110.487,312
110.512,291
110.537,260
110.562,222
110.587,185
110.612,158
110.637,142
110.662,134
110.687,131
110.712,133
110.737,142
110.762,159
110.787,177
110.812,191
110.837,199
110.862,204
110.887,205
110.912,199
110.937,182
110.962,159
110.987,142
111.012,141
111.037,159
111.062,186
111.087,210
111.112,226
111.137,239
111.162,253
111.187,269
111.212,278
111.237,274
111.262,257
111.287,235
111.312,215
111.337,198
111.362,184
111.387,170
111.412,156
111.437,144
111.462,132
111.487,120
111.512,109
111.537,101
111.562,98
111.587,97
111.612,95
111.637,89
111.662,84
111.687,79
111.712,72
111.737,60
111.762,44
111.787,34
111.812,40
111.837,63
111.862,93
111.887,118
111.912,134
111.937,143
111.962,153
111.987,162
112.012,166
112.037,160
112.062,150
112.087,141
112.112,138
112.137,138
112.162,139
112.187,139
112.212,137
112.237,132
112.262,122
112.287,108
112.312,95
112.337,89
112.362,92
112.387,97
112.412,97
112.437,91
112.462,89
112.487,97
112.512,113
112.537,126
112.562,131
112.587,133
112.612,146
112.637,183
112.662,242
112.687,312
112.712,377
112.737,427
112.762,462
112.787,482
112.812,489
112.837,486
112.862,475
112.887,462
112.912,450
112.937,441
112.962,432
112.987,422
113.012,411
113.037,398
113.062,384
113.087,368
113.112,351
113.137,333
113.162,316
113.187,301
113.212,284
113.237,261
113.262,229
113.287,188
113.312,147
113.337,110
113.362,79
113.387,47
113.412,9
113.437,-31
113.462,-64
113.487,-77
113.512,-67
113.537,-40
113.562,-10
113.587,15
113.612,36
113.637,58
113.662,82
113.687,103
113.712,116
113.737,122
113.762,129
113.787,140
113.812,154
113.837,166
113.862,172
113.887,174
113.912,177
113.937,181
113.962,183
113.987,178
114.012,168
114.037,156
114.062,147
114.087,144
114.112,142
114.137,141
114.162,139
114.187,136
114.212,130
114.237,119
114.262,103
114.287,87
114.312,79
114.337,85
114.362,109
114.387,145
114.412,184
114.437,217
114.462,241
114.487,257
114.512,271
114.537,284
114.562,295
114.587,301
114.612,302
114.637,303
114.662,309
114.687,318
114.712,324
114.737,322
114.762,312
114.787,298
114.812,283
114.837,266
114.862,246
114.887,227
114.912,208
114.937,192
114.962,175
114.987,157
115.012,139
115.037,124
115.062,110
115.087,93
115.112,72
115.137,53
115.162,48
115.187,67
115.212,101
115.237,135
115.262,158
115.287,170
115.312,181
115.337,198
115.362,216
115.387,229
115.412,234
115.437,237
115.462,243
115.487,254
115.512,266
115.537,272
115.562,272
115.587,267
115.612,263
115.637,260
115.662,259
115.687,257
115.712,251
115.737,241
115.762,228
115.787,214
115.812,202
115.837,188
115.862,169
115.887,142
115.912,109
115.937,76
115.962,48
115.987,27
116.012,19
116.037,25
116.062,45
116.087,74
116.112,101
116.137,120
116.162,132
116.187,143
116.212,154
116.237,162
116.262,162
116.287,157
116.312,154
116.337,158
116.362,166
116.387,172
116.412,172
116.437,167
116.462,161
116.487,157
116.512,153
116.537,149
116.562,148
116.587,152
116.612,159
116.637,164
116.662,164
116.687,162
116.712,162
116.737,162
116.762,157
116.787,142
116.812,124
116.837,116
116.862,129
116.887,164
116.912,212
116.937,260
116.962,303
116.987,338
117.012,369
117.037,398
117.062,425
117.087,449
117.112,466
117.137,477
117.162,484
117.187,492
117.212,500
117.237,503
117.262,488
117.287,452
117.312,399
117.337,335
117.362,267
117.387,194
117.412,121
117.437,60
117.462,24
117.487,15
117.512,22
117.537,24
117.562,11
117.587,-11
117.612,-31
117.637,-40
117.662,-37
117.687,-27
117.712,-11
117.737,11
117.762,40
117.787,67
117.812,84
117.837,88
117.862,84
117.887,81
117.912,80
117.937,82
117.962,86
117.987,95
118.012,113
118.037,140
118.062,170
118.087,195
118.112,211
118.137,218
118.162,218
118.187,215
118.212,208
118.237,198
118.262,188
118.287,181
118.312,180
118.337,180
118.362,175
118.387,162
118.412,146
118.437,138
118.462,146
118.487,170
118.512,200
118.537,224
118.562,238
118.587,246
118.612,254
118.637,264
118.662,272
118.687,275
118.712,275
118.737,279
118.762,286
118.787,293
118.812,294
118.837,289
118.862,280
118.887,269
118.912,255
118.937,237
118.962,215
118.987,193
119.012,176
119.037,163
119.062,152
119.087,136
119.112,114
119.137,93
119.162,84
119.187,92
119.212,116
119.237,147
119.262,174
119.287,191
119.312,202
119.337,210
119.362,215
119.387,216
119.412,210
119.437,202
119.462,198
119.487,200
119.512,201
119.537,196
119.562,180
119.587,159
119.612,139
119.637,122
119.662,106
119.687,88
119.712,69
119.737,51
119.762,33
119.787,14
119.812,-4
119.837,-15
119.862,-11
119.887,11
119.912,46
119.937,82
119.962,112
119.987,135
120.012,154
120.037,173
120.062,192
120.087,212
120.112,232
120.137,253
120.162,272
120.187,288
120.212,298
120.237,301
120.262,300
120.287,300
120.312,302
120.337,306
120.362,310
120.387,309
120.412,306
120.437,304
120.462,304
120.487,303
120.512,299
120.537,293
120.562,295
120.587,315
120.612,353
120.637,399
120.662,440
120.687,468
120.712,482
120.737,485
120.762,476
120.787,452
120.812,413
120.837,365
120.862,315
120.887,264
120.912,211
120.937,155
120.962,98
120.987,45
121.012,-2
121.037,-42
121.062,-73
121.087,-92
121.112,-100
121.137,-98
121.162,-93
121.187,-87
121.212,-79
121.237,-70
121.262,-61
121.287,-55
121.312,-47
121.337,-27
121.362,10
121.387,60
121.412,107
121.437,142
121.462,167
121.487,192
121.512,219
121.537,241
121.562,248
121.587,242
121.612,235
121.637,240
121.662,254
121.687,270
121.712,280
121.737,282
121.762,283
121.787,283
121.812,280
121.837,273
121.862,263
121.887,253
121.912,243
121.937,230
121.962,212
121.987,191
122.012,173
122.037,159
122.062,146
122.087,129
122.112,105
122.137,80
122.162,61
122.187,57
122.212,69
122.237,94
122.262,123
122.287,148
122.312,166
122.337,180
122.362,193
122.387,208
122.412,223
122.437,235
122.462,241
122.487,245
122.512,251
122.537,260
122.562,270
122.587,278
122.612,282
122.637,283
122.662,282
122.687,278
122.712,272
122.737,265
122.762,259
122.787,254
122.812,246
122.837,233
122.862,217
122.887,201
122.912,190
122.937,180
122.962,167
122.987,150
123.012,131
123.037,112
123.062,91
123.087,67
123.112,42
123.137,27
123.162,31
123.187,59
123.212,98
123.237,134
123.262,158
123.287,171
123.312,184
123.337,200
123.362,218
123.387,232
123.412,243
123.437,254
123.462,269
123.487,286
123.512,300
123.537,307
123.562,308
123.587,305
123.612,301
123.637,294
123.662,285
123.687,273
123.712,261
123.737,250
123.762,239
123.787,228
123.812,215
123.837,202
123.862,187
123.887,172
123.912,157
123.937,143
123.962,128
123.987,109
124.012,85
124.037,59
124.062,39
124.087,35
124.112,52
124.137,83
124.162,117
124.187,144
124.212,162
124.237,178
124.262,197
124.287,218
124.312,235
124.337,240
124.362,238
124.387,240
124.412,254
124.437,275
124.462,292
124.487,294
124.512,283
124.537,268
124.562,259
124.587,257
124.612,256
124.637,252
124.662,243
124.687,233
124.712,222
124.737,208
124.762,191
124.787,171
124.812,148
124.837,118
124.862,80
124.887,40
124.912,12
124.937,9
124.962,29
124.987,58
125.012,82
125.037,98
125.062,114
125.087,134
125.112,155
125.137,167
125.162,165
125.187,159
125.212,163
125.237,184
125.262,215
125.287,244
125.312,263
125.337,273
125.362,283
125.387,296
125.412,309
125.437,315
125.462,309
125.487,292
125.512,268
125.537,242
125.562,210
125.587,176
125.612,144
125.637,123
125.662,121
125.687,136
125.712,159
125.737,181
125.762,196
125.787,205
125.812,213
125.837,220
125.862,225
125.887,226
125.912,226
125.937,229
125.962,234
125.987,240
126.012,240
126.037,232
126.062,219
126.087,202
126.112,184
126.137,164
126.162,144
126.187,125
126.212,110
126.237,100
126.262,90
126.287,77
126.312,63
126.337,55
126.362,62
126.387,87
126.412,122
126.437,158
126.462,187
126.487,210
126.512,231
126.537,251
126.562,268
126.587,277
126.612,279
126.637,278
126.662,280
126.687,284
126.712,287
126.737,286
126.762,279
126.787,269
126.812,256
126.837,241
126.862,225
126.887,206
126.912,186
126.937,165
126.962,144
126.987,124
127.012,107
127.037,91
127.062,70
127.087,46
127.112,23
127.137,12
127.162,23
127.187,52
127.212,90
127.237,125
127.262,151
127.287,174
127.312,198
127.337,226
127.362,252
127.387,270
127.412,280
127.437,284
127.462,287
127.487,291
127.512,295
127.537,298
127.562,301
127.587,300
127.612,295
127.637,285
127.662,274
127.687,263
127.712,255
127.737,245
127.762,232
127.787,216
127.812,198
127.837,181
127.862,164
127.887,147
127.912,127
127.937,108
127.962,88
127.987,67
128.012,42
128.037,17
128.062,0
128.087,0
128.112,22
128.137,59
128.162,97
128.187,127
128.212,150
128.237,173
128.262,198
128.287,224
128.312,244
128.337,256
128.362,263
128.387,269
128.412,279
128.437,290
128.462,300
128.487,304
128.512,304
128.537,299
128.562,293
128.587,286
128.612,279
128.637,271
128.662,263
128.687,252
128.712,240
128.737,226
128.762,214
128.787,203
128.812,192
128.837,180
128.862,162
128.887,142
128.912,123
128.937,106
128.962,90
128.987,72
129.012,50
129.037,29
129.062,19
129.087,28
129.112,57
129.137,95
129.162,131
129.187,158
129.212,176
129.237,193
129.262,210
129.287,226
129.312,235
129.337,239
129.362,241
129.387,246
129.412,255
129.437,266
129.462,273
129.487,273
129.512,268
129.537,261
129.562,253
129.587,246
129.612,237
129.637,225
129.662,214
129.687,203
129.712,194
129.737,183
129.762,169
129.787,151
129.812,135
129.837,125
129.862,118
129.887,109
129.912,95
129.937,80
129.962,76
129.987,93
130.012,133
130.037,183
130.062,229
130.087,260
130.112,278
130.137,289
130.162,299
130.187,309
130.212,316
130.237,319
130.262,319
130.287,319
130.312,321
130.337,324
130.362,323
130.387,316
130.412,301
130.437,281
130.462,257
130.487,233
130.512,207
130.537,179
130.562,149
130.587,118
130.612,86
130.637,52
130.662,19
130.687,-8
130.712,-28
130.737,-42
130.762,-57
130.787,-76
130.812,-97
130.837,-108
130.862,-98
130.887,-66
130.912,-18
130.937,33
130.962,78
130.987,113
131.012,141
131.037,165
131.062,187
131.087,206
131.112,220
131.137,234
131.162,253
131.187,278
131.212,306
131.237,332
131.262,347
131.287,353
131.312,356
131.337,363
131.362,373
131.387,382
131.412,382
131.437,374
131.462,362
131.487,352
131.512,345
131.537,337
131.562,322
131.587,298
131.612,271
131.637,242
131.662,212
131.687,175
131.712,135
131.737,101
131.762,89
131.787,103
131.812,136
131.837,168
131.862,187
131.887,191
131.912,190
131.937,192
131.962,195
131.987,193
132.012,184
132.037,173
132.062,167
132.087,169
132.112,174
132.137,178
132.162,179
132.187,181
132.212,183
132.237,182
132.262,174
132.287,160
132.312,146
132.337,135
132.362,127
132.387,114
132.412,96
132.437,77
132.462,59
132.487,46
132.512,34
132.537,19
132.562,3
132.587,-12
132.612,-21
132.637,-20
132.662,-1
132.687,36
132.712,90
132.737,151
132.762,208
132.787,256
132.812,299
132.837,340
132.862,380
132.887,411
132.912,427
132.937,428
132.962,421
132.987,412
133.012,402
133.037,389
133.062,369
133.087,343
133.112,314
133.137,284
133.162,252
133.187,220
133.212,189
133.237,161
133.262,136
133.287,115
133.312,96
133.337,78
133.362,63
133.387,53
133.412,45
133.437,36
133.462,24
133.487,10
133.512,4
133.537,15
133.562,49
133.587,99
133.612,155
133.637,202
133.662,235
133.687,257
133.712,273
133.737,285
133.762,293
133.787,293
133.812,289
133.837,284
133.862,285
133.887,290
133.912,295
133.937,296
133.962,292
133.987,285
134.012,280
134.037,275
134.062,269
134.087,262
134.112,256
134.137,251
134.162,246
134.187,238
134.212,225
134.237,208
134.262,185
134.287,155
134.312,118
134.337,78
134.362,45
134.387,29
134.412,33
134.437,52
134.462,74
134.487,93
134.512,106
134.537,116
134.562,122
134.587,126
134.612,128
134.637,131
134.662,139
134.687,151
134.712,165
134.737,178
134.762,188
134.787,195
134.812,202
134.837,208
134.862,213
134.887,217
134.912,219
134.937,218
134.962,215
134.987,207
135.012,196
135.037,183
135.062,170
135.087,157
135.112,144
135.137,130
135.162,113
135.187,93
135.212,77
135.237,74
135.262,89
135.287,119
135.312,155
135.337,184
135.362,202
135.387,214
135.412,230
135.437,251
135.462,272
135.487,285
135.512,288
135.537,289
135.562,294
135.587,304
135.612,313
135.637,316
135.662,309
135.687,297
135.712,285
135.737,273
135.762,262
135.787,249
135.812,235
135.837,224
135.862,212
135.887,200
135.912,186
135.937,170
135.962,158
135.987,148
136.012,137
136.037,118
136.062,91
136.087,62
136.112,45
136.137,48
136.162,69
136.187,97
136.212,123
136.237,142
136.262,158
136.287,173
136.312,189
136.337,202
136.362,209
136.387,211
136.412,213
136.437,217
136.462,222
136.487,228
136.512,231
136.537,233
136.562,235
136.587,237
136.612,239
136.637,240
136.662,238
136.687,234
136.712,228
136.737,219
136.762,211
136.787,200
136.812,187
136.837,172
136.862,156
136.887,142
136.912,132
136.937,120
136.962,102
136.987,83
137.012,70
137.037,76
137.062,102
137.087,138
137.112,172
137.137,194
137.162,208
137.187,220
137.212,234
137.237,247
137.262,254
137.287,255
137.312,254
137.337,254
137.362,257
137.387,257
137.412,252
137.437,243
137.462,232
137.487,223
137.512,217
137.537,210
137.562,201
137.587,189
137.612,178
137.637,171
137.662,166
137.687,160
137.712,151
137.737,140
137.762,130
137.787,122
137.812,113
137.837,97
137.862,76
137.887,61
137.912,63
137.937,86
137.962,122
137.987,157
138.012,185
138.037,206
138.062,224
138.087,242
138.112,257
138.137,266
138.162,271
138.187,278
138.212,288
138.237,300
138.262,307
138.287,308
138.312,304
138.337,299
138.362,295
138.387,289
138.412,281
138.437,270
138.462,258
138.487,246
138.512,234
138.537,220
138.562,202
138.587,181
138.612,159
138.637,138
138.662,120
138.687,103
138.712,82
138.737,58
138.762,34
138.787,19
138.812,21
138.837,42
138.862,74
138.887,105
138.912,127
138.937,141
138.962,152
138.987,164
139.012,179
139.037,194
139.062,206
139.087,216
139.112,227
139.137,241
139.162,255
139.187,263
139.212,264
139.237,261
139.262,257
139.287,254
139.312,251
139.337,245
139.362,237
139.387,229
139.412,224
139.437,219
139.462,211
139.487,197
139.512,180
139.537,163
139.562,149
139.587,136
139.612,119
139.637,98
139.662,73
139.687,51
139.712,42
139.737,52
139.762,80
139.787,116
139.812,150
139.837,175
139.862,194
139.887,210
139.912,225
139.937,239
139.962,248
139.987,253
140.012,259
140.037,269
140.062,280
140.087,289
140.112,293
140.137,295
140.162,295
140.187,293
140.212,286
140.237,274
140.262,260
140.287,248
140.312,237
140.337,223
140.362,208
140.387,191
140.412,178
140.437,167
140.462,154
140.487,139
140.512,122
140.537,104
140.562,83
140.587,60
140.612,41
140.637,38
140.662,59
140.687,100
140.712,144
140.737,173
140.762,186
140.787,192
140.812,202
140.837,218
140.862,231
140.887,235
140.912,235
140.937,238
140.962,250
140.987,263
141.012,271
141.037,268
141.062,262
141.087,257
141.112,255
141.137,250
141.162,238
141.187,220
141.212,203
141.237,190
141.262,182
141.287,173
141.312,161
141.337,149
141.362,139
141.387,129
141.412,114
141.437,92
141.462,71
141.487,65
141.512,82
141.537,117
141.562,157
141.587,188
141.612,208
141.637,220
141.662,230
141.687,237
141.712,239
141.737,237
141.762,235
141.787,237
141.812,242
141.837,247
141.862,248
141.887,245
141.912,240
141.937,233
141.962,226
141.987,215
142.012,203
142.037,189
142.062,176
142.087,163
142.112,151
142.137,142
142.162,136
142.187,132
142.212,127
142.237,119
142.262,106
142.287,89
142.312,73
142.337,62
142.362,65
142.387,84
142.412,115
142.437,151
142.462,181
142.487,201
142.512,213
142.537,222
142.562,232
142.587,242
142.612,248
142.637,252
142.662,255
142.687,262
142.712,271
142.737,279
142.762,284
142.787,283
142.812,279
142.837,275
142.862,271
142.887,264
142.912,254
142.937,241
142.962,226
142.987,213
143.012,199
143.037,183
143.062,165
143.087,148
143.112,134
143.137,121
143.162,104
143.187,82
143.212,62
143.237,60
143.262,80
143.287,119
143.312,159
143.337,189
143.362,206
143.387,218
143.412,230
143.437,242
143.462,249
143.487,250
143.512,247
143.537,245
143.562,245
143.587,245
143.612,244
143.637,244
143.662,244
143.687,243
143.712,237
143.737,226
143.762,212
143.787,202
143.812,195
143.837,188
143.862,179
143.887,164
143.912,147
143.937,133
143.962,123
143.987,114
144.012,102
144.037,84
144.062,65
144.087,55
144.112,63
144.137,90
144.162,128
144.187,163
144.212,186
144.237,197
144.262,204
144.287,211
144.312,221
144.337,229
144.362,233
144.387,236
144.412,240
144.437,247
144.462,253
144.487,256
144.512,256
144.537,253
144.562,249
144.587,242
144.612,231
144.637,218
144.662,206
144.687,197
144.712,187
144.737,176
144.762,163
144.787,151
144.812,140
144.837,128
144.862,111
144.887,89
144.912,69
144.937,63
144.962,78
144.987,111
145.012,148
145.037,179
145.062,200
145.087,213
145.112,224
145.137,235
145.162,246
145.187,254
145.212,257
145.237,259
145.262,263
145.287,269
145.312,275
145.337,278
145.362,275
145.387,266
145.412,254
145.437,244
145.462,236
145.487,227
145.512,216
145.537,201
145.562,186
145.587,173
145.612,161
145.637,150
145.662,136
145.687,120
145.712,99
145.737,74
145.762,49
145.787,32
145.812,32
145.837,53
145.862,89
145.887,127
145.912,155
145.937,174
145.962,190
145.987,208
146.012,228
146.037,245
146.062,256
146.087,263
146.112,268
146.137,275
146.162,284
146.187,291
146.212,291
146.237,285
146.262,276
146.287,265
146.312,256
146.337,247
146.362,236
146.387,224
146.412,211
146.437,199
146.462,189
146.487,177
146.512,162
146.537,145
146.562,128
146.587,114
146.612,97
146.637,77
146.662,54
146.687,41
146.712,46
146.737,71
146.762,106
146.787,137
146.812,159
146.837,174
146.862,188
146.887,204
146.912,218
146.937,228
146.962,232
146.987,236
147.012,242
147.037,252
147.062,261
147.087,268
147.112,271
147.137,271
147.162,268
147.187,261
147.212,250
147.237,237
147.262,225
147.287,216
147.312,206
147.337,194
147.362,180
147.387,168
147.412,158
147.437,149
147.462,136
147.487,117
147.512,96
147.537,84
147.562,90
147.587,115
147.612,149
147.637,177
147.662,194
147.687,204
147.712,213
147.737,225
147.762,236
147.787,243
147.812,245
147.837,245
147.862,248
147.887,253
147.912,258
147.937,258
147.962,255
147.987,248
148.012,240
148.037,229
148.062,217
148.087,205
148.112,192
148.137,178
148.162,162
148.187,145
148.212,130
148.237,115
148.262,97
148.287,74
148.312,54
148.337,47
148.362,62
148.387,95
148.412,134
148.437,162
148.462,176
148.487,184
148.512,194
148.537,211
148.562,229
148.587,241
148.612,245
148.637,245
148.662,245
148.687,249
148.712,253
148.737,255
148.762,251
148.787,243
148.812,232
148.837,219
148.862,205
148.887,190
148.912,177
148.937,167
148.962,160
148.987,156
149.012,150
149.037,141
149.062,125
149.087,107
149.112,94
149.137,94
149.162,108
149.187,131
149.212,153
149.237,170
149.262,184
149.287,198
149.312,212
149.337,224
149.362,230
149.387,231
149.412,232
149.437,238
149.462,248
149.487,257
149.512,262
149.537,263
149.562,260
149.587,257
149.612,255
149.637,252
149.662,249
149.687,242
149.712,230
149.737,213
149.762,193
149.787,176
149.812,165
149.837,158
149.862,150
149.887,135
149.912,113
149.937,91
149.962,78
149.987,81
150.012,101
150.037,129
150.062,156
150.087,173
150.112,183
150.137,190
150.162,199
150.187,208
150.212,212
150.237,210
150.262,203
150.287,201
150.312,204
150.337,210
150.362,211
150.387,206
150.412,200
150.437,196
150.462,196
150.487,195
150.512,190
150.537,182
150.562,175
150.587,171
150.612,165
150.637,158
150.662,151
150.687,147
150.712,148
150.737,148
150.762,144
150.787,140
150.812,142
150.837,157
150.862,180
150.887,203
150.912,221
150.937,232
150.962,239
150.987,244
151.012,248
151.037,250
151.062,248
151.087,244
151.112,241
151.137,241
151.162,243
151.187,246
151.212,247
151.237,243
151.262,235
151.287,226
151.312,218
151.337,213
151.362,208
151.387,199
151.412,186
151.437,172
151.462,160
151.487,150
151.512,141
151.537,133
151.562,124
151.587,113
151.612,100
151.637,87
151.662,81
151.687,90
151.712,114
151.737,147
151.762,177
151.787,199
151.812,215
151.837,229
151.862,244
151.887,258
151.912,268
151.937,274
151.962,274
151.987,271
152.012,267
152.037,263
152.062,260
152.087,257
152.112,250
152.137,241
152.162,230
152.187,222
152.212,218
152.237,216
152.262,210
152.287,199
152.312,186
152.337,174
152.362,166
152.387,158
152.412,148
152.437,137
152.462,123
152.487,108
152.512,93
152.537,80
152.562,75
152.587,84
152.612,103
152.637,125
152.662,143
152.687,153
152.712,162
152.737,174
152.762,190
152.787,204
152.812,211
152.837,212
152.862,214
152.887,220
152.912,228
152.937,236
152.962,240
152.987,242
153.012,240
153.037,235
153.062,226
153.087,216
153.112,206
153.137,198
153.162,190
153.187,179
153.212,166
153.237,154
153.262,146
153.287,140
153.312,133
153.337,126
153.362,121
153.387,119
153.412,114
153.437,104
153.462,91
153.487,87
153.512,101
153.537,134
153.562,173
153.587,205
153.612,223
153.637,232
153.662,241
153.687,253
153.712,265
153.737,272
153.762,273
153.787,273
153.812,274
153.837,277
153.862,276
153.887,272
153.912,264
153.937,256
153.962,248
153.987,239
154.012,227
154.037,212
154.062,199
154.087,191
154.112,188
154.137,187
154.162,183
154.187,174
154.212,162
154.237,150
154.262,138
154.287,121
154.312,97
154.337,70
154.362,53
154.387,59
154.412,87
154.437,127
154.462,166
154.487,196
154.512,222
154.537,247
154.562,272
154.587,292
154.612,302
154.637,304
154.662,302
154.687,301
154.712,300
154.737,298
154.762,294
154.787,287
154.812,276
154.837,263
154.862,249
154.887,234
154.912,221
154.937,206
154.962,190
154.987,172
155.012,152
155.037,133
155.062,114
155.087,95
155.112,76
155.137,58
155.162,38
155.187,15
155.212,-10
155.237,-30
155.262,-33
155.287,-15
155.312,18
155.337,56
155.362,89
155.387,119
155.412,151
155.437,187
155.462,223
155.487,252
155.512,272
155.537,290
155.562,309
155.587,333
155.612,357
155.637,373
155.662,379
155.687,373
155.712,358
155.737,337
155.762,314
155.787,294
155.812,276
155.837,259
155.862,241
155.887,222
155.912,202
155.937,183
155.962,163
155.987,142
156.012,120
156.037,98
156.062,74
156.087,46
156.112,14
156.137,-11
156.162,-20
156.187,-6
156.212,26
156.237,64
156.262,101
156.287,135
156.312,168
156.337,199
156.362,223
156.387,236
156.412,244
156.437,255
156.462,271
156.487,289
156.512,301
156.537,305
156.562,307
156.587,309
156.612,310
156.637,307
156.662,299
156.687,289
156.712,277
156.737,263
156.762,244
156.787,221
156.812,198
156.837,179
156.862,161
156.887,141
156.912,120
156.937,101
156.962,82
156.987,62
157.012,36
157.037,11
157.062,3
157.087,22
157.112,64
157.137,115
157.162,157
157.187,186
157.212,208
157.237,231
157.262,252
157.287,267
157.312,273
157.337,274
157.362,276
157.387,282
157.412,291
157.437,296
157.462,297
157.487,294
157.512,290
157.537,284
157.562,272
157.587,255
157.612,233
157.637,210
157.662,190
157.687,174
157.712,159
157.737,144
157.762,126
157.787,108
157.812,89
157.837,68
157.862,41
157.887,11
157.912,-8
157.937,-6
157.962,23
157.987,71
158.012,118
158.037,152
158.062,173
158.087,190
158.112,212
158.137,235
158.162,253
158.187,263
158.212,268
158.237,276
158.262,289
158.287,302
158.312,310
158.337,310
158.362,305
158.387,297
158.412,288
158.437,278
158.462,265
158.487,250
158.512,233
158.537,216
158.562,199
158.587,179
158.612,156
158.637,132
158.662,110
158.687,90
158.712,69
158.737,43
158.762,11
158.787,-19
158.812,-34
158.837,-22
158.862,14
158.887,65
158.912,114
158.937,153
158.962,182
158.987,205
159.012,227
159.037,248
159.062,265
159.087,276
159.112,285
159.137,293
159.162,304
159.187,316
159.212,325
159.237,329
159.262,325
159.287,316
159.312,303
159.337,289
159.362,274
159.387,256
159.412,237
159.437,221
159.462,206
159.487,189
159.512,169
159.537,145
159.562,122
159.587,102
159.612,81
159.637,53
159.662,21
159.687,-3
159.712,-5
159.737,19
159.762,63
159.787,111
159.812,149
159.837,174
159.862,193
159.887,211
159.912,228
159.937,243
159.962,252
159.987,257
160.012,263
160.037,273
160.062,283
160.087,290
160.112,290
160.137,284
160.162,275
160.187,266
160.212,256
160.237,242
160.262,225
160.287,208
160.312,194
160.337,182
160.362,170
160.387,154
160.412,136
160.437,117
160.462,97
160.487,73
160.512,48
160.537,34
160.562,43
160.587,76
160.612,123
160.637,167
160.662,197
160.687,213
160.712,225
160.737,239
160.762,251
160.787,258
160.812,259
160.837,260
160.862,266
160.887,277
160.912,285
160.937,285
160.962,277
160.987,266
161.012,257
161.037,249
161.062,238
161.087,221
161.112,202
161.137,184
161.162,169
161.187,156
161.212,142
161.237,126
161.262,109
161.287,90
161.312,67
161.337,41
161.362,17
161.387,6
161.412,18
161.437,55
161.462,103
161.487,147
161.512,176
161.537,194
161.562,208
161.587,225
161.612,242
161.637,253
161.662,257
161.687,260
161.712,266
161.737,277
161.762,289
161.787,294
161.812,290
161.837,279
161.862,268
161.887,258
161.912,248
161.937,237
161.962,222
161.987,206
162.012,191
162.037,176
162.062,161
162.087,147
162.112,132
162.137,115
162.162,95
162.187,72
162.212,49
162.237,33
162.262,35
162.287,58
162.312,97
162.337,141
162.362,176
162.387,199
162.412,213
162.437,226
162.462,239
162.487,251
162.512,261
162.537,267
162.562,273
162.587,280
162.612,286
162.637,286
162.662,280
162.687,270
162.712,262
162.737,257
162.762,252
162.787,242
162.812,227
162.837,211
162.862,196
162.887,182
162.912,165
162.937,147
162.962,131
162.987,119
163.012,108
163.037,90
163.062,65
163.087,45
163.112,44
163.137,70
163.162,110
163.187,149
163.212,174
163.237,188
163.262,198
163.287,209
163.312,221
163.337,226
163.362,227
163.387,226
163.412,229
163.437,236
163.462,244
163.487,249
163.512,250
163.537,246
163.562,237
163.587,226
163.612,217
163.637,212
163.662,206
163.687,196
163.712,180
163.737,164
163.762,152
163.787,145
163.812,136
163.837,118
163.862,98
163.887,89
163.912,100
163.937,129
163.962,165
163.987,196
164.012,217
164.037,232
164.062,245
164.087,255
164.112,262
164.137,267
164.162,270
164.187,272
164.212,274
164.237,277
164.262,280
164.287,283
164.312,282
164.337,276
164.362,264
164.387,249
164.412,233
164.437,218
164.462,202
164.487,184
164.512,163
164.537,140
164.562,117
164.587,94
164.612,71
164.637,47
164.662,22
164.687,1
164.712,-7
164.737,1
164.762,26
164.787,58
164.812,81
164.837,91
164.862,94
164.887,102
164.912,119
164.937,142
164.962,160
164.987,173
165.012,187
165.037,209
165.062,236
165.087,260
165.112,273
165.137,276
165.162,276
165.187,278
165.212,281
165.237,282
165.262,281
165.287,278
165.312,275
165.337,270
165.362,263
165.387,252
165.412,241
165.437,227
165.462,210
165.487,187
165.512,166
165.537,155
165.562,162
165.587,183
165.612,208
165.637,227
165.662,239
165.687,245
165.712,249
165.737,252
165.762,255
165.787,257
165.812,260
165.837,263
165.862,265
165.887,267
165.912,269
165.937,270
165.962,268
165.987,261
166.012,247
166.037,229
166.062,212
166.087,195
166.112,176
166.137,153
166.162,126
166.187,104
166.212,86
166.237,67
166.262,42
166.287,11
166.312,-13
166.337,-18
166.362,1
166.387,36
166.412,71
166.437,98
166.462,115
166.487,129
166.512,143
166.537,158
166.562,172
166.587,182
166.612,189
166.637,195
166.662,202
166.687,209
166.712,215
166.737,217
166.762,213
166.787,206
166.812,199
166.837,193
166.862,188
166.887,184
166.912,183
166.937,186
166.962,190
166.987,191
167.012,185
167.037,174
167.062,170
167.087,181
167.112,206
167.137,233
167.162,252
167.187,263
167.212,271
167.237,280
167.262,288
167.287,290
167.312,285
167.337,279
167.362,277
167.387,278
167.412,278
167.437,274
167.462,267
167.487,258
167.512,248
167.537,236
167.562,222
167.587,210
167.612,202
167.637,195
167.662,185
167.687,172
167.712,157
167.737,143
167.762,128
167.787,110
167.812,92
167.837,84
167.862,96
167.887,124
167.912,156
167.937,181
167.962,195
167.987,207
168.012,222
168.037,238
168.062,249
168.087,251
168.112,247
168.137,243
168.162,243
168.187,243
168.212,241
168.237,236
168.262,228
168.287,216
168.312,201
168.337,181
168.362,157
168.387,134
168.412,113
168.437,93
168.462,72
168.487,47
168.512,20
168.537,-4
168.562,-25
168.587,-42
168.612,-55
168.637,-61
168.662,-56
168.687,-33
168.712,7
168.737,62
168.762,117
168.787,163
168.812,200
168.837,233
168.862,266
168.887,299
168.912,326
168.937,342
168.962,348
168.987,351
169.012,356
169.037,363
169.062,371
169.087,376
169.112,378
169.137,376
169.162,367
169.187,348
169.212,321
169.237,293
169.262,269
169.287,249
169.312,231
169.337,211
169.362,188
169.387,165
169.412,145
169.437,128
169.462,114
169.487,102
169.512,91
169.537,76
169.562,56
169.587,35
169.612,22
169.637,28
169.662,52
169.687,84
169.712,111
169.737,129
169.762,143
169.787,161
169.812,186
169.837,212
169.862,232
169.887,242
169.912,247
169.937,251
169.962,258
169.987,264
170.012,268
170.037,265
170.062,259
170.087,252
170.112,245
170.137,238
170.162,231
170.187,222
170.212,214
170.237,205
170.262,197
170.287,187
170.312,177
170.337,167
170.362,156
170.387,141
170.412,123
170.437,104
170.462,92
170.487,95
170.512,113
170.537,135
170.562,154
170.587,166
170.612,175
170.637,188
170.662,204
170.687,219
170.712,229
170.737,237
170.762,246
170.787,259
170.812,271
170.837,279
170.862,281
170.887,278
170.912,271
170.937,261
170.962,250
170.987,239
171.012,229
171.037,218
171.062,206
171.087,190
171.112,172
171.137,155
171.162,141
171.187,129
171.212,116
171.237,101
171.262,83
171.287,60
171.312,35
171.337,13
171.362,4
171.387,15
171.412,44
171.437,80
171.462,111
171.487,134
171.512,153
171.537,174
171.562,197
171.587,217
171.612,229
171.637,234
171.662,238
171.687,245
171.712,255
171.737,266
171.762,274
171.787,277
171.812,277
171.837,272
171.862,265
171.887,258
171.912,249
171.937,238
171.962,227
171.987,216
172.012,206
172.037,198
172.062,188
172.087,175
172.112,161
172.137,148
172.162,136
172.187,119
172.212,97
172.237,75
172.262,65
172.287,74
172.312,101
172.337,135
172.362,164
172.387,184
172.412,198
172.437,214
172.462,232
172.487,247
172.512,254
172.537,254
172.562,251
172.587,254
172.612,261
172.637,270
172.662,273
172.687,266
172.712,254
172.737,241
172.762,232
172.787,227
172.812,221
172.837,212
172.862,200
172.887,187
172.912,176
172.937,167
172.962,156
172.987,144
173.012,130
173.037,114
173.062,97
173.087,81
173.112,70
173.137,75
173.162,98
173.187,134
173.212,170
173.237,195
173.262,208
173.287,218
173.312,230
173.337,245
173.362,254
173.387,254
173.412,248
173.437,243
173.462,245
173.487,253
173.512,257
173.537,253
173.562,243
173.587,231
173.612,222
173.637,215
173.662,206
173.687,196
173.712,185
173.737,175
173.762,163
173.787,148
173.812,131
173.837,115
173.862,102
173.887,86
173.912,64
173.937,36
173.962,13
173.987,10
174.012,33
174.037,73
174.062,115
174.087,147
174.112,169
174.137,187
174.162,208
174.187,227
174.212,240
174.237,246
174.262,251
174.287,259
174.312,270
174.337,280
174.362,283
174.387,280
174.412,275
174.437,271
174.462,266
174.487,260
174.512,252
174.537,242
174.562,232
174.587,221
174.612,207
174.637,191
174.662,173
174.687,157
174.712,147
174.737,141
174.762,137
174.787,127
174.812,107
174.837,79
174.862,55
174.887,51
174.912,71
174.937,109
174.962,149
174.987,178
175.012,196
175.037,213
175.062,236
175.087,262
175.112,286
175.137,303
175.162,317
175.187,333
175.212,351
175.237,367
175.262,374
175.287,370
175.312,356
175.337,338
175.362,317
175.387,294
175.412,271
175.437,247
175.462,224
175.487,201
175.512,177
175.537,151
175.562,126
175.587,102
175.612,82
175.637,62
175.662,42
175.687,17
175.712,-12
175.737,-41
175.762,-60
175.787,-57
175.812,-30
175.837,9
175.862,46
175.887,69
175.912,81
175.937,91
175.962,108
175.987,129
176.012,150
176.037,170
176.062,194
176.087,227
176.112,265
176.137,294
176.162,308
176.187,306
176.212,296
176.237,282
176.262,265
176.287,243
176.312,220
176.337,200
176.362,185
176.387,176
176.412,171
176.437,176
176.462,196
176.487,229
176.512,263
176.537,286
176.562,300
176.587,315
176.612,341
176.637,375
176.662,400
176.687,405
176.712,395
176.737,384
176.762,380
176.787,377
176.812,362
176.837,332
176.862,293
176.887,258
176.912,231
176.937,207
176.962,181
176.987,150
177.012,116
177.037,80
177.062,42
177.087,4
177.112,-31
177.137,-64
177.162,-96
177.187,-129
177.212,-162
177.237,-188
177.262,-203
177.287,-208
177.312,-212
177.337,-221
177.362,-232
177.387,-235
177.412,-219
177.437,-178
177.462,-114
177.487,-34
177.512,52
177.537,138
177.562,219
177.587,294
177.612,365
177.637,430
177.662,484
177.687,523
177.712,549
177.737,567
177.762,580
177.787,586
177.812,578
177.837,552
177.862,515
177.887,475
177.912,442
177.937,417
177.962,396
177.987,372
178.012,342
178.037,307
178.062,269
178.087,232
178.112,197
178.137,159
178.162,115
178.187,65
178.212,20
178.237,-5
178.262,-3
178.287,21
178.312,54
178.337,83
178.362,102
178.387,115
178.412,124
178.437,128
178.462,126
178.487,122
178.512,127
178.537,141
178.562,158
178.587,170
178.612,170
178.637,162
178.662,154
178.687,149
178.712,146
178.737,145
178.762,146
178.787,149
178.812,153
178.837,156
178.862,156
178.887,154
178.912,149
178.937,139
178.962,124
178.987,109
179.012,106
179.037,122
179.062,157
179.087,203
179.112,250
179.137,293
179.162,334
179.187,374
179.212,409
179.237,436
179.262,451
179.287,452
179.312,444
179.337,433
179.362,421
179.387,407
179.412,388
179.437,359
179.462,317
179.487,267
179.512,215
179.537,167
179.562,126
179.587,91
179.612,60
179.637,31
179.662,2
179.687,-24
179.712,-48
179.737,-66
179.762,-78
179.787,-85
179.812,-88
179.837,-85
179.862,-72
179.887,-47
179.912,-15
179.937,10
179.962,24
179.987,30
180.012,36
180.037,53
180.062,81
180.087,113
180.112,144
180.137,170
180.162,194
180.187,216
180.212,234
180.237,251
180.262,269
180.287,291
180.312,312
180.337,323
180.362,321
180.387,309
180.412,298
180.437,296
180.462,303
180.487,309
180.512,308
180.537,299
180.562,291
180.587,287
180.612,285
180.637,278
180.662,267
180.687,258
180.712,261
180.737,278
180.762,300
180.787,308
180.812,294
180.837,260
180.862,217
180.887,177
180.912,146
180.937,121
180.962,101
180.987,80
181.012,58
181.037,37
181.062,18
181.087,7
181.112,7
181.137,17
181.162,29
181.187,34
181.212,28
181.237,19
181.262,16
181.287,24
181.312,38
181.337,48
181.362,51
181.387,54
181.412,66
181.437,89
181.462,114
181.487,132
181.512,142
181.537,157
181.562,190
181.587,243
181.612,302
181.637,350
181.662,377
181.687,386
181.712,384
181.737,377
181.762,366
181.787,350
181.812,335
181.837,327
181.862,328
181.887,335
181.912,343
181.937,349
181.962,356
181.987,370
182.012,390
182.037,411
182.062,423
182.087,425
182.112,419
182.137,414
182.162,411
182.187,408
182.212,401
182.237,387
182.262,367
182.287,343
182.312,310
182.337,267
182.362,221
182.387,185
182.412,172
182.437,179
182.462,194
182.487,201
182.512,199
182.537,196
182.562,193
182.587,182
182.612,152
182.637,105
182.662,55
182.687,19
182.712,0
182.737,-12
182.762,-33
182.787,-63
182.812,-94
182.837,-119
182.862,-140
182.887,-162
182.912,-192
182.937,-230
182.962,-274
182.987,-321
183.012,-366
183.037,-403
183.062,-425
183.087,-432
183.112,-431
183.137,-427
183.162,-420
183.187,-409
183.212,-390
183.237,-359
183.262,-311
183.287,-240
183.312,-142
183.337,-24
183.362,101
183.387,226
183.412,343
183.437,452
183.462,550
183.487,637
183.512,716
183.537,795
183.562,873
183.587,939
183.612,977
183.637,981
183.662,963
183.687,940
183.712,917
183.737,889
183.762,844
183.787,781
183.812,708
183.837,634
183.862,564
183.887,504
183.912,459
183.937,431
183.962,409
183.987,376
184.012,317
184.037,238
184.062,162
184.087,108
184.112,78
184.137,61
184.162,43
184.187,24
184.212,5
184.237,-11
184.262,-26
184.287,-40
184.312,-49
184.337,-49
184.362,-43
184.387,-36
184.412,-32
184.437,-28
184.462,-19
184.487,-7
184.512,2
184.537,9
184.562,14
184.587,22
184.612,32
184.637,39
184.662,41
184.687,42
184.712,47
184.737,55
184.762,56
184.787,45
184.812,23
184.837,8
184.862,11
184.887,37
184.912,75
184.937,113
184.962,143
184.987,165
185.012,188
185.037,215
185.062,243
185.087,269
185.112,285
185.137,291
185.162,292
185.187,290
185.212,289
185.237,285
185.262,275
185.287,259
185.312,239
185.337,218
185.362,198
185.387,182
185.412,172
185.437,166
185.462,160
185.487,147
185.512,126
185.537,104
185.562,95
185.587,103
185.612,123
185.637,145
185.662,160
185.687,169
185.712,181
185.737,199
185.762,220
185.787,237
185.812,245
185.837,247
185.862,247
185.887,245
185.912,239
185.937,227
185.962,207
185.987,184
186.012,160
186.037,139
186.062,123
186.087,114
186.112,111
186.137,107
186.162,96
186.187,80
186.212,68
186.237,71
186.262,93
186.287,125
186.312,154
186.337,173
186.362,185
186.387,199
186.412,218
186.437,238
186.462,252
186.487,255
186.512,254
186.537,255
186.562,258
186.587,261
186.612,258
186.637,248
186.662,236
186.687,224
186.712,212
186.737,197
186.762,180
186.787,165
186.812,152
186.837,136
186.862,113
186.887,87
186.912,69
186.937,73
186.962,102
186.987,142
187.012,177
187.037,199
187.062,212
187.087,223
187.112,233
187.137,239
187.162,238
187.187,236
187.212,240
187.237,251
187.262,260
187.287,257
187.312,241
187.337,219
187.362,200
187.387,187
187.412,177
187.437,164
187.462,146
187.487,123
187.512,94
187.537,64
187.562,41
187.587,37
187.612,56
187.637,91
187.662,127
187.687,154
187.712,171
187.737,186
187.762,202
187.787,215
187.812,221
187.837,219
187.862,217
187.887,222
187.912,232
187.937,239
187.962,238
187.987,230
188.012,221
188.037,211
188.062,200
188.087,184
188.112,166
188.137,146
188.162,128
188.187,107
188.212,83
188.237,60
188.262,48
188.287,56
188.312,82
188.337,116
188.362,148
188.387,172
188.412,191
188.437,207
188.462,221
188.487,232
188.512,237
188.537,239
188.562,240
188.587,246
188.612,255
188.637,261
188.662,261
188.687,254
188.712,244
188.737,232
188.762,218
188.787,200
188.812,179
188.837,161
188.862,148
188.887,134
188.912,113
188.937,85
188.962,62
188.987,58
189.012,77
189.037,110
189.062,144
189.087,168
189.112,185
189.137,200
189.162,214
189.187,224
189.212,227
189.237,226
189.262,227
189.287,233
189.312,239
189.337,243
189.362,246
189.387,249
189.412,248
189.437,242
189.462,227
189.487,206
189.512,183
189.537,160
189.562,138
189.587,119
189.612,106
189.637,99
189.662,93
189.687,80
189.712,61
189.737,47
189.762,50
189.787,77
189.812,120
189.837,168
189.862,210
189.887,245
189.912,269
189.937,278
189.962,270
189.987,255
190.012,246
190.037,251
190.062,266
190.087,272
190.112,258
190.137,223
190.162,180
190.187,145
190.212,126
190.237,122
190.262,128
190.287,139
190.312,149
190.337,156
190.362,159
190.387,157
190.412,145
190.437,122
190.462,90
190.487,59
190.512,45
190.537,59
190.562,100
190.587,152
190.612,199
190.637,227
190.662,234
190.687,225
190.712,207
190.737,184
190.762,159
190.787,135
190.812,117
190.837,112
190.862,125
190.887,154
190.912,193
190.937,227
190.962,247
190.987,250
191.012,241
191.037,224
191.062,202
191.087,174
191.112,143
191.137,120
191.162,119
191.187,150
191.212,203
191.237,257
191.262,289
191.287,287
191.312,264
191.337,242
191.362,240
191.387,264
191.412,302
191.437,339
191.462,366
191.487,382
191.512,392
191.537,396
191.562,392
191.587,378
191.612,360
191.637,345
191.662,341
191.687,344
191.712,349
191.737,349
191.762,343
191.787,333
191.812,313
191.837,275
191.862,209
191.887,119
191.912,24
191.937,-50
191.962,-95
191.987,-117
192.012,-133
192.037,-157
192.062,-188
192.087,-220
192.112,-246
192.137,-261
192.162,-266
192.187,-259
192.212,-241
192.237,-216
192.262,-194
192.287,-183
192.312,-183
192.337,-189
192.362,-190
192.387,-177
192.412,-144
192.437,-92
192.462,-27
192.487,40
192.512,106
192.537,167
192.562,227
192.587,286
192.612,341
192.637,387
192.662,423
192.687,449
192.712,469
192.737,479
192.762,479
192.787,474
192.812,474
192.837,481
192.862,490
192.887,487
192.912,469
192.937,445
192.962,428
192.987,425
193.012,429
193.037,428
193.062,421
193.087,415
193.112,413
193.137,413
193.162,407
193.187,392
193.212,378
193.237,368
193.262,359
193.287,339
193.312,305
193.337,267
193.362,241
193.387,234
193.412,238
193.437,238
193.462,223
193.487,195
193.512,160
193.537,124
193.562,88
193.587,51
193.612,17
193.637,-10
193.662,-24
193.687,-20
193.712,0
193.737,30
193.762,55
193.787,65
193.812,62
193.837,52
193.862,46
193.887,44
193.912,41
193.937,34
193.962,28
193.987,28
194.012,38
194.037,51
194.062,61
194.087,61
194.112,55
194.137,47
194.162,39
194.187,29
194.212,17
194.237,4
194.262,-9
194.287,-22
194.312,-31
194.337,-30
194.362,-13
194.387,21
194.412,65
194.437,104
194.462,128
194.487,138
194.512,142
194.537,148
194.562,156
194.587,162
194.612,164
194.637,165
194.662,170
194.687,179
194.712,190
194.737,196
194.762,200
194.787,204
194.812,213
194.837,227
194.862,243
194.887,256
194.912,263
194.937,261
194.962,253
194.987,250
195.012,270
195.037,321
195.062,393
195.087,466
195.112,522
195.137,563
195.162,602
195.187,648
195.212,691
195.237,712
195.262,703
195.287,671
195.312,629
195.337,574
195.362,489
195.387,362
195.412,205
195.437,55
195.462,-55
195.487,-115
195.512,-135
195.537,-132
195.562,-119
195.587,-102
195.612,-89
195.637,-86
195.662,-89
195.687,-90
195.712,-76
195.737,-50
195.762,-20
195.787,4
195.812,23
195.837,42
195.862,63
195.887,85
195.912,106
195.937,126
195.962,150
195.987,175
196.012,194
196.037,200
196.062,197
196.087,196
196.112,204
196.137,217
196.162,224
196.187,217
196.212,199
196.237,175
196.262,147
196.287,110
196.312,68
196.337,30
196.362,12
196.387,22
196.412,55
196.437,96
196.462,131
196.487,157
196.512,175
196.537,188
196.562,195
196.587,196
196.612,192
196.637,192
196.662,201
196.687,216
196.712,231
196.737,238
196.762,236
196.787,229
196.812,222
196.837,217
196.862,214
196.887,209
196.912,203
196.937,196
196.962,188
196.987,175
197.012,156
197.037,130
197.062,105
197.087,87
197.112,86
197.137,104
197.162,135
197.187,172
197.212,208
197.237,236
197.262,256
197.287,267
197.312,272
197.337,271
197.362,268
197.387,265
197.412,263
197.437,264
197.462,266
197.487,265
197.512,260
197.537,251
197.562,241
197.587,236
197.612,234
197.637,233
197.662,225
197.687,207
197.712,179
197.737,146
197.762,110
197.787,72
197.812,37
197.837,15
197.862,15
197.887,40
197.912,78
197.937,117
197.962,146
197.987,167
198.012,185
198.037,204
198.062,220
198.087,226
198.112,223
198.137,219
198.162,222
198.187,232
198.212,244
198.237,249
198.262,248
198.287,242
198.312,236
198.337,230
198.362,220
198.387,206
198.412,191
198.437,177
198.462,163
198.487,146
198.512,126
198.537,108
198.562,100
198.587,106
198.612,125
198.637,149
198.662,167
198.687,176
198.712,178
198.737,180
198.762,182
198.787,183
198.812,179
198.837,175
198.862,180
198.887,202
198.912,234
198.937,260
198.962,268
198.987,254
199.012,230
199.037,207
199.062,189
199.087,171
199.112,149
199.137,127
199.162,110
199.187,99
199.212,86
199.237,65
199.262,42
199.287,29
199.312,37
199.337,66
199.362,102
199.387,131
199.412,150
199.437,164
199.462,177
199.487,189
199.512,195
199.537,196
199.562,197
199.587,201
199.612,209
199.637,214
199.662,213
199.687,209
199.712,204
199.737,199
199.762,191
199.787,181
199.812,170
199.837,160
199.862,152
199.887,146
199.912,140
199.937,136
199.962,134
199.987,128
200.012,116
200.037,103
200.062,102
200.087,123
200.112,164
200.137,213
200.162,255
200.187,287
200.212,315
200.237,345
200.262,375
200.287,398
200.312,412
200.337,424
200.362,436
200.387,448
200.412,452
200.437,446
200.462,436
200.487,426
200.512,411
200.537,375
200.562,310
200.587,222
200.612,132
200.637,57
200.662,0
200.687,-50
200.712,-102
200.737,-151
200.762,-189
200.787,-211
200.812,-219
200.837,-222
200.862,-218
200.887,-199
200.912,-159
200.937,-99
200.962,-33
200.987,28
201.012,78
201.037,122
201.062,164
201.087,205
201.112,244
201.137,274
201.162,297
201.187,316
201.212,332
201.237,346
201.262,356
201.287,359
201.312,358
201.337,351
201.362,339
201.387,320
201.412,295
201.437,268
201.462,247
201.487,232
201.512,220
201.537,204
201.562,184
201.587,162
201.612,144
201.637,128
201.662,112
201.687,95
201.712,83
201.737,86
201.762,107
201.787,140
201.812,174
201.837,205
201.862,233
201.887,263
201.912,290
201.937,303
201.962,299
201.987,286
202.012,276
202.037,279
202.062,287
202.087,291
202.112,285
202.137,272
202.162,259
202.187,249
202.212,235
202.237,213
202.262,186
202.287,164
202.312,149
202.337,139
202.362,125
202.387,107
202.412,88
202.437,72
202.462,57
202.487,36
202.512,11
202.537,-6
202.562,-4
202.587,22
202.612,66
202.637,112
202.662,148
202.687,173
202.712,193
202.737,209
202.762,224
202.787,232
202.812,235
202.837,237
202.862,241
202.887,248
202.912,254
202.937,255
202.962,250
202.987,243
203.012,238
203.037,232
203.062,221
203.087,201
203.112,174
203.137,146
203.162,122
203.187,104
203.212,88
203.237,72
203.262,57
203.287,41
203.312,24
203.337,8
203.362,-5
203.387,-7
203.412,9
203.437,43
203.462,86
203.487,125
203.512,153
203.537,172
203.562,191
203.587,218
203.612,253
203.637,288
203.662,316
203.687,332
203.712,340
203.737,347
203.762,354
203.787,359
203.812,360
203.837,354
203.862,346
203.887,339
203.912,331
203.937,320
203.962,304
203.987,285
204.012,268
204.037,255
204.062,240
204.087,220
204.112,192
204.137,158
204.162,119
204.187,74
204.212,25
204.237,-18
204.262,-44
204.287,-44
204.312,-22
204.337,6
204.362,33
204.387,57
204.412,86
204.437,125
204.462,166
204.487,197
204.512,213
204.537,216
204.562,215
204.587,216
204.612,219
204.637,223
204.662,225
204.687,227
204.712,230
204.737,232
204.762,234
204.787,235
204.812,236
204.837,236
204.862,231
204.887,222
204.912,211
204.937,202
204.962,197
204.987,192
205.012,181
205.037,165
205.062,152
205.087,152
205.112,172
205.137,206
205.162,241
205.187,266
205.212,279
205.237,285
205.262,290
205.287,292
205.312,287
205.337,270
205.362,241
205.387,204
205.412,164
205.437,126
205.462,91
205.487,61
205.512,36
205.537,16
205.562,0
205.587,-12
205.612,-24
205.637,-33
205.662,-40
205.687,-44
205.712,-43
205.737,-37
205.762,-24
205.787,-2
205.812,29
205.837,68
205.862,111
205.887,152
205.912,192
205.937,237
205.962,297
205.987,372
206.012,449
206.037,509
206.062,535
206.087,532
206.112,519
206.137,517
206.162,530
206.187,547
206.212,551
206.237,534
206.262,497
206.287,451
206.312,403
206.337,354
206.362,304
206.387,249
206.412,189
206.437,126
206.462,63
206.487,5
206.512,-41
206.537,-72
206.562,-82
206.587,-73
206.612,-51
206.637,-25
206.662,-5
206.687,8
206.712,21
206.737,42
206.762,71
206.787,105
206.812,134
206.837,155
206.862,167
206.887,172
206.912,169
206.937,158
206.962,141
206.987,126
207.012,115
207.037,104
207.062,90
207.087,73
207.112,58
207.137,50
207.162,43
207.187,30
207.212,16
207.237,16
207.262,49
207.287,116
207.312,196
207.337,262
207.362,300
207.387,315
207.412,321
207.437,324
207.462,323
207.487,314
207.512,300
207.537,288
207.562,280
207.587,275
207.612,267
207.637,252
207.662,233
207.687,214
207.712,198
207.737,186
207.762,177
207.787,167
207.812,155
207.837,142
207.862,130
207.887,124
207.912,121
207.937,117
207.962,107
207.987,98
208.012,101
208.037,122
208.062,153
208.087,182
208.112,196
208.137,201
208.162,206
208.187,219
208.212,238
208.237,254
208.262,262
208.287,267
208.312,273
208.337,282
208.362,293
208.387,300
208.412,302
208.437,299
208.462,291
208.487,276
208.512,258
208.537,243
208.562,236
208.587,234
208.612,231
208.637,222
208.662,207
208.687,193
208.712,184
208.737,178
208.762,169
208.787,156
208.812,139
208.837,123
208.862,116
208.887,118
208.912,129
208.937,144
208.962,155
208.987,159
209.012,157
209.037,155
209.062,157
209.087,161
209.112,163
209.137,161
209.162,156
209.187,158
209.212,168
209.237,183
209.262,196
209.287,200
209.312,198
209.337,195
209.362,197
209.387,203
209.412,208
209.437,208
209.462,203
209.487,193
209.512,182
209.537,173
209.562,168
209.587,162
209.612,152
209.637,133
209.662,111
209.687,97
209.712,103
209.737,127
209.762,160
209.787,185
209.812,198
209.837,202
209.862,206
209.887,213
209.912,219
209.937,219
209.962,216
209.987,217
210.012,226
210.037,239
210.062,249
210.087,252
210.112,250
210.137,247
210.162,245
210.187,240
210.212,229
210.237,214
210.262,198
210.287,181
210.312,161
210.337,139
210.362,117
210.387,99
210.412,81
210.437,60
210.462,33
210.487,7
210.512,-3
210.537,10
210.562,44
210.587,83
210.612,115
210.637,140
210.662,164
210.687,191
210.712,219
210.737,242
210.762,256
210.787,266
210.812,275
210.837,285
210.862,295
210.887,305
210.912,315
210.937,323
210.962,325
210.987,319
211.012,305
211.037,286
211.062,268
211.087,252
211.112,236
211.137,217
211.162,196
211.187,176
211.212,158
211.237,141
211.262,122
211.287,97
211.312,67
211.337,38
211.362,18
211.387,17
211.412,38
211.437,74
211.462,114
211.487,145
211.512,167
211.537,183
211.562,202
211.587,224
211.612,244
211.637,257
211.662,265
211.687,271
211.712,279
211.737,288
211.762,296
211.787,298
211.812,294
211.837,287
211.862,278
211.887,270
211.912,262
211.937,253
211.962,241
211.987,229
212.012,216
212.037,204
212.062,191
212.087,178
212.112,161
212.137,138
212.162,108
212.187,75
212.212,50
212.237,46
212.262,66
212.287,101
212.312,135
212.337,156
212.362,168
212.387,178
212.412,193
212.437,210
212.462,220
212.487,219
212.512,213
212.537,210
212.562,215
212.587,224
212.612,230
212.637,230
212.662,225
212.687,218
212.712,208
212.737,198
212.762,187
212.787,176
212.812,163
212.837,148
212.862,128
212.887,107
212.912,90
212.937,81
212.962,80
212.987,81
213.012,77
213.037,67
213.062,55
213.087,51
213.112,64
213.137,99
213.162,147
213.187,196
213.212,234
213.237,258
213.262,274
213.287,288
213.312,303
213.337,316
213.362,323
213.387,325
213.412,324
213.437,321
213.462,318
213.487,310
213.512,297
213.537,280
213.562,260
213.587,239
213.612,218
213.637,198
213.662,181
213.687,165
213.712,149
213.737,132
213.762,116
213.787,100
213.812,83
213.837,64
213.862,51
213.887,51
213.912,72
213.937,110
213.962,153
213.987,189
214.012,214
214.037,232
214.062,249
214.087,264
214.112,274
214.137,277
214.162,275
214.187,273
214.212,273
214.237,270
214.262,263
214.287,251
214.312,236
214.337,220
214.362,202
214.387,180
214.412,156
214.437,131
214.462,106
214.487,79
214.512,47
214.537,15
214.562,-11
214.587,-29
214.612,-45
214.637,-64
214.662,-87
214.687,-103
214.712,-95
214.737,-55
214.762,11
214.787,90
214.812,167
214.837,233
214.862,284
214.887,321
214.912,344
214.937,358
214.962,363
214.987,363
215.012,362
215.037,362
215.062,369
215.087,382
215.112,398
215.137,406
215.162,401
215.187,384
215.212,363
215.237,344
215.262,327
215.287,308
215.312,284
215.337,258
215.362,232
215.387,205
215.412,177
215.437,150
215.462,127
215.487,108
215.512,90
215.537,67
215.562,44
215.587,33
215.612,44
215.637,73
215.662,106
215.687,129
215.712,139
215.737,147
215.762,161
215.787,178
215.812,190
215.837,194
215.862,193
215.887,195
215.912,204
215.937,214
215.962,221
215.987,221
216.012,217
216.037,212
216.062,205
216.087,197
216.112,190
216.137,182
216.162,175
216.187,165
216.212,153
216.237,142
216.262,135
216.287,130
216.312,120
216.337,102
216.362,81
216.387,69
216.412,76
216.437,102
216.462,136
216.487,164
216.512,180
216.537,190
216.562,199
216.587,211
216.612,221
216.637,224
216.662,222
216.687,221
216.712,226
216.737,235
216.762,243
216.787,244
216.812,239
216.837,234
216.862,230
216.887,226
216.912,220
216.937,211
216.962,200
216.987,189
217.012,179
217.037,168
217.062,156
217.087,143
217.112,128
217.137,112
217.162,96
217.187,88
217.212,93
217.237,113
217.262,143
217.287,173
217.312,195
217.337,211
217.362,224
217.387,236
217.412,246
217.437,252
217.462,254
217.487,254
217.512,255
217.537,258
217.562,259
217.587,257
217.612,252
217.637,246
217.662,239
217.687,232
217.712,223
217.737,213
217.762,201
217.787,190
217.812,179
217.837,169
217.862,158
217.887,145
217.912,132
217.937,121
217.962,108
217.987,92
218.012,75
218.037,62
218.062,64
218.087,85
218.112,119
218.137,155
218.162,180
218.187,195
218.212,205
218.237,218
218.262,232
218.287,242
218.312,246
218.337,244
218.362,241
218.387,241
218.412,242
218.437,242
218.462,238
218.487,231
218.512,225
218.537,218
218.562,210
218.587,199
218.612,188
218.637,180
218.662,177
218.687,177
218.712,176
218.737,173
218.762,167
218.787,158
218.812,148
218.837,135
218.862,116
218.887,96
218.912,82
218.937,82
218.962,99
218.987,129
219.012,159
219.037,182
219.062,196
219.087,207
219.112,223
219.137,243
219.162,261
219.187,273
219.212,277
219.237,278
219.262,281
219.287,288
219.312,293
219.337,294
219.362,288
219.387,278
219.412,268
219.437,258
219.462,249
219.487,240
219.512,230
219.537,217
219.562,201
219.587,184
219.612,167
219.637,153
219.662,140
219.687,124
219.712,102
219.737,77
219.762,59
219.787,56
219.812,71
219.837,99
219.862,128
219.887,149
219.912,160
219.937,165
219.962,171
219.987,179
220.012,188
220.037,196
220.062,203
220.087,212
220.112,223
220.137,235
220.162,242
220.187,241
220.212,233
220.237,224
220.262,215
220.287,206
220.312,194
220.337,179
220.362,161
220.387,144
220.412,128
220.437,112
220.462,94
220.487,75
220.512,56
220.537,35
220.562,15
220.587,0
220.612,3
220.637,29
220.662,76
220.687,130
220.712,176
220.737,204
220.762,220
220.787,231
220.812,241
220.837,249
220.862,251
220.887,252
220.912,255
220.937,264
220.962,278
220.987,292
221.012,300
221.037,302
221.062,300
221.087,295
221.112,290
221.137,288
221.162,293
221.187,302
221.212,310
221.237,308
221.262,293
221.287,268
221.312,241
221.337,216
221.362,192
221.387,164
221.412,129
221.437,94
221.462,65
221.487,52
221.512,55
221.537,71
221.562,92
221.587,111
221.612,124
221.637,131
221.662,134
221.687,136
221.712,136
221.737,135
221.762,137
221.787,143
221.812,152
221.837,162
221.862,169
221.887,171
221.912,171
221.937,172
221.962,176
221.987,182
222.012,191
222.037,200
222.062,209
222.087,218
222.112,227
222.137,234
222.162,236
222.187,229
222.212,211
222.237,183
222.262,155
222.287,139
222.312,146
222.337,173
222.362,208
222.387,239
222.412,260
222.437,273
222.462,285
222.487,295
222.512,298
222.537,293
222.562,283
222.587,274
222.612,269
222.637,265
222.662,258
222.687,246
222.712,236
222.737,228
222.762,222
222.787,210
222.812,191
222.837,168
222.862,147
222.887,130
222.912,115
222.937,99
222.962,82
222.987,66
223.012,53
223.037,39
223.062,22
223.087,4
223.112,-8
223.137,-5
223.162,15
223.187,49
223.212,85
223.237,116
223.262,139
223.287,156
223.312,173
223.337,188
223.362,201
223.387,212
223.412,223
223.437,237
223.462,254
223.487,272
223.512,282
223.537,282
223.562,271
223.587,256
223.612,243
223.637,235
223.662,228
223.687,223
223.712,216
223.737,206
223.762,192
223.787,173
223.812,155
223.837,141
223.862,134
223.887,129
223.912,116
223.937,93
223.962,71
223.987,64
224.012,79
224.037,109
224.062,141
224.087,163
224.112,177
224.137,189
224.162,203
224.187,216
224.212,224
224.237,227
224.262,231
224.287,237
224.312,246
224.337,251
224.362,252
224.387,252
224.412,252
224.437,250
224.462,244
224.487,235
224.512,228
224.537,225
224.562,222
224.587,216
224.612,206
224.637,196
224.662,190
224.687,186
224.712,179
224.737,166
224.762,153
224.787,151
224.812,164
224.837,189
224.862,218
224.887,241
224.912,258
224.937,270
224.962,280
224.987,287
225.012,288
225.037,281
225.062,265
225.087,247
225.112,231
225.137,222
225.162,215
225.187,204
225.212,185
225.237,160
225.262,134
225.287,113
225.312,96
225.337,80
225.362,65
225.387,53
225.412,45
225.437,43
225.462,43
225.487,42
225.512,37
225.537,30
225.562,19
225.587,7
225.612,1
225.637,10
225.662,40
225.687,85
225.712,133
225.737,171
225.762,198
225.787,219
225.812,238
225.837,257
225.862,273
225.887,282
225.912,287
225.937,293
225.962,301
225.987,312
226.012,320
226.037,323
226.062,320
226.087,313
226.112,303
226.137,293
226.162,281
226.187,270
226.212,258
226.237,248
226.262,239
226.287,229
226.312,216
226.337,199
226.362,182
226.387,166
226.412,150
226.437,131
226.462,109
226.487,90
226.512,85
226.537,98
226.562,124
226.587,149
226.612,165
226.637,172
226.662,177
226.687,185
226.712,194
226.737,198
226.762,195
226.787,190
226.812,189
226.837,194
226.862,200
226.887,202
226.912,198
226.937,191
226.962,181
226.987,168
227.012,152
227.037,134
227.062,116
227.087,100
227.112,85
227.137,70
227.162,55
227.187,41
227.212,28
227.237,15
227.262,10
227.287,20
227.312,51
227.337,100
227.362,152
227.387,194
227.412,220
227.437,237
227.462,251
227.487,266
227.512,280
227.537,291
227.562,302
227.587,317
227.612,335
227.637,352
227.662,359
227.687,356
227.712,346
227.737,333
227.762,322
227.787,311
227.812,298
227.837,282
227.862,262
227.887,237
227.912,209
227.937,181
227.962,156
227.987,134
228.012,112
228.037,83
228.062,52
228.087,28
228.112,24
228.137,44
228.162,80
228.187,117
228.212,146
228.237,165
228.262,180
228.287,196
228.312,213
228.337,226
228.362,234
228.387,236
228.412,236
228.437,237
228.462,240
228.487,242
228.512,240
228.537,233
228.562,225
228.587,216
228.612,209
228.637,201
228.662,190
228.687,177
228.712,164
228.737,152
228.762,142
228.787,131
228.812,116
228.837,97
228.862,72
228.887,49
228.912,33
228.937,34
228.962,54
228.987,86
229.012,120
229.037,148
229.062,168
229.087,186
229.112,203
229.137,219
229.162,231
229.187,237
229.212,242
229.237,251
229.262,263
229.287,274
229.312,278
229.337,276
229.362,271
229.387,263
229.412,253
229.437,242
229.462,233
229.487,225
229.512,215
229.537,201
229.562,184
229.587,167
229.612,157
229.637,149
229.662,137
229.687,118
229.712,103
229.737,104
229.762,128
229.787,165
229.812,200
229.837,221
229.862,231
229.887,239
229.912,250
229.937,260
229.962,265
229.987,265
230.012,264
230.037,268
230.062,277
230.087,287
230.112,291
230.137,286
230.162,272
230.187,254
230.212,235
230.237,218
230.262,202
230.287,184
230.312,165
230.337,144
230.362,122
230.387,100
230.412,76
230.437,51
230.462,31
230.487,23
230.512,30
230.537,47
230.562,64
230.587,78
230.612,87
230.637,94
230.662,99
230.687,98
230.712,87
230.737,70
230.762,52
230.787,40
230.812,33
230.837,30
230.862,26
230.887,22
230.912,19
230.937,20
230.962,27
230.987,45
231.012,78
231.037,123
231.062,172
231.087,216
231.112,252
231.137,277
231.162,294
231.187,300
231.212,293
231.237,273
231.262,248
231.287,228
231.312,222
231.337,232
231.362,253
231.387,278
231.412,303
231.437,329
231.462,355
231.487,381
231.512,405
231.537,427
231.562,445
231.587,461
231.612,472
231.637,477
231.662,473
231.687,464
231.712,451
231.737,439
231.762,425
231.787,406
231.812,379
231.837,346
231.862,309
231.887,272
231.912,237
231.937,203
231.962,168
231.987,133
232.012,98
232.037,62
232.062,28
232.087,0
232.112,-17
232.137,-22
232.162,-14
232.187,1
232.212,16
232.237,27
232.262,35
232.287,41
232.312,47
232.337,53
232.362,55
232.387,56
232.412,59
232.437,69
232.462,88
232.487,113
232.512,142
232.537,172
232.562,204
232.587,237
232.612,269
232.637,301
232.662,337
232.687,378
232.712,418
232.737,447
232.762,459
232.787,454
232.812,441
232.837,423
232.862,396
232.887,353
232.912,297
232.937,238
232.962,189
232.987,154
233.012,129
233.037,107
233.062,85
233.087,63
233.112,43
233.137,25
233.162,11
233.187,1
233.212,-9
233.237,-29
233.262,-62
233.287,-103
233.312,-134
233.337,-144
233.362,-137
233.387,-136
233.412,-159
233.437,-205
233.462,-257
233.487,-303
233.512,-346
233.537,-396
233.562,-449
233.587,-483
233.612,-469
233.637,-400
233.662,-298
233.687,-198
233.712,-127
233.737,-88
233.762,-64
233.787,-36
233.812,10
233.837,79
233.862,169
233.887,279
233.912,403
233.937,530
233.962,647
233.987,745
234.012,824
234.037,891
234.062,950
234.087,999
234.112,1027
234.137,1024
234.162,995
234.187,953
234.212,909
234.237,869
234.262,834
234.287,804
234.312,783
234.337,768
234.362,745
234.387,696
234.412,620
234.437,533
234.462,455
234.487,392
234.512,333
234.537,262
234.562,181
234.587,101
234.612,29
234.637,-38
234.662,-113
234.687,-193
234.712,-262
234.737,-302
234.762,-310
234.787,-297
234.812,-276
234.837,-252
234.862,-228
234.887,-204
234.912,-185
234.937,-168
234.962,-140
234.987,-91
235.012,-26
235.037,37
235.062,83
235.087,108
235.112,123
235.137,139
235.162,159
235.187,179
235.212,198
235.237,214
235.262,224
235.287,221
235.312,196
235.337,151
235.362,96
235.387,47
235.412,19
235.437,18
235.462,44
235.487,88
235.512,130
235.537,152
235.562,145
235.587,118
235.612,90
235.637,76
235.662,76
235.687,81
235.712,87
235.737,93
235.762,106
235.787,122
235.812,136
235.837,145
235.862,152
235.887,163
235.912,180
235.937,198
235.962,209
235.987,211
236.012,211
236.037,211
236.062,214
236.087,215
236.112,212
236.137,211
236.162,219
236.187,241
236.212,274
236.237,308
236.262,332
236.287,342
236.312,340
236.337,332
236.362,321
236.387,307
236.412,292
236.437,277
236.462,268
236.487,265
236.512,268
236.537,274
236.562,280
236.587,282
236.612,273
236.637,247
236.662,204
236.687,155
236.712,114
236.737,91
236.762,80
236.787,68
236.812,45
236.837,19
236.862,5
236.887,11
236.912,36
236.937,67
236.962,97
236.987,124
237.012,150
237.037,175
237.062,193
237.087,200
237.112,198
237.137,190
237.162,183
237.187,180
237.212,181
237.237,182
237.262,175
237.287,159
237.312,136
237.337,118
237.362,116
237.387,128
237.412,138
237.437,129
237.462,99
237.487,64
237.512,51
237.537,74
237.562,121
237.587,170
237.612,201
237.637,214
237.662,221
237.687,233
237.712,249
237.737,260
237.762,265
237.787,267
237.812,272
237.837,280
237.862,281
237.887,269
237.912,244
237.937,216
237.962,192
237.987,172
238.012,153
238.037,131
238.062,111
238.087,104
238.112,116
238.137,147
238.162,188
238.187,227
238.212,252
238.237,255
238.262,240
238.287,217
238.312,195
238.337,180
238.362,167
238.387,151
238.412,132
238.437,120
238.462,122
238.487,137
238.512,156
238.537,168
238.562,167
238.587,152
238.612,126
238.637,92
238.662,60
238.687,42
238.712,50
238.737,82
238.762,124
238.787,162
238.812,187
238.837,199
238.862,205
238.887,210
238.912,212
238.937,207
238.962,193
238.987,174
239.012,153
239.037,138
239.062,132
239.087,134
239.112,141
239.137,149
239.162,154
239.187,152
239.212,143
239.237,128
239.262,116
239.287,119
239.312,142
239.337,180
239.362,219
239.387,246
239.412,260
239.437,270
239.462,284
239.487,300
239.512,310
239.537,305
239.562,290
239.587,278
239.612,276
239.637,278
239.662,264
239.687,217
239.712,138
239.737,51
239.762,-8
239.787,-15
239.812,24
239.837,79
239.862,114
239.887,114
239.912,93
239.937,77
239.962,83
239.987,107
240.012,135
240.037,157
240.062,172
240.087,188
240.112,204
240.137,217
240.162,223
240.187,220
240.212,212
240.237,204
240.262,201
240.287,202
240.312,203
240.337,196
240.362,178
240.387,153
240.412,127
240.437,103
240.462,80
240.487,58
240.512,44
240.537,51
240.562,86
240.587,139
240.612,189
240.637,217
240.662,226
240.687,230
240.712,246
240.737,275
240.762,304
240.787,319
240.812,315
240.837,299
240.862,284
240.887,277
240.912,279
240.937,285
240.962,289
240.987,286
241.012,274
241.037,252
241.062,218
241.087,168
241.112,102
241.137,31
241.162,-29
241.187,-66
241.212,-79
241.237,-78
241.262,-71
241.287,-57
241.312,-31
241.337,9
241.362,60
241.387,119
241.412,183
241.437,250
241.462,310
241.487,349
241.512,359
241.537,350
241.562,345
241.587,357
241.612,373
241.637,366
241.662,320
241.687,245
241.712,168
241.737,110
241.762,73
241.787,47
241.812,30
241.837,29
241.862,50
241.887,86
241.912,118
241.937,130
241.962,127
241.987,124
242.012,134
242.037,156
242.062,176
242.087,174
242.112,139
242.137,76
242.162,8
242.187,-33
242.212,-37
242.237,-22
242.262,-29
242.287,-93
242.312,-209
242.337,-330
242.362,-401
242.387,-394
242.412,-316
242.437,-192
242.462,-46
242.487,102
242.512,232
242.537,322
242.562,366
242.587,385
242.612,409
242.637,451
242.662,499
242.687,531
242.712,541
242.737,541
242.762,540
242.787,540
242.812,536
242.837,534
242.862,547
242.887,579
242.912,623
242.937,673
242.962,738
242.987,837
243.012,968
243.037,1097
243.062,1190
243.087,1253
243.112,1328
243.137,1431
243.162,1501
243.187,1409
243.212,1048
243.237,433
243.262,-292
243.287,-944
243.312,-1398
243.337,-1637
243.362,-1713
243.387,-1669
243.412,-1520
243.437,-1278
243.462,-990
243.487,-735
243.512,-571
243.537,-489
243.562,-421
243.587,-299
243.612,-115
243.637,75
243.662,204
243.687,245
243.712,233
243.737,221
243.762,239
243.787,285
243.812,339
243.837,393
243.862,446
243.887,490
243.912,507
243.937,489
243.962,446
243.987,402
244.012,373
244.037,360
244.062,355
244.087,362
244.112,386
244.137,420
244.162,437
244.187,410
244.212,338
244.237,250
244.262,183
244.287,159
244.312,174
244.337,209
244.362,243
244.387,259
244.412,245
244.437,204
244.462,150
244.487,110
244.512,97
244.537,109
244.562,133
244.587,159
244.612,186
244.637,213
244.662,232
244.687,235
244.712,233
244.737,247
244.762,292
244.787,359
244.812,417
244.837,439
244.862,429
244.887,410
244.912,405
244.937,419
244.962,439
244.987,450
245.012,445
245.037,427
245.062,399
245.087,364
245.112,324
245.137,280
245.162,235
245.187,196
245.212,165
245.237,144
245.262,124
245.287,94
245.312,44
245.337,-21
245.362,-83
245.387,-123
245.412,-132
245.437,-118
245.462,-102
245.487,-101
245.512,-121
245.537,-155
245.562,-195
245.587,-235
245.612,-272
245.637,-308
245.662,-343
245.687,-376
245.712,-401
245.737,-416
245.762,-418
245.787,-404
245.812,-370
245.837,-312
245.862,-228
245.887,-123
245.912,-6
245.937,110
245.962,221
245.987,327
246.012,427
246.037,519
246.062,598
246.087,657
246.112,697
246.137,725
246.162,747
246.187,765
246.212,772
246.237,764
246.262,738
246.287,706
246.312,678
246.337,658
246.362,640
246.387,613
246.412,578
246.437,547
246.462,531
246.487,527
246.512,512
246.537,465
246.562,388
246.587,300
246.612,224
246.637,166
246.662,114
246.687,54
246.712,-14
246.737,-81
246.762,-133
246.787,-171
246.812,-199
246.837,-216
246.862,-211
246.887,-174
246.912,-113
246.937,-50
246.962,-17
246.987,-22
247.012,-51
247.037,-72
247.062,-61
247.087,-17
247.112,39
247.137,89
247.162,125
247.187,155
247.212,187
247.237,219
247.262,240
247.287,245
247.312,240
247.337,234
247.362,235
247.387,238
247.412,235
247.437,225
247.462,209
247.487,194
247.512,177
247.537,158
247.562,134
247.587,106
247.612,76
247.637,45
247.662,19
247.687,7
247.712,20
247.737,59
247.762,113
247.787,167
247.812,208
247.837,238
247.862,259
247.887,273
247.912,276
247.937,267
247.962,253
247.987,243
248.012,243
248.037,247
248.062,248
248.087,242
248.112,229
248.137,212
248.162,190
248.187,165
248.212,140
248.237,118
248.262,97
248.287,75
248.312,50
248.337,30
248.362,24
248.387,38
248.412,69
248.437,105
248.462,137
248.487,163
248.512,184
248.537,200
248.562,211
248.587,215
248.612,216
248.637,217
248.662,218
248.687,219
248.712,220
248.737,223
248.762,230
248.787,240
248.812,243
248.837,236
248.862,219
248.887,201
248.912,187
248.937,175
248.962,161
248.987,142
249.012,120
249.037,102
249.062,92
249.087,96
249.112,115
249.137,149
249.162,192
249.187,237
249.212,275
249.237,304
249.262,321
249.287,329
249.312,327
249.337,315
249.362,292
249.387,263
249.412,231
249.437,201
249.462,173
249.487,147
249.512,123
249.537,100
249.562,80
249.587,62
249.612,44
249.637,28
249.662,12
249.687,-2
249.712,-13
249.737,-17
249.762,-6
249.787,19
249.812,55
249.837,92
249.862,125
249.887,151
249.912,172
249.937,186
249.962,192
249.987,192
250.012,194
250.037,203
250.062,220
250.087,237
250.112,246
250.137,244
250.162,234
250.187,224
250.212,216
250.237,207
250.262,192
250.287,172
250.312,153
250.337,139
250.362,133
250.387,125
250.412,108
250.437,82
250.462,61
250.487,59
250.512,81
250.537,115
250.562,142
250.587,154
250.612,160
250.637,172
250.662,192
250.687,211
250.712,217
250.737,212
250.762,210
250.787,215
250.812,220
250.837,210
250.862,180
250.887,141
250.912,109
250.937,92
250.962,82
250.987,67
251.012,45
251.037,22
251.062,2
251.087,-16
251.112,-36
251.137,-55
251.162,-64
251.187,-55
251.212,-29
251.237,3
251.262,35
251.287,66
251.312,99
251.337,134
251.362,168
251.387,195
251.412,216
251.437,238
251.462,268
251.487,306
251.512,344
251.537,374
251.562,392
251.587,405
251.612,423
251.637,452
251.662,488
251.687,526
251.712,559
251.737,585
251.762,604
251.787,613
251.812,612
251.837,602
251.862,592
251.887,587
251.912,585
251.937,585
251.962,584
251.987,577
252.012,553
252.037,493
252.062,379
252.087,213
252.112,26
252.137,-137
252.162,-248
252.187,-301
252.212,-317
252.237,-318
252.262,-313
252.287,-299
252.312,-275
252.337,-244
252.362,-212
252.387,-183
252.412,-160
252.437,-139
252.462,-120
252.487,-99
252.512,-74
252.537,-49
252.562,-29
252.587,-13
252.612,5
252.637,37
252.662,86
252.687,142
252.712,186
252.737,209
252.762,216
252.787,218
252.812,222
252.837,224
252.862,219
252.887,202
252.912,179
252.937,156
252.962,142
252.987,147
253.012,173
253.037,211
253.062,243
253.087,258
253.112,256
253.137,249
253.162,243
253.187,235
253.212,215
253.237,180
253.262,126
253.287,57
253.312,-11
253.337,-34
253.362,38
253.387,217
253.412,442
253.437,613
253.462,679
253.487,671
253.512,667
253.537,693
253.562,707
253.587,657
253.612,559
253.637,478
253.662,455
253.687,449
253.712,395
253.737,285
253.762,172
253.787,95
253.812,22
253.837,-96
253.862,-251
253.887,-368
253.912,-412
253.937,-440
253.962,-533
253.987,-686
254.012,-796
254.037,-797
254.062,-750
254.087,-768
254.112,-868
254.137,-942
254.162,-912
254.187,-846
254.212,-874
254.237,-1005
254.262,-1090
254.287,-1026
254.312,-914
254.337,-938
254.362,-1083
254.387,-1091
254.412,-822
254.437,-598
254.462,-1030
254.487,-2355
254.512,-3968
254.537,-4779
254.562,-4135
254.587,-2419
254.612,-707
254.637,190
254.662,317
254.687,297
254.712,596
254.737,1141
254.762,1598
254.787,1843
254.812,2067
254.837,2471
254.862,3004
254.887,3445
254.912,3696
254.937,3883
254.962,4202
254.987,4714
255.012,5342
255.037,5987
255.062,6589
255.087,7097
255.112,7479
255.137,7819
255.162,8322
255.187,9113
255.212,9994
255.237,10473
255.262,10135
255.287,8988
255.312,7419
255.337,5792
255.362,4141
255.387,2285
255.412,189
255.437,-1898
255.462,-3702
255.487,-5228
255.512,-6718
255.537,-8266
255.562,-9572
255.587,-10179
255.612,-9980
255.637,-9432
255.662,-9197
255.687,-9569
255.712,-10252
255.737,-10690
255.762,-10582
255.787,-10049
255.812,-9363
255.837,-8589
255.862,-7546
255.887,-6081
255.912,-4320
255.937,-2615
255.962,-1268
255.987,-318
256.012,404
256.037,1070
256.062,1709
256.087,2250
256.112,2648
256.137,2941
256.162,3190
256.187,3416
256.212,3588
256.237,3683
256.262,3715
256.287,3720
256.312,3708
256.337,3660
256.362,3556
256.387,3407
256.412,3242
256.437,3086
256.462,2936
256.487,2777
256.512,2609
256.537,2446
256.562,2300
256.587,2172
256.612,2054
256.637,1935
256.662,1808
256.687,1668
256.712,1512
256.737,1345
256.762,1179
256.787,1024
256.812,877
256.837,731
256.862,588
256.887,457
256.912,351
256.937,265
256.962,182
256.987,88
257.012,-15
257.037,-118
257.062,-211
257.087,-297
257.112,-378
257.137,-449
257.162,-491
257.187,-495
257.212,-471
257.237,-438
257.262,-412
257.287,-391
257.312,-367
257.337,-337
257.362,-304
257.387,-270
257.412,-230
257.437,-179
257.462,-119
257.487,-60
257.512,-18
257.537,3
257.562,15
257.587,30
257.612,50
257.637,66
257.662,69
257.687,63
257.712,61
257.737,78
257.762,114
257.787,159
257.812,197
257.837,226
257.862,248
257.887,271
257.912,295
257.937,314
257.962,329
257.987,342
258.012,362
258.037,386
258.062,404
258.087,404
258.112,383
258.137,349
258.162,312
258.187,273
258.212,231
258.237,183
258.262,137
258.287,104
258.312,91
258.337,92
258.362,99
258.387,104
258.412,106
258.437,107
258.462,108
258.487,106
258.512,101
258.537,95
258.562,91
258.587,91
258.612,93
258.637,92
258.662,85
258.687,74
258.712,61
258.737,49
258.762,36
258.787,20
258.812,2
258.837,-11
258.862,-13
258.887,4
258.912,40
258.937,84
258.962,125
258.987,157
259.012,181
259.037,203
259.062,224
259.087,242
259.112,256
259.137,269
259.162,283
259.187,298
259.212,308
259.237,309
259.262,305
259.287,304
259.312,311
259.337,325
259.362,334
259.387,329
259.412,312
259.437,296
259.462,291
259.487,300
259.512,314
259.537,327
259.562,339
259.587,355
259.612,376
259.637,395
259.662,403
259.687,397
259.712,381
259.737,363
259.762,341
259.787,310
259.812,267
259.837,216
259.862,168
259.887,128
259.912,95
259.937,62
259.962,21
259.987,-31
260.012,-96
260.037,-167
260.062,-228
260.087,-263
260.112,-261
260.137,-227
260.162,-180
260.187,-138
260.212,-111
260.237,-91
260.262,-70
260.287,-44
260.312,-19
260.337,-2
260.362,8
260.387,20
260.412,43
260.437,80
260.462,128
260.487,177
260.512,216
260.537,239
260.562,248
260.587,254
260.612,268
260.637,294
260.662,325
260.687,351
260.712,372
260.737,403
260.762,460
260.787,550
260.812,655
260.837,746
260.862,801
260.887,815
260.912,799
260.937,758
260.962,693
260.987,606
261.012,517
261.037,463
261.062,472
261.087,533
261.112,600
261.137,633
261.162,628
261.187,610
261.212,585
261.237,508
261.262,305
261.287,-52
261.312,-495
261.337,-881
261.362,-1094
261.387,-1126
261.412,-1073
261.437,-1054
261.462,-1114
261.487,-1198
261.512,-1204
261.537,-1068
261.562,-797
261.587,-457
261.612,-115
261.637,184
261.662,425
261.687,603
261.712,717
261.737,770
261.762,777
261.787,760
261.812,738
261.837,720
261.862,701
261.887,674
261.912,640
261.937,607
261.962,585
261.987,582
262.012,597
262.037,624
262.062,653
262.087,672
262.112,668
262.137,631
262.162,561
262.187,471
262.212,381
262.237,302
262.262,230
262.287,153
262.312,64
262.337,-25
262.362,-94
262.387,-128
262.412,-127
262.437,-104
262.462,-73
262.487,-39
262.512,-2
262.537,34
262.562,68
262.587,101
262.612,141
262.637,197
262.662,264
262.687,326
262.712,362
262.737,364
262.762,340
262.787,304
262.812,265
262.837,228
262.862,194
262.887,172
262.912,168
262.937,180
262.962,196
262.987,202
263.012,195
263.037,177
263.062,155
263.087,132
263.112,108
263.137,79
263.162,42
263.187,-6
263.212,-65
263.237,-125
263.262,-169
263.287,-187
263.312,-181
263.337,-165
263.362,-143
263.387,-104
263.412,-34
263.437,68
263.462,180
263.487,270
263.512,317
263.537,328
263.562,322
263.587,316
263.612,311
263.637,301
263.662,284
263.687,266
263.712,253
263.737,244
263.762,230
263.787,205
263.812,171
263.837,139
263.862,121
263.887,127
263.912,156
263.937,198
263.962,241
263.987,275
264.012,300
264.037,318
264.062,333
264.087,350
264.112,368
264.137,394
264.162,431
264.187,478
264.212,525
264.237,552
264.262,543
264.287,496
264.312,423
264.337,344
264.362,273
264.387,214
264.412,157
264.437,97
264.462,36
264.487,-14
264.512,-46
264.537,-58
264.562,-58
264.587,-56
264.612,-51
264.637,-40
264.662,-20
264.687,6
264.712,29
264.737,45
264.762,59
264.787,78
264.812,102
264.837,125
264.862,137
264.887,135
264.912,124
264.937,110
264.962,95
264.987,78
265.012,59
265.037,42
265.062,38
265.087,52
265.112,86
265.137,133
