df_hash,22ZHK4.VJETEC
device,HZ2X61
project_hash,29R7
project_name,istanbul_aydin_university
person_hash,29R7.A8GQ
person_label,V97
date_time_start,2025-11-04_18-40-06.966000_+03
date_time_start_unix,1762267206.966
date_time_end,2025-11-04_18-48-54.869000_+03
length_difference_noticed,no

time,ppg_ir,ppg_ambient,ppg_red
5.058,171985,514,250868
5.063,171967,513,250863
5.068,171973,514,250842
5.073,171960,519,250843
5.078,171969,506,250827
5.083,171952,504,250830
5.088,171949,506,250841
5.093,171951,518,250805
5.097,171955,518,250803
5.102,171947,516,250807
5.107,171930,516,250797
5.112,171921,513,250794
5.117,171933,510,250783
5.122,171914,511,250790
5.127,171936,512,250757
5.132,171929,511,250756
5.137,171913,512,250767
5.142,171919,510,250758
5.147,171915,510,250755
5.152,171918,510,250769
5.157,171907,512,250741
5.162,171909,511,250751
5.167,171909,502,250770
5.172,171910,499,250745
5.177,171909,502,250761
5.182,171918,501,250730
5.187,171918,500,250740
5.192,171918,500,250760
5.197,171919,501,250750
5.202,171924,498,250738
5.207,171905,500,250757
5.212,171909,500,250753
5.217,171933,505,250751
5.222,171923,504,250774
5.227,171939,506,250773
5.232,171936,504,250760
5.237,171958,503,250765
5.241,171955,503,250758
5.246,171978,503,250804
5.251,171975,502,250814
5.256,171981,503,250804
5.261,171991,504,250821
5.266,171982,497,250850
5.271,171998,496,250832
5.276,172014,495,250860
5.281,172010,495,250848
5.286,172014,495,250852
5.291,172009,491,250857
5.296,172015,506,250869
5.301,172018,504,250845
5.306,171998,503,250824
5.311,172019,503,250838
5.316,172009,500,250811
5.321,171992,500,250825
5.326,172011,498,250798
5.331,172004,496,250806
5.336,171995,497,250815
5.341,171992,495,250805
5.346,171996,495,250801
5.351,171993,493,250786
5.356,171963,493,250783
5.361,171985,496,250773
5.366,171981,496,250763
5.371,171988,494,250751
5.376,171993,496,250774
5.381,171965,495,250731
5.386,171966,495,250753
5.390,171957,493,250745
5.395,171969,495,250737
5.400,171952,495,250737
5.405,171962,496,250722
5.410,171982,499,250736
5.415,171975,501,250723
5.420,171974,499,250696
5.425,171959,488,250711
5.430,171976,485,250716
5.435,171969,486,250719
5.440,171963,487,250708
5.445,171968,487,250691
5.450,171966,486,250692
5.455,171971,488,250715
5.460,171985,493,250706
5.465,171971,493,250702
5.470,171976,492,250700
5.475,171985,494,250711
5.480,171984,494,250703
5.485,171974,496,250688
5.490,171991,497,250682
5.495,171987,498,250674
5.500,171964,496,250651
5.505,171951,497,250638
5.510,171964,487,250628
5.515,171924,489,250608
5.520,171927,488,250588
5.525,171915,489,250567
5.530,171896,489,250564
5.534,171891,489,250550
5.539,171864,490,250525
5.544,171855,490,250498
5.549,171840,488,250485
5.554,171816,491,250443
5.559,171801,488,250448
5.564,171795,488,250425
5.569,171779,488,250410
5.574,171761,490,250384
5.579,171746,490,250353
5.584,171731,493,250356
5.589,171727,492,250334
5.594,171704,495,250332
5.599,171711,481,250315
5.604,171650,486,250272
5.609,171692,489,250271
5.614,171704,490,250276
5.619,171674,490,250083
5.624,171658,410,250259
5.629,171665,417,250255
5.634,171673,421,250249
5.639,171661,425,250242
5.644,171660,427,250232
5.649,171628,429,250209
5.654,171637,422,250204
5.659,171630,424,250183
5.664,171630,426,250178
5.669,171619,427,250159
5.674,171605,426,250131
5.679,171618,428,250134
5.683,171590,430,250108
5.688,171575,433,250130
5.693,171581,435,250111
5.698,171563,437,250095
5.703,171553,444,250070
5.708,171559,444,250081
5.713,171555,444,250072
5.718,171538,447,250063
5.723,171537,446,250040
5.728,171548,532,250036
5.733,171546,524,250040
5.738,171528,521,250020
5.743,171548,517,250030
5.748,171528,515,249988
5.753,171524,505,250017
5.758,171532,503,250013
5.763,171535,501,249997
5.768,171517,499,249981
5.773,171529,498,249992
5.778,171530,497,249987
5.783,171520,497,249990
5.788,171523,495,249964
5.793,171533,494,249971
5.798,171535,497,249988
5.803,171519,491,249984
5.808,171510,491,249972
5.813,171509,489,249963
5.818,171509,489,249949
5.823,171530,488,249951
5.827,171519,486,249943
5.832,171518,484,249943
5.837,171503,484,249934
5.842,171503,482,249927
5.847,171514,481,249926
5.852,171512,486,249925
5.857,171511,487,249933
5.862,171505,485,249928
5.867,171508,485,249945
5.872,171513,484,249920
5.877,171502,483,249915
5.882,171514,482,249918
5.887,171502,481,249912
5.892,171491,479,249907
5.897,171507,486,249907
5.902,171502,484,249907
5.907,171506,484,249897
5.912,171493,482,249881
5.917,171507,484,249910
5.922,171501,482,249901
5.927,171508,483,249891
5.932,171513,483,249886
5.937,171502,486,249875
5.942,171502,485,249896
5.947,171514,467,249858
5.952,171497,482,249865
5.957,171486,485,249855
5.962,171485,483,249841
5.967,171476,484,249870
5.972,171496,485,249848
5.976,171491,483,249834
5.981,171481,483,249844
5.986,171486,483,249829
5.991,171490,483,249820
5.996,171485,476,249820
6.001,171485,475,249823
6.006,171500,477,249809
6.011,171491,476,249819
6.016,171494,476,249803
6.021,171477,477,249810
6.026,171482,478,249793
6.031,171486,479,249810
6.036,171484,479,249803
6.041,171470,480,249816
6.046,171487,472,249794
6.051,171489,469,249821
6.056,171509,470,249825
6.061,171495,471,249825
6.066,171488,472,249806
6.071,171505,471,249816
6.076,171517,472,249806
6.081,171514,470,249829
6.086,171529,472,249828
6.091,171518,470,249815
6.096,171523,477,249840
6.101,171522,474,249839
6.106,171520,473,249824
6.111,171527,472,249843
6.116,171541,472,249848
6.120,171554,471,249827
6.125,171538,471,249842
6.130,171537,469,249849
6.135,171560,470,249851
6.140,171536,472,249844
6.145,171558,474,249865
6.150,171559,471,249859
6.155,171560,472,249846
6.160,171561,470,249867
6.165,171560,469,249857
6.170,171564,466,249857
6.175,171573,466,249873
6.180,171570,466,249888
6.185,171594,466,249896
6.190,171592,470,249868
6.195,171602,469,249880
6.200,171585,469,249871
6.205,171584,469,249889
6.210,171589,467,249892
6.215,171617,468,249901
6.220,171618,468,249893
6.225,171630,470,249860
6.230,171613,468,249874
6.235,171611,469,249884
6.240,171610,457,249860
6.245,171597,467,249853
6.250,171587,466,249851
6.255,171596,466,249861
6.260,171590,467,249859
6.265,171583,467,249842
6.269,171582,467,249844
6.274,171560,469,249818
6.279,171564,467,249807
6.284,171547,468,249805
6.289,171543,474,249803
6.294,171527,474,249793
6.299,171523,474,249781
6.304,171510,475,249753
6.309,171497,473,249743
6.314,171483,472,249744
6.319,171474,471,249728
6.324,171471,471,249701
6.329,171453,470,249687
6.334,171445,472,249632
6.339,171434,475,249638
6.344,171402,475,249634
6.349,171397,475,249625
6.354,171384,474,249602
6.359,171375,473,249587
6.364,171365,472,249569
6.369,171340,471,249562
6.374,171339,471,249541
6.379,171345,471,249539
6.384,171364,473,249503
6.389,171302,460,249480
6.394,171283,474,249452
6.399,171281,473,249459
6.404,171268,470,249412
6.409,171241,469,249417
6.413,171225,467,249382
6.418,171225,466,249375
6.423,171216,468,249364
6.428,171212,468,249341
6.433,171209,459,249330
6.438,171186,459,249311
6.443,171174,473,249299
6.448,171183,473,249299
6.453,171165,471,249287
6.458,171167,469,249300
6.463,171182,468,249299
6.468,171168,467,249292
6.473,171175,466,249288
6.478,171160,466,249266
6.483,171186,471,249270
6.488,171182,470,249291
6.493,171182,469,249283
6.498,171181,469,249271
6.503,171187,468,249262
6.508,171162,468,249286
6.513,171171,466,249271
6.518,171176,465,249276
6.523,171168,464,249263
6.528,171170,460,249276
6.533,171176,470,249275
6.538,171177,471,249266
6.543,171171,471,249252
6.548,171175,458,249261
6.553,171163,459,249259
6.558,171176,459,249240
6.562,171173,459,249237
6.567,171158,459,249245
6.572,171181,458,249239
6.577,171166,460,249245
6.582,171169,463,249243
6.587,171162,463,249246
6.592,171174,461,249244
6.597,171167,462,249249
6.602,171178,460,249244
6.607,171174,459,249228
6.612,171173,457,249232
6.617,171170,457,249217
6.622,171166,372,249229
6.627,171162,406,249233
6.632,171156,391,249210
6.637,171164,394,249225
6.642,171181,397,249210
6.647,171168,401,249222
6.652,171174,403,249204
6.657,171164,408,249213
6.662,171174,409,249207
6.667,171179,409,249201
6.672,171179,409,249184
6.677,171178,421,249207
6.682,171160,408,249199
6.687,171169,411,249205
6.692,171172,411,249178
6.697,171166,411,249181
6.702,171162,412,249171
6.706,171160,414,249173
6.711,171174,414,249170
6.716,171162,415,249149
6.721,171140,415,249154
6.726,171131,512,249148
6.731,171151,499,249133
6.736,171147,493,249126
6.741,171142,488,249123
6.746,171156,485,249147
6.751,171138,480,249121
6.756,171140,481,249104
6.761,171132,477,249083
6.766,171126,476,249099
6.771,171140,475,249073
6.776,171137,480,249069
6.781,171130,477,249057
6.786,171110,476,249047
6.791,171126,473,249051
6.796,171116,473,249049
6.801,171106,471,249031
6.806,171097,470,249031
6.811,171123,469,249003
6.816,171116,469,249002
6.821,171118,467,249014
6.826,171100,463,249009
6.831,171105,462,248989
6.836,171099,476,248982
6.841,171097,474,248974
6.846,171097,472,248952
6.851,171095,469,248961
6.855,171102,468,248967
6.860,171094,468,248960
6.865,171101,466,248958
6.870,171089,472,248973
6.875,171104,471,248952
6.880,171084,471,248920
6.885,171094,471,248915
6.890,171099,468,248892
6.895,171095,468,248898
6.900,171080,468,248897
6.905,171068,467,248882
6.910,171067,466,248844
6.915,171052,467,248842
6.920,171045,460,248852
6.925,171058,465,248834
6.930,171022,464,248803
6.935,170996,464,248815
6.940,171011,464,248788
6.945,170990,464,248778
6.950,170999,462,248763
6.955,170987,463,248751
6.960,170967,463,248767
6.965,170948,464,248750
6.970,170954,455,248741
6.975,170932,453,248719
6.980,170924,454,248691
6.985,170932,467,248673
6.990,170909,467,248683
6.995,170910,466,248681
6.999,170892,466,248677
7.004,170880,465,248669
7.009,170882,463,248637
7.014,170875,463,248645
7.019,170876,455,248649
7.024,170862,456,248607
7.029,170879,453,248634
7.034,170867,467,248619
7.039,170854,467,248590
7.044,170857,465,248595
7.049,170840,464,248581
7.054,170850,463,248585
7.059,170836,463,248569
7.064,170808,463,248574
7.069,170835,453,248558
7.074,170816,466,248558
7.079,170806,466,248551
7.084,170802,466,248529
7.089,170807,467,248525
7.094,170814,465,248527
7.099,170800,467,248525
7.104,170803,465,248501
7.109,170797,451,248520
7.114,170800,450,248512
7.119,170790,457,248503
7.124,170784,457,248489
7.129,170793,457,248484
7.134,170794,457,248493
7.139,170779,458,248481
7.144,170784,456,248459
7.148,170785,454,248457
7.153,170769,452,248455
7.158,170755,453,248438
7.163,170778,451,248418
7.168,170744,458,248407
7.173,170748,456,248392
7.178,170731,459,248378
7.183,170739,458,248359
7.188,170732,459,248341
7.193,170726,459,248330
7.198,170718,459,248320
7.203,170713,457,248320
7.208,170701,458,248303
7.213,170690,448,248284
7.218,170677,450,248271
7.223,170679,449,248267
7.228,170657,449,248240
7.233,170652,449,248234
7.238,170659,449,248220
7.243,170644,449,248192
7.248,170639,448,248182
7.253,170632,462,248194
7.258,170620,463,248165
7.263,170614,453,248144
7.268,170614,452,248128
7.273,170601,452,248113
7.278,170603,452,248125
7.283,170606,452,248104
7.288,170589,451,248108
7.292,170591,449,248106
7.297,170593,450,248078
7.302,170587,449,248086
7.307,170581,452,248085
7.312,170601,455,248085
7.317,170591,458,248075
7.322,170590,457,248067
7.327,170594,457,248063
7.332,170607,455,248076
7.337,170597,456,248062
7.342,170593,453,248051
7.347,170587,454,248049
7.352,170587,453,248053
7.357,170590,452,248031
7.362,170585,449,248034
7.367,170598,449,248037
7.372,170573,446,248034
7.377,170581,448,248037
7.382,170585,448,248025
7.387,170583,450,248025
7.392,170571,447,248015
7.397,170592,449,248021
7.402,170588,447,248024
7.407,170577,449,247998
7.412,170591,458,248006
7.417,170592,459,247994
7.422,170582,457,248015
7.427,170587,458,248015
7.432,170588,456,248034
7.437,170585,457,248020
7.441,170590,456,247999
7.446,170607,455,247996
7.451,170588,454,247999
7.456,170607,450,247999
7.461,170599,452,248012
7.466,170587,452,247997
7.471,170616,449,248011
7.476,170609,449,248011
7.481,170617,449,248007
7.486,170612,451,248020
7.491,170646,450,247999
7.496,170621,451,248016
7.501,170619,451,248010
7.506,170642,458,248015
7.511,170638,457,248009
7.516,170644,457,248015
7.521,170633,456,248008
7.526,170639,457,248006
7.531,170649,456,248009
7.536,170665,457,248013
7.541,170659,457,248033
7.546,170655,458,248024
7.551,170653,457,248036
7.556,170655,448,247990
7.561,170658,447,247995
7.566,170669,448,248003
7.571,170655,445,247977
7.576,170639,446,247998
7.581,170647,447,247970
7.586,170634,445,247978
7.590,170640,444,247975
7.595,170618,443,247961
7.600,170595,443,247961
7.605,170603,449,247954
7.610,170600,447,247953
7.615,170596,446,247956
7.620,170594,356,247925
7.625,170574,369,247928
7.630,170565,387,247906
7.635,170552,391,247911
7.640,170535,392,247878
7.645,170535,393,247896
7.650,170541,395,247833
7.655,170541,387,247887
7.660,170525,387,247883
7.665,170521,405,247872
7.670,170518,404,247889
7.675,170529,406,247868
7.680,170519,406,247859
7.685,170525,407,247868
7.690,170518,406,247866
7.695,170504,406,247884
7.700,170580,408,247884
7.705,170518,397,247877
7.710,170517,399,247872
7.715,170519,399,247882
7.720,170535,415,247873
7.725,170486,523,247874
7.730,170509,493,247879
7.734,170504,486,247864
7.739,170509,481,247863
7.744,170514,477,247869
7.749,170507,470,247892
7.754,170492,465,247853
7.759,170498,464,247854
7.764,170500,477,247859
7.769,170490,472,247840
7.774,170496,471,247872
7.779,170493,468,247851
7.784,170495,466,247866
7.789,170502,463,247859
7.794,170501,461,247869
7.799,170504,459,247868
7.804,170508,458,247886
7.809,170489,457,247859
7.814,170501,456,247860
7.819,170509,457,247879
7.824,170504,456,247876
7.829,170521,453,247874
7.834,170508,453,247877
7.839,170518,452,247881
7.844,170521,461,247872
7.849,170523,453,247888
7.854,170531,452,247870
7.859,170515,450,247866
7.864,170518,450,247887
7.869,170528,450,247900
7.874,170526,448,247882
7.879,170501,448,247854
7.883,170508,446,247862
7.888,170514,461,247853
7.893,170518,458,247868
7.898,170516,450,247865
7.903,170517,447,247873
7.908,170525,445,247860
7.913,170529,445,247886
7.918,170531,459,247885
7.923,170520,458,247871
7.928,170531,457,247867
7.933,170533,455,247871
7.938,170524,455,247877
7.943,170525,456,247863
7.948,170523,459,247871
7.953,170537,456,247882
7.958,170527,456,247877
7.963,170535,454,247865
7.968,170532,452,247868
7.973,170520,449,247873
7.978,170536,450,247888
7.983,170534,449,247865
7.988,170525,448,247858
7.993,170529,453,247840
7.998,170520,453,247844
8.003,170519,452,247844
8.008,170527,453,247835
8.013,170516,452,247843
8.018,170533,452,247835
8.023,170526,448,247844
8.027,170511,451,247812
8.032,170529,449,247820
8.037,170528,450,247816
8.042,170529,444,247805
8.047,170528,446,247803
8.052,170537,442,247827
8.057,170507,445,247797
8.062,170518,443,247802
8.067,170521,442,247786
8.072,170527,442,247800
8.077,170522,443,247799
8.082,170509,439,247763
8.087,170507,455,247784
8.092,170531,444,247752
8.097,170514,445,247756
8.102,170499,443,247751
8.107,170516,443,247760
8.112,170506,443,247750
8.117,170508,445,247757
8.122,170487,446,247740
8.127,170500,449,247717
8.132,170485,450,247692
8.137,170501,452,247707
8.142,170472,441,247709
8.147,170492,443,247693
8.152,170479,441,247684
8.157,170479,441,247654
8.162,170470,440,247673
8.167,170456,443,247623
8.172,170456,439,247623
8.176,170458,440,247619
8.181,170459,454,247614
8.186,170457,447,247656
8.191,170439,443,247584
8.196,170432,444,247569
8.201,170444,442,247564
8.206,170439,442,247575
8.211,170443,439,247558
8.216,170428,441,247574
8.221,170436,437,247548
8.226,170442,454,247544
8.231,170419,450,247522
8.236,170371,440,247506
8.241,170398,439,247506
8.246,170389,439,247473
8.251,170384,435,247464
8.256,170381,450,247470
8.261,170372,448,247460
8.266,170340,447,247427
8.271,170342,444,247411
8.276,170325,444,247379
8.281,170311,442,247376
8.286,170302,453,247354
8.291,170283,438,247350
8.296,170276,437,247325
8.301,170265,436,247303
8.306,170241,451,247289
8.311,170236,449,247285
8.316,170231,448,247261
8.320,170208,446,247251
8.325,170192,446,247255
8.330,170193,444,247248
8.335,170189,451,247237
8.340,170177,448,247218
8.345,170196,448,247229
8.350,170180,444,247211
8.355,170168,443,247204
8.360,170163,441,247198
8.365,170163,440,247194
8.370,170151,438,247182
8.375,170144,436,247165
8.380,170152,449,247151
8.385,170127,440,247170
8.390,170129,438,247146
8.395,170133,437,247127
8.400,170125,452,247123
8.405,170110,449,247130
8.410,170109,447,247104
8.415,170111,445,247115
8.420,170095,442,247077
8.425,170105,441,247079
8.430,170087,441,247051
8.435,170072,445,247060
8.440,170073,443,247047
8.445,170054,440,247028
8.450,170060,440,247035
8.455,170062,438,247005
8.460,170053,436,247014
8.465,170035,451,247002
8.469,170046,449,246999
8.474,170054,446,246986
8.479,170023,472,246988
8.484,170029,444,246970
8.489,170025,443,246965
8.494,170023,441,246945
8.499,170003,441,246936
8.504,170013,439,246917
8.509,170020,438,246908
8.514,169998,436,246895
8.519,169991,437,246877
8.524,169998,436,246879
8.529,169985,441,246851
8.534,169975,439,246849
8.539,169969,438,246816
8.544,169943,437,246831
8.549,169943,437,246798
8.554,169932,434,246765
8.559,169923,449,246750
8.564,169934,446,246745
8.569,169911,445,246731
8.574,169917,444,246718
8.579,169894,450,246701
8.584,169885,449,246678
8.589,169886,448,246650
8.594,169884,446,246668
8.599,169871,445,246639
8.604,169863,444,246603
8.609,169847,441,246614
8.613,169826,439,246586
8.618,169837,410,246570
8.623,169813,359,246535
8.628,169800,371,246514
8.633,169786,374,246479
8.638,169780,378,246473
8.643,169770,379,246441
8.648,169767,381,246420
8.653,169743,381,246403
8.658,169733,384,246375
8.663,169713,383,246340
8.668,169682,384,246330
8.673,169703,383,246288
8.678,169687,391,246261
8.683,169676,391,246269
8.688,169674,392,246229
8.693,169657,391,246208
8.698,169651,392,246173
8.703,169643,390,246198
8.708,169635,407,246161
8.713,169633,406,246140
8.718,169613,407,246108
8.723,169599,397,246194
8.728,169589,398,246051
8.733,169604,480,246026
8.738,169593,473,246020
8.743,169580,467,246005
8.748,169562,464,245981
8.753,169533,461,245970
8.758,169543,460,245942
8.762,169525,457,245929
8.767,169514,458,245892
8.772,169494,453,245875
8.777,169488,461,245865
8.782,169486,457,245851
8.787,169483,458,245816
8.792,169480,456,245817
8.797,169473,457,245804
8.802,169460,454,245775
8.807,169458,455,245756
8.812,169437,450,245759
8.817,169444,448,245715
8.822,169437,451,245715
8.827,169437,451,245698
8.832,169430,449,245704
8.837,169420,447,245697
8.842,169430,446,245663
8.847,169430,446,245668
8.852,169440,443,245651
8.857,169433,442,245676
8.862,169437,442,245671
8.867,169440,444,245671
8.872,169478,451,245657
8.877,169451,455,245680
8.882,169456,453,245675
8.887,169473,454,245674
8.892,169478,451,245678
8.897,169463,453,245661
8.902,169485,449,245693
8.906,169462,449,245714
8.911,169489,447,245676
8.916,169478,447,245677
8.921,169498,446,245689
8.926,169485,451,245674
8.931,169479,447,245660
8.936,169476,447,245636
8.941,169463,444,245655
8.946,169464,444,245616
8.951,169459,440,245617
8.956,169447,437,245587
8.961,169423,450,245578
8.966,169415,451,245563
8.971,169407,439,245561
8.976,169394,438,245524
8.981,169387,437,245518
8.986,169372,451,245514
8.991,169363,448,245502
8.996,169350,446,245498
9.001,169353,445,245471
9.006,169348,444,245469
9.011,169331,441,245469
9.016,169336,436,245441
9.021,169302,444,245434
9.026,169304,442,245422
9.031,169305,440,245403
9.036,169302,438,245370
9.041,169288,436,245362
9.046,169267,451,245341
9.051,169247,446,245333
9.055,169253,445,245325
9.060,169235,443,245297
9.065,169232,435,245288
9.070,169213,449,245258
9.075,169198,448,245247
9.080,169184,446,245211
9.085,169176,443,245215
9.090,169151,442,245187
9.095,169141,439,245157
9.100,169128,438,245131
9.105,169121,436,245092
9.110,169104,435,245086
9.115,169099,439,245046
9.120,169083,438,245009
9.125,169057,436,244991
9.130,169047,434,244963
9.135,169050,446,244953
9.140,169018,446,244942
9.145,169010,445,244902
9.150,169008,444,244873
9.155,168979,443,244838
9.160,168958,443,244789
9.165,168982,438,244772
9.170,168934,442,244726
9.175,168923,442,244678
9.180,168891,442,244654
9.185,168887,441,244619
9.190,168855,442,244558
9.195,168849,440,244533
9.199,168820,442,244504
9.204,168792,442,244467
9.209,168803,443,244428
9.214,168771,434,244388
9.219,168734,434,244339
9.224,168745,446,244315
9.229,168735,447,244300
9.234,168714,443,244244
9.239,168692,444,244193
9.244,168667,442,244148
9.249,168637,441,244109
9.254,168626,441,244071
9.259,168606,447,244080
9.264,168578,447,243994
9.269,168582,445,243946
9.274,168556,443,243932
9.279,168538,445,243868
9.284,168527,441,243829
9.289,168500,440,243777
9.294,168482,440,243747
9.299,168472,439,243704
9.304,168446,437,243637
9.309,168392,443,243597
9.314,168402,442,243534
9.319,168386,442,243477
9.324,168354,440,243427
9.329,168334,440,243369
9.334,168327,438,243330
9.339,168288,440,243273
9.344,168287,438,243224
9.348,168267,437,243178
9.353,168238,436,243119
9.358,168233,442,243057
9.363,168201,440,243015
9.368,168175,442,242949
9.373,168174,438,242916
9.378,168148,439,242868
9.383,168115,439,242794
9.388,168115,438,242764
9.393,168082,436,242715
9.398,168075,437,242655
9.403,168061,435,242621
9.408,168040,441,242566
9.413,168018,437,242504
9.418,167989,438,242425
9.423,167964,435,242393
9.428,167948,434,242347
9.433,167940,446,242283
9.438,167926,443,242252
9.443,167903,443,242162
9.448,167876,441,242116
9.453,167857,437,242067
9.458,167852,445,242015
9.463,167815,444,241941
9.468,167804,444,241875
9.473,167789,442,241818
9.478,167761,442,241769
9.483,167733,438,241695
9.488,167720,438,241639
9.492,167689,435,241577
9.497,167672,435,241528
9.502,167660,434,241473
9.507,167629,439,241421
9.512,167626,436,241357
9.517,167596,436,241329
9.522,167565,435,241251
9.527,167546,434,241205
9.532,167528,447,241130
9.537,167518,446,241096
9.542,167471,444,241044
9.547,167476,441,240991
9.552,167451,445,240930
9.557,167436,445,240893
9.562,167408,443,240831
9.567,167401,443,240774
9.572,167369,443,240716
9.577,167350,442,240654
9.582,167316,440,240595
9.587,167293,439,240537
9.592,167270,435,240482
9.597,167234,435,240428
9.602,167222,442,240382
9.607,167207,446,240298
9.612,167178,444,240245
9.617,167147,443,240186
9.622,167118,360,240109
9.627,167068,368,240041
9.632,167031,372,239965
9.637,166977,375,239883
9.641,166945,377,239790
9.646,166915,379,239742
9.651,166887,386,239678
9.656,166845,389,239589
9.661,166802,391,239528
9.666,166758,392,239470
9.671,166718,393,239385
9.676,166706,394,239328
9.681,166664,394,239270
9.686,166643,395,239215
9.691,166604,393,239146
9.696,166564,395,239093
9.701,166541,400,239035
9.706,166513,400,238955
9.711,166472,398,238894
9.716,166453,397,238853
9.721,166435,396,238791
9.726,166394,488,238724
9.731,166376,473,238650
9.736,166336,467,238595
9.741,166322,478,238546
9.746,166300,474,238494
9.751,166287,464,238454
9.756,166248,461,238389
9.761,166225,459,238354
9.766,166224,457,238280
9.771,166163,455,238227
9.776,166132,452,238153
9.781,166116,465,238116
9.785,166084,461,238035
9.790,166043,459,237968
9.795,166026,465,237950
9.800,165996,454,237842
9.805,165973,453,237811
9.810,165960,450,237741
9.815,165938,449,237703
9.820,165888,448,237644
9.825,165869,447,237565
9.830,165845,444,237686
9.835,165816,444,237614
9.840,165792,444,237566
9.845,165765,453,237516
9.850,165742,456,237476
9.855,165710,455,237402
9.860,165687,456,237370
9.865,165665,455,237305
9.870,165645,453,237253
9.875,165615,451,237222
9.880,165585,451,237162
9.885,165579,449,237132
9.890,165545,446,237099
9.895,165533,452,237039
9.900,165520,451,236997
9.905,165503,447,236973
9.910,165489,447,236918
9.915,165458,444,236887
9.920,165427,444,236855
9.925,165427,441,236792
9.930,165408,441,236764
9.934,165384,453,236740
9.939,165372,452,236686
9.944,165362,441,236660
9.949,165333,440,236634
9.954,165346,438,236626
9.959,165336,451,236578
9.964,165309,450,236563
9.969,165319,449,236541
9.974,165304,447,236532
9.979,165281,446,236506
9.984,165297,444,236476
9.989,165284,441,236444
9.994,165243,446,236450
9.999,165252,446,236396
10.004,165231,445,236363
10.009,165235,445,236344
10.014,165230,442,236336
10.019,165236,444,236306
10.024,165220,441,236279
10.029,165212,442,236248
10.034,165191,440,236231
10.039,165201,440,236234
10.044,165186,444,236207
10.049,165169,442,236177
10.054,165170,439,236143
10.059,165155,438,236117
10.064,165148,436,236087
10.069,165152,438,236065
10.074,165134,436,236044
10.078,165118,437,236010
10.083,165099,451,235986
10.088,165097,420,235941
10.093,165072,439,235912
10.098,165063,437,235895
10.103,165064,437,235856
10.108,165053,434,235833
10.113,165046,450,235794
10.118,165036,450,235787
10.123,165010,448,235751
10.128,165022,448,235730
10.133,165010,446,235682
10.138,165005,439,235681
10.143,164992,438,235647
10.148,164980,438,235623
10.153,164962,435,235589
10.158,164972,436,235555
10.163,164937,449,235541
10.168,164928,447,235501
10.173,164909,445,235485
10.178,164903,446,235450
10.183,164887,442,235415
10.188,164871,449,235391
10.193,164863,448,235364
10.198,164872,447,235314
10.203,164852,446,235291
10.208,164819,445,235269
10.213,164840,443,235232
10.218,164816,443,235214
10.223,164805,442,235190
10.227,164784,441,235145
10.232,164773,440,235102
10.237,164765,448,235076
10.242,164753,446,235032
10.247,164757,445,235020
10.252,164737,444,234994
10.257,164727,444,234983
10.262,164732,442,234948
10.267,164719,443,234942
10.272,164702,442,234909
10.277,164674,442,234830
10.282,164653,442,234815
10.287,164644,439,234788
10.292,164628,436,234746
10.297,164626,437,234720
10.302,164594,436,234683
10.307,164589,436,234639
10.312,164559,434,234606
10.317,164544,448,234552
10.322,164502,445,234507
10.327,164482,442,234470
10.332,164464,444,234372
10.337,164463,447,234388
10.342,164440,445,234361
10.347,164404,444,234315
10.352,164412,443,234283
10.357,164382,443,234236
10.362,164340,442,234221
10.367,164342,441,234182
10.372,164326,439,234133
10.376,164297,440,234110
10.381,164299,447,234089
10.386,164266,435,234052
10.391,164256,435,234025
10.396,164235,434,234010
10.401,164222,433,233975
10.406,164209,450,233922
10.411,164192,446,233916
10.416,164178,445,233888
10.421,164161,445,233870
10.426,164146,443,233848
10.431,164144,440,233817
10.436,164133,439,233810
10.441,164109,438,233782
10.446,164093,438,233763
10.451,164098,436,233725
10.456,164072,434,233733
10.461,164072,434,233706
10.466,164068,448,233674
10.471,164046,447,233669
10.476,164027,444,233673
10.481,164024,436,233649
10.486,164033,434,233641
10.491,164015,434,233610
10.496,164017,432,233604
10.501,164019,447,233580
10.506,163999,445,233567
10.511,164008,444,233567
10.516,164009,443,233574
10.520,163996,444,233548
10.525,163993,440,233553
10.530,163997,447,233531
10.535,163997,443,233533
10.540,163986,443,233516
10.545,163992,440,233536
10.550,163993,439,233505
10.555,163982,435,233499
10.560,163987,435,233479
10.565,163963,433,233472
10.570,163956,432,233470
10.575,163965,445,233463
10.580,163951,435,233424
10.585,163943,434,233430
10.590,163939,433,233409
10.595,163943,430,233393
10.600,163933,447,233380
10.605,163912,445,233377
10.610,163917,444,233365
10.615,163907,443,233356
10.620,163908,356,233330
10.625,163907,355,233313
10.630,163881,366,233309
10.635,163879,369,233300
10.640,163877,372,233293
10.645,163876,375,233278
10.650,163879,378,233255
10.655,163868,377,233242
10.660,163854,379,233243
10.665,163864,377,233240
10.669,163820,397,233202
10.674,163844,389,233218
10.679,163822,395,233174
10.684,163814,395,233179
10.689,163805,397,233178
10.694,163822,395,233162
10.699,163808,396,233135
10.704,163811,394,233133
10.709,163791,395,233110
10.714,163789,393,233107
10.719,163786,395,233086
10.724,163860,531,233062
10.729,163775,482,233075
10.734,163775,473,233055
10.739,163764,469,233012
10.744,163769,465,232995
10.749,163751,463,232992
10.754,163737,459,232960
10.759,163732,458,232938
10.764,163722,455,232905
10.769,163713,453,232882
10.774,163696,456,232841
10.779,163690,457,232851
10.784,163689,454,232796
10.789,163666,452,232784
10.794,163666,448,232744
10.799,163643,447,232708
10.804,163652,441,232708
10.809,163617,457,232666
10.813,163613,453,232639
10.818,163597,453,232624
10.823,163582,441,232598
10.828,163590,441,232564
10.833,163570,439,232516
10.838,163550,455,232502
10.843,163539,452,232473
10.848,163537,452,232452
10.853,163510,448,232419
10.858,163515,450,232402
10.863,163516,450,232369
10.868,163508,461,232338
10.873,163488,437,232333
10.878,163485,438,232294
10.883,163468,437,232266
10.888,163459,437,232254
10.893,163449,449,232210
10.898,163452,449,232198
10.903,163425,446,232143
10.908,163427,447,232134
10.913,163411,444,232076
10.918,163377,451,232045
10.923,163384,449,232021
10.928,163366,447,231974
10.933,163348,445,231939
10.938,163343,445,231913
10.943,163329,442,231850
10.948,163318,443,231824
10.953,163298,440,231796
10.958,163275,439,231745
10.962,163258,439,231700
10.967,163242,449,231664
10.972,163210,436,231627
10.977,163193,436,231581
10.982,163181,449,231550
10.987,163171,448,231504
10.992,163148,445,231468
10.997,163109,444,231428
11.002,163096,444,231401
11.007,163089,443,231361
11.012,163079,440,231308
11.017,163056,447,231285
11.022,163044,446,231275
11.027,163037,445,231244
11.032,163038,443,231232
11.037,163041,441,231182
11.042,163010,439,231176
11.047,163023,438,231177
11.052,163017,437,231110
11.057,163015,436,231102
11.062,163020,434,231076
11.067,162998,439,231069
11.072,163018,438,231050
11.077,163013,435,231062
11.082,163012,433,231010
11.087,163008,434,231019
11.092,162983,433,230973
11.097,162961,447,230927
11.102,162980,444,230958
11.106,162954,443,230944
11.111,162969,444,230960
11.116,162964,434,230918
11.121,162959,435,230901
11.126,162961,435,230904
11.131,162965,433,230893
11.136,162993,434,230911
11.141,163013,434,230934
11.146,163024,433,230942
11.151,163049,432,230951
11.156,163069,447,230975
11.161,163061,428,230951
11.166,163088,436,231006
11.171,163098,436,230961
11.176,163143,436,230993
11.181,163136,435,230973
11.186,163152,434,230958
11.191,163180,431,230982
11.196,163182,445,230973
11.201,163182,447,230968
11.206,163216,444,230973
11.211,163213,434,230988
11.216,163231,431,230982
11.221,163255,448,230993
11.226,163248,447,230963
11.231,163268,446,230972
11.236,163267,446,230952
11.241,163273,446,230939
11.246,163284,443,230938
11.251,163294,441,230912
11.255,163312,441,230905
11.260,163325,434,230914
11.265,163334,449,230909
11.270,163336,432,230891
11.275,163330,432,230862
11.280,163338,432,230852
11.285,163337,431,230842
11.290,163319,432,230806
11.295,163337,447,230792
11.300,163331,447,230761
11.305,163334,445,230763
11.310,163336,441,230732
11.315,163340,440,230720
11.320,163324,440,230688
11.325,163330,439,230683
11.330,163345,439,230678
11.335,163334,437,230683
11.340,163337,439,230693
11.345,163335,438,230674
11.350,163348,436,230673
11.355,163345,435,230686
11.360,163344,442,230650
11.365,163333,441,230653
11.370,163334,440,230625
11.375,163327,439,230608
11.380,163341,439,230592
11.385,163312,435,230566
11.390,163303,434,230560
11.395,163310,433,230552
11.399,163322,433,230552
11.404,163297,434,230562
11.409,163309,435,230514
11.414,163285,431,230506
11.419,163281,431,230499
11.424,163272,443,230473
11.429,163277,443,230484
11.434,163260,440,230458
11.439,163268,441,230453
11.444,163262,440,230449
11.449,163263,440,230464
11.454,163260,428,230451
11.459,163236,430,230438
11.464,163262,428,230468
11.469,163272,444,230449
11.474,163271,440,230449
11.479,163280,440,230443
11.484,163274,437,230462
11.489,163278,437,230446
11.494,163288,433,230445
11.499,163287,433,230445
11.504,163286,440,230427
11.509,163276,440,230425
11.514,163305,437,230445
11.519,163296,439,230464
11.524,163278,436,230469
11.529,163288,435,230474
11.534,163306,433,230452
11.539,163303,434,230464
11.544,163312,432,230465
11.548,163301,432,230443
11.553,163317,435,230460
11.558,163318,439,230459
11.563,163314,436,230434
11.568,163294,436,230439
11.573,163293,433,230441
11.578,163296,434,230425
11.583,163300,432,230408
11.588,163287,433,230404
11.593,163284,429,230404
11.598,163275,431,230383
11.603,163266,435,230358
11.608,163248,435,230334
11.613,163234,433,230314
11.618,163229,434,230109
11.623,163212,354,230324
11.628,163188,361,230322
11.633,163175,365,230292
11.638,163145,367,230259
11.643,163121,369,230239
11.648,163118,373,230230
11.653,163091,377,230191
11.658,163062,380,230156
11.663,163064,379,230119
11.668,163043,382,230107
11.673,163022,379,230098
11.678,163011,380,230060
11.683,162996,380,230058
11.688,162996,380,230051
11.692,162984,394,230039
11.697,162921,379,230006
11.702,162954,386,229994
11.707,162956,386,230000
11.712,162954,385,229993
11.717,162960,399,229967
11.722,162946,398,229986
11.727,162941,482,229974
11.732,162950,469,229968
11.737,162974,465,229980
11.742,162954,459,230000
11.747,162953,464,229994
11.752,162956,461,230040
11.757,162964,459,230017
11.762,162951,456,230002
11.767,162961,454,230031
11.772,162946,453,230011
11.777,162950,448,229997
11.782,162927,447,229988
11.787,162926,446,229994
11.792,162928,444,229968
11.797,162923,453,229953
11.802,162922,441,229952
11.807,162900,455,229934
11.812,162912,451,229916
11.817,162898,449,229893
11.822,162890,447,229887
11.827,162871,444,229861
11.832,162854,443,229865
11.837,162839,439,229825
11.841,162829,441,229821
11.846,162827,443,229819
11.851,162814,440,229784
11.856,162819,439,229776
11.861,162790,438,229760
11.866,162787,436,229742
11.871,162776,435,229744
11.876,162755,433,229713
11.881,162757,432,229695
11.886,162735,447,229660
11.891,162720,446,229668
11.896,162723,440,229648
11.901,162698,441,229642
11.906,162704,438,229646
11.911,162695,438,229630
11.916,162692,436,229622
11.921,162699,435,229652
11.926,162713,433,229639
11.931,162711,431,229638
11.936,162705,430,229643
11.941,162708,431,229634
11.946,162720,437,229656
11.951,162723,436,229657
11.956,162732,432,229689
11.961,162722,433,229660
11.966,162734,430,229664
11.971,162748,430,229681
11.976,162741,442,229672
11.981,162742,444,229697
11.985,162740,442,229689
11.990,162767,431,229678
11.995,162766,429,229700
12.000,162757,430,229694
12.005,162758,429,229699
12.010,162754,428,229696
12.015,162750,427,229721
12.020,162756,429,229731
12.025,162777,427,229714
12.030,162758,441,229744
12.035,162766,439,229736
12.040,162769,431,229745
12.045,162760,429,229723
12.050,162757,428,229723
12.055,162770,425,229731
12.060,162752,442,229740
12.065,162739,441,229735
12.070,162739,439,229702
12.075,162732,438,229695
12.080,162717,438,229679
12.085,162712,435,229665
12.090,162677,432,229636
12.095,162669,431,229613
12.100,162656,432,229590
12.105,162616,431,229574
12.110,162597,433,229539
12.115,162575,430,229527
12.120,162587,433,229500
12.125,162552,431,229515
12.130,162528,431,229477
12.134,162538,430,229474
12.139,162518,437,229450
12.144,162523,435,229458
12.149,162497,435,229420
12.154,162490,433,229412
12.159,162465,431,229374
12.164,162456,430,229365
12.169,162427,432,229313
12.174,162408,429,229296
12.179,162385,430,229258
12.184,162391,430,229251
12.189,162374,436,229218
12.194,162364,432,229231
12.199,162325,434,229188
12.204,162307,431,229162
12.209,162298,431,229117
12.214,162265,427,229082
12.219,162246,429,229081
12.224,162231,428,229024
12.229,162206,428,229005
12.234,162211,428,228970
12.239,162156,435,228955
12.244,162138,433,228924
12.249,162117,433,228898
12.254,162111,432,228890
12.259,162101,433,228865
12.264,162093,431,228867
12.269,162084,430,228858
12.274,162084,431,228856
12.278,162069,432,228836
12.283,162051,436,228831
12.288,162058,437,228837
12.293,162048,434,228839
12.298,162046,434,228841
12.303,162034,434,228844
12.308,162040,435,228830
12.313,162034,434,228831
12.318,162038,435,228837
12.323,162031,434,228850
12.328,162034,435,228830
12.333,162018,426,228846
12.338,162031,423,228837
12.343,162025,422,228840
12.348,162024,437,228844
12.353,162016,435,228862
12.358,162035,434,228840
12.363,162010,432,228830
12.368,161992,430,228843
12.373,161993,429,228859
12.378,162007,435,228855
12.383,162008,436,228867
12.388,162002,435,228858
12.393,162002,435,228869
12.398,162001,435,228889
12.403,162006,435,228890
12.408,162004,435,228931
12.413,162021,435,228951
12.418,162035,435,228969
12.423,162033,437,228974
12.427,162045,423,228976
12.432,162047,428,229001
12.437,162056,429,229028
12.442,162071,429,229042
12.447,162062,429,229074
12.452,162099,431,229108
12.457,162109,428,229117
12.462,162109,427,229137
12.467,162108,428,229151
12.472,162145,426,229191
12.477,162149,435,229214
12.482,162133,433,229234
12.487,162162,435,229248
12.492,162171,435,229272
12.497,162188,436,229300
12.502,162182,438,229309
12.507,162181,422,229303
12.512,162181,422,229315
12.517,162189,422,229332
12.522,162183,424,229308
12.527,162179,433,229334
12.532,162153,421,229319
12.537,162143,420,229301
12.542,162140,437,229274
12.547,162141,421,229260
12.552,162108,422,229220
12.557,162106,422,229206
12.562,162086,424,229174
12.567,162082,423,229164
12.571,162068,423,229140
12.576,162064,428,229140
12.581,162036,428,229105
12.586,162021,426,229065
12.591,162021,425,229041
12.596,161992,423,229046
12.601,161991,424,229017
12.606,161972,423,228975
12.611,161949,421,228957
12.616,161943,422,228914
12.621,161923,344,228898
12.626,161913,358,228877
12.631,161919,365,228868
12.636,161888,370,228860
12.641,161911,376,228843
12.646,161896,363,228852
12.651,161892,366,228840
12.656,161912,367,228861
12.661,161905,371,228845
12.666,161919,373,228833
12.671,161916,376,228846
12.676,161922,385,228850
12.681,161918,387,228854
12.686,161921,386,228854
12.691,161915,388,228848
12.696,161934,387,228854
12.701,161913,388,228851
12.706,161924,388,228848
12.711,161921,389,228859
12.716,161931,388,228821
12.720,161920,396,228879
12.725,161917,486,228815
12.730,161925,472,228825
12.735,161938,466,228826
12.740,161933,463,228845
12.745,161943,460,228850
12.750,161951,457,228852
12.755,161957,453,228882
12.760,161980,452,228889
12.765,161977,448,228880
12.770,161983,448,228898
12.775,161994,439,228904
12.780,161996,439,228905
12.785,162018,435,228933
12.790,162001,450,228920
12.795,162026,446,228940
12.800,162029,448,228942
12.805,162050,444,228964
12.810,162030,442,228957
12.815,162046,441,228959
12.820,162048,413,228944
12.825,162038,431,228954
12.830,162051,431,228959
12.835,162045,428,228964
12.840,162050,444,228963
12.845,162056,443,228968
12.850,162059,440,228987
12.855,162075,439,228979
12.860,162065,440,228973
12.864,162065,439,228980
12.869,162076,430,229011
12.874,162074,427,229011
12.879,162079,427,229030
12.884,162068,427,228998
12.889,162086,428,229023
12.894,162087,428,229010
12.899,162096,428,229023
12.904,162087,426,229038
12.909,162092,425,229027
12.914,162095,439,229028
12.919,162106,430,229024
12.924,162095,428,229039
12.929,162105,428,229035
12.934,162121,428,229041
12.939,162117,429,229048
12.944,162150,426,229070
12.949,162138,428,229072
12.954,162153,425,229073
12.959,162150,425,229073
12.964,162143,424,229053
12.969,162147,428,229060
12.974,162144,427,229052
12.979,162142,429,229067
12.984,162126,426,229037
12.989,162129,428,229034
12.994,162119,425,229028
12.999,162104,426,229005
13.004,162104,424,228986
13.009,162094,425,228968
13.013,162103,422,228977
13.018,162090,428,228961
13.023,162085,427,228968
13.028,162082,427,228976
13.033,162088,425,228957
13.038,162090,425,228976
13.043,162097,425,228972
13.048,162109,426,229012
13.053,162111,423,229010
13.058,162119,421,229033
13.063,162127,425,229012
13.068,162124,425,229026
13.073,162130,422,229036
13.078,162125,421,229041
13.083,162111,422,229033
13.088,162102,422,228995
13.093,162101,420,228976
13.098,162104,420,228987
13.103,162062,435,228950
13.108,162085,435,228971
13.113,162074,423,228967
13.118,162066,423,228966
13.123,162058,423,228946
13.128,162069,422,228936
13.133,162060,421,228934
13.138,162054,423,228943
13.143,162026,422,228936
13.148,162052,422,228929
13.153,162055,422,228948
13.157,162056,424,228924
13.162,162046,429,228942
13.167,162051,428,228946
13.172,162053,430,228958
13.177,162065,427,228937
13.182,162047,429,228943
13.187,162045,427,228946
13.192,162050,427,228929
13.197,162030,426,228925
13.202,162055,426,228956
13.207,162065,425,228961
13.212,162052,421,228941
13.217,162059,420,228951
13.222,162063,422,228956
13.227,162051,421,228948
13.232,162070,435,228947
13.237,162066,432,228960
13.242,162077,433,228937
13.247,162087,430,228952
13.252,162076,430,228973
13.257,162086,439,228941
13.262,162071,427,228972
13.267,162085,426,228965
13.272,162090,426,228980
13.277,162092,424,228963
13.282,162074,426,228969
13.287,162094,425,228979
13.292,162092,424,228972
13.297,162096,421,228974
13.302,162085,424,228973
13.306,162089,427,228986
13.311,162088,429,228967
13.316,162097,427,228966
13.321,162089,429,228985
13.326,162080,428,228971
13.331,162090,428,228973
13.336,162083,425,228962
13.341,162099,427,228960
13.346,162078,427,228953
13.351,162085,426,228948
13.356,162101,420,228973
13.361,162091,426,228952
13.366,162101,423,228943
13.371,162079,423,228936
13.376,162096,420,228943
13.381,162099,422,228939
13.386,162094,419,228970
13.391,162101,420,228953
13.396,162096,417,228981
13.401,162106,418,228990
13.406,162125,422,229025
13.411,162140,423,229017
13.416,162131,422,229020
13.421,162137,425,229015
13.426,162133,422,229030
13.431,162140,423,229052
13.436,162153,422,229033
13.441,162141,422,229039
13.446,162145,418,229054
13.451,162135,418,229041
13.455,162139,423,229032
13.460,162123,425,229032
13.465,162120,423,229044
13.470,162116,423,229030
13.475,162117,421,229028
13.480,162095,422,229014
13.485,162102,417,229026
13.490,162070,434,229012
13.495,162074,430,229003
13.500,162052,432,228993
13.505,162060,420,228965
13.510,162036,420,228959
13.515,162033,419,228933
13.520,162030,418,228912
13.525,162013,433,228911
13.530,161997,431,228914
13.535,161997,428,228896
13.540,161982,428,228889
13.545,161973,426,228876
13.550,161941,424,228841
13.555,161947,429,228838
13.560,161947,430,228817
13.565,161927,428,228784
13.570,161906,427,228782
13.575,161892,424,228754
13.580,161867,425,228722
13.585,161858,425,228727
13.590,161850,424,228698
13.595,161862,422,228691
13.599,161825,419,228676
13.604,161831,421,228659
13.609,161808,421,228655
13.614,161804,418,228662
13.619,161805,331,228639
13.624,161788,345,228613
13.629,161776,365,228606
13.634,161784,365,228617
13.639,161760,368,228613
13.644,161768,369,228602
13.649,161777,363,228618
13.654,161774,361,228605
13.659,161766,379,228588
13.664,161749,378,228598
13.669,161759,378,228605
13.674,161752,377,228602
13.679,161741,379,228580
13.684,161732,377,228572
13.689,161737,378,228570
13.694,161723,384,228572
13.699,161714,383,228543
13.704,161703,383,228542
13.709,161698,384,228529
13.714,161703,382,228533
13.719,161676,383,228525
13.724,161638,513,228509
13.729,161671,462,228498
13.734,161660,452,228516
13.739,161662,449,228506
13.744,161642,445,228488
13.748,161630,449,228489
13.753,161625,445,228467
13.758,161619,443,228461
13.763,161614,441,228477
13.768,161598,439,228476
13.773,161583,435,228433
13.778,161587,433,228441
13.783,161574,445,228434
13.788,161579,442,228438
13.793,161569,440,228440
13.798,161570,430,228408
13.803,161566,444,228405
13.808,161556,442,228401
13.813,161566,439,228415
13.818,161546,438,228406
13.823,161541,436,228409
13.828,161541,436,228379
13.833,161539,432,228388
13.838,161532,432,228392
13.843,161529,435,228387
13.848,161538,435,228373
13.853,161527,432,228376
13.858,161529,431,228396
13.863,161542,427,228404
13.868,161528,427,228411
13.873,161535,426,228395
13.878,161529,425,228399
13.883,161522,426,228413
13.888,161540,424,228414
13.892,161540,435,228406
13.897,161541,435,228417
13.902,161547,437,228439
13.907,161530,434,228433
13.912,161549,434,228439
13.917,161542,434,228433
13.922,161536,435,228435
13.927,161537,434,228445
13.932,161559,434,228448
13.937,161555,433,228445
13.942,161561,425,228458
13.947,161558,425,228463
13.952,161550,426,228468
13.957,161560,422,228515
13.962,161567,423,228496
13.967,161568,422,228512
13.972,161580,424,228525
13.977,161586,421,228533
13.982,161583,423,228535
13.987,161572,422,228540
13.992,161600,427,228549
13.997,161597,427,228557
14.002,161597,428,228562
14.007,161600,426,228609
14.012,161614,426,228581
14.017,161614,425,228607
14.022,161596,427,228584
14.027,161595,424,228593
14.032,161589,426,228585
14.037,161596,424,228583
14.041,161581,431,228613
14.046,161575,430,228626
14.051,161572,430,228636
14.056,161570,426,228640
14.061,161566,428,228635
14.066,161584,426,228660
14.071,161583,426,228680
14.076,161586,424,228674
14.081,161574,423,228701
14.086,161622,424,228707
14.091,161571,426,228713
14.096,161571,425,228728
14.101,161573,426,228758
14.106,161552,425,228759
14.111,161568,424,228771
14.116,161584,422,228797
14.121,161577,424,228795
14.126,161586,419,228816
14.131,161582,420,228824
14.136,161594,425,228830
14.141,161578,424,228836
14.146,161591,426,228859
14.151,161587,425,228867
14.156,161576,424,228887
14.161,161580,425,228881
14.166,161582,424,228894
14.171,161581,423,228899
14.176,161575,421,228893
14.181,161593,424,228910
14.185,161583,429,228919
14.190,161577,429,228928
14.195,161584,427,228925
14.200,161587,427,228949
14.205,161598,425,228976
14.210,161599,425,228986
14.215,161608,423,229037
14.220,161611,423,229048
14.225,161622,422,229088
14.230,161631,424,229102
14.235,161646,428,229121
14.240,161659,430,229175
14.245,161661,428,229178
14.250,161675,428,229216
14.255,161694,427,229253
14.260,161715,427,229301
14.265,161701,426,229326
14.270,161729,425,229356
14.275,161747,422,229399
14.280,161770,423,229424
14.285,161771,420,229466
14.290,161779,421,229521
14.295,161793,419,229571
14.300,161812,419,229579
14.305,161827,416,229624
14.310,161856,416,229670
14.315,161850,414,229711
14.320,161870,416,229747
14.325,161882,414,229805
14.330,161900,427,229839
14.334,161917,425,229893
14.339,161926,427,229945
14.344,161942,425,229992
14.349,161974,425,230017
14.354,161981,424,230070
14.359,161991,425,230100
14.364,162009,422,230137
14.369,162000,424,230197
14.374,162027,422,230228
14.379,162038,414,230275
14.384,162031,411,230317
14.389,162045,413,230355
14.394,162042,425,230383
14.399,162039,425,230410
14.404,162066,425,230442
14.409,162060,426,230496
14.414,162100,423,230548
14.419,162104,423,230557
14.424,162105,422,230583
14.429,162123,413,230627
14.434,162139,412,230673
14.439,162145,412,230693
14.444,162158,412,230725
14.449,162158,414,230747
14.454,162163,411,230778
14.459,162174,412,230801
14.464,162181,412,230807
14.469,162184,414,230825
14.474,162175,413,230837
14.478,162206,419,230868
14.483,162205,419,230894
14.488,162223,419,230900
14.493,162229,418,230933
14.498,162224,418,230940
14.503,162231,417,230981
14.508,162246,417,230994
14.513,162248,416,230974
14.518,162276,414,231033
14.523,162271,414,231051
14.528,162292,419,231097
14.533,162295,417,231117
14.538,162340,415,231143
14.543,162338,414,231173
14.548,162363,413,231205
14.553,162357,410,231227
14.558,162364,424,231241
14.563,162395,424,231288
14.568,162407,424,231294
14.573,162407,426,231336
14.578,162413,412,231355
14.583,162436,412,231368
14.588,162436,411,231381
14.593,162463,426,231405
14.598,162466,423,231402
14.603,162475,423,231447
14.608,162489,421,231480
14.613,162514,420,231505
14.618,162506,418,231291
14.623,162538,349,231534
14.627,162544,355,231547
14.632,162550,358,231570
14.637,162549,359,231584
14.642,162552,362,231615
14.647,162549,361,231603
14.652,162559,362,231608
14.657,162562,363,231622
14.662,162547,364,231612
14.667,162549,364,231627
14.672,162544,370,231625
14.677,162552,371,231659
14.682,162547,373,231639
14.687,162555,372,231673
14.692,162537,372,231666
14.697,162547,369,231698
14.702,162540,372,231716
14.707,162541,371,231725
14.712,162558,385,231741
14.717,162555,383,231757
14.722,162563,378,231738
14.727,162556,460,231790
14.732,162567,450,231794
14.737,162571,443,231810
14.742,162564,440,231806
14.747,162569,435,231838
14.752,162572,433,231846
14.757,162592,445,231853
14.762,162577,443,231855
14.767,162584,434,231864
14.771,162590,429,231906
14.776,162591,427,231911
14.781,162584,439,231918
14.786,162585,436,231923
14.791,162593,434,231945
14.796,162592,429,231969
14.801,162601,428,231962
14.806,162601,426,231986
14.811,162599,423,232008
14.816,162615,419,231996
14.821,162622,424,232010
14.826,162625,420,232037
14.831,162612,432,232040
14.836,162626,429,232067
14.841,162614,429,232060
14.846,162617,426,232085
14.851,162614,425,232072
14.856,162626,423,232102
14.861,162625,423,232102
14.866,162631,435,232136
14.871,162655,418,232153
14.876,162630,416,232172
14.881,162668,417,232154
14.886,162664,430,232189
14.891,162677,430,232201
14.896,162672,429,232216
14.901,162687,429,232254
14.906,162700,427,232266
14.911,162710,426,232270
14.916,162706,415,232268
14.920,162696,416,232281
14.925,162697,416,232289
14.930,162693,417,232290
14.935,162708,415,232300
14.940,162711,417,232309
14.945,162708,415,232310
14.950,162710,415,232321
14.955,162703,413,232331
14.960,162691,414,232324
14.965,162698,418,232336
14.970,162684,418,232330
14.975,162697,416,232347
14.980,162691,418,232328
14.985,162689,419,232341
14.990,162694,419,232333
14.995,162687,418,232339
15.000,162704,419,232347
15.005,162693,419,232365
15.010,162694,420,232338
15.015,162689,415,232345
15.020,162687,415,232352
15.025,162667,416,232339
15.030,162671,414,232352
15.035,162689,410,232337
15.040,162680,425,232339
15.045,162661,422,232353
15.050,162667,423,232354
15.055,162672,421,232347
15.060,162664,419,232330
15.064,162662,424,232346
15.069,162680,423,232354
15.074,162668,423,232351
15.079,162670,420,232368
15.084,162662,418,232352
15.089,162666,416,232365
15.094,162666,414,232367
15.099,162681,413,232352
15.104,162669,412,232374
15.109,162667,419,232445
15.114,162671,415,232390
15.119,162668,414,232374
15.124,162659,414,232362
15.129,162672,413,232363
15.134,162669,412,232376
15.139,162678,409,232373
15.144,162657,410,232374
15.149,162652,410,232379
15.154,162676,404,232377
15.159,162670,403,232354
15.164,162658,414,232366
15.169,162656,415,232350
15.174,162655,416,232362
15.179,162646,416,232354
15.184,162654,418,232346
15.189,162640,418,232326
15.194,162645,417,232329
15.199,162639,416,232330
15.204,162642,415,232327
15.209,162620,406,232332
15.213,162632,419,232321
15.218,162630,417,232337
15.223,162628,414,232335
15.228,162643,414,232333
15.233,162629,413,232338
15.238,162624,410,232331
15.243,162631,410,232310
15.248,162636,409,232319
15.253,162640,407,232326
15.258,162617,414,232327
15.263,162621,412,232299
15.268,162638,411,232299
15.273,162621,411,232318
15.278,162630,410,232301
15.283,162625,410,232305
15.288,162620,411,232296
15.293,162613,411,232295
15.298,162616,411,232291
15.303,162617,409,232278
15.308,162604,417,232301
15.313,162618,418,232276
15.318,162613,419,232302
15.323,162623,419,232281
15.328,162611,420,232276
15.333,162589,421,232276
15.338,162589,421,232271
15.343,162567,421,232252
15.348,162572,421,232218
15.353,162562,407,232257
15.357,162554,411,232227
15.362,162523,411,232225
15.367,162518,411,232192
15.372,162510,410,232194
15.377,162505,410,232178
15.382,162475,409,232182
15.387,162484,409,232160
15.392,162470,407,232159
15.397,162460,410,232153
15.402,162463,415,232081
15.407,162452,413,232124
15.412,162429,413,232125
15.417,162417,415,232086
15.422,162419,413,232082
15.427,162379,413,232075
15.432,162389,413,232058
15.437,162372,413,232053
15.442,162361,412,232031
15.447,162361,412,232033
15.452,162355,419,232050
15.457,162348,419,232044
15.462,162380,417,232073
15.467,162378,415,232091
15.472,162396,414,232130
15.477,162405,413,232159
15.482,162416,411,232195
15.487,162448,412,232244
15.492,162460,412,232308
15.497,162493,411,232323
15.502,162510,418,232382
15.506,162534,418,232431
15.511,162556,417,232480
15.516,162586,417,232564
15.521,162611,416,232635
15.526,162666,415,232679
15.531,162689,413,232784
15.536,162711,412,232848
15.541,162774,408,232938
15.546,162819,407,233055
15.551,162864,413,233146
15.556,162918,412,233229
15.561,162979,408,233359
15.566,163027,408,233462
15.571,163081,408,233577
15.576,163125,421,233668
15.581,163165,417,233751
15.586,163203,415,233825
15.591,163241,415,233887
15.596,163249,415,233945
15.601,163277,405,233967
15.606,163274,419,234018
15.611,163268,418,234019
15.616,163275,416,234021
15.621,163290,332,234032
15.626,163261,343,233998
15.631,163241,347,233982
15.636,163232,350,233955
15.641,163210,350,233949
15.646,163191,358,233846
15.650,163171,359,233864
15.655,163168,360,233843
15.660,163129,358,233804
15.665,163121,358,233760
15.670,163101,359,233749
15.675,163098,360,233735
15.680,163089,360,233703
15.685,163085,359,233705
15.690,163070,373,233671
15.695,163103,366,233682
15.700,163077,371,233675
15.705,163066,370,233656
15.710,163077,370,233631
15.715,163071,369,233622
15.720,163069,369,233600
15.725,163044,463,233576
15.730,163025,449,233575
15.735,163028,442,233550
15.740,163044,437,233534
15.745,163038,442,233535
15.750,163037,429,233513
15.755,163036,442,233525
15.760,163042,438,233525
15.765,163053,436,233498
15.770,163043,433,233501
15.775,163047,432,233498
15.780,163050,429,233513
15.785,163059,428,233485
15.790,163074,426,233503
15.795,163077,434,233524
15.799,163066,429,233505
15.804,163069,428,233467
15.809,163058,427,233430
15.814,163034,425,233412
15.819,163022,423,233359
15.824,163007,422,233329
15.829,162967,420,233258
15.834,162934,418,233210
15.839,162891,418,233145
15.844,162874,423,233101
15.849,162840,421,233036
15.854,162802,422,233006
15.859,162817,420,232967
15.864,162794,419,232956
15.869,162781,418,232938
15.874,162784,418,232939
15.879,162817,415,232981
15.884,162859,414,233017
15.889,162862,413,233054
15.894,162878,418,233081
15.899,162906,416,233126
15.904,162910,415,233160
15.909,162942,414,233188
15.914,162962,415,233201
15.919,162981,415,233243
15.924,162991,413,233265
15.929,163020,412,233300
15.934,163035,413,233315
15.939,163040,411,233355
15.943,163057,416,233383
15.948,163080,414,233435
15.953,163093,414,233426
15.958,163114,414,233475
15.963,163129,412,233493
15.968,163133,412,233499
15.973,163171,410,233542
15.978,163162,408,233556
15.983,163177,407,233573
15.988,163183,412,233583
15.993,163187,412,233591
15.998,163206,410,233602
16.003,163201,406,233610
16.008,163206,408,233638
16.013,163207,407,233614
16.018,163208,407,233642
16.023,163225,405,233627
16.028,163238,421,233637
16.033,163227,418,233639
16.038,163234,408,233648
16.043,163245,405,233655
16.048,163241,406,233662
16.053,163246,405,233685
16.058,163245,420,233691
16.063,163246,417,233683
16.068,163247,417,233668
16.073,163232,417,233683
16.078,163228,416,233685
16.083,163227,414,233659
16.088,163202,406,233666
16.092,163217,405,233676
16.097,163195,404,233654
16.102,163210,418,233671
16.107,163193,418,233667
16.112,163184,417,233653
16.117,163139,417,233614
16.122,163104,415,233543
16.127,163070,415,233478
16.132,163024,415,233442
16.137,162962,414,233354
16.142,162922,412,233274
16.147,162854,413,233162
16.152,162790,413,233094
16.157,162724,411,233009
16.162,162692,408,232959
16.167,162666,410,232950
16.172,162679,408,232904
16.177,162637,407,232888
16.182,162626,411,232828
16.187,162611,408,232799
16.192,162595,408,232788
16.197,162558,409,232757
16.202,162571,406,232775
16.207,162575,405,232790
16.212,162608,404,232804
16.217,162633,418,232851
16.222,162650,415,232920
16.227,162686,415,232949
16.232,162704,405,233010
16.237,162741,406,233050
16.241,162773,404,233112
16.246,162798,404,233175
16.251,162841,417,233238
16.256,162867,417,233274
16.261,162876,413,233307
16.266,162879,412,233292
16.271,162874,411,233300
16.276,162871,413,233293
16.281,162881,403,233327
16.286,162885,402,233347
16.291,162919,419,233371
16.296,162923,416,233386
16.301,162957,413,233425
16.306,162960,413,233436
16.311,162985,414,233439
16.316,163014,415,233489
16.321,163037,413,233508
16.326,163056,413,233540
16.331,163046,408,233546
16.336,163052,409,233531
16.341,163037,408,233475
16.346,163004,408,233430
16.351,162988,407,233410
16.356,162963,407,233389
16.361,162943,404,233351
16.366,162901,402,233307
16.371,162876,417,233243
16.376,162883,417,233226
16.381,162844,406,233193
16.385,162837,404,233163
16.390,162823,404,233126
16.395,162796,404,233086
16.400,162765,402,233060
16.405,162745,404,233026
16.410,162723,403,232998
16.415,162723,405,232994
16.420,162692,402,232924
16.425,162695,403,232931
16.430,162674,407,232874
16.435,162639,407,232874
16.440,162632,405,232839
16.445,162629,403,232819
16.450,162606,405,232790
16.455,162595,408,232770
16.460,162566,407,232739
16.465,162566,408,232725
16.470,162570,409,232702
16.475,162509,410,232679
16.480,162529,416,232656
16.485,162520,403,232644
16.490,162507,402,232631
16.495,162493,403,232634
16.500,162504,403,232629
16.505,162489,401,232611
16.510,162493,402,232600
16.515,162476,418,232584
16.520,162464,416,232581
16.525,162455,410,232571
16.530,162469,415,232567
16.534,162462,415,232558
16.539,162457,413,232549
16.544,162448,410,232550
16.549,162447,410,232549
16.554,162436,410,232552
16.559,162432,408,232536
16.564,162446,407,232547
16.569,162437,407,232564
16.574,162444,413,232551
16.579,162445,411,232558
16.584,162443,410,232575
16.589,162464,408,232558
16.594,162456,407,232577
16.599,162459,404,232583
16.604,162466,404,232593
16.609,162531,403,232699
16.614,162575,403,232740
16.619,162585,314,232768
16.624,162581,331,232765
16.629,162554,335,232741
16.634,162562,339,232744
16.639,162561,340,232724
16.644,162546,355,232667
16.649,162498,358,232658
16.654,162465,357,232569
16.659,162445,356,232530
16.664,162422,356,232483
16.669,162394,356,232441
16.674,162382,362,232441
16.678,162399,361,232466
16.683,162397,359,232458
16.688,162383,360,232431
16.693,162384,359,232430
16.698,162396,359,232433
16.703,162375,372,232423
16.708,162389,372,232421
16.713,162371,370,232401
16.718,162346,372,232391
16.723,162358,537,232374
16.728,162358,455,232383
16.733,162363,446,232376
16.738,162345,441,232361
16.743,162337,435,232359
16.748,162347,433,232349
16.753,162329,429,232340
16.758,162331,428,232335
16.763,162325,424,232330
16.768,162326,428,232331
16.773,162332,427,232346
16.778,162320,425,232325
16.783,162331,420,232319
16.788,162332,421,232334
16.793,162326,418,232322
16.798,162327,419,232317
16.803,162315,413,232321
16.808,162316,414,232304
16.813,162342,428,232319
16.818,162344,429,232339
16.823,162331,411,232335
16.827,162343,426,232337
16.832,162335,424,232344
16.837,162338,423,232346
16.842,162341,420,232344
16.847,162344,418,232310
16.852,162341,416,232321
16.857,162328,414,232334
16.862,162320,412,232333
16.867,162314,417,232322
16.872,162305,417,232319
16.877,162299,416,232303
16.882,162295,413,232288
16.887,162282,414,232293
16.892,162274,413,232314
16.897,162268,413,232299
16.902,162263,411,232308
16.907,162253,411,232295
16.912,162260,410,232298
16.917,162231,416,232312
16.922,162223,411,232297
16.927,162232,411,232282
16.932,162228,411,232289
16.937,162210,412,232306
16.942,162232,410,232303
16.947,162221,411,232313
16.952,162228,410,232295
16.957,162201,410,232313
16.962,162200,410,232299
16.967,162212,413,232316
16.971,162199,413,232325
16.976,162212,412,232322
16.981,162200,409,232342
16.986,162210,410,232345
16.991,162210,410,232345
16.996,162218,409,232372
17.001,162209,408,232348
17.006,162202,408,232353
17.011,162210,409,232373
17.016,162189,412,232371
17.021,162215,411,232390
17.026,162207,410,232412
17.031,162208,412,232403
17.036,162210,410,232426
17.041,162199,409,232423
17.046,162206,409,232415
17.051,162217,410,232431
17.056,162204,409,232451
17.061,162213,414,232454
17.066,162200,413,232467
17.071,162227,414,232488
17.076,162232,414,232497
17.081,162234,413,232511
17.086,162249,412,232525
17.091,162245,413,232564
17.096,162263,412,232584
17.101,162286,410,232593
17.106,162285,409,232616
17.111,162300,415,232635
17.116,162308,414,232652
17.120,162297,415,232676
17.125,162287,413,232682
17.130,162319,414,232695
17.135,162332,413,232730
17.140,162339,413,232750
17.145,162366,413,232785
17.150,162360,412,232826
17.155,162383,420,232842
17.160,162415,419,232883
17.165,162423,417,232925
17.170,162456,418,232949
17.175,162460,417,233003
17.180,162473,417,233054
17.185,162505,415,233077
17.190,162520,416,233132
17.195,162543,415,233208
17.200,162578,414,233247
17.205,162604,413,233324
17.210,162624,410,233384
17.215,162668,408,233469
17.220,162717,409,233546
17.225,162745,406,233649
17.230,162797,420,233714
17.235,162820,418,233806
17.240,162867,418,233889
17.245,162903,417,233971
17.250,162963,417,234047
17.255,162998,406,234153
17.260,163038,414,234240
17.264,163083,412,234342
17.269,163140,412,234456
17.274,163196,411,234568
17.279,163251,412,234671
17.284,163307,414,234778
17.289,163368,415,234921
17.294,163425,413,235045
17.299,163480,412,235165
17.304,163552,418,235299
17.309,163598,418,235413
17.314,163661,404,235510
17.319,163690,404,235633
17.324,163739,406,235724
17.329,163789,408,235786
17.334,163811,404,235870
17.339,163872,404,235975
17.344,163888,406,236047
17.349,163928,407,236126
17.354,163960,410,236216
17.359,163991,411,236300
17.364,164018,412,236350
17.369,164055,412,236435
17.374,164084,411,236494
17.379,164150,412,236564
17.384,164161,413,236664
17.389,164211,412,236751
17.394,164253,412,236831
17.399,164302,412,236900
17.404,164339,419,237004
17.409,164381,417,237093
17.413,164436,416,237173
17.418,164481,414,237271
17.423,164523,414,237366
17.428,164563,413,237455
17.433,164603,411,237540
17.438,164650,409,237625
17.443,164683,408,237729
17.448,164734,407,237822
17.453,164781,412,237890
17.458,164819,411,237978
17.463,164860,414,238049
17.468,164877,411,238145
17.473,164903,412,238195
17.478,164938,410,238280
17.483,164970,413,238292
17.488,165001,411,238409
17.493,165021,413,238448
17.498,165040,414,238548
17.503,165072,404,238575
17.508,165092,418,238619
17.513,165118,417,238687
17.518,165153,415,238743
17.523,165178,417,238808
17.528,165205,415,238854
17.533,165227,416,238915
17.538,165255,413,238973
17.543,165273,416,239034
17.548,165283,405,239077
17.553,165313,406,239118
17.557,165334,406,239167
17.562,165345,407,239197
17.567,165371,405,239263
17.572,165398,405,239313
17.577,165433,403,239368
17.582,165439,403,239440
17.587,165479,416,239516
17.592,165539,418,239571
17.597,165580,406,239624
17.602,165588,408,239700
17.607,165629,406,239749
17.612,165635,405,239781
17.617,165663,401,239829
17.622,165664,419,239930
17.627,165660,338,239856
17.632,165684,345,239872
17.637,165699,348,239925
17.642,165719,352,239957
17.647,165742,349,239990
17.652,165742,351,240024
17.657,165768,350,240035
17.662,165793,354,240084
17.667,165795,353,240126
17.672,165832,355,240154
17.677,165835,354,240196
17.682,165852,356,240229
17.687,165857,369,240245
17.692,165871,365,240286
17.697,165904,355,240312
17.702,165888,373,240332
17.706,165897,372,240373
17.711,165906,373,240398
17.716,165914,372,240428
17.721,165918,374,240449
17.726,165941,375,240490
17.731,165918,460,240479
17.736,165935,448,240513
17.741,165932,445,240531
17.746,165938,432,240570
17.751,165943,430,240599
17.756,165976,424,240629
17.761,165955,425,240647
17.766,165968,436,240684
17.771,165978,436,240697
17.776,165980,432,240727
17.781,165986,433,240751
17.786,165988,432,240804
17.791,165998,401,240815
17.796,165998,419,240818
17.801,166027,418,240848
17.806,166018,415,240869
17.811,166012,415,240871
17.816,166017,428,240894
17.821,166019,426,240904
17.826,166038,423,240924
17.831,166038,422,240950
17.836,166038,420,240966
17.841,166044,414,240981
17.846,166047,415,241031
17.850,166059,414,241039
17.855,166069,410,241077
17.860,166076,423,241089
17.865,166064,420,241108
17.870,166084,418,241136
17.875,166100,414,241147
17.880,166105,413,241175
17.885,166085,412,241180
17.890,166103,418,241212
17.895,166120,413,241235
17.900,166109,414,241237
17.905,166129,412,241280
17.910,166131,412,241290
17.915,166157,410,241332
17.920,166167,412,241334
17.925,166169,410,241368
17.930,166177,409,241375
17.935,166184,407,241400
17.940,166194,419,241426
17.945,166186,418,241430
17.950,166200,417,241449
17.955,166192,416,241460
17.960,166211,413,241478
17.965,166200,412,241470
17.970,166203,412,241510
17.975,166205,409,241537
17.980,166218,409,241545
17.985,166234,408,241555
17.990,166233,415,241576
17.995,166238,411,241582
17.999,166241,411,241592
18.004,166246,411,241590
18.009,166243,409,241611
18.014,166240,406,241598
18.019,166247,405,241617
18.024,166227,405,241644
18.029,166236,418,241637
18.034,166234,420,241654
18.039,166239,405,241634
18.044,166223,405,241646
18.049,166213,405,241647
18.054,166208,405,241646
18.059,166208,404,241639
18.064,166220,416,241640
18.069,166203,417,241635
18.074,166201,416,241635
18.079,166193,414,241661
18.084,166176,404,241637
18.089,166192,405,241623
18.094,166181,418,241606
18.099,166180,415,241612
18.104,166167,415,241635
18.109,166177,413,241615
18.114,166178,410,241601
18.119,166164,407,241596
18.124,166166,407,241593
18.129,166149,403,241590
18.134,166168,407,241595
18.139,166145,403,241578
18.143,166147,403,241570
18.148,166137,414,241577
18.153,166130,413,241539
18.158,166113,411,241549
18.163,166118,410,241541
18.168,166117,408,241534
18.173,166129,405,241528
18.178,166110,403,241525
18.183,166123,409,241519
18.188,166108,407,241520
18.193,166104,405,241510
18.198,166109,402,241507
18.203,166103,403,241505
18.208,166093,414,241501
18.213,166106,412,241507
18.218,166111,407,241493
18.223,166095,409,241500
18.228,166113,405,241497
18.233,166084,412,241494
18.238,166111,409,241520
18.243,166095,409,241499
18.248,166101,406,241494
18.253,166097,405,241511
18.258,166098,402,241506
18.263,166106,403,241498
18.268,166100,415,241484
18.273,166106,414,241495
18.278,166122,412,241511
18.283,166113,403,241522
18.288,166125,401,241538
18.292,166128,401,241533
18.297,166122,413,241556
18.302,166129,414,241531
18.307,166135,412,241578
18.312,166137,408,241587
18.317,166149,407,241595
18.322,166147,408,241596
18.327,166162,405,241605
18.332,166171,410,241613
18.337,166169,408,241598
18.342,166186,408,241617
18.347,166172,406,241630
18.352,166183,406,241626
18.357,166181,404,241636
18.362,166186,404,241645
18.367,166195,402,241637
18.372,166181,402,241660
18.377,166195,411,241677
18.382,166195,415,241653
18.387,166196,413,241672
18.392,166194,413,241686
18.397,166208,411,241662
18.402,166207,413,241666
18.407,166200,412,241662
18.412,166209,412,241682
18.417,166218,409,241674
18.422,166215,412,241672
18.427,166218,401,241679
18.432,166234,401,241671
18.436,166230,414,241690
18.441,166222,415,241661
18.446,166224,413,241674
18.451,166222,411,241671
18.456,166232,410,241650
18.461,166252,411,241685
18.466,166227,407,241650
18.471,166231,409,241665
18.476,166228,399,241646
18.481,166210,401,241639
18.486,166201,401,241629
18.491,166186,415,241615
18.496,166185,413,241593
18.501,166185,414,241584
18.506,166171,411,241572
18.511,166156,412,241558
18.516,166142,408,241562
18.521,166146,408,241528
18.526,166121,414,241516
18.531,166102,414,241517
18.536,166086,412,241462
18.541,166079,412,241463
18.546,166064,411,241448
18.551,166035,410,241439
18.556,166032,408,241410
18.561,166031,411,241406
18.566,166002,411,241395
18.571,166007,406,241334
18.576,165997,402,241372
18.581,165971,403,241358
18.585,165962,402,241326
18.590,165959,401,241347
18.595,165932,401,241320
18.600,165947,403,241303
18.605,165916,401,241308
18.610,165908,402,241288
18.615,165918,402,241288
18.620,165930,329,241262
18.625,165893,343,241245
18.630,165896,349,241253
18.635,165886,350,241224
18.640,165854,353,241225
18.645,165853,357,241216
18.650,165858,360,241201
18.655,165853,359,241181
18.660,165843,362,241164
18.665,165825,363,241153
18.670,165814,357,241140
18.675,165799,357,241125
18.680,165781,359,241110
18.685,165770,360,241095
18.690,165759,362,241096
18.695,165747,361,241059
18.700,165737,361,241046
18.705,165739,360,241027
18.710,165737,363,241039
18.715,165711,360,241022
18.720,165695,372,241011
18.725,165697,466,240992
18.729,165699,449,240993
18.734,165689,443,240982
18.739,165683,438,240945
18.744,165677,435,240965
18.749,165675,431,240966
18.754,165673,428,240936
18.759,165673,427,240932
18.764,165671,425,240926
18.769,165658,429,240903
18.774,165653,428,240902
18.779,165646,428,240888
18.784,165628,428,240874
18.789,165624,426,240842
18.794,165598,424,240856
18.799,165622,424,240858
18.804,165606,424,240831
18.809,165612,423,240818
18.814,165585,423,240794
18.819,165573,412,240781
18.824,165567,412,240785
18.829,165543,411,240793
18.834,165557,411,240776
18.839,165556,423,240762
18.844,165550,424,240750
18.849,165538,422,240750
18.854,165537,421,240758
18.859,165548,419,240756
18.864,165524,403,240762
18.869,165548,409,240756
18.874,165536,410,240732
18.878,165527,409,240727
18.883,165528,411,240737
18.888,165532,409,240728
18.893,165537,408,240732
18.898,165526,407,240744
18.903,165525,408,240720
18.908,165525,407,240731
18.913,165522,411,240721
18.918,165516,409,240720
18.923,165518,411,240708
18.928,165527,412,240713
18.933,165520,413,240677
18.938,165527,411,240702
18.943,165516,413,240665
18.948,165510,412,240656
18.953,165501,411,240677
18.958,165491,412,240650
18.963,165494,405,240639
18.968,165486,403,240635
18.973,165484,403,240635
18.978,165474,403,240603
18.983,165475,406,240608
18.988,165466,404,240581
18.993,165465,403,240584
18.998,165466,416,240572
19.003,165469,416,240551
19.008,165465,413,240555
19.013,165465,407,240551
19.018,165453,406,240535
19.022,165469,406,240536
19.027,165467,405,240543
19.032,165477,404,240535
19.037,165452,403,240529
19.042,165460,404,240518
19.047,165457,403,240518
19.052,165472,402,240528
19.057,165469,400,240520
19.062,165458,410,240529
19.067,165478,407,240534
19.072,165492,407,240534
19.077,165509,405,240554
19.082,165499,407,240546
19.087,165504,406,240550
19.092,165507,406,240556
19.097,165512,405,240577
19.102,165524,406,240582
19.107,165504,404,240571
19.112,165521,415,240579
19.117,165530,412,240588
19.122,165544,412,240595
19.127,165548,410,240582
19.132,165553,408,240582
19.137,165558,406,240594
19.142,165561,408,240587
19.147,165557,404,240608
19.152,165558,406,240573
19.157,165572,408,240608
19.162,165565,411,240606
19.167,165584,410,240599
19.171,165571,410,240634
19.176,165578,407,240629
19.181,165610,408,240635
19.186,165595,407,240635
19.191,165599,407,240639
19.196,165606,403,240640
19.201,165626,404,240661
19.206,165614,408,240673
19.211,165637,408,240673
19.216,165640,406,240683
19.221,165627,409,240639
19.226,165637,409,240666
19.231,165628,411,240667
19.236,165612,409,240666
19.241,165613,411,240652
19.246,165616,410,240660
19.251,165602,412,240659
19.256,165592,402,240639
19.261,165595,404,240635
19.266,165570,401,240612
19.271,165570,401,240620
19.276,165547,400,240614
19.281,165552,400,240619
19.286,165522,412,240622
19.291,165525,413,240599
19.296,165531,412,240604
19.301,165498,412,240588
19.306,165503,402,240606
19.311,165483,402,240593
19.316,165486,399,240572
19.320,165477,400,240569
19.325,165486,399,240566
19.330,165479,414,240556
19.335,165447,412,240581
19.340,165453,412,240551
19.345,165451,411,240559
19.350,165451,414,240520
19.355,165456,408,240567
19.360,165440,408,240544
19.365,165413,407,240522
19.370,165418,406,240530
19.375,165430,405,240523
19.380,165426,405,240518
19.385,165405,406,240521
19.390,165415,406,240498
19.395,165379,405,240493
19.400,165427,410,240496
19.405,165378,398,240494
19.410,165392,413,240503
19.415,165371,412,240474
19.420,165366,412,240485
19.425,165349,410,240482
19.430,165340,410,240477
19.435,165345,409,240451
19.440,165345,409,240470
19.445,165330,408,240460
19.450,165343,403,240455
19.455,165331,404,240456
19.460,165325,405,240458
19.464,165321,404,240450
19.469,165316,404,240452
19.474,165323,405,240451
19.479,165322,404,240446
19.484,165305,404,240453
19.489,165313,405,240445
19.494,165309,405,240422
19.499,165311,411,240433
19.504,165317,411,240420
19.509,165313,411,240414
19.514,165315,410,240415
19.519,165307,410,240427
19.524,165310,411,240416
19.529,165289,410,240425
19.534,165303,408,240423
19.539,165313,406,240431
19.544,165299,401,240413
19.549,165285,412,240426
19.554,165301,410,240417
19.559,165304,411,240425
19.564,165282,409,240429
19.569,165294,410,240408
19.574,165301,409,240423
19.579,165292,407,240425
19.584,165294,408,240417
19.589,165312,408,240430
19.594,165299,408,240419
19.599,165301,411,240441
19.604,165314,412,240450
19.609,165305,407,240445
19.613,165313,404,240454
19.618,165338,314,240484
19.623,165333,331,240469
19.628,165348,336,240498
19.633,165326,338,240501
19.638,165339,339,240501
19.643,165343,353,240505
19.648,165332,351,240511
19.653,165348,351,240509
19.658,165363,352,240513
19.663,165358,354,240514
19.668,165364,354,240528
19.673,165358,354,240516
19.678,165378,354,240536
19.683,165379,355,240541
19.688,165375,367,240531
19.693,165387,359,240541
19.698,165386,356,240519
19.703,165410,356,240555
19.708,165397,358,240565
19.713,165407,372,240549
19.718,165386,371,240572
19.723,165397,535,240555
19.728,165408,451,240565
19.733,165414,444,240568
19.738,165404,438,240584
19.743,165429,434,240576
19.748,165419,435,240577
19.753,165413,432,240578
19.757,165422,426,240567
19.762,165410,427,240579
19.767,165429,421,240587
19.772,165423,419,240575
19.777,165431,417,240586
19.782,165413,417,240571
19.787,165426,413,240567
19.792,165434,419,240578
19.797,165428,415,240595
19.802,165434,417,240585
19.807,165448,414,240578
19.812,165429,414,240579
19.817,165419,410,240591
19.822,165440,410,240605
19.827,165435,408,240580
19.832,165434,408,240579
19.837,165435,405,240600
19.842,165433,410,240591
19.847,165426,410,240589
19.852,165441,409,240573
19.857,165450,404,240588
19.862,165426,420,240572
19.867,165435,415,240580
19.872,165440,415,240558
19.877,165441,411,240566
19.882,165437,410,240571
19.887,165436,409,240568
19.892,165426,414,240556
19.897,165426,410,240547
19.902,165442,410,240538
19.906,165426,407,240543
19.911,165425,406,240557
19.916,165428,403,240539
19.921,165421,404,240527
19.926,165422,403,240497
19.931,165423,416,240518
19.936,165458,404,240522
19.941,165422,406,240506
19.946,165415,404,240482
19.951,165420,404,240501
19.956,165422,401,240493
19.961,165407,415,240478
19.966,165414,412,240470
19.971,165420,412,240456
19.976,165407,410,240475
19.981,165421,409,240454
19.986,165387,400,240456
19.991,165375,415,240408
19.996,165374,412,240442
20.001,165388,412,240422
20.006,165351,412,240403
20.011,165348,413,240399
20.016,165348,412,240385
20.021,165330,412,240366
20.026,165302,412,240354
20.031,165313,413,240346
20.036,165299,403,240342
20.041,165278,404,240339
20.046,165279,403,240331
20.050,165278,404,240323
20.055,165265,403,240295
20.060,165251,401,240302
20.065,165248,400,240293
20.070,165230,414,240297
20.075,165227,413,240283
20.080,165217,406,240291
20.085,165231,404,240285
20.090,165219,404,240301
20.095,165222,402,240309
20.100,165209,401,240291
20.105,165207,401,240293
20.110,165204,400,240297
20.115,165206,398,240303
20.120,165199,410,240297
20.125,165209,412,240290
20.130,165201,411,240277
20.135,165206,409,240299
20.140,165201,409,240298
20.145,165211,409,240302
20.150,165181,408,240294
20.155,165188,406,240293
20.160,165180,405,240292
20.165,165193,405,240293
20.170,165199,403,240281
20.175,165178,402,240292
20.180,165184,423,240293
20.185,165165,399,240283
20.190,165168,412,240283
20.195,165172,409,240284
20.199,165180,408,240279
20.204,165180,406,240263
20.209,165162,405,240274
20.214,165173,403,240281
20.219,165166,402,240252
20.224,165171,403,240260
20.229,165183,409,240274
20.234,165153,398,240262
20.239,165176,398,240264
20.244,165160,412,240265
20.249,165153,410,240259
20.254,165156,409,240249
20.259,165159,406,240236
20.264,165148,408,240256
20.269,165147,405,240240
20.274,165154,404,240229
20.279,165157,397,240215
20.284,165130,412,240212
20.289,165132,411,240214
20.294,165129,409,240199
20.299,165131,407,240195
20.304,165117,408,240205
20.309,165117,406,240199
20.314,165116,406,240184
20.319,165115,403,240169
20.324,165112,405,240145
20.329,165111,409,240175
20.334,165101,408,240164
20.339,165097,407,240165
20.343,165121,406,240150
20.348,165090,405,240158
20.353,165097,404,240167
20.358,165094,403,240151
20.363,165087,403,240168
20.368,165080,400,240156
20.373,165099,400,240147
20.378,165075,406,240134
20.383,165078,407,240134
20.388,165068,403,240142
20.393,165081,404,240113
20.398,165086,400,240142
20.403,165086,401,240123
20.408,165066,398,240144
20.413,165075,411,240131
20.418,165077,409,240135
20.423,165084,411,240168
20.428,165096,398,240147
20.433,165074,411,240160
20.438,165080,408,240133
20.443,165091,408,240160
20.448,165095,405,240142
20.453,165076,407,240150
20.458,165092,403,240148
20.463,165094,404,240146
20.468,165119,403,240143
20.473,165115,406,240142
20.478,165094,405,240168
20.483,165098,405,240163
20.488,165100,403,240164
20.492,165102,403,240143
20.497,165110,402,240164
20.502,165120,403,240167
20.507,165108,401,240195
20.512,165110,404,240205
20.517,165117,400,240185
20.522,165116,407,240204
20.527,165140,405,240176
20.532,165137,405,240188
20.537,165150,402,240203
20.542,165142,405,240196
20.547,165146,404,240225
20.552,165163,402,240225
20.557,165158,400,240218
20.562,165160,402,240232
20.567,165170,402,240226
20.572,165193,396,240218
20.577,165179,398,240227
20.582,165183,400,240237
20.587,165193,398,240248
20.592,165183,397,240256
20.597,165193,409,240244
20.602,165198,409,240258
20.607,165189,408,240256
20.612,165208,408,240266
20.617,165203,403,240279
20.622,165209,322,240277
20.627,165215,343,240283
20.632,165222,347,240284
20.636,165198,349,240288
20.641,165220,350,240272
20.646,165218,350,240287
20.651,165218,352,240285
20.656,165226,351,240303
20.661,165235,353,240284
20.666,165236,352,240300
20.671,165229,360,240289
20.676,165233,358,240326
20.681,165254,360,240292
20.686,165250,360,240294
20.691,165253,360,240308
20.696,165259,359,240322
20.701,165258,361,240298
20.706,165273,360,240297
20.711,165263,361,240310
20.716,165257,389,240298
20.721,165269,368,240313
20.726,165275,450,240308
20.731,165276,439,240315
20.736,165283,432,240346
20.741,165291,429,240337
20.746,165285,425,240323
20.751,165292,423,240334
20.756,165295,419,240323
20.761,165294,417,240338
20.766,165303,420,240332
20.771,165292,420,240316
20.776,165308,416,240312
20.781,165307,414,240306
20.785,165290,412,240316
20.790,165290,425,240281
20.795,165288,421,240294
20.800,165273,420,240273
20.805,165262,418,240283
20.810,165251,417,240277
20.815,165270,409,240269
20.820,165237,411,240271
20.825,165231,410,240253
20.830,165213,408,240239
20.835,165204,420,240232
20.840,165191,416,240218
20.845,165181,415,240210
20.850,165181,414,240220
20.855,165178,411,240206
20.860,165159,409,240190
20.865,165170,404,240178
20.870,165143,408,240187
20.875,165133,407,240178
20.880,165130,406,240194
20.885,165129,405,240158
20.890,165115,403,240165
20.895,165098,403,240158
20.900,165109,415,240150
20.905,165102,415,240168
20.910,165105,414,240171
20.915,165103,405,240154
20.920,165096,403,240149
20.925,165090,403,240125
20.929,165081,402,240142
20.934,165081,415,240135
20.939,165090,413,240136
20.944,165065,415,240119
20.949,165072,414,240145
20.954,165074,410,240146
20.959,165074,416,240207
20.964,165058,405,240118
20.969,165052,403,240126
20.974,165042,402,240136
20.979,165053,400,240131
20.984,165043,400,240128
20.989,165028,400,240112
20.994,165051,414,240119
20.999,165026,412,240125
21.004,165044,412,240113
21.009,164996,401,240120
21.014,165045,402,240119
21.019,165052,400,240118
21.024,165037,402,240140
21.029,165035,400,240129
21.034,165034,398,240119
21.039,165040,411,240141
21.044,165051,413,240130
21.049,165041,412,240123
21.054,165034,412,240107
21.059,165051,402,240136
21.064,165034,403,240129
21.069,165045,402,240133
21.074,165044,402,240139
21.078,165032,400,240139
21.083,165034,402,240116
21.088,165037,401,240138
21.093,165048,401,240134
21.098,165045,401,240128
21.103,165035,403,240133
21.108,165040,408,240146
21.113,165027,408,240129
21.118,165033,406,240125
21.123,165012,409,240134
21.128,165032,408,240127
21.133,165013,410,240137
21.138,165023,408,240133
21.143,165024,411,240122
21.148,165027,411,240145
21.153,165023,410,240133
21.158,165026,401,240118
21.163,165023,404,240125
21.168,165014,404,240119
21.173,165010,404,240113
21.178,165013,404,240149
21.183,165015,407,240115
21.188,165004,405,240118
21.193,165011,407,240118
21.198,165020,405,240129
21.203,165018,408,240127
21.208,165004,397,240107
21.213,165006,399,240123
21.218,165011,398,240109
21.222,164995,399,240108
21.227,165004,398,240111
21.232,165005,399,240108
21.237,165003,397,240129
21.242,165012,398,240088
21.247,165011,397,240112
21.252,165030,405,240112
21.257,165016,406,240102
21.262,165020,407,240109
21.267,165004,405,240105
21.272,165003,407,240088
21.277,165018,404,240091
21.282,165013,406,240091
21.287,165018,405,240113
21.292,165014,403,240092
21.297,165007,400,240114
21.302,165020,407,240083
21.307,165008,405,240095
21.312,165010,404,240097
21.317,165015,401,240101
21.322,165007,401,240098
21.327,165020,398,240110
21.332,165030,398,240099
21.337,165022,396,240088
21.342,165026,397,240094
21.347,165022,410,240080
21.352,165022,400,240081
21.357,165024,398,240101
21.362,165039,399,240098
21.367,165037,398,240103
21.371,165037,397,240119
21.376,165056,395,240125
21.381,165042,396,240120
21.386,165055,396,240118
21.391,165050,411,240125
21.396,165040,406,240120
21.401,165056,400,240113
21.406,165063,398,240100
21.411,165046,395,240130
21.416,165049,407,240114
21.421,165058,406,240105
21.426,165057,404,240111
21.431,165056,403,240093
21.436,165061,401,240079
21.441,165034,400,240057
21.446,165042,398,240054
21.451,165027,403,240017
21.456,165021,400,240016
21.461,165024,400,239999
21.466,165009,400,239993
21.471,165008,399,239953
21.476,164994,397,239963
21.481,164996,397,239961
21.486,164990,396,239923
21.491,164987,396,239920
21.496,164975,397,239844
21.501,164974,399,239880
21.506,164989,398,239907
21.511,164994,396,239909
21.515,164991,395,239906
21.520,164979,395,239917
21.525,164977,406,239917
21.530,165000,407,239917
21.535,165002,403,239910
21.540,165014,401,239946
21.545,165001,405,239919
21.550,165025,403,239945
21.555,165005,401,239945
21.560,165048,400,239959
21.565,165028,399,239955
21.570,165028,398,239970
21.575,165028,397,239938
21.580,165021,395,239944
21.585,165020,409,239958
21.590,165025,407,239951
21.595,165008,398,239961
21.600,165014,396,239949
21.605,164999,395,239954
21.610,164982,409,239931
21.615,164999,407,239938
21.620,164978,327,239924
21.625,164961,336,239922
21.630,164952,338,239915
21.635,164951,341,239892
21.640,164922,343,239907
21.645,164927,351,239879
21.650,164923,349,239876
21.655,164913,351,239876
21.660,164900,351,239870
21.664,164895,353,239861
21.669,164883,353,239875
21.674,164893,354,239864
21.679,164888,353,239868
21.684,164884,354,239843
21.689,164895,353,239834
21.694,164867,364,239842
21.699,164875,363,239834
21.704,164864,365,239831
21.709,164859,363,239836
21.714,164859,363,239820
21.719,164857,363,239811
21.724,164827,457,239808
21.729,164855,442,239796
21.734,164824,436,239799
21.739,164843,433,239795
21.744,164786,436,239772
21.749,164827,422,239761
21.754,164815,420,239771
21.759,164827,415,239765
21.764,164808,430,239758
21.769,164811,427,239767
21.774,164801,424,239753
21.779,164787,421,239741
21.784,164802,420,239740
21.789,164838,409,239737
21.794,164801,410,239753
21.799,164814,407,239745
21.804,164784,421,239736
21.808,164794,417,239738
21.813,164792,419,239724
21.818,164784,416,239742
21.823,164799,418,239744
21.828,164793,415,239745
21.833,164797,415,239731
21.838,164801,405,239738
21.843,164785,405,239741
21.848,164798,403,239730
21.853,164789,403,239728
21.858,164791,401,239719
21.863,164795,418,239732
21.868,164773,414,239707
21.873,164785,415,239704
21.878,164791,413,239696
21.883,164776,413,239690
21.888,164766,402,239688
21.893,164775,402,239708
21.898,164778,413,239708
21.903,164767,413,239697
21.908,164769,410,239704
21.913,164779,412,239693
21.918,164763,408,239707
21.923,164764,407,239727
21.928,164762,404,239715
21.933,164766,407,239714
21.938,164765,402,239698
21.943,164766,404,239723
21.948,164766,402,239703
21.953,164762,401,239719
21.957,164767,397,239712
21.962,164774,412,239718
21.967,164783,410,239714
21.972,164777,409,239711
21.977,164775,405,239706
21.982,164779,406,239703
21.987,164786,401,239708
21.992,164777,399,239690
21.997,164780,397,239683
22.002,164777,411,239665
22.007,164771,408,239677
22.012,164778,407,239682
22.017,164785,403,239639
22.022,164781,403,239634
22.027,164775,400,239645
22.032,164778,409,239587
22.037,164767,401,239597
22.042,164759,401,239572
22.047,164752,399,239557
22.052,164757,400,239519
22.057,164736,397,239515
22.062,164736,411,239505
22.067,164733,407,239511
22.072,164728,407,239475
22.077,164709,404,239454
22.082,164750,412,239416
22.087,164730,396,239437
22.092,164707,410,239416
22.097,164707,406,239422
22.102,164712,405,239412
22.106,164730,403,239410
22.111,164722,401,239440
22.116,164728,398,239433
22.121,164749,397,239442
22.126,164750,397,239451
22.131,164758,402,239464
22.136,164772,397,239471
22.141,164778,397,239480
22.146,164764,409,239469
22.151,164776,408,239465
22.156,164771,407,239473
22.161,164776,407,239451
22.166,164766,406,239455
22.171,164766,405,239441
22.176,164764,403,239458
22.181,164772,408,239425
22.186,164757,406,239429
22.191,164770,405,239413
22.196,164768,402,239421
22.201,164768,401,239424
22.206,164776,397,239422
22.211,164758,397,239438
22.216,164783,408,239425
22.221,164776,407,239421
22.226,164796,406,239427
22.231,164777,397,239431
22.236,164788,394,239444
22.241,164812,409,239452
22.246,164813,407,239444
22.250,164815,406,239479
22.255,164828,405,239493
22.260,164819,403,239469
22.265,164837,401,239477
22.270,164832,400,239473
22.275,164823,399,239492
22.280,164844,402,239492
22.285,164857,402,239506
22.290,164855,399,239501
22.295,164855,397,239512
22.300,164856,395,239507
22.305,164870,408,239498
22.310,164860,405,239514
22.315,164864,403,239501
22.320,164881,401,239524
22.325,164879,408,239526
22.330,164875,395,239516
22.335,164881,409,239497
22.340,164890,408,239510
22.345,164891,405,239506
22.350,164895,404,239503
22.355,164877,402,239481
22.360,164877,400,239472
22.365,164865,401,239443
22.370,164844,400,239427
22.375,164820,411,239409
22.380,164824,397,239412
22.385,164834,398,239394
22.390,164815,397,239378
22.395,164788,397,239368
22.399,164785,396,239375
22.404,164762,396,239347
22.409,164768,395,239307
22.414,164752,408,239305
22.419,164731,407,239279
22.424,164710,400,239237
22.429,164704,397,239227
22.434,164691,396,239221
22.439,164667,408,239193
22.444,164657,408,239177
22.449,164668,406,239173
22.454,164626,405,239157
22.459,164653,404,239126
22.464,164626,404,239112
22.469,164634,402,239093
22.474,164610,408,239082
22.479,164608,404,239066
22.484,164594,404,239062
22.489,164596,402,239011
22.494,164581,399,238984
22.499,164568,399,238971
22.504,164556,399,238959
22.509,164532,399,238910
22.514,164527,399,238882
22.519,164510,397,238866
22.524,164515,404,238856
22.529,164492,402,238833
22.534,164490,402,238787
22.539,164466,399,238769
22.543,164438,400,238735
22.548,164432,398,238659
22.553,164408,399,238659
22.558,164387,396,238633
22.563,164366,397,238583
22.568,164344,403,238482
22.573,164332,402,238502
22.578,164322,399,238455
22.583,164296,400,238444
22.588,164287,398,238391
22.593,164270,397,238346
22.598,164247,394,238304
22.603,164221,395,238268
22.608,164218,408,238216
22.613,164193,408,238170
22.618,164218,300,238125
22.623,164170,322,238090
22.628,164122,329,238019
22.633,164114,331,237983
22.638,164103,333,237949
22.643,164076,352,237905
22.648,164082,351,237870
22.653,164046,353,237819
22.658,164024,353,237797
22.663,164024,354,237758
22.668,163992,360,237720
22.673,163977,361,237689
22.678,163971,359,237653
22.683,163957,360,237630
22.688,163954,358,237617
22.692,163936,359,237597
22.697,163934,357,237574
22.702,163914,357,237575
22.707,163906,355,237565
22.712,163914,356,237535
22.717,163897,363,237528
22.722,163907,362,237431
22.727,163878,441,237511
22.732,163878,434,237496
22.737,163884,427,237496
22.742,163877,424,237517
22.747,163879,421,237467
22.752,163881,421,237489
22.757,163887,417,237500
22.762,163886,415,237511
22.767,163892,419,237527
22.772,163889,418,237542
22.777,163903,414,237564
22.782,163920,414,237570
22.787,163899,409,237596
22.792,163918,423,237608
22.797,163944,420,237624
22.802,163948,417,237646
22.807,163952,415,237657
22.812,163972,414,237691
22.817,163969,408,237718
22.822,163998,409,237738
22.827,163991,409,237736
22.832,164007,407,237780
22.836,164005,404,237811
22.841,164042,403,237816
22.846,164031,417,237830
22.851,164042,416,237857
22.856,164056,414,237909
22.861,164095,396,237912
22.866,164085,403,237977
22.871,164113,403,237996
22.876,164137,401,238023
22.881,164154,402,238051
22.886,164155,414,238087
22.891,164178,414,238118
22.896,164179,411,238121
22.901,164191,409,238144
22.906,164205,409,238178
22.911,164208,415,238186
22.916,164210,409,238227
22.921,164232,409,238231
22.926,164228,407,238264
22.931,164254,405,238291
22.936,164267,401,238331
22.941,164286,400,238354
22.946,164295,399,238377
22.951,164322,412,238414
22.956,164334,407,238451
22.961,164341,397,238459
22.966,164339,410,238510
22.971,164357,408,238518
22.976,164389,405,238560
22.981,164400,402,238585
22.985,164412,400,238608
22.990,164425,398,238630
22.995,164427,411,238669
23.000,164449,409,238701
23.005,164453,411,238709
23.010,164461,401,238731
23.015,164455,399,238750
23.020,164490,399,238768
23.025,164479,398,238798
23.030,164480,411,238801
23.035,164495,408,238814
23.040,164511,406,238842
23.045,164522,405,238877
23.050,164519,402,238890
23.055,164534,399,238879
23.060,164548,396,238917
23.065,164564,411,238917
23.070,164562,406,238926
23.075,164574,403,238953
23.080,164590,400,238977
23.085,164578,400,238988
23.090,164595,397,239011
23.095,164601,409,239029
23.100,164608,405,239040
23.105,164619,411,239072
23.110,164617,408,239057
23.115,164613,405,239068
23.120,164644,402,239053
23.125,164635,400,239089
23.129,164650,397,239097
23.134,164654,396,239109
23.139,164663,407,239121
23.144,164658,407,239115
23.149,164659,402,239122
23.154,164649,407,239128
23.159,164679,405,239140
23.164,164658,403,239140
23.169,164644,402,239148
23.174,164668,399,239146
23.179,164645,394,239136
23.184,164634,411,239136
23.189,164650,406,239109
23.194,164634,404,239124
23.199,164622,402,239133
23.204,164639,399,239143
23.209,164609,397,239155
23.214,164614,396,239164
23.219,164593,394,239147
23.224,164603,410,239123
23.229,164585,406,239141
23.234,164594,407,239165
23.239,164594,404,239185
23.244,164583,404,239171
23.249,164590,402,239190
23.254,164606,396,239196
23.259,164589,396,239227
23.264,164593,396,239223
23.269,164605,394,239230
23.274,164605,407,239248
23.278,164610,404,239288
23.283,164610,404,239300
23.288,164612,402,239301
23.293,164629,400,239342
23.298,164638,393,239381
23.303,164631,402,239383
23.308,164641,398,239399
23.313,164632,398,239413
23.318,164644,395,239435
23.323,164650,397,239447
23.328,164657,393,239469
23.333,164668,407,239485
23.338,164667,404,239504
23.343,164670,405,239509
23.348,164678,402,239529
23.353,164666,393,239548
23.358,164689,406,239569
23.363,164691,406,239572
23.368,164684,403,239585
23.373,164700,402,239633
23.378,164715,399,239644
23.383,164714,399,239637
23.388,164721,396,239667
23.393,164723,397,239694
23.398,164734,423,239718
23.403,164728,400,239729
23.408,164752,398,239768
23.413,164776,396,239783
23.418,164759,393,239789
23.422,164771,395,239826
23.427,164786,406,239835
23.432,164802,406,239864
23.437,164802,403,239887
23.442,164816,404,239910
23.447,164825,393,239919
23.452,164831,393,239937
23.457,164851,405,239968
23.462,164847,404,239975
23.467,164852,402,239987
23.472,164854,400,240015
23.477,164878,398,240054
23.482,164866,396,240063
23.487,164871,395,240073
23.492,164870,395,240100
23.497,164895,398,240125
23.502,164901,397,240163
23.507,164930,396,240186
23.512,164933,395,240225
23.517,164927,394,240247
23.522,164963,394,240273
23.527,164959,393,240296
23.532,164977,392,240327
23.537,164991,404,240342
23.542,165008,403,240343
23.547,165011,400,240366
23.552,165005,399,240378
23.557,165020,397,240415
23.562,165034,396,240433
23.567,165028,395,240458
23.571,165052,393,240474
23.576,165045,391,240492
23.581,165060,403,240488
23.586,165058,402,240516
23.591,165059,400,240534
23.596,165078,404,240548
23.601,165068,403,240551
23.606,165087,403,240567
23.611,165110,400,240576
23.616,165129,397,240589
23.621,165102,323,240605
23.626,165121,328,240635
23.631,165119,331,240636
23.636,165136,333,240650
23.641,165137,338,240668
23.646,165128,343,240672
23.651,165161,343,240704
23.656,165158,343,240705
23.661,165174,358,240710
23.666,165181,357,240720
23.671,165170,358,240742
23.676,165180,358,240777
23.681,165191,358,240783
23.686,165203,359,240789
23.691,165254,364,240815
23.696,165218,364,240801
23.701,165202,363,240811
23.706,165230,363,240816
23.711,165238,362,240846
23.715,165244,362,240862
23.720,165241,363,240850
23.725,165241,443,240885
23.730,165254,431,240883
23.735,165263,426,240893
23.740,165282,435,240907
23.745,165258,415,240899
23.750,165274,426,240911
23.755,165287,422,240923
23.760,165283,418,240942
23.765,165298,416,240930
23.770,165296,413,240947
23.775,165304,413,240956
23.780,165293,409,240972
23.785,165315,408,240999
23.790,165326,419,240979
23.795,165311,414,241001
23.800,165328,413,240985
23.805,165319,413,241019
23.810,165326,410,241024
23.815,165343,408,241036
23.820,165363,405,241072
23.825,165368,406,241063
23.830,165365,403,241070
23.835,165386,398,241073
23.840,165382,405,241103
23.845,165393,404,241105
23.850,165418,401,241123
23.855,165406,400,241159
23.860,165419,398,241161
23.864,165429,398,241171
23.869,165430,397,241175
23.874,165446,397,241206
23.879,165451,409,241216
23.884,165460,408,241217
23.889,165466,403,241228
23.894,165486,402,241243
23.899,165484,401,241251
23.904,165483,400,241273
23.909,165505,398,241303
23.914,165499,397,241296
23.919,165517,408,241307
23.924,165510,408,241320
23.929,165525,406,241345
23.934,165541,425,241375
23.939,165546,393,241402
23.944,165558,396,241402
23.949,165558,407,241419
23.954,165590,404,241448
23.959,165596,401,241451
23.964,165598,401,241471
23.969,165621,399,241490
23.974,165625,396,241508
23.979,165632,393,241538
23.984,165637,397,241535
23.989,165640,395,241553
23.994,165649,393,241542
23.999,165661,404,241571
24.004,165659,402,241566
24.008,165649,399,241559
24.013,165662,395,241602
24.018,165651,392,241574
24.023,165662,403,241584
24.028,165641,399,241593
24.033,165644,404,241604
24.038,165646,401,241580
24.043,165634,400,241601
24.048,165628,396,241594
24.053,165638,394,241598
24.058,165632,403,241595
24.063,165627,402,241579
24.068,165629,399,241596
24.073,165620,397,241599
24.078,165600,393,241597
24.083,165603,399,241605
24.088,165604,396,241600
24.093,165589,393,241585
24.098,165586,391,241591
24.103,165584,405,241580
24.108,165591,402,241591
24.113,165569,400,241576
24.118,165572,397,241582
24.123,165569,397,241562
24.128,165570,393,241563
24.133,165566,399,241562
24.138,165566,396,241557
24.143,165570,395,241556
24.148,165550,393,241539
24.153,165550,392,241539
24.157,165542,402,241545
24.162,165539,401,241541
24.167,165534,397,241543
24.172,165540,395,241519
24.177,165551,392,241526
24.182,165539,394,241519
24.187,165525,391,241530
24.192,165522,403,241525
24.197,165518,400,241548
24.202,165522,398,241513
24.207,165514,395,241518
24.212,165516,392,241528
24.217,165525,403,241536
24.222,165519,401,241552
24.227,165494,396,241538
24.232,165521,401,241551
24.237,165536,397,241558
24.242,165528,394,241554
24.247,165528,393,241558
24.252,165528,391,241568
24.257,165515,403,241561
24.262,165531,400,241579
24.267,165527,400,241546
24.272,165533,399,241563
24.277,165511,389,241574
24.282,165516,404,241554
24.287,165544,402,241554
24.292,165538,399,241592
24.297,165526,398,241569
24.301,165520,397,241605
24.306,165521,396,241580
24.311,165531,394,241598
24.316,165531,394,241590
24.321,165546,391,241592
24.326,165541,396,241599
24.331,165524,394,241579
24.336,165529,393,241594
24.341,165542,391,241596
24.346,165534,391,241608
24.351,165534,403,241604
24.356,165539,403,241615
24.361,165544,401,241599
24.366,165553,400,241630
24.371,165538,399,241619
24.376,165545,404,241626
24.381,165544,401,241611
24.386,165540,403,241620
24.391,165537,398,241628
24.396,165554,396,241607
24.401,165551,395,241623
24.406,165547,394,241621
24.411,165539,392,241635
24.416,165556,391,241641
24.421,165544,403,241622
24.426,165563,394,241630
24.431,165559,392,241631
24.436,165561,392,241626
24.441,165570,390,241629
24.446,165573,390,241648
24.450,165568,403,241629
24.455,165564,401,241631
24.460,165555,397,241641
24.465,165568,397,241638
24.470,165570,404,241657
24.475,165576,401,241639
24.480,165565,399,241642
24.485,165570,400,241653
24.490,165572,398,241637
24.495,165589,398,241645
24.500,165577,396,241654
24.505,165591,398,241647
24.510,165589,397,241641
24.515,165584,397,241654
24.520,165592,400,241639
24.525,165595,402,241655
24.530,165595,400,241669
24.535,165599,400,241676
24.540,165610,398,241667
24.545,165608,399,241679
24.550,165601,396,241674
24.555,165593,396,241671
24.560,165607,394,241676
24.565,165596,393,241697
24.570,165618,396,241678
24.575,165621,397,241679
24.580,165603,394,241687
24.585,165629,394,241701
24.590,165626,391,241699
24.594,165634,390,241701
24.599,165639,388,241708
24.604,165639,403,241727
24.609,165644,401,241688
24.614,165638,400,241708
24.619,165686,320,241710
24.624,165632,333,241707
24.629,165639,337,241713
24.634,165651,339,241730
24.639,165644,339,241727
24.644,165645,341,241711
24.649,165643,341,241725
24.654,165654,342,241703
24.659,165648,342,241716
24.664,165669,344,241730
24.669,165657,358,241697
24.674,165663,358,241721
24.679,165663,356,241712
24.684,165659,358,241708
24.689,165668,357,241739
24.694,165663,358,241736
24.699,165672,355,241736
24.704,165678,356,241733
24.709,165684,354,241762
24.714,165681,357,241754
24.719,165687,352,241743
24.724,165666,452,241760
24.729,165699,439,241757
24.734,165701,434,241770
24.739,165711,427,241771
24.743,165736,426,241789
24.748,165724,422,241783
24.753,165732,420,241803
24.758,165722,416,241811
24.763,165690,419,241812
24.768,165750,404,241833
24.773,165745,418,241829
24.778,165765,414,241838
24.783,165771,414,241858
24.788,165775,412,241849
24.793,165788,412,241865
24.798,165793,409,241885
24.803,165801,408,241881
24.808,165792,406,241885
24.813,165791,412,241886
24.818,165787,410,241880
24.823,165791,409,241887
24.828,165807,407,241872
24.833,165800,406,241882
24.838,165805,402,241886
24.843,165788,402,241865
24.848,165796,399,241891
24.853,165785,400,241888
24.858,165799,399,241865
24.863,165789,384,241832
24.868,165780,398,241887
24.873,165769,397,241861
24.878,165775,396,241854
24.883,165749,395,241846
24.887,165756,393,241839
24.892,165763,408,241853
24.897,165749,406,241861
24.902,165747,405,241850
24.907,165741,404,241854
24.912,165714,394,241851
24.917,165725,392,241825
24.922,165732,392,241843
24.927,165733,407,241848
24.932,165727,406,241837
24.937,165733,404,241854
24.942,165729,404,241847
24.947,165715,404,241843
24.952,165712,404,241845
24.957,165725,403,241824
24.962,165704,394,241842
24.967,165703,396,241833
24.972,165712,394,241813
24.977,165689,392,241839
24.982,165700,392,241840
24.987,165711,392,241843
24.992,165693,393,241826
24.997,165700,391,241829
25.002,165678,392,241837
25.007,165685,391,241818
25.012,165684,395,241819
25.017,165680,394,241816
25.022,165690,392,241820
25.027,165678,390,241812
25.032,165689,391,241814
25.036,165683,403,241807
25.041,165672,401,241838
25.046,165676,400,241802
25.051,165684,399,241815
25.056,165679,403,241812
25.061,165673,401,241829
25.066,165665,402,241818
25.071,165686,401,241831
25.076,165668,399,241833
25.081,165695,399,241820
25.086,165685,399,241857
25.091,165679,397,241837
25.096,165680,397,241831
25.101,165668,396,241851
25.106,165688,404,241825
25.111,165686,402,241834
25.116,165696,401,241825
25.121,165688,402,241835
25.126,165693,400,241833
25.131,165704,401,241821
25.136,165699,402,241850
25.141,165697,401,241836
25.146,165692,404,241845
25.151,165689,390,241858
25.156,165688,395,241838
25.161,165690,393,241837
25.166,165685,395,241832
25.171,165679,394,241834
25.176,165695,395,241841
25.181,165686,394,241838
25.185,165672,395,241812
25.190,165669,392,241831
25.195,165680,392,241819
25.200,165690,391,241820
25.205,165669,396,241815
25.210,165677,395,241827
25.215,165689,394,241817
25.220,165691,394,241813
25.225,165691,395,241829
25.230,165666,393,241822
25.235,165684,395,241826
25.240,165683,393,241816
25.245,165691,393,241828
25.250,165684,393,241823
25.255,165689,398,241823
25.260,165685,396,241837
25.265,165703,397,241849
25.270,165706,397,241840
25.275,165699,398,241839
25.280,165703,397,241822
25.285,165692,398,241856
25.290,165697,397,241845
25.295,165689,397,241853
25.300,165723,403,241847
25.305,165707,393,241857
25.310,165718,392,241866
25.315,165721,393,241845
25.320,165721,392,241866
25.325,165721,394,241888
25.329,165725,392,241847
25.334,165724,393,241878
25.339,165748,391,241883
25.344,165738,392,241883
25.349,165765,400,241895
25.354,165745,397,241902
25.359,165756,396,241903
25.364,165753,399,241918
25.369,165762,396,241890
25.374,165771,397,241919
25.379,165764,395,241918
25.384,165771,396,241916
25.389,165758,394,241922
25.394,165771,395,241926
25.399,165789,398,241940
25.404,165796,398,241945
25.409,165794,399,241937
25.414,165776,397,241951
25.419,165788,394,241959
25.424,165800,396,241953
25.429,165810,396,241968
25.434,165818,398,241952
25.439,165807,397,241970
25.444,165811,395,241999
25.449,165823,396,241991
25.454,165826,398,241974
25.459,165819,398,241992
25.464,165835,398,241989
25.469,165841,396,242004
25.474,165841,397,241993
25.478,165838,394,242012
25.483,165858,395,242018
25.488,165853,393,242027
25.493,165854,393,242032
25.498,165862,398,242029
25.503,165865,400,242031
25.508,165875,399,242053
25.513,165874,400,242047
25.518,165872,398,242036
25.523,165890,398,242051
25.528,165888,396,242052
25.533,165899,398,242076
25.538,165907,395,242060
25.543,165907,425,242096
25.548,165899,389,242080
25.553,165916,390,242060
25.558,165917,390,242058
25.563,165928,392,242096
25.568,165925,391,242083
25.573,165944,393,242101
25.578,165936,390,242096
25.583,165939,391,242105
25.588,165953,391,242107
25.593,165954,398,242114
25.598,165960,397,242114
25.603,165955,399,242140
25.608,165977,401,242116
25.613,165978,401,242123
25.618,165967,227,242142
25.622,165990,333,242118
25.627,165975,340,242142
25.632,165973,345,242134
25.637,165966,347,242126
25.642,165971,339,242125
25.647,165967,341,242115
25.652,165967,343,242129
25.657,165959,342,242096
25.662,165950,343,242112
25.667,165937,343,242100
25.672,165942,344,242089
25.677,165930,344,242100
25.682,165921,360,242082
25.687,165901,360,242078
25.692,165917,362,242078
25.697,165898,347,242070
25.702,165888,363,242068
25.707,165896,362,242056
25.712,165901,364,242049
25.717,165890,361,242066
25.722,165894,362,242052
25.727,165876,434,242058
25.732,165886,426,242048
25.737,165892,421,242057
25.742,165880,426,242054
25.747,165876,422,242034
25.752,165864,421,242051
25.757,165860,416,242038
25.762,165875,414,242049
25.767,165862,414,242031
25.771,165876,411,242024
25.776,165857,408,242009
25.781,165851,407,242017
25.786,165850,413,242004
25.791,165856,411,241995
25.796,165836,410,242005
25.801,165844,409,241961
25.806,165835,411,241957
25.811,165820,408,241970
25.816,165814,408,241969
25.821,165830,406,241973
25.826,165810,408,241952
25.831,165819,407,241951
25.836,165808,398,241960
25.841,165814,398,241965
25.846,165809,397,241936
25.851,165803,396,241947
25.856,165792,396,241949
25.861,165808,395,241950
25.866,165796,395,241943
25.871,165817,395,241939
25.876,165803,394,241933
25.881,165798,393,241947
25.886,165811,400,241933
25.891,165800,399,241920
25.896,165823,399,241932
25.901,165801,397,241906
25.906,165807,399,241917
25.911,165805,397,241897
25.915,165809,398,241899
25.920,165800,398,241901
25.925,165802,400,241892
25.930,165804,399,241895
25.935,165797,391,241908
25.940,165800,389,241889
25.945,165797,392,241889
25.950,165787,405,241884
25.955,165794,403,241884
25.960,165787,400,241898
25.965,165789,403,241891
25.970,165781,401,241883
25.975,165807,401,241860
25.980,165808,398,241891
25.985,165795,397,241880
25.990,165796,397,241875
25.995,165793,398,241894
26.000,165804,396,241877
26.005,165809,399,241885
26.010,165802,396,241916
26.015,165807,398,241889
26.020,165813,396,241890
26.025,165806,397,241884
26.030,165813,396,241896
26.035,165805,401,241886
26.040,165811,399,241880
26.045,165811,400,241889
26.050,165819,398,241881
26.055,165806,397,241875
26.060,165800,396,241865
26.064,165799,397,241880
26.069,165807,395,241859
26.074,165806,396,241867
26.079,165818,395,241866
26.084,165823,404,241856
26.089,165817,400,241866
26.094,165812,401,241868
26.099,165808,397,241867
26.104,165810,402,241837
26.109,165823,402,241851
26.114,165818,402,241879
26.119,165842,401,241865
26.124,165828,402,241874
26.129,165827,393,241882
26.134,165830,394,241889
26.139,165843,393,241903
26.144,165854,396,241894
26.149,165825,394,241891
26.154,165860,395,241884
26.159,165860,395,241918
26.164,165857,396,241921
26.169,165872,396,241930
26.174,165868,397,241922
26.179,165898,394,241903
26.184,165868,396,241911
26.189,165872,396,241930
26.194,165886,397,241916
26.199,165872,396,241920
26.204,165880,399,241932
26.208,165899,398,241903
26.213,165880,399,241935
26.218,165887,398,241895
26.223,165897,400,241926
26.228,165892,389,241900
26.233,165910,389,241904
26.238,165909,385,241917
26.243,165904,401,241912
26.248,165890,399,241909
26.253,165904,398,241910
26.258,165908,395,241914
26.263,165910,398,241903
26.268,165927,398,241918
26.273,165924,398,241914
26.278,165924,388,241923
26.283,165927,388,241917
26.288,165924,401,241931
26.293,165936,388,241939
26.298,165937,401,241927
26.303,165935,401,241938
26.308,165933,400,241917
26.313,165940,401,241932
26.318,165950,400,241911
26.323,165928,386,241930
26.328,165944,390,241916
26.333,165949,392,241939
26.338,165953,389,241917
26.343,165961,390,241942
26.348,165948,389,241932
26.353,165956,390,241937
26.357,165969,387,241936
26.362,165979,387,241956
26.367,165974,401,241954
26.372,165974,392,241923
26.377,165981,389,241940
26.382,165986,391,241955
26.387,165983,390,241934
26.392,165986,390,241927
26.397,166006,389,241947
26.402,166003,388,241932
26.407,166005,388,241928
26.412,165991,387,241942
26.417,166017,401,241923
26.422,166025,395,241929
26.427,166011,396,241947
26.432,166011,395,241955
26.437,166026,394,241941
26.442,166014,394,241949
26.447,166017,393,241955
26.452,166019,393,241920
26.457,166022,393,241918
26.462,166016,391,241919
26.467,166003,390,241903
26.472,166012,395,241895
26.477,166009,394,241906
26.482,165999,392,241868
26.487,165989,393,241857
26.492,165993,393,241857
26.497,165980,392,241873
26.501,165989,390,241881
26.506,165986,391,241863
26.511,165968,389,241861
26.516,165971,389,241844
26.521,165961,393,241863
26.526,165948,393,241869
26.531,165965,391,241865
26.536,165966,391,241866
26.541,165947,389,241866
26.546,165947,389,241860
26.551,165956,388,241875
26.556,165951,400,241863
26.561,165957,397,241856
26.566,165950,399,241859
26.571,165944,388,241884
26.576,165953,401,241882
26.581,165952,398,241856
26.586,165948,398,241879
26.591,165953,395,241865
26.596,165950,393,241877
26.601,165950,390,241872
26.606,165934,390,241863
26.611,165933,388,241846
26.616,165926,389,241847
26.621,165943,320,241862
26.626,165924,327,241849
26.631,165920,328,241841
26.636,165935,330,241840
26.641,165916,347,241841
26.646,165906,349,241832
26.650,165903,349,241832
26.655,165909,351,241823
26.660,165887,350,241817
26.665,165883,343,241815
26.670,165894,343,241809
26.675,165891,358,241816
26.680,165878,358,241815
26.685,165879,359,241811
26.690,165891,357,241797
26.695,165868,357,241819
26.700,165882,357,241811
26.705,165884,359,241819
26.710,165892,357,241805
26.715,165866,363,241833
26.720,165900,363,241837
26.725,165888,443,241811
26.730,165896,430,241840
26.735,165890,424,241833
26.740,165904,418,241835
26.745,165906,416,241832
26.750,165900,410,241844
26.755,165915,409,241836
26.760,165891,410,241838
26.765,165910,415,241822
26.770,165901,414,241851
26.775,165907,411,241838
26.780,165888,406,241834
26.785,165907,406,241852
26.790,165904,402,241844
26.794,165902,401,241852
26.799,165904,397,241850
26.804,165898,398,241860
26.809,165905,409,241846
26.814,165913,413,241870
26.819,165912,399,241856
26.824,165901,398,241870
26.829,165909,398,241844
26.834,165904,396,241857
26.839,165915,393,241865
26.844,165918,408,241859
26.849,165906,405,241871
26.854,165905,404,241864
26.859,165933,403,241866
26.864,165929,405,241882
26.869,165913,401,241884
26.874,165921,400,241866
26.879,165917,397,241881
26.884,165935,395,241889
26.889,165921,392,241893
26.894,165925,406,241887
26.899,165935,401,241896
26.904,165943,400,241897
26.909,165938,391,241891
26.914,165933,391,241918
26.919,165946,389,241918
26.924,165935,405,241902
26.929,165943,402,241929
26.934,165957,401,241920
26.939,165948,400,241905
26.943,165951,398,241945
26.948,165963,396,241951
26.953,165963,396,241963
26.958,165964,398,241963
26.963,165997,398,241960
26.968,165976,395,241974
26.973,165997,395,241973
26.978,166006,392,242011
26.983,166009,390,241998
26.988,166009,403,242013
26.993,166007,402,242021
26.998,166026,398,242056
27.003,166022,398,242027
27.008,166037,389,242051
27.013,166040,402,242044
27.018,166050,400,242060
27.023,166043,400,242075
27.028,166049,397,242075
27.033,166064,397,242102
27.038,166077,394,242087
27.043,166079,393,242107
27.048,166074,393,242096
27.053,166074,392,242096
27.058,166087,395,242093
27.063,166098,395,242123
27.068,166084,395,242101
27.073,166089,396,242117
27.078,166099,392,242117
27.083,166104,392,242148
27.087,166112,390,242155
27.092,166121,389,242139
27.097,166118,388,242159
27.102,166116,388,242168
27.107,166134,392,242178
27.112,166139,392,242188
27.117,166130,390,242206
27.122,166132,390,242213
27.127,166149,389,242204
27.132,166159,389,242235
27.137,166155,389,242227
27.142,166186,387,242218
27.147,166170,387,242250
27.152,166155,378,242274
27.157,166188,399,242230
27.162,166191,398,242259
27.167,166191,397,242254
27.172,166209,396,242254
27.177,166205,394,242268
27.182,166206,391,242264
27.187,166198,390,242274
27.192,166214,389,242270
27.197,166209,389,242296
27.202,166212,393,242273
27.207,166207,395,242295
27.212,166222,394,242285
27.217,166230,393,242288
27.222,166230,392,242302
27.227,166235,392,242293
27.232,166225,392,242301
27.236,166242,390,242296
27.241,166253,388,242299
27.246,166244,388,242317
27.251,166240,392,242311
27.256,166252,391,242300
27.261,166243,388,242304
27.266,166249,387,242307
27.271,166240,400,242309
27.276,166255,398,242293
27.281,166253,395,242314
27.286,166259,396,242314
27.291,166262,394,242302
27.296,166262,397,242325
27.301,166256,396,242305
27.306,166264,396,242314
27.311,166279,394,242327
27.316,166289,393,242315
27.321,166284,391,242347
27.326,166280,392,242317
27.331,166285,390,242327
27.336,166308,391,242329
27.341,166286,389,242333
27.346,166288,388,242323
27.351,166297,395,242314
27.356,166279,393,242321
27.361,166276,392,242315
27.366,166275,394,242309
27.371,166250,393,242281
27.376,166250,392,242281
27.380,166231,389,242292
27.385,166253,390,242262
27.390,166241,387,242278
27.395,166212,387,242251
27.400,166215,390,242280
27.405,166217,393,242261
27.410,166211,392,242257
27.415,166200,392,242267
27.420,166210,391,242253
27.425,166204,392,242246
27.430,166189,389,242236
27.435,166195,389,242233
27.440,166193,387,242255
27.445,166190,394,242226
27.450,166164,392,242226
27.455,166180,393,242241
27.460,166182,392,242235
27.465,166165,390,242230
27.470,166157,388,242227
27.475,166164,389,242224
27.480,166159,386,242229
27.485,166161,386,242224
27.490,166156,383,242242
27.495,166151,389,242242
27.500,166141,385,242212
27.505,166120,389,242206
27.510,166133,386,242216
27.515,166123,385,242203
27.520,166122,397,242192
27.525,166107,398,242188
27.529,166118,398,242200
27.534,166106,396,242186
27.539,166092,395,242192
27.544,166098,393,242172
27.549,166093,392,242150
27.554,166094,392,242159
27.559,166093,390,242163
27.564,166083,391,242163
27.569,166074,389,242165
27.574,166073,389,242142
27.579,166074,388,242145
27.584,166065,389,242160
27.589,166042,388,242150
27.594,166071,395,242164
27.599,166069,393,242141
27.604,166064,394,242145
27.609,166068,393,242133
27.614,166065,391,242134
27.619,166067,312,242143
27.624,166058,325,242120
27.629,166064,326,242137
27.634,166049,331,242111
27.639,166044,332,242084
27.644,166047,341,242105
27.649,166045,342,242088
27.654,166037,342,242099
27.659,166040,342,242101
27.664,166051,343,242109
27.669,166031,343,242107
27.673,166027,344,242093
27.678,166019,343,242088
27.683,166032,344,242101
27.688,166059,351,242082
27.693,166013,358,242081
27.698,166005,357,242060
27.703,166012,359,242061
27.708,166002,359,242059
27.713,166004,359,242044
27.718,166012,359,242059
27.723,165993,460,242034
27.728,165995,431,242025
27.733,166001,425,242035
27.738,165977,414,242024
27.743,165997,413,242035
27.748,165981,410,242054
27.753,165978,407,242033
27.758,165969,405,242033
27.763,165994,403,242024
27.768,166000,400,242032
27.773,165974,399,242033
27.778,165977,411,242031
27.783,165986,409,242025
27.788,165980,397,242006
27.793,165986,403,242036
27.798,165982,401,242018
27.803,165983,400,242020
27.808,165985,398,242004
27.813,165984,398,242015
27.818,165990,395,242026
27.822,165989,394,242040
27.827,165990,394,242046
27.832,165996,404,242044
27.837,165997,395,242036
27.842,166018,396,242024
27.847,166010,395,242019
27.852,165996,395,242022
27.857,166008,394,242033
27.862,165993,393,242018
27.867,166000,394,242032
27.872,166013,395,242034
27.877,166006,394,242025
27.882,166011,391,242022
27.887,166013,397,242006
27.892,166013,397,242028
27.897,166021,398,242029
27.902,166017,397,242020
27.907,166037,397,242036
27.912,166013,396,242038
27.917,166019,396,242020
27.922,166031,394,242037
27.927,166027,394,242039
27.932,166031,406,242044
27.937,166025,401,242041
27.942,166020,398,242055
27.947,166029,400,242043
27.952,166040,398,242064
27.957,166028,397,242070
27.962,166032,396,242066
27.966,166042,396,242056
27.971,166058,395,242083
27.976,166067,394,242089
27.981,166061,399,242076
27.986,166047,400,242073
27.991,166065,398,242060
27.996,166072,397,242076
28.001,166068,396,242096
28.006,166086,398,242097
28.011,166076,396,242076
28.016,166064,395,242095
28.021,166078,394,242111
28.026,166096,394,242100
28.031,166071,399,242102
28.036,166083,398,242108
28.041,166089,396,242101
28.046,166095,395,242120
28.051,166105,395,242125
28.056,166100,392,242106
28.061,166106,391,242121
28.066,166104,392,242145
28.071,166107,391,242137
28.076,166125,390,242129
28.081,166139,394,242155
28.086,166133,395,242149
28.091,166136,394,242159
28.096,166140,395,242149
28.101,166139,394,242165
28.106,166138,394,242167
28.111,166127,394,242167
28.115,166164,395,242176
28.120,166170,395,242180
28.125,166173,396,242187
28.130,166163,386,242195
28.135,166157,387,242208
28.140,166163,386,242198
28.145,166164,387,242211
28.150,166186,387,242226
28.155,166177,388,242213
28.160,166188,385,242228
28.165,166195,386,242215
28.170,166190,398,242230
28.175,166184,390,242305
28.180,166216,388,242246
28.185,166229,387,242245
28.190,166222,388,242250
28.195,166218,387,242280
28.200,166231,385,242276
28.205,166240,387,242285
28.210,166250,385,242273
28.215,166264,384,242293
28.220,166252,397,242300
28.225,166249,391,242299
28.230,166266,395,242298
28.235,166269,395,242310
28.240,166263,393,242317
28.245,166284,395,242321
28.250,166292,392,242315
28.255,166280,391,242334
28.260,166294,388,242326
28.264,166287,388,242341
28.269,166297,387,242337
28.274,166314,396,242363
28.279,166293,391,242342
28.284,166308,392,242338
28.289,166324,391,242346
28.294,166310,390,242338
28.299,166317,386,242348
28.304,166322,387,242343
28.309,166315,386,242343
28.314,166310,385,242345
28.319,166308,396,242355
28.324,166322,387,242335
28.329,166309,385,242334
28.334,166286,398,242324
28.339,166298,396,242316
28.344,166286,395,242305
28.349,166265,393,242297
28.354,166266,391,242296
28.359,166244,390,242281
28.364,166248,389,242266
28.369,166231,386,242254
28.374,166237,393,242257
28.379,166224,389,242255
28.384,166204,389,242253
28.389,166207,386,242248
28.394,166204,386,242231
28.399,166210,383,242251
28.404,166190,397,242243
28.408,166197,395,242239
28.413,166187,394,242225
28.418,166180,392,242230
28.423,166174,397,242225
28.428,166180,397,242205
28.433,166184,396,242213
28.438,166157,393,242212
28.443,166153,392,242207
28.448,166163,391,242186
28.453,166149,388,242184
28.458,166153,387,242167
28.463,166142,385,242185
28.468,166136,370,242163
28.473,166130,391,242160
28.478,166121,387,242161
28.483,166127,386,242132
28.488,166109,385,242129
28.493,166107,385,242149
28.498,166101,395,242142
28.503,166101,394,242122
28.508,166086,392,242129
28.513,166083,391,242115
28.518,166068,395,242104
28.523,166072,396,242124
28.528,166066,394,242100
28.533,166072,394,242108
28.538,166072,391,242090
28.543,166065,391,242101
28.548,166068,388,242104
28.553,166059,386,242084
28.557,166058,383,242089
28.562,166076,395,242079
28.567,166066,389,242089
28.572,166059,388,242092
28.577,166049,387,242081
28.582,166052,386,242076
28.587,166061,384,242085
28.592,166053,383,242086
28.597,166034,396,242060
28.602,166040,392,242058
28.607,166032,392,242046
28.612,166025,388,242034
28.617,166047,385,242074
28.622,166031,323,242048
28.627,166034,329,242027
28.632,166034,331,242034
28.637,166025,332,242021
28.642,166013,331,242027
28.647,166014,348,242031
28.652,166007,345,242034
28.657,166011,344,242014
28.662,166019,342,242016
28.667,166011,341,242024
28.672,166003,339,241996
28.677,166009,353,241997
28.682,166017,349,241994
28.687,166006,349,242002
28.692,166016,346,242001
28.697,165994,344,241985
28.701,166001,359,241995
28.706,166009,358,242010
28.711,165990,361,242006
28.716,166009,354,242001
28.721,166005,352,241999
28.726,165998,426,241999
28.731,166006,415,242002
28.736,166011,425,241973
28.741,165996,417,241990
28.746,165995,416,241991
28.751,166011,411,241979
28.756,165993,408,241968
28.761,165976,403,241970
28.766,165992,410,241961
28.771,165993,406,241993
28.776,165998,403,241975
28.781,166008,400,241981
28.786,166015,400,241977
28.791,166013,396,241987
28.796,166006,396,241984
28.801,166006,407,241977
28.806,166015,406,241955
28.811,166020,395,241983
28.816,166003,405,241975
28.821,166006,402,241968
28.826,166024,401,241963
28.831,165999,399,241969
28.836,166016,395,241971
28.841,166017,393,241959
28.846,166028,391,241976
28.850,166027,403,241973
28.855,166020,401,241965
28.860,166032,389,241999
28.865,166025,402,241977
28.870,166020,398,241984
28.875,166034,397,241999
28.880,166036,395,241965
28.885,166028,395,241989
28.890,166049,390,241986
28.895,166039,402,241984
28.900,166042,397,241986
28.905,166041,395,241991
28.910,166031,386,241976
28.915,166040,400,241985
28.920,166045,395,241975
28.925,166041,393,241986
28.930,166047,390,241969
28.935,166035,389,241978
28.940,166045,399,241989
28.945,166051,398,241965
28.950,166043,394,241956
28.955,166053,394,241962
28.960,166053,390,241969
28.965,166061,390,241944
28.970,166040,387,241962
28.975,166048,387,241975
28.980,166061,385,241962
28.985,166056,386,241977
28.990,166046,399,241944
28.994,166054,399,241973
28.999,166058,397,241977
29.004,166074,402,241958
29.009,166059,386,241977
29.014,166070,386,241960
29.019,166074,398,241980
