df_hash,22ZHK4.U7GHWZ
device,HZ2X61
project_hash,29R7
project_name,istanbul_aydin_university
person_hash,29R7.BXYU
person_label,V51
date_time_start,2025-10-30_18-20-01.333000_+03
date_time_start_unix,1761834001.333
date_time_end,2025-10-30_18-28-49.664000_+03
length_difference_noticed,no

time,ppg_ir,ppg_ambient,ppg_red
5.143,147810,367,153675
5.148,147810,373,153671
5.153,147799,374,153648
5.158,147770,369,153641
5.163,147761,369,153640
5.168,147760,372,153627
5.173,147745,374,153618
5.178,147709,369,153610
5.183,147701,370,153589
5.188,147693,368,153583
5.193,147673,368,153562
5.198,147661,364,153548
5.203,147645,374,153551
5.208,147641,370,153540
5.213,147613,371,153553
5.218,147618,370,153527
5.222,147608,371,153532
5.227,147608,367,153529
5.232,147594,367,153500
5.237,147579,364,153499
5.242,147571,364,153497
5.247,147558,369,153485
5.252,147547,370,153471
5.257,147540,368,153470
5.262,147548,367,153465
5.267,147543,369,153457
5.272,147540,369,153465
5.277,147531,366,153446
5.282,147526,366,153456
5.287,147524,364,153441
5.292,147519,363,153432
5.297,147505,370,153431
5.302,147515,368,153430
5.307,147497,365,153426
5.312,147506,362,153422
5.317,147483,366,153415
5.322,147492,364,153428
5.327,147472,363,153409
5.332,147480,362,153407
5.337,147469,368,153413
5.342,147475,367,153408
5.347,147467,364,153390
5.352,147479,365,153407
5.357,147442,362,153380
5.362,147461,363,153383
5.367,147465,358,153382
5.371,147455,370,153376
5.376,147460,365,153380
5.381,147454,366,153371
5.386,147457,365,153380
5.391,147455,365,153372
5.396,147454,361,153380
5.401,147476,361,153395
5.406,147462,368,153389
5.411,147477,364,153398
5.416,147478,358,153400
5.421,147491,367,153405
5.426,147479,362,153408
5.431,147483,364,153388
5.436,147479,360,153395
5.441,147493,362,153407
5.446,147505,358,153414
5.451,147519,368,153407
5.456,147498,364,153419
5.461,147521,359,153422
5.466,147522,366,153426
5.471,147538,366,153435
5.476,147541,363,153438
5.481,147548,363,153430
5.486,147549,360,153451
5.491,147565,368,153459
5.496,147579,365,153456
5.501,147590,363,153455
5.506,147591,361,153474
5.511,147597,365,153472
5.516,147609,362,153484
5.520,147612,360,153485
5.525,147617,360,153491
5.530,147625,360,153506
5.535,147657,358,153523
5.540,147671,358,153541
5.545,147675,365,153541
5.550,147701,364,153533
5.555,147704,363,153562
5.560,147723,366,153555
5.565,147729,365,153559
5.570,147745,363,153569
5.575,147728,361,153569
5.580,147743,361,153570
5.585,147757,359,153581
5.590,147763,360,153570
5.595,147773,356,153583
5.600,147793,366,153604
5.605,147808,363,153615
5.610,147833,362,153631
5.615,147848,359,153633
5.620,147870,359,153649
5.625,147880,356,153682
5.630,147901,365,153678
5.635,147917,361,153683
5.640,147928,361,153684
5.645,147937,358,153688
5.650,147950,359,153704
5.655,147953,357,153690
5.660,147958,359,153690
5.665,147958,357,153686
5.669,147979,364,153681
5.674,147987,362,153699
5.679,148004,361,153721
5.684,148034,359,153722
5.689,148057,358,153728
5.694,148070,364,153743
5.699,148084,363,153742
5.704,148070,360,153750
5.709,148115,365,153739
5.714,148114,362,153756
5.719,148146,360,153762
5.724,148151,359,153766
5.729,148170,358,153774
5.734,148196,358,153757
5.739,148184,365,153751
5.744,148169,363,153731
5.749,148170,361,153721
5.754,148160,365,153708
5.759,148163,362,153703
5.764,148159,362,153702
5.769,148149,359,153705
5.774,148136,358,153680
5.779,148162,356,153666
5.784,148152,356,153669
5.789,148137,363,153648
5.794,148143,361,153633
5.799,148149,358,153618
5.804,148125,362,153604
5.809,148128,360,153577
5.814,148130,358,153564
5.818,148132,356,153527
5.823,148123,363,153507
5.828,148125,362,153481
5.833,148112,361,153476
5.838,148130,359,153455
5.843,148120,357,153423
5.848,148108,357,153411
5.853,148114,358,153384
5.858,148112,358,153358
5.863,148117,357,153345
5.868,148101,356,153310
5.873,148094,365,153299
5.878,148103,363,153283
5.883,148091,362,153238
5.888,148096,360,153247
5.893,148099,361,153231
5.898,148109,359,153247
5.903,148124,364,153247
5.908,148157,361,153240
5.913,148162,362,153250
5.918,148171,358,153278
5.923,148199,361,153285
5.928,148201,359,153297
5.933,148240,359,153328
5.938,148239,358,153331
5.943,148266,359,153335
5.948,148285,362,153371
5.953,148294,360,153382
5.958,148318,357,153393
5.963,148321,358,153416
5.967,148367,355,153444
5.972,148405,354,153459
5.977,148418,362,153466
5.982,148442,362,153482
5.987,148458,360,153489
5.992,148467,361,153497
5.997,148477,365,153498
6.002,148493,362,153502
6.007,148490,360,153497
6.012,148496,360,153504
6.017,148520,356,153517
6.022,148522,365,153539
6.027,148553,361,153552
6.032,148566,361,153555
6.037,148586,360,153585
6.042,148600,357,153577
6.047,148609,361,153587
6.052,148627,360,153609
6.057,148654,357,153645
6.062,148681,357,153651
6.067,148713,355,153693
6.072,148731,366,153711
6.077,148733,369,153731
6.082,148752,364,153748
6.087,148805,360,153770
6.092,148816,360,153809
6.097,148857,361,153845
6.102,148891,362,153894
6.107,148935,358,153909
6.112,148949,358,153957
6.116,148984,363,153979
6.121,149032,363,154009
6.126,149071,359,154028
6.131,149101,359,154082
6.136,149113,355,154107
6.141,149130,365,154109
6.146,149162,356,154113
6.151,149172,358,154148
6.156,149213,364,154162
6.161,149236,365,154159
6.166,149259,362,154188
6.171,149288,362,154225
6.176,149317,361,154244
6.181,149388,362,154287
6.186,149414,359,154338
6.191,149444,360,154392
6.196,149461,360,154421
6.201,149486,360,154454
6.206,149491,358,154484
6.211,149504,358,154505
6.216,149527,355,154524
6.221,149540,364,154560
6.226,149544,361,154576
6.231,149547,359,154599
6.236,149563,356,154602
6.241,149572,344,154615
6.246,149588,358,154624
6.251,149572,358,154642
6.256,149580,356,154650
6.261,149576,357,154652
6.265,149575,363,154642
6.270,149579,363,154662
6.275,149567,361,154636
6.280,149552,360,154623
6.285,149529,357,154595
6.290,149491,365,154491
6.295,149474,364,154533
6.300,149465,363,154528
6.305,149450,360,154503
6.310,149434,359,154482
6.315,149429,355,154459
6.320,149418,365,154439
6.325,149398,361,154403
6.330,149382,361,154387
6.335,149358,357,154365
6.340,149341,361,154328
6.345,149322,357,154306
6.350,149316,358,154292
6.355,149312,354,154264
6.360,149292,365,154253
6.365,149295,361,154224
6.370,149294,361,154236
6.375,149287,357,154214
6.380,149263,356,154199
6.385,149258,362,154159
6.390,149254,357,154167
6.395,149243,363,154141
6.400,149226,362,154136
6.405,149226,359,154102
6.410,149243,358,154113
6.414,149222,355,154114
6.419,149217,363,154102
6.424,149224,360,154080
6.429,149231,359,154095
6.434,149234,358,154097
6.439,149230,360,154112
6.444,149257,359,154095
6.449,149253,357,154129
6.454,149270,355,154128
6.459,149268,354,154129
6.464,149254,362,154150
6.469,149264,359,154144
6.474,149240,357,154148
6.479,149236,354,154139
6.484,149221,358,154216
6.489,149211,356,154125
6.494,149165,355,154107
6.499,149137,354,154082
6.504,149085,353,154065
6.509,149057,361,154039
6.514,149041,359,154030
6.519,149020,357,154025
6.524,149028,356,154032
6.529,149021,354,154028
6.534,148995,357,154039
6.539,149018,357,154053
6.544,149025,354,154064
6.549,149052,354,154100
6.554,149048,351,154113
6.558,149053,360,154094
6.563,149032,358,154104
6.568,149022,358,154089
6.573,149002,356,154082
6.578,149001,356,154077
6.583,149007,359,154076
6.588,148983,359,154066
6.593,148997,357,154086
6.598,148990,355,154072
6.603,148997,353,154079
6.608,149000,352,154099
6.613,149002,360,154110
6.618,149003,357,154103
6.623,149012,355,154129
6.628,149038,352,154137
6.633,149025,356,154157
6.638,149052,352,154163
6.643,149056,352,154192
6.648,149073,358,154192
6.653,149086,358,154220
6.658,149088,354,154243
6.663,149102,356,154264
6.668,149120,352,154284
6.673,149127,352,154280
6.678,149121,346,154295
6.683,149124,354,154300
6.688,149108,352,154282
6.693,149104,353,154292
6.698,149128,350,154302
6.703,149135,359,154319
6.707,149138,356,154337
6.712,149170,356,154370
6.717,149172,353,154372
6.722,149189,352,154370
6.727,149183,350,154378
6.732,149186,357,154382
6.737,149189,356,154383
6.742,149198,355,154391
6.747,149203,354,154380
6.752,149194,352,154386
6.757,149195,351,154376
6.762,149198,350,154369
6.767,149183,359,154367
6.772,149179,359,154361
6.777,149181,359,154358
6.782,149184,351,154353
6.787,149170,349,154354
6.792,149152,358,154342
6.797,149160,357,154331
6.802,149166,356,154321
6.807,149164,354,154339
6.812,149171,355,154330
6.817,149168,352,154339
6.822,149168,353,154323
6.827,149168,353,154331
6.832,149181,356,154330
6.837,149173,351,154334
6.842,149174,354,154336
6.847,149166,350,154345
6.852,149163,352,154339
6.856,149170,348,154340
6.861,149180,349,154319
6.866,149156,356,154315
6.871,149150,357,154315
6.876,149142,352,154301
6.881,149141,352,154300
6.886,149137,349,154289
6.891,149140,349,154270
6.896,149146,356,154278
6.901,149151,356,154290
6.906,149154,352,154260
6.911,149145,352,154268
6.916,149146,349,154260
6.921,149160,350,154310
6.926,149159,351,154296
6.931,149162,350,154278
6.936,149159,357,154282
6.941,149166,354,154285
6.946,149174,352,154293
6.951,149171,352,154282
6.956,149165,348,154271
6.961,149171,356,154267
6.966,149176,353,154283
6.971,149225,333,154288
6.976,149173,352,154301
6.981,149183,351,154320
6.986,149191,350,154315
6.991,149198,349,154327
6.996,149205,346,154350
7.001,149211,356,154355
7.005,149209,353,154358
7.010,149214,352,154370
7.015,149196,349,154372
7.020,149199,350,154369
7.025,149231,351,154385
7.030,149235,352,154396
7.035,149231,348,154409
7.040,149227,349,154425
7.045,149228,345,154417
7.050,149223,356,154407
7.055,149201,352,154407
7.060,149182,352,154410
7.065,149200,348,154406
7.070,149162,347,154396
7.075,149170,350,154374
7.080,149175,352,154414
7.085,149169,347,154403
7.090,149177,349,154422
7.095,149175,355,154426
7.100,149158,355,154434
7.105,149158,350,154432
7.110,149148,350,154453
7.115,149141,347,154438
7.120,149117,356,154381
7.125,149114,347,154424
7.130,149086,355,154417
7.135,149072,353,154400
7.140,149070,351,154392
7.145,149066,349,154405
7.150,149050,349,154378
7.154,149018,348,154381
7.159,149023,347,154360
7.164,148994,355,154360
7.169,148992,348,154358
7.174,148981,346,154352
7.179,148979,347,154335
7.184,148958,353,154349
7.189,148959,353,154334
7.194,148931,351,154322
7.199,148942,350,154302
7.204,148938,347,154305
7.209,148920,348,154303
7.214,148912,347,154311
7.219,148905,349,154286
7.224,148884,347,154272
7.229,148874,348,154271
7.234,148887,345,154274
7.239,148885,346,154260
7.244,148886,352,154266
7.249,148884,352,154256
7.254,148861,350,154255
7.259,148848,349,154249
7.264,148833,348,154240
7.269,148811,352,154229
7.274,148796,351,154218
7.279,148789,349,154216
7.284,148791,347,154218
7.289,148781,346,154218
7.294,148752,345,154210
7.299,148726,353,154177
7.303,148706,351,154167
7.308,148697,349,154166
7.313,148682,353,154171
7.318,148665,351,154157
7.323,148634,349,154139
7.328,148633,347,154115
7.333,148621,347,154116
7.338,148623,343,154100
7.343,148605,353,154103
7.348,148593,351,154102
7.353,148581,349,154094
7.358,148586,347,154091
7.363,148554,350,154102
7.368,148572,349,154087
7.373,148564,348,154083
7.378,148555,347,154068
7.383,148534,345,154086
7.388,148547,344,154093
7.393,148545,353,154085
7.398,148534,350,154082
7.403,148524,348,154082
7.408,148520,346,154077
7.413,148512,355,154083
7.418,148520,343,154087
7.423,148529,350,154103
7.428,148547,349,154111
7.433,148522,347,154127
7.438,148563,345,154154
7.443,148565,344,154158
7.448,148557,343,154186
7.452,148571,350,154174
7.457,148560,348,154171
7.462,148550,346,154179
7.467,148555,344,154192
7.472,148576,344,154207
7.477,148574,342,154212
7.482,148575,351,154223
7.487,148611,348,154244
7.492,148589,349,154268
7.497,148610,346,154279
7.502,148635,346,154301
7.507,148652,344,154318
7.512,148681,349,154340
7.517,148699,345,154360
7.522,148706,345,154377
7.527,148710,342,154377
7.532,148708,353,154400
7.537,148717,348,154403
7.542,148732,349,154418
7.547,148736,345,154442
7.552,148752,345,154455
7.557,148786,344,154501
7.562,148802,347,154518
7.567,148827,344,154550
7.572,148843,343,154572
7.577,148875,342,154607
7.582,148881,351,154608
7.587,148879,349,154608
7.592,148870,348,154611
7.597,148864,346,154594
7.601,148873,344,154590
7.606,148871,339,154608
7.611,148883,345,154603
7.616,148880,343,154613
7.621,148887,343,154625
7.626,148898,342,154634
7.631,148918,351,154645
7.636,148902,348,154636
7.641,148916,346,154650
7.646,148913,344,154653
7.651,148932,344,154680
7.656,148954,347,154684
7.661,148973,346,154726
7.666,148995,343,154754
7.671,148997,344,154769
7.676,149029,340,154770
7.681,149014,350,154776
7.686,148998,346,154770
7.691,149009,347,154749
7.696,148991,342,154727
7.701,148965,343,154718
7.706,148967,343,154695
7.711,148939,345,154693
7.716,148952,343,154683
7.721,148948,344,154681
7.726,148943,342,154655
7.731,148918,343,154629
7.736,148896,348,154611
7.741,148882,349,154593
7.746,148894,346,154603
7.750,148889,346,154605
7.755,148902,348,154614
7.760,148902,348,154615
7.765,148897,345,154612
7.770,148902,345,154631
7.775,148871,342,154603
7.780,148868,342,154570
7.785,148852,348,154542
7.790,148849,348,154546
7.795,148844,344,154546
7.800,148831,344,154530
7.805,148816,342,154516
7.810,148817,342,154506
7.815,148824,340,154534
7.820,148860,349,154577
7.825,148877,347,154611
7.830,148896,346,154598
7.835,148892,344,154594
7.840,148880,345,154580
7.845,148849,341,154561
7.850,148858,345,154482
7.855,148854,343,154539
7.860,148835,344,154513
7.865,148832,341,154524
7.870,148829,342,154494
7.875,148838,339,154514
7.880,148859,350,154508
7.885,148866,346,154517
7.890,148872,348,154538
7.895,148875,345,154529
7.899,148870,350,154511
7.904,148862,347,154503
7.909,148856,347,154485
7.914,148836,343,154457
7.919,148846,342,154440
7.924,148830,340,154436
7.929,148823,349,154411
7.934,148831,345,154425
7.939,148851,346,154424
7.944,148849,344,154435
7.949,148875,347,154434
7.954,148877,345,154431
7.959,148881,343,154447
7.964,148893,342,154457
7.969,148883,341,154454
7.974,148879,347,154438
7.979,148885,347,154442
7.984,148884,345,154436
7.989,148900,343,154439
7.994,148898,342,154436
7.999,148884,345,154431
8.004,148877,343,154420
8.009,148883,342,154417
8.014,148875,340,154398
8.019,148877,349,154374
8.024,148870,347,154397
8.029,148881,346,154399
8.034,148891,344,154395
8.039,148905,342,154411
8.044,148911,339,154444
8.048,148922,344,154437
8.053,148917,341,154430
8.058,148920,340,154436
8.063,148912,347,154431
8.068,148906,347,154407
8.073,148901,343,154402
8.078,148878,343,154369
8.083,148856,341,154364
8.088,148827,343,154338
8.093,148796,339,154332
8.098,148770,343,154297
8.103,148756,340,154298
8.108,148746,340,154274
8.113,148738,348,154262
8.118,148720,346,154258
8.123,148702,345,154246
8.128,148666,342,154227
8.133,148650,341,154205
8.138,148609,340,154194
8.143,148591,373,154162
8.148,148563,340,154145
8.153,148538,340,154108
8.158,148502,339,154076
8.163,148485,348,154056
8.168,148467,346,154044
8.173,148434,345,154013
8.178,148420,342,153976
8.183,148387,342,153951
8.188,148369,339,153955
8.193,148363,343,153945
8.197,148360,339,153958
8.202,148357,339,153942
8.207,148336,345,153918
8.212,148321,343,153921
8.217,148310,342,153905
8.222,148297,342,153887
8.227,148279,338,153883
8.232,148262,348,153856
8.237,148232,344,153811
8.242,148216,342,153790
8.247,148195,340,153779
8.252,148172,338,153741
8.257,148153,336,153727
8.262,148129,345,153714
8.267,148131,345,153702
8.272,148109,343,153708
8.277,148119,342,153695
8.282,148113,342,153683
8.287,148104,339,153677
8.292,148090,343,153690
8.297,148091,341,153681
8.302,148079,340,153650
8.307,148077,339,153649
8.312,148071,338,153651
8.317,148057,346,153641
8.322,148048,347,153607
8.327,148054,343,153596
8.332,148048,344,153597
8.337,148042,339,153589
8.342,148021,343,153584
8.346,148023,340,153581
8.351,148039,339,153580
8.356,148026,336,153560
8.361,148041,345,153569
8.366,148031,341,153580
8.371,148041,342,153565
8.376,148027,338,153565
8.381,148034,338,153581
8.386,148030,337,153576
8.391,148028,339,153561
8.396,148023,336,153561
8.401,148009,346,153560
8.406,148021,342,153565
8.411,148015,343,153558
8.416,148036,340,153583
8.421,148047,340,153594
8.426,148041,336,153602
8.431,148050,347,153598
8.436,148109,343,153622
8.441,148056,342,153604
8.446,148050,339,153628
8.451,148074,340,153626
8.456,148070,336,153631
8.461,148069,336,153637
8.466,148080,345,153645
8.471,148079,344,153654
8.476,148092,341,153659
8.481,148105,340,153652
8.486,148107,348,153657
8.491,148094,335,153665
8.495,148104,344,153657
8.500,148107,342,153660
8.505,148117,340,153671
8.510,148109,340,153658
8.515,148135,336,153652
8.520,148123,345,153679
8.525,148132,341,153671
8.530,148134,341,153674
8.535,148154,338,153689
8.540,148147,338,153683
8.545,148170,344,153676
8.550,148169,344,153707
8.555,148170,339,153703
8.560,148186,338,153729
8.565,148189,344,153734
8.570,148194,344,153722
8.575,148212,340,153732
8.580,148225,346,153744
8.585,148223,341,153747
8.590,148242,340,153747
8.595,148234,337,153764
8.600,148224,337,153766
8.605,148251,343,153777
8.610,148248,343,153786
8.615,148261,339,153791
8.620,148257,339,153790
8.625,148259,337,153784
8.630,148256,346,153793
8.635,148255,337,153788
8.640,148238,337,153784
8.644,148246,345,153785
8.649,148244,344,153782
8.654,148256,342,153782
8.659,148265,340,153785
8.664,148251,338,153797
8.669,148253,338,153790
8.674,148271,336,153789
8.679,148261,335,153805
8.684,148269,339,153813
8.689,148262,338,153822
8.694,148247,335,153810
8.699,148244,336,153812
8.704,148242,344,153806
8.709,148235,344,153800
8.714,148217,342,153790
8.719,148211,341,153791
8.724,148201,340,153798
8.729,148194,342,153778
8.734,148188,340,153770
8.739,148196,341,153769
8.744,148184,338,153764
8.749,148185,339,153761
8.754,148176,337,153759
8.759,148172,337,153755
8.764,148167,335,153756
8.769,148159,345,153746
8.774,148136,342,153715
8.779,148137,336,153714
8.784,148118,334,153723
8.788,148126,344,153694
8.793,148119,341,153699
8.798,148131,340,153684
8.803,148137,337,153703
8.808,148111,337,153692
8.813,148118,345,153690
8.818,148125,343,153667
8.823,148119,341,153674
8.828,148112,345,153687
8.833,148101,343,153679
8.838,148120,342,153674
8.843,148102,341,153671
8.848,148097,340,153674
8.853,148092,340,153663
8.858,148090,339,153653
8.863,148095,339,153647
8.868,148077,337,153634
8.873,148081,338,153635
8.878,148055,340,153637
8.883,148037,340,153624
8.888,148047,339,153641
8.893,148040,339,153624
8.898,148012,338,153627
8.903,148006,337,153620
8.908,147984,335,153609
8.913,147980,336,153606
8.918,147984,344,153594
8.923,147973,344,153623
8.928,147959,341,153604
8.933,147943,341,153582
8.937,147936,341,153591
8.942,147940,339,153590
8.947,147935,340,153583
8.952,147917,338,153564
8.957,147905,337,153566
8.962,147894,336,153548
8.967,147900,335,153552
8.972,147865,333,153554
8.977,147859,340,153548
8.982,147879,337,153541
8.987,147862,337,153531
8.992,147846,335,153520
8.997,147856,335,153544
9.002,147841,344,153532
9.007,147847,342,153518
9.012,147828,340,153518
9.017,147841,339,153512
9.022,147821,343,153497
9.027,147819,340,153482
9.032,147818,340,153492
9.037,147781,338,153476
9.042,147782,338,153468
9.047,147768,334,153488
9.052,147777,335,153435
9.057,147763,342,153456
9.062,147760,343,153454
9.067,147762,341,153445
9.072,147758,346,153449
9.077,147680,368,153449
9.082,147738,346,153441
9.086,147749,342,153432
9.091,147739,343,153415
9.096,147732,340,153424
9.101,147741,340,153431
9.106,147737,338,153428
9.111,147728,338,153417
9.116,147741,337,153424
9.121,147741,340,153411
9.126,147744,338,153411
9.131,147727,337,153399
9.136,147728,334,153395
9.141,147745,344,153397
9.146,147737,342,153412
9.151,147731,342,153402
9.156,147736,339,153396
9.161,147741,338,153399
9.166,147730,337,153406
9.171,147733,341,153414
9.176,147733,340,153405
9.181,147728,340,153407
9.186,147745,337,153402
9.191,147736,339,153422
9.196,147740,336,153406
9.201,147741,337,153395
9.206,147734,335,153401
9.211,147739,336,153409
9.216,147754,333,153416
9.221,147758,343,153413
9.226,147785,340,153442
9.231,147784,341,153446
9.235,147803,337,153460
9.240,147836,338,153478
9.245,147850,335,153505
9.250,147866,337,153522
9.255,147886,332,153549
9.260,147910,345,153570
9.265,147945,333,153598
9.270,147980,336,153627
9.275,148004,340,153669
9.280,148015,340,153683
9.285,148046,337,153715
9.290,148068,338,153738
9.295,148077,334,153760
9.300,148118,345,153774
9.305,148142,341,153823
9.310,148179,340,153851
9.315,148201,342,153868
9.320,148220,342,153900
9.325,148228,338,153916
9.330,148263,338,153933
9.335,148282,336,153962
9.340,148298,336,153988
9.345,148317,332,153991
9.350,148333,342,154009
9.355,148348,339,154039
9.360,148359,339,154041
9.365,148378,333,154044
9.370,148402,342,154067
9.375,148400,338,154084
9.380,148428,340,154094
9.384,148438,337,154114
9.389,148459,338,154122
9.394,148462,335,154117
9.399,148459,335,154135
9.404,148473,343,154145
9.409,148507,343,154168
9.414,148491,333,154166
9.419,148494,335,154165
9.424,148512,342,154168
9.429,148507,342,154169
9.434,148500,339,154175
9.439,148503,340,154166
9.444,148489,337,154159
9.449,148510,337,154156
9.454,148490,333,154152
9.459,148488,336,154169
9.464,148494,334,154153
9.469,148476,336,154117
9.474,148477,332,154120
9.479,148465,344,154105
9.484,148462,341,154102
9.489,148461,341,154061
9.494,148445,337,154058
9.499,148446,337,154048
9.504,148452,333,154050
9.509,148456,338,154043
9.514,148427,335,154018
9.519,148406,336,154006
9.524,148420,335,153986
9.529,148396,344,153985
9.533,148395,341,153966
9.538,148396,342,153943
9.543,148380,339,153944
9.548,148379,338,153922
9.553,148360,335,153904
9.558,148356,339,153894
9.563,148355,338,153902
9.568,148349,337,153881
9.573,148345,337,153877
9.578,148356,335,153877
9.583,148333,335,153853
9.588,148342,334,153857
9.593,148340,334,153842
9.598,148305,343,153826
9.603,148301,341,153802
9.608,148289,336,153798
9.613,148254,335,153763
9.618,148232,334,153745
9.623,148201,343,153721
9.628,148179,343,153704
9.633,148158,340,153689
9.638,148128,341,153666
9.643,148104,338,153669
9.648,148104,340,153640
9.653,148062,336,153619
9.658,148036,340,153606
9.663,148019,337,153586
9.668,147999,338,153564
9.673,147970,335,153549
9.678,147966,334,153533
9.682,147966,343,153521
9.687,147940,342,153509
9.692,147931,340,153508
9.697,147912,339,153481
9.702,147914,338,153469
9.707,147895,336,153472
9.712,147885,335,153477
9.717,147870,342,153440
9.722,147870,340,153447
9.727,147864,339,153445
9.732,147853,338,153445
9.737,147849,337,153437
9.742,147825,335,153434
9.747,147830,334,153402
9.752,147827,342,153406
9.757,147800,336,153386
9.762,147787,335,153381
9.767,147788,342,153369
9.772,147774,342,153361
9.777,147758,339,153360
9.782,147756,339,153351
9.787,147738,336,153346
9.792,147731,337,153320
9.797,147715,334,153319
9.802,147711,338,153302
9.807,147706,336,153298
9.812,147680,336,153278
9.817,147654,333,153260
9.822,147673,334,153252
9.827,147657,343,153244
9.831,147644,343,153260
9.836,147642,342,153256
9.841,147653,342,153252
9.846,147656,339,153240
9.851,147648,338,153218
9.856,147627,335,153219
9.861,147604,335,153212
9.866,147622,334,153190
9.871,147612,333,153194
9.876,147594,342,153192
9.881,147594,340,153196
9.886,147599,338,153191
9.891,147607,337,153169
9.896,147589,335,153179
9.901,147585,338,153162
9.906,147580,337,153151
9.911,147581,337,153150
9.916,147566,335,153148
9.921,147559,336,153121
9.926,147557,333,153121
9.931,147535,344,153120
9.936,147526,339,153116
9.941,147537,340,153121
9.946,147514,332,153111
9.951,147506,341,153095
9.956,147531,338,153096
9.961,147506,339,153092
9.966,147510,335,153074
9.971,147496,336,153071
9.976,147505,330,153070
9.980,147500,342,153077
9.985,147503,339,153069
9.990,147503,340,153063
9.995,147507,337,153066
10.000,147503,342,153042
10.005,147497,340,153048
10.010,147495,340,153050
10.015,147494,337,153038
10.020,147491,336,153059
10.025,147480,336,153057
10.030,147484,336,153036
10.035,147481,334,153043
10.040,147489,334,153028
10.045,147506,339,152995
10.050,147472,332,153025
10.055,147496,341,153020
10.060,147491,340,153022
10.065,147485,337,153019
10.070,147489,338,153027
10.075,147482,335,153020
10.080,147476,338,153026
10.085,147501,336,153034
10.090,147485,336,153033
10.095,147518,338,153038
10.100,147507,337,153044
10.105,147518,336,153053
10.110,147512,335,153047
10.115,147516,342,153048
10.120,147505,342,153041
10.125,147516,337,153063
10.129,147516,338,153049
10.134,147516,335,153041
10.139,147517,335,153064
10.144,147518,336,153058
10.149,147515,337,153060
10.154,147518,332,153051
10.159,147510,333,153046
10.164,147510,340,153034
10.169,147517,342,153040
10.174,147523,338,153057
10.179,147532,340,153057
10.184,147537,337,153056
10.189,147525,338,153057
10.194,147540,340,153048
10.199,147543,343,153061
10.204,147544,340,153061
10.209,147534,340,153058
10.214,147559,336,153072
10.219,147545,337,153065
10.224,147570,335,153072
10.229,147561,336,153067
10.234,147581,333,153076
10.239,147586,334,153086
10.244,147580,336,153070
10.249,147571,336,153082
10.254,147598,334,153088
10.259,147591,333,153105
10.264,147588,332,153105
10.269,147620,341,153101
10.274,147603,339,153108
10.278,147633,340,153112
10.283,147629,337,153112
10.288,147638,341,153057
10.293,147637,340,153136
10.298,147649,338,153135
10.303,147659,337,153150
10.308,147670,337,153140
10.313,147687,334,153158
10.318,147699,336,153171
10.323,147700,333,153176
10.328,147695,334,153197
10.333,147712,331,153198
10.338,147719,339,153191
10.343,147712,338,153176
10.348,147688,338,153198
10.353,147698,335,153208
10.358,147685,336,153207
10.363,147666,333,153197
10.368,147654,335,153203
10.373,147632,332,153199
10.378,147628,343,153178
10.383,147607,339,153183
10.388,147592,333,153173
10.393,147592,341,153163
10.398,147568,339,153141
10.403,147541,337,153144
10.408,147557,336,153143
10.413,147530,334,153134
10.418,147528,333,153126
10.423,147507,342,153129
10.427,147502,339,153101
10.432,147498,339,153098
10.437,147442,334,153095
10.442,147461,335,153095
10.447,147443,334,153070
10.452,147421,334,153062
10.457,147416,341,153060
10.462,147402,340,153053
10.467,147393,338,153056
10.472,147386,338,153043
10.477,147370,336,153024
10.482,147344,335,153016
10.487,147336,338,153006
10.492,147327,337,152998
10.497,147322,336,153000
10.502,147299,336,152980
10.507,147298,335,152991
10.512,147292,332,152974
10.517,147265,332,152987
10.522,147273,340,152975
10.527,147261,340,152964
10.532,147242,339,152969
10.537,147225,342,152955
10.542,147230,339,152944
10.547,147200,340,152933
10.552,147207,339,152930
10.557,147187,338,152917
10.562,147165,337,152909
10.567,147177,336,152902
10.572,147160,335,152891
10.576,147152,333,152908
10.581,147151,323,152907
10.586,147127,337,152901
10.591,147136,336,152897
10.596,147128,334,152897
10.601,147137,333,152894
10.606,147114,331,152874
10.611,147105,341,152875
10.616,147096,338,152868
10.621,147086,337,152853
10.626,147070,335,152853
10.631,147073,340,152849
10.636,147073,336,152859
10.641,147068,337,152871
10.646,147071,335,152863
10.651,147073,336,152876
10.656,147057,334,152869
10.661,147056,334,152873
10.666,147068,333,152876
10.671,147053,333,152878
10.676,147057,331,152870
10.681,147043,336,152887
10.686,147043,335,152900
10.691,147061,334,152889
10.696,147062,333,152887
10.701,147054,332,152905
10.706,147065,332,152906
10.711,147057,332,152923
10.716,147059,330,152918
10.721,147057,341,152906
10.725,147069,341,152934
10.730,147039,337,152928
10.735,147074,338,152940
10.740,147076,337,152948
10.745,147070,336,152941
10.750,147066,337,152947
10.755,147067,335,152947
10.760,147080,335,152944
10.765,147087,333,152943
10.770,147074,333,152948
10.775,147072,331,152964
10.780,147076,336,152953
10.785,147078,333,152959
10.790,147076,335,152966
10.795,147072,331,152964
10.800,147089,341,152983
10.805,147084,339,152977
10.810,147072,339,152973
10.815,147086,334,152980
10.820,147094,336,152987
10.825,147084,339,152960
10.830,147107,339,152998
10.835,147097,335,152989
10.840,147105,336,153000
10.845,147095,333,152996
10.850,147105,335,153013
10.855,147103,330,153018
10.860,147098,332,153017
10.865,147103,331,153022
10.870,147105,332,153000
10.874,147123,332,153007
10.879,147106,334,153024
10.884,147103,331,153013
10.889,147115,341,153012
10.894,147126,337,153027
10.899,147117,336,153012
10.904,147116,335,153027
10.909,147133,334,153025
10.914,147127,332,153024
10.919,147131,332,153049
10.924,147141,333,153049
10.929,147126,333,153036
10.934,147128,331,153045
10.939,147130,340,153041
10.944,147118,338,153045
10.949,147134,338,153049
10.954,147136,336,153049
10.959,147140,337,153048
10.964,147138,335,153054
10.969,147153,336,153052
10.974,147173,335,153074
10.979,147149,338,153051
10.984,147158,333,153074
10.989,147169,335,153074
10.994,147154,330,153078
10.999,147169,333,153071
11.004,147173,330,153085
11.009,147181,331,153091
11.014,147190,338,153076
11.019,147196,339,153085
11.023,147190,330,153102
11.028,147203,333,153087
11.033,147213,329,153090
11.038,147213,331,153108
11.043,147216,338,153101
11.048,147204,338,153094
11.053,147196,335,153091
11.058,147182,336,153085
11.063,147171,335,153083
11.068,147163,335,153078
11.073,147148,337,153080
11.078,147140,345,153052
11.083,147115,337,153059
11.088,147110,336,153064
11.093,147091,335,153054
11.098,147064,335,153047
11.103,147041,334,153044
11.108,147024,333,153031
11.113,147014,333,153027
11.118,147009,339,153012
11.123,146985,335,153006
11.128,146967,334,152992
11.133,146950,331,153010
11.138,146930,332,152976
11.143,146923,331,152975
11.148,146911,332,152976
11.153,146905,340,152978
11.158,146897,338,152964
11.163,146882,336,152958
11.167,146868,338,152965
11.172,146840,334,152943
11.177,146832,335,152936
11.182,146808,332,152932
11.187,146802,334,152925
11.192,146790,331,152916
11.197,146768,333,152909
11.202,146763,329,152904
11.207,146754,341,152879
11.212,146701,339,152872
11.217,146693,333,152863
11.222,146685,331,152851
11.227,146676,333,152857
11.232,146648,330,152840
11.237,146652,331,152836
11.242,146632,330,152827
11.247,146634,331,152820
11.252,146603,340,152818
11.257,146602,339,152813
11.262,146593,337,152813
11.267,146581,331,152806
11.272,146574,329,152806
11.277,146564,330,152793
11.282,146552,339,152790
11.287,146552,339,152806
11.292,146540,340,152809
11.297,146560,339,152804
11.302,146548,339,152825
11.307,146557,338,152828
11.312,146562,337,152813
11.316,146563,330,152816
11.321,146541,330,152815
11.326,146530,340,152810
11.331,146532,339,152801
11.336,146526,339,152802
11.341,146520,338,152806
11.346,146521,338,152808
11.351,146499,337,152812
11.356,146509,337,152792
11.361,146498,346,152797
11.366,146486,334,152811
11.371,146490,333,152803
11.376,146484,334,152809
11.381,146487,333,152801
11.386,146466,333,152792
11.391,146468,332,152794
11.396,146472,332,152792
11.401,146445,330,152791
11.406,146454,340,152780
11.411,146451,332,152805
11.416,146441,329,152796
11.421,146450,330,152794
11.426,146450,340,152796
11.431,146438,338,152797
11.436,146438,338,152790
11.441,146440,337,152796
11.446,146428,335,152790
11.451,146427,335,152778
11.456,146428,334,152787
11.461,146429,336,152748
11.465,146413,331,152786
11.470,146404,332,152777
11.475,146400,330,152791
11.480,146392,332,152777
11.485,146401,330,152786
11.490,146407,331,152792
11.495,146403,329,152800
11.500,146417,331,152787
11.505,146397,340,152774
11.510,146404,333,152795
11.515,146396,332,152799
11.520,146402,332,152788
11.525,146395,331,152782
11.530,146387,330,152789
11.535,146395,330,152783
11.540,146391,330,152803
11.545,146386,340,152779
11.550,146364,337,152797
11.555,146383,338,152795
11.560,146364,331,152788
11.565,146365,330,152779
11.570,146370,330,152802
11.575,146373,339,152773
11.580,146369,338,152795
11.585,146376,337,152781
11.590,146369,336,152775
11.595,146374,334,152796
11.600,146384,334,152793
11.605,146378,333,152799
11.610,146380,335,152778
11.614,146364,333,152788
11.619,146358,333,152780
11.624,146373,330,152783
11.629,146365,332,152795
11.634,146371,329,152794
11.639,146366,330,152793
11.644,146380,336,152813
11.649,146370,337,152803
11.654,146326,333,152801
11.659,146387,330,152805
11.664,146375,336,152791
11.669,146382,337,152800
11.674,146377,334,152804
11.679,146369,334,152791
11.684,146382,331,152805
11.689,146395,331,152817
11.694,146386,329,152811
11.699,146394,330,152821
11.704,146398,333,152805
11.709,146403,333,152817
11.714,146403,330,152823
11.719,146404,330,152815
11.724,146401,339,152817
11.729,146397,338,152819
11.734,146391,336,152817
11.739,146410,336,152828
11.744,146415,334,152825
11.749,146407,333,152829
11.754,146391,335,152825
11.759,146381,335,152811
11.763,146365,334,152802
11.768,146355,334,152802
11.773,146335,330,152809
11.778,146323,330,152780
11.783,146309,337,152785
11.788,146296,337,152780
11.793,146279,333,152779
11.798,146259,334,152777
11.803,146239,337,152762
11.808,146221,337,152760
11.813,146217,334,152749
11.818,146201,333,152736
11.823,146185,331,152749
11.828,146197,330,152750
11.833,146171,329,152742
11.838,146165,331,152744
11.843,146174,337,152754
11.848,146153,338,152749
11.853,146144,333,152747
11.858,146142,336,152738
11.863,146123,331,152731
11.868,146119,331,152738
11.873,146107,329,152732
11.878,146101,338,152728
11.883,146070,334,152725
11.888,146076,334,152704
11.893,146046,331,152711
11.898,146041,339,152718
11.903,146014,332,152687
11.908,146020,333,152691
11.912,146002,330,152693
11.917,145984,330,152683
11.922,145984,338,152674
11.927,145960,337,152674
11.932,145956,334,152674
11.937,145947,333,152664
11.942,145947,332,152685
11.947,145937,338,152677
11.952,145918,330,152664
11.957,145920,329,152674
11.962,145907,337,152660
11.967,145909,334,152687
11.972,145889,334,152715
11.977,145889,330,152678
11.982,145873,329,152674
11.987,145885,330,152688
11.992,145889,329,152691
11.997,145880,332,152693
12.002,145877,330,152695
12.007,145878,332,152701
12.012,145865,329,152705
12.017,145858,329,152701
12.022,145863,327,152698
12.027,145851,337,152686
12.032,145864,333,152704
12.037,145848,332,152692
12.042,145837,329,152702
12.047,145832,334,152696
12.052,145836,330,152698
12.057,145816,330,152694
12.061,145802,328,152693
12.066,145808,337,152709
12.071,145803,335,152698
12.076,145789,334,152698
12.081,145783,334,152697
12.086,145781,333,152704
12.091,145777,330,152694
12.096,145784,333,152691
12.101,145777,331,152724
12.106,145774,329,152723
12.111,145770,339,152714
12.116,145775,337,152719
12.121,145778,336,152730
12.126,145780,335,152749
12.131,145797,333,152749
12.136,145782,331,152752
12.141,145792,332,152771
12.146,145799,334,152774
12.151,145790,335,152788
12.156,145780,332,152773
12.161,145773,331,152774
12.166,145789,330,152778
12.171,145784,330,152793
12.176,145780,330,152790
12.181,145784,338,152805
12.186,145776,337,152811
12.191,145805,319,152801
12.196,145779,327,152794
12.201,145776,337,152809
12.206,145784,337,152799
12.210,145775,335,152814
12.215,145774,333,152807
12.220,145763,333,152812
12.225,145771,333,152801
12.230,145764,330,152798
12.235,145773,328,152833
12.240,145762,330,152818
12.245,145772,328,152825
12.250,145776,328,152806
12.255,145761,337,152810
12.260,145744,335,152809
12.265,145742,334,152793
12.270,145729,332,152796
12.275,145706,329,152781
12.280,145703,329,152777
12.285,145690,328,152754
12.290,145681,337,152748
12.295,145674,335,152752
12.300,145691,335,152749
12.305,145685,331,152756
12.310,145684,332,152732
12.315,145663,330,152733
12.320,145674,331,152749
12.325,145680,329,152737
12.330,145673,329,152731
12.335,145672,336,152758
12.340,145679,331,152741
12.345,145682,329,152747
12.350,145678,330,152737
12.355,145682,336,152745
12.359,145680,336,152749
12.364,145691,334,152757
12.369,145693,335,152756
12.374,145691,334,152769
12.379,145700,334,152773
12.384,145705,333,152762
12.389,145700,338,152755
12.394,145703,335,152757
12.399,145709,334,152776
12.404,145716,333,152772
12.409,145713,332,152773
12.414,145694,330,152776
12.419,145692,330,152769
12.424,145688,329,152756
12.429,145672,329,152752
12.434,145640,331,152692
12.439,145637,331,152748
12.444,145604,329,152731
12.449,145581,328,152721
12.454,145576,336,152721
12.459,145561,335,152695
12.464,145518,333,152683
12.469,145515,333,152678
12.474,145494,331,152681
12.479,145484,333,152669
12.484,145493,336,152652
12.489,145456,338,152640
12.494,145454,336,152654
12.499,145437,337,152654
12.504,145425,334,152650
12.508,145426,335,152656
12.513,145414,332,152651
12.518,145410,334,152636
12.523,145407,331,152646
12.528,145382,334,152660
12.533,145399,331,152663
12.538,145379,332,152645
12.543,145378,329,152642
12.548,145362,328,152651
12.553,145349,336,152656
12.558,145341,336,152639
12.563,145339,335,152631
12.568,145326,335,152634
12.573,145329,332,152633
12.578,145324,331,152631
12.583,145301,334,152628
12.588,145308,334,152648
12.593,145318,331,152648
12.598,145306,331,152645
12.603,145296,328,152647
12.608,145279,328,152649
12.613,145272,337,152641
12.618,145280,336,152657
12.623,145286,335,152652
12.628,145264,334,152648
12.633,145258,327,152651
12.638,145276,338,152664
12.643,145273,336,152672
12.648,145266,338,152679
12.653,145257,335,152687
12.657,145292,336,152690
12.662,145274,333,152698
12.667,145277,335,152692
12.672,145276,332,152697
12.677,145281,334,152705
12.682,145274,335,152711
12.687,145287,337,152714
12.692,145298,334,152722
12.697,145281,337,152730
12.702,145284,333,152733
12.707,145282,335,152735
12.712,145285,330,152746
12.717,145276,333,152739
12.722,145272,332,152732
12.727,145273,329,152747
12.732,145284,336,152747
12.737,145284,336,152757
12.742,145272,334,152764
12.747,145281,336,152770
12.752,145272,333,152759
12.757,145282,333,152773
12.762,145267,331,152773
12.767,145277,332,152796
12.772,145277,330,152780
12.777,145280,334,152798
12.782,145287,331,152796
12.787,145302,331,152788
12.792,145283,329,152806
12.797,145295,328,152801
12.802,145294,326,152812
12.806,145298,337,152817
12.811,145294,335,152817
12.816,145303,335,152829
12.821,145297,333,152828
12.826,145347,324,152840
12.831,145314,330,152832
12.836,145314,331,152841
12.841,145316,329,152847
12.846,145330,329,152841
12.851,145320,329,152864
12.856,145321,329,152862
12.861,145348,327,152865
12.866,145343,328,152872
12.871,145350,336,152874
12.876,145356,329,152896
12.881,145359,328,152889
12.886,145373,327,152903
12.891,145364,336,152908
12.896,145384,335,152908
12.901,145379,333,152918
12.906,145386,334,152922
12.911,145393,332,152937
12.916,145397,331,152952
12.921,145389,330,152941
12.926,145403,333,152955
12.931,145408,332,152951
12.936,145415,331,152967
12.941,145419,330,152972
12.946,145428,329,152960
12.951,145416,328,152979
12.955,145429,326,152969
12.960,145434,327,152979
12.965,145429,336,152992
12.970,145436,335,153011
12.975,145440,331,152999
12.980,145455,332,153001
12.985,145448,331,153000
12.990,145451,331,153010
12.995,145464,330,153015
13.000,145457,329,153023
13.005,145470,328,153031
13.010,145469,327,153043
13.015,145482,336,153040
13.020,145489,328,153036
13.025,145501,328,153041
13.030,145491,326,153048
13.035,145484,337,153048
13.040,145500,336,153055
13.045,145500,335,153070
13.050,145511,333,153069
13.055,145515,334,153086
13.060,145527,331,153085
13.065,145522,331,153080
13.070,145525,335,153084
13.075,145544,333,153098
13.080,145549,334,153098
13.085,145541,331,153091
13.090,145529,328,153096
13.095,145535,337,153096
13.100,145519,336,153095
13.104,145507,333,153098
13.109,145486,333,153084
13.114,145488,332,153080
13.119,145461,336,153077
13.124,145453,333,153068
13.129,145432,334,153050
13.134,145421,330,153053
13.139,145400,331,153043
13.144,145387,327,153033
13.149,145353,328,153021
13.154,145346,335,153011
13.159,145332,334,153003
13.164,145316,333,152982
13.169,145310,337,152991
13.174,145295,335,152989
13.179,145282,335,152975
13.184,145268,332,152967
13.189,145263,333,152973
13.194,145239,330,152955
13.199,145207,329,152943
13.204,145212,327,152948
13.209,145199,327,152950
13.214,145199,336,152933
13.219,145200,326,152932
13.224,145180,337,152908
13.229,145158,336,152928
13.234,145143,334,152910
13.239,145146,334,152923
13.244,145131,333,152914
13.249,145117,333,152922
13.253,145111,332,152916
13.258,145105,332,152914
13.263,145100,324,152904
13.268,145086,335,152922
13.273,145055,332,152907
13.278,145065,332,152917
13.283,145052,331,152920
13.288,145037,331,152915
13.293,145039,330,152912
13.298,145025,331,152907
13.303,145008,327,152911
13.308,145007,329,152923
13.313,144997,330,152921
13.318,144990,331,152903
13.323,144982,328,152906
13.328,144985,330,152912
13.333,144982,327,152920
13.338,144978,329,152925
13.343,144972,325,152940
13.348,144995,336,152939
13.353,144992,333,152934
13.358,144995,333,152955
13.363,144994,326,152943
13.368,144981,337,152942
13.373,144999,334,152945
13.378,144975,333,152951
13.383,144979,331,152954
13.388,144980,331,152955
13.393,144964,328,152960
13.398,144966,327,152964
13.402,144963,336,152952
13.407,144949,336,152955
13.412,144932,337,152958
13.417,144958,327,152973
13.422,144962,326,152961
13.427,144939,336,152971
13.432,144942,333,152968
13.437,144943,333,152968
13.442,144939,331,152979
13.447,144957,331,152980
13.452,144939,329,152984
13.457,144942,330,152988
13.462,144948,330,152996
13.467,144926,331,152974
13.472,144939,329,152997
13.477,144940,330,152991
13.482,144943,327,153011
13.487,144948,328,153013
13.492,144952,326,153021
13.497,144963,327,153042
13.502,144959,326,153023
13.507,144973,336,153023
13.512,144968,329,153040
13.517,144967,333,153049
13.522,144973,331,153070
13.527,144991,332,153065
13.532,144972,329,153068
13.537,144987,331,153080
13.542,145002,328,153085
13.546,144993,329,153089
13.551,145002,326,153094
13.556,145000,329,153100
13.561,145018,327,153107
13.566,145016,326,153111
13.571,145013,335,153118
13.576,145042,333,153124
13.581,145039,333,153131
13.586,145021,332,153133
13.591,145033,330,153143
13.596,145056,329,153153
13.601,145052,328,153165
13.606,145052,332,153171
13.611,145075,330,153180
13.616,145076,329,153189
13.621,145082,328,153196
13.626,145088,328,153199
13.631,145086,326,153201
13.636,145097,327,153211
13.641,145098,335,153217
13.646,145118,335,153226
13.651,145104,331,153225
13.656,145113,333,153243
13.661,145130,330,153248
13.666,145139,331,153267
13.671,145139,327,153269
13.676,145154,329,153274
13.681,145160,326,153263
13.686,145168,327,153293
13.691,145164,335,153288
13.695,145190,336,153306
13.700,145188,334,153327
13.705,145178,331,153329
13.710,145188,331,153323
13.715,145204,330,153343
13.720,145203,328,153344
13.725,145211,328,153346
13.730,145206,328,153353
13.735,145220,337,153356
13.740,145244,337,153357
13.745,145237,335,153388
13.750,145240,334,153390
13.755,145260,327,153387
13.760,145264,326,153404
13.765,145269,335,153415
13.770,145286,334,153428
13.775,145282,330,153438
13.780,145294,332,153438
13.785,145301,331,153442
13.790,145294,329,153455
13.795,145289,328,153464
13.800,145270,323,153467
13.805,145274,331,153470
13.810,145268,330,153469
13.815,145259,328,153469
13.820,145242,327,153466
13.825,145215,335,153463
13.830,145196,332,153459
13.835,145194,331,153443
13.840,145185,330,153456
13.844,145175,329,153446
13.849,145151,333,153437
13.854,145141,332,153451
13.859,145119,330,153418
13.864,145125,330,153433
13.869,145117,329,153443
13.874,145105,327,153432
13.879,145103,327,153426
13.884,145105,326,153425
13.889,145085,336,153424
13.894,145068,333,153435
13.899,145068,327,153429
13.904,145060,326,153415
13.909,145052,336,153420
13.914,145055,333,153425
13.919,145047,334,153424
13.924,145037,332,153436
13.929,145018,332,153441
13.934,145000,329,153432
13.939,145002,328,153428
13.944,144987,326,153427
13.949,144982,331,153421
13.954,144978,328,153434
13.959,144959,328,153433
13.964,144940,325,153427
13.969,144944,336,153432
13.974,144923,328,153436
13.979,144912,332,153429
13.984,144916,330,153425
13.989,144889,329,153426
13.993,144885,328,153411
13.998,144867,331,153415
14.003,144876,329,153407
14.008,144870,329,153409
14.013,144856,328,153417
14.018,144856,326,153416
14.023,144862,325,153419
14.028,144867,336,153440
14.033,144858,334,153453
14.038,144873,332,153449
14.043,144883,343,153441
14.048,144884,326,153472
14.053,144877,323,153475
14.058,144865,326,153480
14.063,144869,325,153477
14.068,144883,325,153469
14.073,144861,334,153477
14.078,144858,347,153480
14.083,144859,334,153473
14.088,144863,336,153477
14.093,144865,331,153470
14.098,144858,335,153495
14.103,144861,334,153488
14.108,144866,335,153489
14.113,144868,333,153502
14.118,144869,335,153504
14.123,144867,332,153520
14.128,144873,334,153511
14.133,144860,330,153520
14.138,144880,332,153519
14.142,144870,334,153528
14.147,144891,337,153530
14.152,144892,333,153531
14.157,144891,335,153541
14.162,144892,333,153543
14.167,144895,333,153541
14.172,144885,330,153540
14.177,144907,331,153552
14.182,144893,329,153563
14.187,144897,330,153564
14.192,144903,334,153572
14.197,144917,332,153578
14.202,144917,330,153577
14.207,144921,330,153586
14.212,144929,329,153591
14.217,144929,330,153604
14.222,144946,329,153620
14.227,144957,328,153634
14.232,144959,327,153650
14.237,144977,328,153653
14.242,144972,331,153656
14.247,144984,330,153662
14.252,144993,328,153664
14.257,144997,329,153681
14.262,145005,326,153668
14.267,145001,327,153696
14.272,145033,324,153695
14.277,145023,335,153702
14.282,145035,333,153718
14.287,145030,336,153732
14.291,145057,326,153734
14.296,145063,326,153734
14.301,145070,334,153752
14.306,145069,336,153752
14.311,145079,334,153758
14.316,145089,334,153775
14.321,145107,331,153761
14.326,145097,332,153784
14.331,145107,329,153801
14.336,145080,339,153790
14.341,145127,337,153810
14.346,145122,328,153801
14.351,145126,328,153802
14.356,145138,329,153821
14.361,145123,329,153806
14.366,145130,330,153824
14.371,145156,330,153827
14.376,145153,330,153839
14.381,145161,329,153856
14.386,145178,334,153850
14.391,145189,333,153869
14.396,145194,333,153874
14.401,145198,334,153885
14.406,145203,335,153885
14.411,145204,335,153909
14.416,145205,335,153906
14.421,145239,332,153908
14.426,145248,332,153920
14.431,145242,330,153926
14.436,145248,335,153934
14.440,145261,333,153942
14.445,145270,334,153944
14.450,145270,332,153956
14.455,145282,333,153965
14.460,145302,331,153977
14.465,145298,330,153963
14.470,145302,326,153984
14.475,145321,328,153993
14.480,145327,326,153996
14.485,145338,330,154010
14.490,145346,327,154014
14.495,145353,325,154016
14.500,145369,333,154039
14.505,145372,333,154049
14.510,145376,331,154057
14.515,145380,330,154047
14.520,145371,329,154049
14.525,145356,328,154054
14.530,145349,326,154026
14.535,145347,330,154054
14.540,145345,328,154056
14.545,145334,327,154043
14.550,145315,326,154030
14.555,145304,325,154039
14.560,145295,335,154043
14.565,145286,333,154028
14.570,145276,332,154032
14.575,145267,329,154037
14.580,145261,326,154012
14.585,145253,331,154019
14.589,145241,331,154016
14.594,145233,328,154021
14.599,145227,327,154033
14.604,145230,326,154031
14.609,145232,335,154031
14.614,145217,333,154029
14.619,145232,332,154029
14.624,145202,330,154022
14.629,145213,333,154039
14.634,145207,332,154043
14.639,145183,332,154025
14.644,145173,331,154034
14.649,145174,329,154020
14.654,145163,328,154007
14.659,145159,326,154009
14.664,145160,335,154017
14.669,145156,331,154017
14.674,145144,329,154015
14.679,145141,332,154017
14.684,145144,332,154021
14.689,145129,332,154016
14.694,145135,331,154028
14.699,145125,330,154022
14.704,145135,329,154013
14.709,145113,330,154025
14.714,145120,329,154021
14.719,145122,328,154036
14.724,145116,327,154053
14.729,145117,332,154046
14.734,145102,330,154039
14.738,145115,330,154046
14.743,145102,330,154040
14.748,145105,330,154061
14.753,145114,328,154058
14.758,145121,330,154069
14.763,145124,328,154062
14.768,145115,330,154073
14.773,145121,327,154068
14.778,145122,327,154060
14.783,145140,324,154065
14.788,145120,326,154073
14.793,145133,333,154071
14.798,145130,333,154076
14.803,145136,331,154092
14.808,145126,331,154083
14.813,145135,327,154088
14.818,145126,328,154084
14.823,145134,327,154044
14.828,145135,330,154080
14.833,145139,328,154103
14.838,145139,329,154104
14.843,145144,326,154103
14.848,145149,326,154113
14.853,145150,334,154110
14.858,145142,335,154112
14.863,145147,333,154105
14.868,145157,333,154111
14.873,145196,324,154119
14.878,145164,325,154119
14.883,145162,333,154137
14.887,145156,332,154121
14.892,145168,330,154129
14.897,145180,328,154130
14.902,145169,326,154134
14.907,145177,327,154138
14.912,145176,334,154139
14.917,145212,334,154155
14.922,145220,325,154154
14.927,145216,331,154164
14.932,145216,328,154169
14.937,145213,329,154179
14.942,145221,326,154184
14.947,145233,327,154178
14.952,145235,324,154201
14.957,145226,335,154198
14.962,145237,331,154211
14.967,145250,332,154194
14.972,145284,295,154203
14.977,145253,332,154209
14.982,145260,328,154205
14.987,145264,330,154211
14.992,145282,327,154222
14.997,145293,329,154222
15.002,145295,325,154230
15.007,145305,326,154238
15.012,145303,323,154241
15.017,145298,340,154237
15.022,145321,326,154244
15.027,145333,324,154271
15.032,145333,332,154278
15.036,145335,332,154266
15.041,145334,329,154273
15.046,145362,327,154257
15.051,145354,324,154283
15.056,145367,333,154277
15.061,145364,330,154287
15.066,145363,330,154287
15.071,145370,332,154295
15.076,145393,331,154306
15.081,145396,331,154316
15.086,145405,328,154314
15.091,145418,326,154321
15.096,145423,335,154321
15.101,145426,332,154336
15.106,145443,332,154346
15.111,145457,330,154347
15.116,145454,328,154352
15.121,145460,331,154351
15.126,145453,330,154350
15.131,145469,329,154356
15.136,145470,328,154369
15.141,145485,326,154372
15.146,145478,327,154382
15.151,145496,324,154383
15.156,145509,335,154385
15.161,145515,331,154381
15.166,145520,326,154388
15.171,145515,324,154394
15.176,145532,334,154403
15.181,145542,330,154411
15.185,145564,332,154414
15.190,145558,329,154414
15.195,145573,329,154428
15.200,145569,326,154444
15.205,145605,327,154456
15.210,145596,324,154444
15.215,145617,335,154403
15.220,145593,330,154448
15.225,145603,330,154461
15.230,145634,329,154469
15.235,145633,329,154475
15.240,145640,327,154467
15.245,145640,327,154485
15.250,145630,326,154468
15.255,145634,335,154449
15.260,145622,332,154456
15.265,145606,326,154450
15.270,145599,334,154454
15.275,145592,332,154450
15.280,145586,330,154443
15.285,145575,328,154443
15.290,145555,328,154447
15.295,145547,334,154431
15.300,145531,333,154420
15.305,145531,328,154430
15.310,145531,329,154422
15.315,145524,331,154418
15.320,145511,330,154410
15.325,145528,329,154410
15.330,145520,328,154409
15.334,145515,327,154427
15.339,145519,325,154412
15.344,145504,335,154428
15.349,145497,332,154401
15.354,145503,331,154402
15.359,145505,330,154426
15.364,145495,333,154411
15.369,145474,331,154404
15.374,145482,328,154394
15.379,145484,327,154413
15.384,145486,325,154408
15.389,145473,332,154403
15.394,145468,331,154396
15.399,145461,328,154394
15.404,145475,327,154396
15.409,145464,321,154380
15.414,145462,327,154390
15.419,145472,326,154403
15.424,145466,325,154403
15.429,145459,334,154408
15.434,145456,332,154396
15.439,145454,330,154402
15.444,145465,329,154424
15.449,145455,328,154405
15.454,145458,326,154402
15.459,145454,333,154402
15.464,145460,333,154401
15.469,145449,333,154401
15.474,145461,331,154409
15.479,145457,331,154397
15.483,145463,327,154408
15.488,145471,327,154396
15.493,145473,323,154400
15.498,145478,333,154382
15.503,145477,330,154402
15.508,145477,327,154382
15.513,145469,325,154394
15.518,145469,327,154408
15.523,145480,324,154405
15.528,145479,334,154405
15.533,145498,332,154409
15.538,145489,330,154409
15.543,145494,327,154412
15.548,145478,327,154397
15.553,145500,325,154412
15.558,145505,329,154415
15.563,145495,327,154416
15.568,145497,327,154415
15.573,145497,325,154421
15.578,145503,334,154409
15.583,145525,332,154434
15.588,145515,332,154402
15.593,145509,331,154413
15.598,145512,329,154413
15.603,145533,327,154419
15.608,145509,330,154422
15.613,145542,328,154423
15.618,145532,328,154431
15.623,145532,325,154431
15.628,145555,325,154454
15.632,145548,332,154439
15.637,145546,333,154438
15.642,145544,330,154452
15.647,145557,330,154431
15.652,145560,335,154374
15.657,145555,333,154433
15.662,145560,330,154440
15.667,145555,332,154432
15.672,145570,329,154444
15.677,145578,330,154438
15.682,145580,327,154447
15.687,145580,328,154447
15.692,145584,325,154452
15.697,145604,327,154448
15.702,145631,327,154443
15.707,145619,330,154472
15.712,145630,326,154469
15.717,145629,328,154460
15.722,145642,324,154481
15.727,145646,336,154480
15.732,145658,332,154483
15.737,145648,331,154480
15.742,145671,329,154488
15.747,145662,331,154491
15.752,145668,332,154508
15.757,145689,332,154512
15.762,145697,330,154514
15.767,145705,330,154513
15.772,145695,328,154504
15.777,145708,328,154517
15.781,145731,327,154537
15.786,145716,327,154540
15.791,145732,324,154542
15.796,145739,332,154542
15.801,145684,327,154551
15.806,145767,328,154551
15.811,145760,325,154555
15.816,145770,325,154574
15.821,145781,333,154583
15.826,145773,333,154586
15.831,145797,329,154575
15.836,145789,330,154580
15.841,145806,328,154593
15.846,145813,328,154599
15.851,145825,329,154600
15.856,145836,331,154606
15.861,145850,327,154628
15.866,145852,328,154623
15.871,145863,325,154638
15.876,145862,336,154628
15.881,145880,332,154642
15.886,145877,333,154632
15.891,145899,329,154646
15.896,145913,331,154632
15.901,145889,325,154662
15.906,145903,327,154650
15.911,145922,323,154652
15.916,145931,335,154665
15.921,145938,332,154667
15.925,145938,333,154672
15.930,145946,330,154668
15.935,145945,329,154683
15.940,145964,326,154679
15.945,145982,314,154688
15.950,145986,328,154700
15.955,145992,327,154698
15.960,145996,325,154695
15.965,145996,324,154701
15.970,146000,333,154698
15.975,146009,329,154700
15.980,146026,329,154715
15.985,146032,327,154717
15.990,146043,326,154723
15.995,146043,329,154704
16.000,146046,328,154729
16.005,146071,327,154721
16.010,146062,325,154739
16.015,146073,325,154737
16.020,146075,333,154735
16.025,146072,333,154747
16.030,146062,331,154747
16.035,146065,329,154741
16.040,146051,327,154732
16.045,146048,329,154723
16.050,146036,327,154732
16.055,146039,326,154714
16.060,146027,324,154728
16.065,146016,333,154730
16.070,146001,330,154721
16.074,145991,329,154702
16.079,145965,332,154710
16.084,145967,328,154702
16.089,145963,325,154716
16.094,145970,330,154709
16.099,145947,328,154691
16.104,145959,329,154690
16.109,145932,328,154701
16.114,145948,328,154690
16.119,145939,326,154693
16.124,145934,325,154677
16.129,145935,324,154684
16.134,145922,334,154683
16.139,145944,332,154688
16.144,145925,324,154683
16.149,145922,334,154672
16.154,145902,331,154683
16.159,145911,330,154675
16.164,145902,327,154680
16.169,145888,328,154673
16.174,145894,323,154664
16.179,145895,335,154655
16.184,145885,332,154665
16.189,145876,338,154715
16.194,145860,334,154649
16.199,145859,332,154673
16.204,145872,329,154664
16.209,145860,329,154651
16.214,145845,325,154666
16.219,145849,325,154646
16.223,145835,333,154642
16.228,145843,334,154637
16.233,145829,331,154647
16.238,145785,335,154644
16.243,145825,333,154645
16.248,145828,333,154633
16.253,145832,331,154638
16.258,145827,329,154647
16.263,145827,328,154642
16.268,145810,327,154630
16.273,145843,325,154648
16.278,145836,333,154658
16.283,145834,332,154654
16.288,145855,330,154657
16.293,145851,328,154664
16.298,145847,326,154661
16.303,145836,325,154656
16.308,145843,326,154643
16.313,145845,324,154636
16.318,145844,333,154636
16.323,145841,331,154649
16.328,145844,331,154635
16.333,145843,329,154649
16.338,145841,333,154652
16.343,145838,330,154648
16.348,145840,329,154652
16.353,145831,325,154651
16.358,145842,326,154639
16.363,145844,333,154646
16.368,145834,332,154645
16.372,145828,329,154636
16.377,145849,328,154650
16.382,145839,321,154662
16.387,145850,333,154648
16.392,145835,328,154645
16.397,145840,329,154651
16.402,145852,324,154649
16.407,145850,326,154638
16.412,145856,332,154642
16.417,145852,332,154655
16.422,145865,329,154648
16.427,145852,329,154644
16.432,145869,326,154663
16.437,145866,331,154647
16.442,145870,329,154657
16.447,145873,329,154648
16.452,145875,325,154648
16.457,145875,325,154649
16.462,145875,332,154646
16.467,145886,332,154653
16.472,145887,329,154662
16.477,145898,329,154645
16.482,145895,358,154655
16.487,145902,330,154662
16.492,145896,326,154650
16.497,145907,326,154660
16.502,145900,324,154674
16.507,145906,333,154661
16.512,145907,329,154680
16.517,145922,328,154666
16.521,145922,325,154674
16.526,145930,324,154666
16.531,145920,326,154672
16.536,145941,326,154681
16.541,145943,323,154676
16.546,145959,334,154682
16.551,145947,331,154687
16.556,145964,329,154686
16.561,145960,327,154694
16.566,145967,327,154693
16.571,145970,325,154686
16.576,145966,324,154690
16.581,145990,333,154701
16.586,145985,334,154710
16.591,145987,331,154703
16.596,145989,333,154700
16.601,146006,330,154713
16.606,145996,333,154708
16.611,146006,330,154701
16.616,146016,331,154709
16.621,146020,327,154718
16.626,146027,329,154699
16.631,146029,330,154734
16.636,146018,332,154725
16.641,146021,327,154712
16.646,146032,330,154727
16.651,146033,327,154729
16.656,146053,328,154738
16.661,146047,327,154745
16.666,146061,328,154748
16.670,146056,325,154740
16.675,146073,327,154765
16.680,146078,329,154752
16.685,146083,330,154776
16.690,146086,328,154760
16.695,146097,326,154770
16.700,146100,326,154758
16.705,146105,326,154768
16.710,146110,324,154773
16.715,146113,323,154779
16.720,146106,333,154778
16.725,146132,334,154762
16.730,146133,326,154768
16.735,146126,325,154778
16.740,146133,324,154776
16.745,146141,333,154785
16.750,146152,331,154795
16.755,146153,330,154794
16.760,146168,328,154793
16.765,146155,328,154802
16.770,146171,326,154813
16.775,146189,328,154812
16.780,146183,329,154808
16.785,146203,326,154815
16.790,146206,324,154824
16.795,146212,334,154839
16.800,146201,332,154834
16.805,146216,329,154851
16.810,146225,327,154840
16.815,146218,326,154854
16.819,146229,333,154857
16.824,146245,325,154861
16.829,146237,324,154869
16.834,146242,332,154870
16.839,146217,330,154863
16.844,146233,330,154864
16.849,146216,329,154869
16.854,146206,327,154855
16.859,146218,326,154858
16.864,146201,324,154862
16.869,146193,331,154860
16.874,146172,325,154847
16.879,146164,333,154847
16.884,146158,332,154839
16.889,146131,330,154825
16.894,146129,329,154812
16.899,146115,327,154800
16.904,146117,327,154803
16.909,146103,325,154804
16.914,146098,325,154797
16.919,146080,322,154792
16.924,146086,327,154810
16.929,146081,326,154784
16.934,146080,324,154806
16.939,146071,333,154799
16.944,146070,332,154789
16.949,146058,333,154786
16.954,146044,330,154788
16.959,146051,330,154782
16.964,146030,328,154774
16.968,146026,328,154761
16.973,146029,331,154768
16.978,146009,331,154801
16.983,146004,328,154760
16.988,146003,329,154753
16.993,146002,327,154751
16.998,145981,328,154739
17.003,145989,326,154743
17.008,145975,326,154740
17.013,145954,325,154731
17.018,145948,324,154726
17.023,145945,325,154734
17.028,145930,326,154724
17.033,145938,324,154726
17.038,145910,324,154721
17.043,145933,334,154719
17.048,145923,334,154697
17.053,145913,330,154711
17.058,145905,330,154714
17.063,145889,330,154695
17.068,145886,333,154685
17.073,145877,332,154674
17.078,145861,332,154666
17.083,145879,331,154662
17.088,145873,334,154678
17.093,145877,330,154677
17.098,145878,329,154681
17.103,145877,327,154674
17.108,145882,328,154663
17.113,145869,324,154675
17.117,145858,331,154656
17.122,145874,330,154656
17.127,145865,330,154659
17.132,145873,328,154654
17.137,145879,329,154661
17.142,145862,327,154663
17.147,145871,327,154668
17.152,145875,324,154662
17.157,145865,325,154651
17.162,145849,333,154668
17.167,145859,326,154639
17.172,145852,324,154648
17.177,145859,325,154648
17.182,145848,332,154649
17.187,145843,333,154638
17.192,145844,328,154632
17.197,145840,330,154634
17.202,145832,327,154630
17.207,145836,328,154625
17.212,145831,325,154616
17.217,145835,331,154634
17.222,145856,328,154632
17.227,145856,329,154631
17.232,145842,326,154638
17.237,145850,329,154619
17.242,145854,324,154639
17.247,145847,326,154632
17.252,145856,322,154634
17.257,145847,335,154621
17.262,145860,323,154604
17.266,145863,326,154630
17.271,145849,326,154616
17.276,145853,325,154622
17.281,145851,323,154611
17.286,145853,334,154606
17.291,145846,332,154624
17.296,145851,332,154618
17.301,145857,331,154607
17.306,145841,331,154593
17.311,145930,338,154578
17.316,145828,326,154585
17.321,145830,324,154562
17.326,145815,324,154554
17.331,145810,332,154548
17.336,145802,332,154546
17.341,145803,329,154524
17.346,145795,329,154511
17.351,145784,326,154492
17.356,145776,326,154501
17.361,145767,326,154492
17.366,145772,328,154478
17.371,145771,323,154475
17.376,145786,334,154483
17.381,145793,330,154497
17.386,145791,330,154503
17.391,145794,328,154481
17.396,145825,328,154508
17.401,145820,325,154518
17.406,145827,327,154517
17.411,145829,334,154548
17.415,145833,325,154523
17.420,145854,333,154532
17.425,145856,333,154539
17.430,145857,329,154538
17.435,145869,329,154558
17.440,145872,324,154549
17.445,145884,325,154553
17.450,145889,331,154552
17.455,145887,330,154573
17.460,145914,331,154582
17.465,145921,331,154589
17.470,145920,327,154590
17.475,145921,327,154599
17.480,145938,325,154614
17.485,145939,324,154606
17.490,145958,332,154620
17.495,145967,331,154623
17.500,145971,329,154641
17.505,145990,328,154629
17.510,145998,329,154633
17.515,146000,329,154655
17.520,146009,326,154652
17.525,146013,324,154667
17.530,146037,323,154664
17.535,146014,332,154680
17.540,146028,330,154671
17.545,146037,327,154676
17.550,146058,327,154665
17.555,146030,322,154681
17.560,146066,328,154667
17.564,146072,326,154687
17.569,146074,325,154684
17.574,146066,323,154679
17.579,146076,332,154692
17.584,146077,330,154692
17.589,146089,329,154691
17.594,146089,327,154705
17.599,146107,326,154701
17.604,146104,335,154714
17.609,146110,330,154726
17.614,146117,330,154733
17.619,146112,327,154735
17.624,146124,326,154710
17.629,146116,324,154721
17.634,146090,333,154717
17.639,146103,330,154718
17.644,146082,330,154720
17.649,146089,327,154710
17.654,146054,331,154704
17.659,146051,327,154700
17.664,146047,327,154695
17.669,146028,323,154692
17.674,146002,325,154677
17.679,145992,322,154686
17.684,145983,332,154658
17.689,145986,329,154657
17.694,145976,328,154662
17.699,145968,325,154649
17.704,145976,333,154630
17.709,145951,332,154641
17.713,145948,329,154648
17.718,145949,328,154632
17.723,145924,328,154639
17.728,145929,326,154619
17.733,145905,324,154619
17.738,145908,332,154614
17.743,145884,330,154608
17.748,145906,330,154610
17.753,145875,331,154600
17.758,145875,331,154603
17.763,145858,328,154593
17.768,145861,328,154587
17.773,145856,324,154582
17.778,145848,324,154592
17.783,145841,332,154585
17.788,145820,331,154571
17.793,145839,327,154578
17.798,145824,327,154585
17.803,145815,327,154565
17.808,145812,327,154571
17.813,145805,325,154559
17.818,145793,325,154572
17.823,145802,332,154560
17.828,145794,332,154562
17.833,145788,329,154553
17.838,145783,328,154551
17.843,145770,326,154537
17.848,145730,323,154532
17.853,145771,328,154556
17.858,145755,327,154541
17.862,145767,325,154546
17.867,145765,325,154553
17.872,145765,322,154548
17.877,145775,332,154539
17.882,145755,331,154539
17.887,145749,330,154542
17.892,145761,328,154536
17.897,145762,339,154537
17.902,145768,325,154536
17.907,145764,323,154539
17.912,145762,332,154527
17.917,145765,331,154538
17.922,145748,330,154532
17.927,145751,330,154530
17.932,145750,327,154517
17.937,145726,328,154519
17.942,145737,325,154516
17.947,145741,331,154522
17.952,145726,327,154526
17.957,145726,328,154515
17.962,145716,323,154514
17.967,145730,325,154521
17.972,145713,332,154521
17.977,145729,329,154507
17.982,145736,327,154510
17.987,145727,329,154519
17.992,145739,325,154517
17.997,145739,332,154513
18.002,145741,328,154514
18.007,145733,329,154504
18.011,145729,326,154527
18.016,145731,327,154514
18.021,145739,323,154507
18.026,145743,326,154523
18.031,145753,321,154524
18.036,145729,334,154522
18.041,145751,330,154516
18.046,145741,325,154507
18.051,145755,323,154520
18.056,145752,332,154518
18.061,145755,329,154521
18.066,145768,329,154527
18.071,145755,326,154513
18.076,145759,327,154526
18.081,145766,327,154519
18.086,145773,325,154514
18.091,145765,340,154525
18.096,145759,326,154530
18.101,145778,322,154533
18.106,145793,332,154553
18.111,145791,330,154536
18.116,145806,329,154541
18.121,145806,326,154543
18.126,145803,325,154544
18.131,145810,322,154544
18.136,145821,331,154555
18.141,145820,326,154557
18.146,145830,328,154552
18.151,145817,327,154558
18.156,145812,327,154563
18.160,145828,325,154564
18.165,145838,325,154548
18.170,145833,322,154560
18.175,145850,325,154572
18.180,145841,332,154552
18.185,145854,333,154565
18.190,145851,324,154566
18.195,145868,326,154569
18.200,145862,323,154577
18.205,145875,325,154582
18.210,145878,322,154576
18.215,145877,334,154594
18.220,145889,331,154584
18.225,145886,333,154588
18.230,145907,328,154599
18.235,145909,330,154611
18.240,145898,332,154599
18.245,145899,333,154603
18.250,145907,330,154603
18.255,145905,331,154599
18.260,145906,329,154609
18.265,145921,330,154605
18.270,145918,328,154599
18.275,145926,328,154623
18.280,145941,325,154614
18.285,145958,326,154618
18.290,145956,328,154630
18.295,145967,328,154632
18.300,145971,326,154634
18.304,145973,326,154635
18.309,145983,325,154642
18.314,145985,325,154638
18.319,145994,324,154644
18.324,146002,324,154661
18.329,146011,323,154662
18.334,146016,333,154663
18.339,146033,326,154662
18.344,146027,324,154665
18.349,146030,323,154678
18.354,146049,332,154667
18.359,146043,331,154677
18.364,146028,328,154682
18.369,146012,330,154670
18.374,146007,330,154659
18.379,145982,328,154666
18.384,146004,324,154665
18.389,145976,331,154669
18.394,145972,332,154652
18.399,145953,331,154650
18.404,145930,331,154635
18.409,145914,329,154626
18.414,145899,328,154606
18.419,145884,327,154608
18.424,145880,327,154599
18.429,145874,325,154602
18.434,145850,330,154603
18.439,145841,328,154590
18.444,145837,329,154580
18.449,145840,325,154581
18.453,145827,327,154573
18.458,145812,324,154579
18.463,145806,323,154572
18.468,145808,330,154572
18.473,145798,330,154562
18.478,145780,328,154562
18.483,145784,324,154563
18.488,145758,333,154550
18.493,145760,330,154546
18.498,145766,330,154550
18.503,145738,327,154544
18.508,145725,328,154522
18.513,145741,326,154534
18.518,145723,325,154529
18.523,145718,324,154514
18.528,145709,324,154537
18.533,145711,330,154525
18.538,145694,331,154508
18.543,145700,329,154512
18.548,145681,331,154508
18.553,145685,328,154506
18.558,145656,329,154488
18.563,145670,326,154503
18.568,145650,326,154496
18.573,145656,324,154488
18.578,145649,325,154493
18.583,145642,327,154493
18.588,145635,328,154493
18.593,145648,325,154492
18.598,145647,324,154505
18.602,145647,322,154494
18.607,145651,333,154486
18.612,145637,330,154485
18.617,145642,331,154488
18.622,145643,328,154484
18.627,145632,337,154449
18.632,145652,333,154473
18.637,145639,332,154494
18.642,145632,329,154490
18.647,145614,330,154484
18.652,145649,328,154492
18.657,145624,327,154501
18.662,145619,327,154498
18.667,145625,326,154490
18.672,145614,324,154482
18.677,145699,327,154477
18.682,145611,327,154486
18.687,145600,326,154492
18.692,145611,324,154478
18.697,145626,324,154476
18.702,145619,323,154475
18.707,145599,333,154484
18.712,145610,330,154472
18.717,145606,330,154484
18.722,145618,328,154493
18.727,145623,332,154491
18.732,145614,329,154478
18.737,145617,329,154483
18.742,145608,326,154487
18.747,145620,327,154484
18.751,145620,323,154485
18.756,145637,325,154482
18.761,145630,332,154493
18.766,145617,332,154495
18.771,145630,328,154506
18.776,145591,328,154489
18.781,145639,324,154501
18.786,145637,326,154497
18.791,145638,323,154505
18.796,145651,325,154504
18.801,145653,323,154501
18.806,145652,324,154500
18.811,145642,330,154519
18.816,145662,332,154526
18.821,145675,329,154509
18.826,145662,328,154519
18.831,145674,325,154526
18.836,145677,325,154538
18.841,145681,332,154533
18.846,145689,331,154535
18.851,145704,327,154552
18.856,145701,327,154542
18.861,145699,324,154548
18.866,145701,323,154550
18.871,145710,330,154557
18.876,145694,323,154541
18.881,145712,330,154540
18.886,145729,330,154554
18.891,145715,327,154548
18.896,145731,325,154548
18.900,145729,322,154555
18.905,145738,332,154561
18.910,145735,329,154567
18.915,145750,326,154565
18.920,145766,331,154566
18.925,145749,325,154580
18.930,145744,324,154567
18.935,145748,323,154566
18.940,145769,330,154577
18.945,145769,329,154574
18.950,145783,325,154565
18.955,145788,325,154582
18.960,145773,322,154579
18.965,145785,332,154583
18.970,145787,323,154579
18.975,145803,318,154596
18.980,145801,328,154588
18.985,145806,327,154597
18.990,145801,323,154582
18.995,145811,324,154589
19.000,145819,321,154606
19.005,145817,331,154613
19.010,145810,327,154603
19.015,145837,327,154600
19.020,145845,328,154615
19.025,145843,328,154605
19.030,145849,324,154620
19.035,145844,325,154617
19.040,145868,322,154615
19.045,145863,322,154614
19.049,145872,329,154607
19.054,145865,329,154619
19.059,145870,323,154619
19.064,145880,325,154621
19.069,145887,325,154616
19.074,145889,326,154636
19.079,145881,335,154633
19.084,145910,326,154631
19.089,145909,334,154649
19.094,145906,333,154634
19.099,145922,330,154639
19.104,145891,329,154627
19.109,145902,327,154628
19.114,145900,326,154637
19.119,145879,329,154640
19.124,145876,328,154621
19.129,145854,326,154632
19.134,145847,324,154607
19.139,145812,322,154607
19.144,145792,331,154588
19.149,145766,331,154584
19.154,145749,328,154562
19.159,145731,328,154552
19.164,145719,328,154616
19.169,145699,329,154529
19.174,145687,327,154541
19.179,145670,326,154503
19.184,145653,323,154507
19.189,145657,323,154500
19.194,145633,331,154491
19.198,145628,328,154503
19.203,145610,327,154485
19.208,145595,325,154499
19.213,145614,330,154464
19.218,145569,332,154462
19.223,145563,330,154451
19.228,145533,329,154448
19.233,145535,327,154440
19.238,145526,326,154434
19.243,145503,323,154429
19.248,145491,322,154406
19.253,145490,322,154416
19.258,145478,331,154409
19.263,145462,325,154385
19.268,145458,324,154384
19.273,145442,323,154396
19.278,145420,323,154376
19.283,145420,333,154370
19.288,145400,330,154374
19.293,145396,330,154360
19.298,145393,328,154354
19.303,145386,328,154351
19.308,145357,326,154340
19.313,145363,329,154331
19.318,145344,329,154327
19.323,145322,329,154333
19.328,145334,328,154314
19.333,145320,327,154316
19.338,145306,325,154329
19.343,145327,326,154304
19.347,145304,326,154316
19.352,145329,322,154325
19.357,145314,323,154333
19.362,145312,324,154323
19.367,145313,324,154324
19.372,145312,320,154313
19.377,145286,332,154311
19.382,145295,328,154294
19.387,145302,329,154305
19.392,145303,325,154307
19.397,145311,325,154310
19.402,145292,322,154319
19.407,145287,331,154302
19.412,145281,326,154309
19.417,145267,326,154288
19.422,145278,324,154296
19.427,145277,324,154312
19.432,145259,320,154306
19.437,145237,331,154308
19.442,145258,328,154299
19.447,145257,329,154290
19.452,145249,325,154281
19.457,145244,343,154287
19.462,145242,328,154288
19.467,145235,328,154279
19.472,145238,326,154294
19.477,145237,324,154288
19.482,145234,325,154289
19.487,145257,326,154289
19.492,145233,324,154279
19.496,145246,323,154281
19.501,145248,321,154279
19.506,145255,305,154281
19.511,145256,331,154280
19.516,145263,330,154291
19.521,145258,329,154275
19.526,145265,330,154300
19.531,145271,328,154277
19.536,145272,329,154286
19.541,145267,328,154302
19.546,145274,329,154306
19.551,145267,327,154316
19.556,145266,331,154294
19.561,145274,329,154312
19.566,145285,330,154314
19.571,145279,327,154309
19.576,145286,328,154311
19.581,145286,325,154323
19.586,145284,328,154313
19.591,145292,323,154314
19.596,145295,326,154320
19.601,145294,323,154309
19.606,145299,329,154315
19.611,145311,325,154328
19.616,145303,325,154333
19.621,145317,323,154339
19.626,145320,326,154313
19.631,145301,322,154323
19.636,145310,324,154329
19.641,145342,322,154330
19.645,145326,323,154349
19.650,145350,331,154339
19.655,145355,326,154336
19.660,145345,323,154328
19.665,145337,323,154324
19.670,145352,331,154338
19.675,145358,331,154344
19.680,145343,329,154336
19.685,145347,328,154335
19.690,145352,325,154321
19.695,145361,325,154333
19.700,145352,326,154369
19.705,145350,330,154322
19.710,145346,328,154325
19.715,145357,328,154333
19.720,145372,327,154329
19.725,145368,326,154332
19.730,145375,325,154319
19.735,145369,325,154337
19.740,145383,323,154343
19.745,145395,322,154345
19.750,145381,325,154346
19.755,145412,323,154366
19.760,145428,323,154354
19.765,145433,323,154373
19.770,145448,331,154389
19.775,145454,330,154399
19.780,145461,328,154406
19.785,145477,328,154406
19.790,145494,325,154423
19.794,145487,326,154421
19.799,145508,327,154433
19.804,145517,328,154426
19.809,145525,326,154440
19.814,145531,327,154452
19.819,145537,325,154447
19.824,145554,326,154469
19.829,145560,323,154491
19.834,145575,323,154481
19.839,145576,321,154489
19.844,145588,331,154496
19.849,145590,322,154497
19.854,145599,322,154501
19.859,145595,321,154507
19.864,145588,331,154518
19.869,145589,328,154502
19.874,145570,328,154509
19.879,145579,326,154510
19.884,145582,328,154511
19.889,145552,326,154514
19.894,145543,327,154507
19.899,145520,328,154501
19.904,145514,329,154489
19.909,145482,329,154467
19.914,145471,329,154479
19.919,145462,327,154469
19.924,145434,327,154450
19.929,145414,327,154443
19.934,145390,325,154439
19.939,145376,326,154428
19.943,145381,324,154405
19.948,145363,321,154416
19.953,145358,331,154406
19.958,145333,329,154416
19.963,145346,327,154395
19.968,145316,327,154398
19.973,145307,243,154405
19.978,145315,322,154395
19.983,145282,321,154387
19.988,145265,331,154374
19.993,145268,348,154370
19.998,145246,321,154368
20.003,145245,331,154368
20.008,145243,330,154355
20.013,145215,328,154367
20.018,145236,327,154359
20.023,145219,325,154356
20.028,145208,324,154354
20.033,145202,323,154354
20.038,145194,322,154335
20.043,145195,325,154325
20.048,145178,323,154320
20.053,145163,322,154336
20.058,145153,321,154325
20.063,145162,330,154328
20.068,145138,329,154322
20.073,145134,328,154310
20.078,145129,329,154323
20.083,145113,331,154307
20.088,145124,329,154308
20.092,145124,332,154306
20.097,145111,330,154306
20.102,145100,329,154314
20.107,145104,328,154316
20.112,145105,326,154330
20.117,145120,326,154325
20.122,145121,325,154317
20.127,145110,324,154336
20.132,145107,322,154339
20.137,145114,323,154314
20.142,145133,325,154328
20.147,145120,326,154348
20.152,145116,322,154337
20.157,145123,322,154351
20.162,145108,330,154345
20.167,145096,329,154351
20.172,145112,324,154361
20.177,145121,326,154334
20.182,145119,322,154362
20.187,145116,323,154353
20.192,145120,324,154364
20.197,145124,325,154371
20.202,145122,322,154365
20.207,145109,332,154357
20.212,145111,328,154353
20.217,145123,329,154364
20.222,145119,326,154372
20.227,145133,327,154371
20.232,145126,322,154388
20.237,145122,323,154380
20.241,145119,323,154385
20.246,145134,323,154398
20.251,145143,331,154398
20.256,145145,329,154399
20.261,145138,327,154412
20.266,145143,326,154421
20.271,145159,323,154417
20.276,145148,322,154419
20.281,145156,331,154436
20.286,145226,326,154430
20.291,145180,328,154438
20.296,145177,326,154438
20.301,145177,324,154449
20.306,145188,323,154448
20.311,145191,331,154448
20.316,145198,329,154459
20.321,145203,327,154452
20.326,145203,327,154454
20.331,145213,324,154479
20.336,145223,334,154473
20.341,145231,330,154477
20.346,145237,329,154482
20.351,145242,325,154477
20.356,145236,325,154502
20.361,145253,321,154493
20.366,145257,331,154504
20.371,145280,327,154506
20.376,145277,327,154515
20.381,145294,323,154528
20.386,145294,328,154529
20.390,145295,324,154541
20.395,145318,325,154541
20.400,145329,321,154549
20.405,145331,333,154559
20.410,145341,327,154574
20.415,145340,328,154578
20.420,145356,323,154587
20.425,145358,324,154598
20.430,145381,326,154595
20.435,145381,326,154607
20.440,145389,321,154612
20.445,145388,333,154615
20.450,145423,329,154617
20.455,145428,329,154652
20.460,145421,325,154646
20.465,145448,325,154666
20.470,145457,322,154680
20.475,145473,322,154679
20.480,145487,331,154695
20.485,145482,326,154705
20.490,145509,323,154694
20.495,145510,323,154717
20.500,145527,322,154728
20.505,145534,322,154722
20.510,145555,330,154732
20.515,145551,331,154754
20.520,145568,329,154762
20.525,145570,328,154775
20.530,145592,323,154778
20.534,145581,328,154784
20.539,145616,327,154796
20.544,145619,325,154804
20.549,145645,323,154818
20.554,145647,324,154839
20.559,145658,321,154843
20.564,145662,330,154845
20.569,145676,327,154834
20.574,145684,325,154870
20.579,145693,329,154863
20.584,145705,330,154864
20.589,145715,325,154883
20.594,145733,326,154883
20.599,145747,323,154899
20.604,145760,323,154901
20.609,145769,330,154921
20.614,145778,328,154930
20.619,145775,325,154933
20.624,145799,324,154944
20.629,145818,331,154920
20.634,145818,328,154949
20.639,145816,324,154963
20.644,145816,324,154962
20.649,145801,321,154948
20.654,145794,331,154951
20.659,145789,327,154934
20.664,145776,326,154947
20.669,145757,323,154955
20.674,145735,322,154926
20.679,145727,324,154933
20.683,145707,323,154914
20.688,145707,330,154903
20.693,145676,329,154914
20.698,145654,327,154907
20.703,145649,327,154889
20.708,145636,324,154890
20.713,145615,322,154875
20.718,145613,329,154883
20.723,145616,329,154859
20.728,145571,333,154851
20.733,145582,329,154877
20.738,145572,326,154854
20.743,145563,326,154855
20.748,145569,325,154847
20.753,145565,324,154845
20.758,145552,325,154845
20.763,145534,322,154839
20.768,145526,323,154831
20.773,145524,323,154850
20.778,145504,326,154825
20.783,145495,324,154829
20.788,145489,325,154817
20.793,145481,321,154813
20.798,145475,322,154805
20.803,145469,330,154814
20.808,145468,330,154816
20.813,145451,328,154808
20.818,145443,328,154800
20.823,145419,325,154790
20.828,145424,331,154789
20.832,145426,328,154782
20.837,145419,327,154782
20.842,145413,326,154780
20.847,145400,326,154775
20.852,145388,323,154775
20.857,145384,322,154775
20.862,145369,331,154755
20.867,145365,327,154761
20.872,145361,325,154830
20.877,145354,326,154756
20.882,145361,325,154755
20.887,145384,323,154761
20.892,145373,322,154752
20.897,145371,322,154768
20.902,145375,330,154762
20.907,145378,329,154755
20.912,145369,326,154762
20.917,145378,325,154762
20.922,145381,328,154761
20.927,145378,327,154760
20.932,145370,324,154762
20.937,145371,323,154752
20.942,145367,321,154757
20.947,145359,330,154759
20.952,145367,329,154751
20.957,145357,329,154760
20.962,145371,326,154750
20.967,145357,326,154755
20.972,145365,328,154759
20.977,145369,325,154746
20.981,145368,325,154753
20.986,145354,324,154754
20.991,145356,321,154746
20.996,145355,322,154754
21.001,145368,319,154760
21.006,145359,328,154765
21.011,145363,325,154765
21.016,145368,325,154760
21.021,145375,326,154749
21.026,145382,326,154765
21.031,145376,324,154765
21.036,145378,326,154773
21.041,145373,323,154771
21.046,145378,324,154772
21.051,145384,320,154754
21.056,145375,331,154770
21.061,145384,329,154766
21.066,145386,339,154703
21.071,145380,325,154775
21.076,145385,326,154773
21.081,145384,329,154767
21.086,145389,326,154755
21.091,145397,324,154772
21.096,145399,322,154782
21.101,145398,330,154784
21.106,145416,330,154771
21.111,145422,328,154773
21.116,145423,332,154779
21.121,145438,330,154786
21.126,145433,329,154796
21.130,145431,326,154794
21.135,145454,325,154803
21.140,145438,323,154788
21.145,145455,322,154804
21.150,145441,321,154800
21.155,145455,331,154809
21.160,145468,328,154797
21.165,145477,322,154793
21.170,145483,329,154818
21.175,145479,328,154807
21.180,145498,325,154815
21.185,145495,324,154823
21.190,145490,330,154806
21.195,145496,331,154822
21.200,145500,327,154832
21.205,145495,326,154839
21.210,145493,323,154835
21.215,145509,328,154829
21.220,145509,325,154829
21.225,145535,325,154832
21.230,145531,322,154833
21.235,145523,322,154836
21.240,145539,329,154834
21.245,145552,330,154846
21.250,145555,325,154871
21.255,145564,326,154865
21.260,145565,323,154871
21.265,145562,329,154879
21.270,145590,324,154863
21.275,145585,326,154866
21.279,145600,322,154878
21.284,145607,321,154884
21.289,145584,328,154867
21.294,145610,328,154888
21.299,145611,326,154883
21.304,145621,325,154896
21.309,145625,323,154894
21.314,145637,326,154911
21.319,145657,323,154899
21.324,145638,323,154915
21.329,145659,321,154926
21.334,145665,330,154917
21.339,145673,327,154933
21.344,145680,326,154936
21.349,145684,323,154950
21.354,145703,322,154953
21.359,145702,295,154965
21.364,145716,321,154956
21.369,145703,328,154962
21.374,145721,326,154959
21.379,145700,324,154960
21.384,145674,322,154961
21.389,145668,330,154945
21.394,145668,327,154957
21.399,145648,325,154946
21.404,145647,324,154947
21.409,145639,326,154938
21.414,145619,323,154929
21.419,145608,321,154928
21.424,145610,329,154913
21.428,145585,327,154915
21.433,145564,326,154896
21.438,145574,322,154898
21.443,145568,332,154886
21.448,145549,328,154888
21.453,145550,326,154886
21.458,145548,323,154826
21.463,145536,325,154888
21.468,145523,322,154886
21.473,145522,322,154868
21.478,145520,329,154880
21.483,145506,326,154871
21.488,145502,324,154869
21.493,145499,325,154870
21.498,145508,322,154869
21.503,145485,321,154861
21.508,145493,323,154853
21.513,145485,331,154847
21.518,145481,326,154865
21.523,145474,325,154862
21.528,145471,321,154852
21.533,145480,330,154862
21.538,145477,326,154855
21.543,145477,325,154857
21.548,145463,323,154845
21.553,145455,321,154855
21.558,145452,324,154853
21.563,145470,321,154867
21.568,145453,323,154829
21.573,145457,330,154850
21.577,145464,329,154845
21.582,145436,326,154843
21.587,145450,326,154840
21.592,145449,323,154848
21.597,145449,324,154855
21.602,145466,323,154855
21.607,145467,326,154866
21.612,145462,323,154862
21.617,145468,323,154847
21.622,145470,321,154846
21.627,145473,331,154846
21.632,145477,327,154839
21.637,145475,326,154853
21.642,145479,323,154868
21.647,145474,323,154858
21.652,145540,323,154862
21.657,145483,325,154870
21.662,145480,323,154865
21.667,145478,321,154855
21.672,145473,330,154854
21.677,145476,331,154847
21.682,145476,329,154847
21.687,145474,328,154848
21.692,145473,327,154841
21.697,145471,327,154844
21.702,145476,330,154857
21.707,145490,330,154858
21.712,145481,328,154861
21.717,145480,326,154861
21.722,145492,325,154854
21.726,145480,323,154859
21.731,145481,321,154866
21.736,145506,321,154866
21.741,145493,331,154842
21.746,145503,330,154847
21.751,145510,328,154888
21.756,145507,323,154857
21.761,145509,321,154863
21.766,145517,322,154867
21.771,145523,328,154861
21.776,145535,329,154857
21.781,145529,327,154867
21.786,145545,327,154851
21.791,145538,325,154875
21.796,145539,325,154876
21.801,145537,328,154888
21.806,145565,328,154853
21.811,145550,325,154877
21.816,145560,326,154865
21.821,145573,325,154875
21.826,145568,326,154865
21.831,145579,322,154871
21.836,145595,323,154879
21.841,145612,319,154899
21.846,145599,332,154878
21.851,145589,322,154875
21.856,145600,322,154893
21.861,145608,329,154881
21.866,145627,329,154903
21.871,145626,326,154898
21.875,145632,326,154903
21.880,145635,323,154896
21.885,145633,324,154895
21.890,145656,330,154890
21.895,145652,326,154903
21.900,145660,320,154921
21.905,145665,331,154919
21.910,145664,327,154906
21.915,145673,328,154925
21.920,145686,326,154934
21.925,145701,325,154918
21.930,145697,322,154926
21.935,145707,322,154927
21.940,145705,330,154921
21.945,145705,322,154926
21.950,145711,320,154930
21.955,145734,330,154937
21.960,145733,327,154948
21.965,145749,327,154942
21.970,145753,324,154947
21.975,145771,310,154959
21.980,145775,319,154965
21.985,145774,321,154945
21.990,145804,328,154978
21.995,145799,323,154970
22.000,145828,320,154978
22.005,145814,322,155000
22.010,145832,329,155005
22.015,145840,330,154995
22.020,145872,327,155011
22.024,145882,328,155035
22.029,145890,325,155042
22.034,145904,327,155063
22.039,145935,322,155081
22.044,145953,329,155086
22.049,145962,324,155107
22.054,145970,325,155120
22.059,145996,321,155127
22.064,146019,322,155150
22.069,146034,329,155176
22.074,146054,332,155195
22.079,146060,327,155146
22.084,146083,330,155223
22.089,146087,326,155220
22.094,146096,329,155236
22.099,146087,327,155246
22.104,146103,327,155255
22.109,146101,325,155281
22.114,146093,324,155287
22.119,146107,322,155300
22.124,146090,332,155314
22.129,146080,329,155316
22.134,146080,327,155328
22.139,146076,326,155322
22.144,146078,325,155331
22.149,146070,323,155353
22.154,146069,322,155349
22.159,146061,331,155347
22.164,146063,329,155341
22.169,146061,326,155352
22.173,146072,326,155344
22.178,146073,323,155355
22.183,146059,322,155365
22.188,146049,320,155369
22.193,146056,323,155368
22.198,146070,322,155372
22.203,146066,321,155365
22.208,146062,331,155359
22.213,146066,329,155363
22.218,146055,327,155356
22.223,146049,327,155340
22.228,146033,324,155350
22.233,146051,324,155352
22.238,146052,325,155363
22.243,146048,325,155351
22.248,146037,323,155351
22.253,146045,323,155350
22.258,146039,320,155346
22.263,146038,333,155338
22.268,146031,329,155321
22.273,146000,330,155309
22.278,146021,328,155307
22.283,146005,328,155298
22.288,146005,320,155288
22.293,145980,331,155270
22.298,145977,329,155291
22.303,145978,329,155278
22.308,145970,327,155281
22.313,145971,327,155278
22.318,145973,325,155262
22.322,145980,323,155281
22.327,145972,322,155274
22.332,145989,322,155277
22.337,146007,326,155297
22.342,146004,324,155292
22.347,146003,323,155285
22.352,146000,321,155293
22.357,146015,332,155300
22.362,146028,329,155292
22.367,146025,328,155295
22.372,146032,326,155296
22.377,146045,326,155296
22.382,146041,324,155285
22.387,146026,323,155283
22.392,146049,321,155282
22.397,146039,330,155280
22.402,146038,328,155271
22.407,146038,328,155277
22.412,146030,326,155269
22.417,146044,326,155260
22.422,146051,324,155272
22.427,146048,324,155277
22.432,146047,324,155302
22.437,146055,325,155283
22.442,146071,324,155294
22.447,146061,323,155288
22.452,146089,322,155304
22.457,146094,332,155290
22.462,146109,331,155316
22.467,146103,330,155323
22.471,146129,329,155319
22.476,146116,327,155321
22.481,146116,330,155319
22.486,146122,329,155318
22.491,146119,327,155304
22.496,146127,327,155314
22.501,146120,325,155294
22.506,146122,324,155301
22.511,146119,322,155287
22.516,146116,322,155294
22.521,146138,331,155281
22.526,146129,331,155283
22.531,146128,322,155286
22.536,146145,323,155294
22.541,146127,331,155301
22.546,146147,330,155282
22.551,146143,325,155269
22.556,146150,326,155270
22.561,146162,323,155278
22.566,146152,323,155268
22.571,146165,329,155274
22.576,146163,329,155294
22.581,146175,322,155295
22.586,146178,325,155294
22.591,146193,321,155301
22.596,146193,322,155288
22.601,146207,329,155289
22.606,146206,328,155293
22.611,146223,324,155291
22.616,146229,324,155289
22.620,146218,322,155282
22.625,146210,333,155283
22.630,146222,323,155275
22.635,146227,324,155284
22.640,146217,330,155273
22.645,146236,330,155276
22.650,146240,327,155283
22.655,146241,326,155282
22.660,146252,323,155284
22.665,146254,324,155286
22.670,146266,322,155285
22.675,146284,331,155300
22.680,146268,321,155297
22.685,146299,329,155296
22.690,146265,327,155304
22.695,146280,327,155288
22.700,146279,324,155283
22.705,146276,324,155265
22.710,146263,322,155259
22.715,146272,322,155267
22.720,146271,330,155259
22.725,146279,331,155237
22.730,146279,324,155246
22.735,146281,325,155251
22.740,146271,322,155242
22.745,146275,333,155244
22.750,146285,329,155236
22.755,146293,328,155219
22.760,146290,325,155227
22.765,146287,325,155222
22.769,146286,321,155202
22.774,146270,327,155209
22.779,146300,322,155219
22.784,146296,324,155207
22.789,146293,330,155185
22.794,146282,330,155182
22.799,146298,326,155193
22.804,146310,327,155201
22.809,146315,323,155193
22.814,146300,322,155195
22.819,146287,322,155191
22.824,146318,329,155153
22.829,146281,328,155182
22.834,146282,327,155145
22.839,146262,325,155150
22.844,146248,327,155131
22.849,146209,325,155097
22.854,146190,326,155079
22.859,146193,323,155080
22.864,146179,322,155093
22.869,146159,331,155084
22.874,146112,328,155033
22.879,146116,328,155012
22.884,146097,327,155026
22.889,146091,326,155026
22.894,146084,325,154999
22.899,146082,323,154994
22.904,146069,321,154986
22.909,146075,330,154981
22.913,146070,328,154979
22.918,146062,326,154968
22.923,146069,329,154959
22.928,146081,327,154967
22.933,146092,328,154997
22.938,146084,326,154999
22.943,146109,326,155011
22.948,146091,325,155025
22.953,146127,322,155019
22.958,146137,322,155042
22.963,146147,332,155056
22.968,146158,332,155004
22.973,146168,323,155084
22.978,146194,318,155101
22.983,146206,320,155116
22.988,146221,329,155146
22.993,146250,328,155194
22.998,146286,328,155227
23.003,146319,328,155266
23.008,146369,325,155324
23.013,146421,325,155398
23.018,146514,327,155451
23.023,146535,328,155505
23.028,146591,328,155579
23.033,146660,327,155639
23.038,146704,326,155720
23.043,146780,326,155789
23.048,146831,325,155852
23.053,146861,325,155904
23.058,146916,324,155961
23.062,146982,323,156022
23.067,147014,327,156080
23.072,147076,325,156149
23.077,147134,325,156200
23.082,147176,326,156267
23.087,147224,324,156325
23.092,147247,335,156374
23.097,147278,332,156429
23.102,147330,330,156460
23.107,147353,330,156505
23.112,147393,328,156530
23.117,147412,324,156581
23.122,147453,333,156627
23.127,147491,332,156673
23.132,147515,330,156711
23.137,147535,329,156727
23.142,147557,328,156757
23.147,147555,328,156769
23.152,147566,325,156800
23.157,147578,324,156823
23.162,147621,333,156842
23.167,147618,326,156865
23.172,147648,325,156895
23.177,147658,325,156924
23.182,147673,324,156942
23.187,147693,333,156972
23.192,147719,331,156996
23.197,147731,330,157018
23.202,147750,329,157022
23.207,147756,328,157053
23.211,147779,328,157085
23.216,147798,331,157115
23.221,147823,329,157125
23.226,147837,328,157143
23.231,147863,326,157176
23.236,147878,327,157187
23.241,147890,327,157211
23.246,147904,325,157225
23.251,147921,325,157221
23.256,147928,325,157248
23.261,147951,332,157204
23.266,147953,310,157269
23.271,147975,328,157286
23.276,147978,327,157310
23.281,147994,324,157309
23.286,148011,324,157333
23.291,148025,331,157343
23.296,148042,331,157342
23.301,148042,328,157363
23.306,148063,327,157390
23.311,148076,328,157417
23.316,148113,329,157419
23.321,148131,326,157438
23.326,148139,327,157458
23.331,148157,324,157477
23.336,148174,325,157500
23.341,148189,323,157496
23.346,148197,335,157528
23.351,148213,331,157537
23.356,148214,333,157543
23.360,148244,324,157559
23.365,148232,334,157574
23.370,148270,330,157584
23.375,148263,331,157585
23.380,148265,329,157582
23.385,148270,329,157601
23.390,148274,327,157598
23.395,148256,327,157593
23.400,148255,325,157589
23.405,148263,324,157583
23.410,148254,327,157588
23.415,148272,327,157586
23.420,148260,326,157578
23.425,148280,324,157583
23.430,148268,322,157585
23.435,148279,332,157588
23.440,148293,332,157597
23.445,148285,331,157579
23.450,148268,329,157572
23.455,148286,328,157567
23.460,148280,330,157567
23.465,148281,331,157569
23.470,148279,327,157558
23.475,148282,328,157561
23.480,148292,325,157573
23.485,148302,327,157575
23.490,148320,323,157586
23.495,148325,325,157614
23.500,148326,332,157607
23.505,148360,328,157557
23.509,148369,322,157646
23.514,148387,324,157656
23.519,148427,322,157695
23.524,148442,333,157718
23.529,148467,330,157742
23.534,148478,333,157777
23.539,148501,327,157786
23.544,148502,330,157797
23.549,148511,327,157823
23.554,148559,328,157826
23.559,148543,322,157872
23.564,148556,324,157878
23.569,148564,323,157890
23.574,148557,322,157884
23.579,148566,321,157906
23.584,148561,322,157901
23.589,148557,321,157913
23.594,148553,332,157930
23.599,148536,331,157935
23.604,148515,324,157923
23.609,148514,323,157950
23.614,148530,321,157942
23.619,148523,320,157938
23.624,148515,330,157938
23.629,148500,328,157942
23.634,148508,329,157956
23.639,148506,327,157962
23.644,148505,328,157965
23.649,148495,325,157974
23.654,148502,330,157977
23.658,148509,328,157995
23.663,148505,328,158008
23.668,148518,326,158005
23.673,148509,326,158017
23.678,148501,324,158023
23.683,148516,325,158015
23.688,148507,321,158027
23.693,148512,322,158019
23.698,148487,330,158014
23.703,148498,328,157997
23.708,148484,325,158006
23.713,148479,325,158003
23.718,148463,323,158000
23.723,148469,324,157988
23.728,148462,321,157982
23.733,148454,322,157986
23.738,148452,321,157979
23.743,148452,330,157992
23.748,148437,328,157971
23.753,148422,321,157969
23.758,148406,329,157965
23.763,148402,329,157954
23.768,148405,327,157956
23.773,148404,327,157959
23.778,148398,325,157954
23.783,148389,325,157959
23.788,148394,323,157968
23.793,148382,323,157932
23.798,148381,316,157927
23.803,148373,325,157936
23.807,148387,325,157938
23.812,148383,322,157948
23.817,148394,322,157950
23.822,148394,332,157942
23.827,148390,331,157932
23.832,148389,327,157938
23.837,148389,327,157919
23.842,148394,327,157922
23.847,148400,335,157915
23.852,148390,323,157921
23.857,148391,321,157915
23.862,148386,330,157915
23.867,148395,328,157921
23.872,148400,325,157915
23.877,148387,324,157916
23.882,148407,324,157933
23.887,148400,323,157936
23.892,148413,321,157931
23.897,148415,324,157939
23.902,148416,323,157945
23.907,148434,321,157957
23.912,148420,331,157946
23.917,148431,328,157958
23.922,148447,328,157968
23.927,148444,326,157967
23.932,148445,325,157951
23.937,148428,325,157936
23.942,148445,324,157949
23.947,148454,330,157971
23.952,148445,322,157928
23.956,148446,322,157939
23.961,148463,322,157938
23.966,148462,332,157935
23.971,148453,331,157916
23.976,148476,326,157937
23.981,148459,327,157915
23.986,148472,328,157914
23.991,148473,325,157927
23.996,148471,330,157922
24.001,148474,328,157926
24.006,148472,328,157921
24.011,148482,324,157917
24.016,148488,326,157922
24.021,148483,323,157909
24.026,148488,324,157904
24.031,148491,322,157913
24.036,148499,323,157900
24.041,148496,328,157863
24.046,148496,326,157893
24.051,148493,323,157902
24.056,148501,324,157893
24.061,148505,323,157893
24.066,148518,324,157886
24.071,148517,323,157891
24.076,148529,323,157891
24.081,148522,334,157893
24.086,148520,324,157885
24.091,148560,339,157899
24.096,148537,327,157870
24.101,148553,326,157889
24.105,148540,326,157894
24.110,148542,325,157879
24.115,148556,324,157876
24.120,148551,323,157885
24.125,148552,324,157876
24.130,148563,322,157883
24.135,148555,332,157855
24.140,148553,324,157864
24.145,148566,323,157868
24.150,148552,321,157848
24.155,148557,332,157840
24.160,148566,330,157844
24.165,148567,331,157832
24.170,148575,329,157824
24.175,148575,329,157809
24.180,148561,328,157780
24.185,148564,329,157776
24.190,148579,331,157761
24.195,148564,331,157764
24.200,148560,329,157750
24.205,148549,328,157740
24.210,148553,325,157720
24.215,148567,327,157713
24.220,148554,324,157701
24.225,148553,325,157701
24.230,148555,320,157679
24.235,148547,332,157670
24.240,148554,322,157663
24.245,148561,324,157657
24.250,148541,321,157636
24.254,148528,332,157622
24.259,148538,330,157617
24.264,148532,330,157606
24.269,148523,327,157592
24.274,148520,329,157590
24.279,148521,326,157585
24.284,148527,328,157595
24.289,148519,328,157588
24.294,148528,329,157587
24.299,148494,327,157553
24.304,148482,327,157529
24.309,148461,325,157514
24.314,148445,324,157494
24.319,148416,322,157473
24.324,148386,332,157443
24.329,148362,330,157420
24.334,148342,317,157407
24.339,148311,322,157380
24.344,148287,331,157362
24.349,148270,331,157350
24.354,148255,329,157319
24.359,148214,326,157295
24.364,148213,324,157275
24.369,148186,322,157256
24.374,148179,331,157252
24.379,148169,329,157238
24.384,148177,329,157217
24.389,148131,325,157201
24.394,148138,326,157188
24.399,148145,324,157190
24.403,148141,324,157184
24.408,148145,321,157187
24.413,148136,333,157184
24.418,148143,331,157183
24.423,148129,332,157160
24.428,148135,328,157144
24.433,148139,326,157146
24.438,148122,323,157130
24.443,148123,334,157137
24.448,148101,330,157117
24.453,148086,331,157104
24.458,148082,328,157112
24.463,148088,329,157128
24.468,148075,326,157121
24.473,148084,327,157124
24.478,148097,325,157152
24.483,148098,330,157166
24.488,148097,328,157173
24.493,148146,327,157207
24.498,148145,324,157235
24.503,148168,324,157268
24.508,148201,332,157289
24.513,148191,332,157297
24.518,148197,331,157319
24.523,148215,329,157338
24.528,148233,327,157366
24.533,148258,330,157393
24.538,148280,329,157420
24.543,148321,328,157438
24.548,148318,326,157447
24.552,148349,324,157472
24.557,148342,324,157477
24.562,148344,332,157490
24.567,148356,332,157503
24.572,148352,331,157504
24.577,148360,333,157436
24.582,148377,333,157519
24.587,148370,331,157544
24.592,148393,329,157564
24.597,148397,328,157555
24.602,148399,327,157584
24.607,148430,325,157589
24.612,148424,335,157605
24.617,148442,332,157614
24.622,148449,330,157628
24.627,148456,324,157634
24.632,148455,325,157651
24.637,148460,334,157665
24.642,148460,333,157679
24.647,148472,331,157668
24.652,148460,332,157676
24.657,148461,330,157670
24.662,148455,330,157649
24.667,148445,328,157656
24.672,148462,328,157658
24.677,148449,339,157683
24.682,148452,326,157662
24.687,148463,325,157678
24.692,148459,325,157691
24.697,148461,334,157681
24.701,148455,333,157683
24.706,148465,332,157679
24.711,148459,330,157675
24.716,148462,329,157675
24.721,148466,328,157691
24.726,148459,329,157694
24.731,148456,325,157683
24.736,148460,326,157673
24.741,148475,334,157669
24.746,148452,333,157655
24.751,148435,329,157651
24.756,148452,330,157638
24.761,148447,327,157637
24.766,148420,329,157620
24.771,148422,328,157628
24.776,148409,325,157608
24.781,148418,323,157604
24.786,148409,334,157593
24.791,148403,332,157563
24.796,148386,333,157566
24.801,148389,330,157544
24.806,148390,330,157549
24.811,148372,329,157520
24.816,148370,329,157510
24.821,148376,329,157492
24.826,148371,333,157497
24.831,148367,331,157497
24.836,148360,331,157481
24.841,148354,329,157481
24.846,148356,329,157465
24.850,148351,328,157453
24.855,148350,326,157466
24.860,148355,326,157467
24.865,148357,324,157460
24.870,148362,319,157456
24.875,148364,326,157453
24.880,148371,326,157434
24.885,148375,326,157452
24.890,148382,333,157427
24.895,148371,333,157436
24.900,148386,329,157442
24.905,148378,331,157430
24.910,148399,327,157431
24.915,148405,327,157421
24.920,148405,329,157418
24.925,148408,330,157425
24.930,148407,328,157411
24.935,148417,328,157407
24.940,148428,325,157412
24.945,148442,326,157418
24.950,148438,323,157429
24.955,148454,325,157437
24.960,148472,332,157464
24.965,148491,332,157476
24.970,148514,323,157480
24.975,148525,256,157515
24.980,148543,329,157502
24.985,148543,332,157534
24.990,148554,327,157533
24.995,148563,327,157547
24.999,148559,332,157564
25.004,148571,325,157581
25.009,148564,322,157610
25.014,148574,324,157631
25.019,148578,326,157637
25.024,148588,326,157658
25.029,148591,323,157682
25.034,148593,323,157683
25.039,148597,320,157718
25.044,148600,332,157714
25.049,148581,329,157724
25.054,148586,329,157745
25.059,148575,326,157743
25.064,148576,325,157760
25.069,148573,322,157775
25.074,148585,331,157782
25.079,148602,329,157794
25.084,148591,329,157801
25.089,148583,327,157820
25.094,148606,326,157822
25.099,148591,323,157826
25.104,148601,334,157853
25.109,148589,330,157857
25.114,148595,332,157840
25.119,148589,331,157872
25.124,148616,330,157886
25.129,148590,325,157876
25.134,148587,325,157882
25.139,148568,321,157884
25.143,148561,331,157895
25.148,148572,327,157885
25.153,148569,327,157893
25.158,148558,324,157893
25.163,148563,329,157887
25.168,148540,324,157891
25.173,148543,324,157891
25.178,148549,320,157906
25.183,148548,333,157904
25.188,148530,328,157901
25.193,148518,329,157898
25.198,148512,327,157898
25.203,148517,326,157891
25.208,148522,324,157898
25.213,148509,329,157880
25.218,148496,326,157886
25.223,148493,325,157873
25.228,148486,323,157886
25.233,148487,322,157880
25.238,148491,322,157865
25.243,148495,332,157869
25.248,148482,331,157855
25.253,148470,330,157855
25.258,148458,327,157841
25.263,148451,322,157835
25.268,148460,329,157842
25.273,148449,329,157829
25.278,148442,329,157831
25.283,148427,328,157811
25.288,148427,326,157812
25.292,148400,324,157797
25.297,148388,324,157785
25.302,148369,323,157777
25.307,148349,330,157757
25.312,148362,322,157744
25.317,148347,330,157750
25.322,148314,329,157733
25.327,148309,327,157715
25.332,148302,325,157714
25.337,148287,323,157707
25.342,148271,323,157686
25.347,148266,330,157668
25.352,148249,330,157656
25.357,148241,328,157646
25.362,148227,326,157631
25.367,148210,324,157615
25.372,148188,323,157611
25.377,148186,331,157593
25.382,148187,330,157568
25.387,148164,326,157557
25.392,148146,324,157533
25.397,148132,322,157526
25.402,148126,321,157519
25.407,148113,304,157490
25.412,148108,322,157479
25.417,148117,331,157484
25.422,148108,330,157463
25.427,148095,329,157467
25.432,148087,326,157443
25.437,148084,326,157424
25.441,148072,323,157418
25.446,148063,322,157406
25.451,148067,321,157400
25.456,148064,324,157403
25.461,148073,321,157399
25.466,148069,330,157393
25.471,148072,327,157391
25.476,148065,325,157379
25.481,148072,323,157376
25.486,148055,322,157369
25.491,148048,320,157371
25.496,148053,329,157360
25.501,148060,328,157372
25.506,148042,327,157342
25.511,148058,325,157347
25.516,148047,324,157338
25.521,148038,323,157341
25.526,148045,322,157335
25.531,148052,330,157343
25.536,148050,331,157348
25.541,148041,328,157340
25.546,148057,326,157339
25.551,148046,324,157303
25.556,148032,327,157318
25.561,148039,325,157321
25.566,148035,323,157310
25.571,148046,322,157305
25.576,148050,331,157296
25.581,148037,329,157288
25.586,148040,327,157291
25.590,148037,324,157295
25.595,148038,323,157299
25.600,148031,323,157284
25.605,148047,326,157271
25.610,148049,324,157277
25.615,148039,323,157281
25.620,148038,322,157257
25.625,148046,323,157263
25.630,148054,330,157237
25.635,148048,329,157256
25.640,148045,325,157255
25.645,148041,325,157242
25.650,148031,325,157276
25.655,148040,329,157243
25.660,148050,327,157238
25.665,148060,328,157243
25.670,148059,325,157241
25.675,148057,326,157250
25.680,148051,322,157253
25.685,148040,325,157245
25.690,148048,320,157228
25.695,148034,322,157226
25.700,147983,323,157207
25.705,148010,324,157191
25.710,147994,321,157192
25.715,147948,321,157175
25.720,147945,329,157156
25.725,147916,332,157154
25.730,147895,329,157141
25.735,147880,330,157123
25.739,147859,328,157112
25.744,147835,329,157115
25.749,147771,352,157092
25.754,147804,328,157084
25.759,147769,326,157074
25.764,147756,326,157047
25.769,147743,323,157041
25.774,147733,323,157033
25.779,147724,321,157036
25.784,147702,331,157005
25.789,147677,330,156997
25.794,147682,329,156989
25.799,147652,321,156996
25.804,147637,331,156974
25.809,147626,328,156954
25.814,147616,326,156947
25.819,147591,324,156924
25.824,147582,324,156923
25.829,147557,321,156899
25.834,147547,331,156894
25.839,147532,328,156877
25.844,147519,324,156866
25.849,147487,329,156864
25.854,147480,330,156850
25.859,147460,325,156834
25.864,147428,327,156833
25.869,147420,323,156813
25.874,147397,323,156808
25.879,147379,322,156778
25.884,147357,325,156762
25.888,147345,320,156759
25.893,147317,321,156742
25.898,147294,322,156713
25.903,147276,324,156705
25.908,147260,320,156682
25.913,147238,324,156669
25.918,147217,321,156650
25.923,147202,322,156628
25.928,147189,319,156624
25.933,147176,331,156614
25.938,147176,329,156617
25.943,147196,343,156608
25.948,147181,321,156608
25.953,147172,321,156600
25.958,147176,329,156588
25.963,147153,328,156582
25.968,147142,325,156584
25.973,147134,325,156582
25.978,147134,320,156570
25.983,147133,321,156563
25.988,147118,320,156552
25.993,147108,323,156557
25.998,147116,321,156551
26.003,147099,321,156550
26.008,147085,330,156542
26.013,147084,328,156526
26.018,147075,327,156512
26.023,147075,327,156509
26.028,147059,325,156517
26.033,147064,324,156509
26.037,147042,322,156499
26.042,147041,327,156496
26.047,147038,324,156494
26.052,147038,322,156493
26.057,147024,320,156488
26.062,147038,330,156481
26.067,147025,327,156477
26.072,147025,327,156473
26.077,147010,324,156460
26.082,146998,330,156464
26.087,146998,323,156442
26.092,147001,328,156460
26.097,146996,326,156457
26.102,147003,326,156439
26.107,146991,324,156446
26.112,146987,325,156435
26.117,146992,323,156430
26.122,146978,324,156441
26.127,146981,323,156435
26.132,146981,323,156421
26.137,146985,320,156418
26.142,146977,324,156419
26.147,146996,322,156423
26.152,146969,321,156402
26.157,146969,321,156425
26.162,146972,331,156397
26.167,146959,331,156404
26.172,146979,329,156408
26.177,146968,328,156408
26.182,146978,327,156411
26.186,146965,330,156420
26.191,146970,325,156390
26.196,146964,326,156393
26.201,146964,324,156396
26.206,146970,324,156378
26.211,146983,322,156382
26.216,146978,321,156389
26.221,146973,330,156378
26.226,146958,329,156381
26.231,146968,328,156364
26.236,146933,334,156369
26.241,146944,323,156366
26.246,146965,323,156370
26.251,146950,321,156354
26.256,146944,331,156360
26.261,146964,330,156357
26.266,146976,328,156356
26.271,146965,327,156349
26.276,146959,326,156350
26.281,146957,325,156351
26.286,146966,329,156352
26.291,146964,327,156351
26.296,146960,326,156337
26.301,146958,326,156345
26.306,146969,324,156350
26.311,146967,323,156334
26.316,146971,321,156335
26.321,146964,321,156339
26.326,146987,329,156338
26.331,146969,327,156322
26.335,146985,320,156337
26.340,146979,328,156334
26.345,146968,327,156327
26.350,146992,325,156351
26.355,146988,324,156325
26.360,146984,324,156340
26.365,146978,322,156330
26.370,146994,320,156338
26.375,146996,329,156336
26.380,146996,323,156327
26.385,146990,322,156348
26.390,146992,329,156343
26.395,147010,329,156337
26.400,146990,327,156347
26.405,146988,329,156332
26.410,146969,325,156331
26.415,146968,325,156324
26.420,146954,323,156311
26.425,146929,324,156305
26.430,146931,321,156294
26.435,146893,326,156293
26.440,146875,323,156274
26.445,146866,324,156270
26.450,146843,320,156264
26.455,146828,330,156255
26.460,146818,328,156255
26.465,146794,328,156235
26.470,146783,327,156217
26.475,146777,328,156241
26.480,146771,362,156224
26.484,146787,331,156225
26.489,146765,330,156219
26.494,146762,330,156220
26.499,146790,329,156230
26.504,146784,328,156242
26.509,146793,326,156247
26.514,146787,325,156263
26.519,146787,323,156277
26.524,146807,323,156279
26.529,146809,329,156317
26.534,146815,326,156333
26.539,146832,324,156358
26.544,146836,325,156386
26.549,146863,322,156420
26.554,146860,321,156419
26.559,146901,329,156456
26.564,146914,329,156502
26.569,146906,324,156536
26.574,146929,327,156558
26.579,146956,323,156579
26.584,146964,323,156607
26.589,146966,320,156635
26.594,146977,331,156662
26.599,147006,328,156706
26.604,147014,329,156746
26.609,147023,324,156770
26.614,147045,324,156806
26.619,147048,322,156824
26.624,147069,322,156825
26.629,147083,322,156905
26.633,147109,323,156940
26.638,147125,321,156966
26.643,147156,332,156996
26.648,147185,328,157047
26.653,147220,328,157098
26.658,147258,326,157144
26.663,147271,327,157186
26.668,147291,323,157220
26.673,147316,322,157252
26.678,147349,325,157283
26.683,147372,326,157324
26.688,147387,325,157365
26.693,147414,324,157399
26.698,147450,324,157441
26.703,147459,323,157477
26.708,147488,321,157515
26.713,147507,322,157535
26.718,147532,321,157589
26.723,147556,323,157651
26.728,147569,322,157642
26.733,147589,323,157676
26.738,147614,320,157707
26.743,147655,331,157755
26.748,147670,329,157776
26.753,147697,328,157825
26.758,147714,326,157870
26.763,147736,325,157908
26.768,147764,322,157945
26.773,147845,325,157991
26.778,147798,322,158036
26.782,147829,323,158050
26.787,147849,321,158094
26.792,147855,322,158109
26.797,147873,329,158146
26.802,147899,330,158155
26.807,147913,326,158188
26.812,147914,326,158219
26.817,147918,323,158220
26.822,147968,335,158249
26.827,147965,321,158280
26.832,147975,323,158308
26.837,147984,320,158333
26.842,148010,330,158357
26.847,148019,326,158403
26.852,148030,328,158436
26.857,148053,326,158450
26.862,148066,326,158499
26.867,148076,323,158516
26.872,148106,325,158541
26.877,148119,323,158580
26.882,148123,321,158610
26.887,148159,329,158631
26.892,148166,327,158633
26.897,148171,325,158667
26.902,148177,323,158691
26.907,148186,322,158667
26.912,148203,321,158702
26.917,148199,325,158722
26.922,148218,327,158717
26.927,148230,327,158729
26.931,148236,325,158739
26.936,148237,324,158729
26.941,148236,323,158742
26.946,148247,322,158742
26.951,148241,321,158744
26.956,148230,320,158741
26.961,148255,330,158742
26.966,148239,328,158748
26.971,148251,321,158737
26.976,148263,320,158760
26.981,148247,326,158752
26.986,148264,324,158767
26.991,148257,324,158753
26.996,148266,321,158753
27.001,148272,321,158760
27.006,148265,319,158751
27.011,148290,328,158747
27.016,148276,325,158727
27.021,148278,321,158751
27.026,148296,319,158764
27.031,148293,329,158762
27.036,148285,324,158756
27.041,148285,324,158755
27.046,148283,322,158725
27.051,148271,322,158736
27.056,148293,329,158743
27.061,148273,328,158715
27.066,148268,320,158716
27.071,148274,329,158720
27.076,148273,327,158713
27.080,148274,452,158702
27.085,148275,325,158705
27.090,148290,323,158689
27.095,148285,332,158705
27.100,148271,329,158693
27.105,148293,328,158678
27.110,148285,326,158670
27.115,148295,330,158680
27.120,148290,328,158672
27.125,148286,325,158697
27.130,148301,324,158653
27.135,148308,324,158668
27.140,148297,321,158672
27.145,148276,322,158647
27.150,148266,330,158631
27.155,148251,331,158613
27.160,148226,325,158629
27.165,148220,331,158589
27.170,148170,328,158586
27.175,148160,327,158550
27.180,148135,323,158534
27.185,148113,323,158530
27.190,148076,320,158506
27.195,148052,331,158488
27.200,148029,328,158462
27.205,147998,326,158436
27.210,148006,323,158426
27.215,147965,328,158412
27.220,147934,325,158399
27.225,147929,325,158378
27.229,147897,321,158360
27.234,147881,320,158358
27.239,147879,329,158332
27.244,147859,328,158331
27.249,147830,327,158302
27.254,147822,324,158297
27.259,147804,322,158284
27.264,147777,324,158263
27.269,147758,323,158263
27.274,147748,322,158236
27.279,147734,329,158221
27.284,147714,328,158222
27.289,147706,324,158200
27.294,147683,324,158174
27.299,147680,320,158170
27.304,147648,330,158157
27.309,147618,332,158147
27.314,147627,325,158136
27.319,147599,321,158131
27.324,147595,321,158090
27.329,147581,328,158082
27.334,147551,328,158074
27.339,147536,325,158057
27.344,147522,326,158046
27.349,147509,323,158027
27.354,147493,325,158027
27.359,147479,326,158005
27.364,147459,327,157980
27.369,147450,323,157974
27.374,147432,325,157969
27.378,147425,322,157940
27.383,147422,323,157948
27.388,147422,319,157931
27.393,147403,329,157907
27.398,147382,326,157886
27.403,147374,323,157871
27.408,147341,327,157838
27.413,147329,326,157820
27.418,147309,323,157806
27.423,147280,323,157765
27.428,147286,321,157733
27.433,147251,320,157727
27.438,147235,328,157688
27.443,147220,327,157660
27.448,147191,324,157645
27.453,147172,322,157608
27.458,147134,326,157584
27.463,147113,325,157545
27.468,147096,322,157520
27.473,147085,322,157492
27.478,147069,330,157473
27.483,147053,330,157449
27.488,147033,325,157437
27.493,147018,325,157407
27.498,147008,322,157391
27.503,146993,322,157381
27.508,146977,323,157360
27.513,146975,324,157336
27.518,146947,320,157327
27.522,146937,331,157311
27.527,146940,327,157309
27.532,146938,328,157287
27.537,146935,324,157282
27.542,146928,324,157270
27.547,146918,322,157272
27.552,146902,331,157217
27.557,146901,325,157239
27.562,146902,327,157225
27.567,146888,323,157214
27.572,146888,322,157191
27.577,146884,330,157185
27.582,146878,330,157177
27.587,146869,327,157166
27.592,146870,327,157162
27.597,146861,325,157153
27.602,146883,329,157159
27.607,146861,328,157150
27.612,146852,325,157151
27.617,146858,325,157143
27.622,146856,324,157137
27.627,146852,321,157144
27.632,146858,321,157140
27.637,146861,330,157154
27.642,146858,328,157145
27.647,146866,327,157146
27.652,146865,329,157150
27.657,146859,329,157147
27.662,146879,327,157158
27.667,146887,326,157154
27.671,146873,325,157140
27.676,146874,323,157141
27.681,146889,321,157149
27.686,146884,321,157150
27.691,146895,330,157159
27.696,146900,327,157156
27.701,146862,325,157155
27.706,146909,324,157155
27.711,146915,323,157145
27.716,146898,320,157145
27.721,146915,331,157159
27.726,146917,329,157142
27.731,146918,328,157144
27.736,146909,326,157137
27.741,146921,327,157138
27.746,146918,325,157127
27.751,146931,324,157137
27.756,146928,322,157141
27.761,146948,322,157139
27.766,146940,330,157139
27.771,146944,330,157133
27.776,146950,327,157136
27.781,146963,326,157151
27.786,146979,325,157150
27.791,146992,322,157156
27.796,146989,322,157177
27.801,147004,324,157184
27.806,147013,322,157185
27.811,147029,322,157188
27.816,147030,322,157198
27.820,147029,319,157205
27.825,147039,320,157192
27.830,147039,328,157207
27.835,147041,328,157203
27.840,147066,325,157202
27.845,147080,312,157195
27.850,147065,326,157208
27.855,147067,327,157220
27.860,147075,325,157219
27.865,147093,324,157223
27.870,147084,324,157228
27.875,147121,322,157250
27.880,147113,321,157249
27.885,147126,331,157263
27.890,147125,329,157262
27.895,147127,322,157251
27.900,147098,321,157253
27.905,147086,331,157251
27.910,147086,328,157243
27.915,147076,327,157231
27.920,147044,326,157229
27.925,147026,325,157218
27.930,147006,324,157191
27.935,147002,324,157195
27.940,146989,322,157174
27.945,146965,325,157188
27.950,146940,323,157172
27.955,146932,322,157161
27.960,146915,321,157155
27.965,146904,321,157145
27.969,146888,330,157127
27.974,146889,331,157137
27.979,146883,326,157128
27.984,146883,327,157126
27.989,146878,324,157136
27.994,146855,323,157120
27.999,146849,322,157114
28.004,146827,322,157119
28.009,146835,319,157118
28.014,146825,321,157088
28.019,146823,328,157103
28.024,146797,329,157098
28.029,146788,326,157080
28.034,146787,327,157082
28.039,146777,325,157071
28.044,146775,330,157077
28.049,146777,326,157081
28.054,146772,327,157073
28.059,146772,325,157067
28.064,146764,325,157078
28.069,146754,322,157094
28.074,146743,322,157073
28.079,146761,321,157078
28.084,146735,324,157089
28.089,146736,324,157065
28.094,146738,324,157084
28.099,146741,322,157085
28.104,146731,323,157086
28.109,146732,331,157074
28.114,146727,330,157077
28.118,146714,327,157091
28.123,146723,328,157089
28.128,146722,326,157073
28.133,146743,326,157084
28.138,146757,328,157108
28.143,146741,329,157098
28.148,146735,327,157089
28.153,146730,328,157101
28.158,146743,326,157101
28.163,146732,327,157096
28.168,146740,324,157099
28.173,146735,325,157094
28.178,146743,322,157112
28.183,146726,325,157090
28.188,146740,325,157091
28.193,146718,326,157094
28.198,146727,322,157086
28.203,146719,324,157091
28.208,146720,320,157084
28.213,146716,322,157096
28.218,146707,328,157086
28.223,146722,329,157080
28.228,146712,326,157088
28.233,146718,327,157097
28.238,146709,328,157106
28.243,146719,330,157096
28.248,146713,327,157098
28.253,146715,327,157092
28.258,146722,326,157096
28.263,146712,326,157102
28.267,146717,324,157105
28.272,146712,325,157106
28.277,146716,323,157108
28.282,146716,322,157105
28.287,146721,325,157098
28.292,146723,324,157098
28.297,146730,324,157107
28.302,146738,323,157116
28.307,146734,320,157110
28.312,146735,320,157127
28.317,146747,328,157106
28.322,146737,327,157120
28.327,146752,325,157126
28.332,146745,325,157133
28.337,146736,321,157115
28.342,146753,322,157126
28.347,146761,319,157122
28.352,146750,329,157127
28.357,146763,326,157141
28.362,146760,326,157131
28.367,146761,323,157123
28.372,146775,324,157117
28.377,146772,320,157124
28.382,146794,303,157117
28.387,146783,323,157137
28.392,146762,324,157120
28.397,146782,320,157120
28.402,146782,322,157112
28.407,146773,318,157127
28.412,146786,330,157129
28.416,146787,327,157125
28.421,146800,329,157117
28.426,146803,326,157127
28.431,146827,328,157113
28.436,146810,323,157129
28.441,146821,325,157123
28.446,146821,323,157124
28.451,146821,324,157127
28.456,146818,322,157132
28.461,146820,322,157114
28.466,146833,320,157120
28.471,146826,329,157116
28.476,146831,328,157119
28.481,146839,321,157118
28.486,146835,322,157106
28.491,146827,321,157089
28.496,146829,321,157101
28.501,146825,320,157093
28.506,146824,331,157102
28.511,146829,328,157097
28.516,146837,326,157120
28.521,146842,325,157082
28.526,146837,324,157099
28.531,146848,328,157105
28.536,146843,327,157099
28.541,146857,327,157087
28.546,146852,325,157084
28.551,146850,324,157086
28.556,146858,322,157091
28.561,146864,322,157083
28.565,146851,321,157087
28.570,146861,319,157078
28.575,146867,329,157082
28.580,146875,322,157079
28.585,146877,322,157068
28.590,146887,321,157075
28.595,146882,320,157084
28.600,146896,321,157074
28.605,146895,330,157084
28.610,146895,329,157081
28.615,146904,328,157080
28.620,146900,327,157080
28.625,146911,329,157067
28.630,146927,322,157076
28.635,146904,321,157072
28.640,146905,330,157063
28.645,146878,328,157025
28.650,146847,327,156989
28.655,146818,326,156979
28.660,146806,326,156949
28.665,146778,326,156930
28.670,146753,325,156911
28.675,146749,329,156898
28.680,146698,327,156879
28.685,146665,326,156861
28.690,146658,323,156840
28.695,146639,324,156838
28.700,146632,322,156837
28.705,146638,322,156834
28.710,146604,319,156825
28.714,146605,331,156818
28.719,146598,329,156805
28.724,146590,322,156811
28.729,146589,321,156828
28.734,146595,321,156826
28.739,146597,330,156801
28.744,146578,329,156816
28.749,146575,328,156810
28.754,146577,326,156830
28.759,146575,325,156810
28.764,146561,324,156803
28.769,146569,322,156792
28.774,146545,326,156803
28.779,146548,324,156798
28.784,146529,323,156806
28.789,146546,321,156806
28.794,146537,318,156799
28.799,146526,328,156787
28.804,146527,325,156796
28.809,146520,324,156789
28.814,146517,322,156790
28.819,146507,321,156784
28.824,146504,321,156775
28.829,146499,319,156775
28.834,146492,329,156774
28.839,146478,328,156792
28.844,146482,328,156775
28.849,146472,325,156769
28.854,146457,326,156771
28.859,146463,324,156752
28.863,146443,322,156754
28.868,146437,320,156763
28.873,146443,324,156736
28.878,146427,321,156721
28.883,146433,323,156733
28.888,146425,319,156725
28.893,146439,320,156749
28.898,146437,327,156745
28.903,146446,329,156749
28.908,146438,326,156764
28.913,146456,326,156748
28.918,146466,302,156745
28.923,146454,328,156738
28.928,146446,323,156741
28.933,146471,322,156745
28.938,146450,321,156714
28.943,146449,322,156744
28.948,146448,318,156729
28.953,146439,328,156750
28.958,146455,326,156719
28.963,146446,325,156726
28.968,146445,328,156733
28.973,146437,327,156718
28.978,146455,320,156716
28.983,146441,322,156725
28.988,146433,320,156721
28.993,146439,319,156722
28.998,146450,328,156710
29.003,146436,326,156712
29.008,146428,324,156695
29.012,146443,323,156704
29.017,146459,326,156696
29.022,146444,326,156694
29.027,146445,324,156710
29.032,146453,324,156703
29.037,146443,321,156684
29.042,146446,321,156700
29.047,146449,318,156698
29.052,146456,330,156692
29.057,146454,326,156700
29.062,146461,326,156690
29.067,146470,327,156699
29.072,146474,326,156700
29.077,146476,324,156711
29.082,146472,326,156693
29.087,146471,323,156673
29.092,146475,324,156696
29.097,146476,320,156683
29.102,146476,330,156672
29.107,146477,325,156675
