df_hash,22ZHK4.JN5XDQ
device,HZ2X61
project_hash,29R7
project_name,istanbul_aydin_university
person_hash,29R7.Z542
person_label,V150
date_time_start,2026-06-08_18-01-19.110000_+03
date_time_start_unix,1780923679.11
date_time_end,2026-06-08_18-21-11.009000_+03
length_difference_noticed,no

time,ppg_ir,ppg_ambient,ppg_red
5.437,185664,168,109740
5.442,185667,168,109757
5.447,185680,168,109764
5.452,185706,168,109774
5.457,185684,168,109765
5.462,185681,168,109773
5.467,185697,168,109769
5.472,185708,168,109773
5.477,185730,168,109785
5.482,185715,168,109782
5.487,185745,168,109781
5.492,185738,168,109780
5.497,185738,168,109781
5.502,185749,168,109790
5.507,185761,168,109791
5.512,185772,168,109793
5.517,185786,168,109795
5.522,185787,168,109793
5.527,185777,168,109799
5.532,185799,168,109802
5.536,185790,168,109799
5.541,185793,168,109798
5.546,185830,168,109798
5.551,185825,168,109805
5.556,185827,168,109820
5.561,185839,168,109818
5.566,185867,168,109831
5.571,185870,168,109831
5.576,185878,168,109820
5.581,185866,168,109825
5.586,185876,168,109844
5.591,185895,168,109838
5.596,185894,168,109850
5.601,185933,168,109835
5.606,185922,168,109849
5.611,185931,168,109851
5.616,185920,168,109850
5.621,185914,168,109850
5.626,185906,168,109836
5.631,185898,168,109843
5.636,185875,168,109838
5.641,185857,168,109840
5.646,185841,168,109828
5.651,185816,168,109825
5.656,185806,168,109811
5.661,185793,168,109800
5.666,185770,168,109792
5.670,185752,168,109800
5.675,185734,168,109786
5.680,185734,168,109774
5.685,185717,168,109771
5.690,185714,168,109773
5.695,185702,168,109771
5.700,185688,168,109771
5.705,185683,168,109774
5.710,185674,168,109767
5.715,185664,168,109757
5.720,185664,168,109760
5.725,185660,168,109767
5.730,185648,168,109762
5.735,185657,168,109766
5.740,185653,168,109759
5.745,185649,168,109755
5.750,185654,168,109767
5.755,185646,168,109759
5.760,185631,168,109759
5.765,185639,168,109757
5.770,185631,168,109750
5.775,185633,168,109754
5.780,185634,168,109751
5.785,185625,168,109740
5.790,185625,168,109746
5.795,185614,168,109744
5.800,185608,168,109743
5.804,185602,168,109748
5.809,185603,168,109745
5.814,185583,168,109750
5.819,185604,168,109749
5.824,185594,168,109736
5.829,185604,168,109743
5.834,185611,168,109732
5.839,185608,168,109745
5.844,185609,168,109742
5.849,185609,168,109742
5.854,185606,168,109754
5.859,185606,168,109736
5.864,185614,168,109761
5.869,185615,168,109753
5.874,185604,168,109754
5.879,185606,168,109752
5.884,185607,168,109742
5.889,185592,168,109737
5.894,185606,168,109748
5.899,185598,168,109742
5.904,185607,168,109748
5.909,185604,168,109738
5.914,185606,168,109744
5.919,185590,168,109737
5.924,185589,168,109733
5.929,185592,168,109733
5.934,185595,168,109732
5.938,185603,168,109703
5.943,185586,168,109744
5.948,185596,168,109737
5.953,185563,168,109726
5.958,185595,168,109721
5.963,185571,168,109711
5.968,185580,168,109713
5.973,185582,168,109725
5.978,185583,168,109716
5.983,185574,168,109712
5.988,185593,168,109711
5.993,185572,168,109707
5.998,185567,168,109717
6.003,185576,168,109724
6.008,185592,168,109712
6.013,185592,168,109722
6.018,185596,168,109721
6.023,185600,168,109722
6.028,185605,168,109729
6.033,185610,168,109724
6.038,185596,168,109734
6.043,185608,168,109729
6.048,185621,168,109727
6.053,185625,168,109746
6.058,185645,168,109739
6.063,185619,168,109742
6.068,185629,168,109739
6.072,185638,168,109739
6.077,185652,168,109746
6.082,185647,168,109748
6.087,185672,168,109758
6.092,185664,168,109763
6.097,185692,168,109756
6.102,185688,168,109758
6.107,185684,168,109755
6.112,185674,168,109759
6.117,185697,168,109768
6.122,185692,168,109762
6.127,185710,168,109770
6.132,185698,168,109771
6.137,185697,168,109778
6.142,185716,168,109768
6.147,185729,168,109775
6.152,185740,168,109776
6.157,185742,168,109783
6.162,185725,168,109784
6.167,185748,168,109795
6.172,185740,168,109785
6.177,185752,168,109793
6.182,185779,168,109795
6.187,185791,168,109789
6.192,185790,168,109795
6.197,185792,168,109810
6.202,185783,168,109802
6.206,185790,168,109805
6.211,185800,168,109815
6.216,185818,168,109810
6.221,185818,168,109810
6.226,185815,168,109805
6.231,185837,168,109839
6.236,185837,168,109829
6.241,185843,168,109823
6.246,185881,168,109826
6.251,185859,168,109838
6.256,185876,168,109830
6.261,185849,168,109833
6.266,185852,168,109831
6.271,185855,168,109848
6.276,185850,168,109845
6.281,185861,168,109829
6.286,185833,168,109828
6.291,185820,168,109807
6.296,185793,168,109817
6.301,185794,168,109811
6.306,185753,168,109801
6.311,185758,168,109790
6.316,185727,168,109792
6.321,185690,168,109778
6.326,185690,168,109776
6.331,185669,168,109771
6.336,185667,168,109763
6.341,185639,168,109772
6.345,185640,168,109764
6.350,185633,168,109752
6.355,185613,168,109753
6.360,185607,168,109750
6.365,185608,168,109747
6.370,185605,168,109740
6.375,185589,168,109754
6.380,185587,168,109749
6.385,185593,168,109737
6.390,185599,168,109735
6.395,185576,168,109736
6.400,185583,168,109742
6.405,185565,168,109741
6.410,185565,168,109726
6.415,185570,168,109736
6.420,185564,168,109746
6.425,185556,168,109743
6.430,185552,168,109727
6.435,185558,168,109736
6.440,185540,168,109719
6.445,185548,168,109732
6.450,185526,168,109723
6.455,185523,168,109721
6.460,185524,168,109732
6.465,185536,168,109703
6.470,185516,168,109703
6.475,185517,168,109716
6.479,185531,168,109717
6.484,185519,168,109708
6.489,185506,168,109712
6.494,185520,168,109730
6.499,185523,168,109718
6.504,185521,168,109724
6.509,185525,168,109714
6.514,185530,168,109713
6.519,185503,168,109714
6.524,185527,171,109712
6.529,185516,168,109701
6.534,185512,168,109706
6.539,185516,168,109698
6.544,185521,168,109696
6.549,185504,168,109701
6.554,185501,168,109709
6.559,185499,168,109699
6.564,185499,168,109700
6.569,185485,168,109695
6.574,185494,168,109727
6.579,185492,168,109690
6.584,185471,168,109686
6.589,185487,168,109683
6.594,185490,168,109688
6.599,185494,168,109688
6.604,185482,168,109693
6.609,185471,168,109693
6.613,185472,168,109687
6.618,185492,168,109685
6.623,185509,168,109685
6.628,185497,168,109689
6.633,185488,168,109690
6.638,185486,168,109689
6.643,185508,168,109692
6.648,185505,168,109699
6.653,185505,168,109690
6.658,185502,168,109687
6.663,185514,168,109698
6.668,185516,168,109709
6.673,185525,168,109690
6.678,185504,168,109698
6.683,185528,168,109703
6.688,185522,168,109693
6.693,185530,168,109707
6.698,185529,168,109704
6.703,185536,168,109712
6.708,185546,168,109696
6.713,185543,168,109705
6.718,185552,168,109698
6.723,185565,168,109701
6.728,185545,168,109716
6.733,185568,168,109706
6.738,185563,168,109697
6.743,185560,168,109714
6.747,185583,168,109715
6.752,185582,168,109719
6.757,185586,168,109720
6.762,185596,168,109708
6.767,185602,168,109710
6.772,185610,168,109715
6.777,185613,168,109727
6.782,185612,168,109728
6.787,185611,168,109728
6.792,185622,168,109736
6.797,185647,168,109723
6.802,185622,168,109717
6.807,185648,168,109728
6.812,185630,168,109739
6.817,185629,168,109732
6.822,185660,168,109731
6.827,185668,168,109733
6.832,185674,168,109736
6.837,185674,168,109753
6.842,185675,168,109744
6.847,185683,168,109753
6.852,185704,168,109740
6.857,185697,168,109746
6.862,185714,168,109756
6.867,185724,168,109749
6.872,185721,168,109762
6.877,185724,168,109745
6.881,185736,168,109761
6.886,185735,168,109761
6.891,185744,168,109763
6.896,185745,168,109771
6.901,185754,168,109765
6.906,185774,168,109774
6.911,185773,168,109770
6.916,185780,168,109762
6.921,185790,168,109771
6.926,185779,168,109780
6.931,185801,168,109764
6.936,185778,168,109769
6.941,185788,168,109756
6.946,185764,168,109760
6.951,185733,168,109750
6.956,185718,168,109740
6.961,185711,168,109724
6.966,185684,168,109717
6.971,185674,168,109704
6.976,185637,168,109700
6.981,185619,168,109691
6.986,185615,168,109685
6.991,185579,168,109669
6.996,185552,168,109662
7.001,185554,168,109650
7.006,185541,168,109659
7.011,185517,168,109642
7.015,185512,168,109636
7.020,185480,168,109627
7.025,185489,168,109619
7.030,185482,168,109626
7.035,185468,168,109611
7.040,185485,168,109613
7.045,185464,168,109618
7.050,185460,168,109607
7.055,185473,168,109620
7.060,185466,168,109605
7.065,185461,168,109609
7.070,185462,168,109596
7.075,185441,168,109606
7.080,185435,168,109604
7.085,185428,168,109584
7.090,185441,168,109589
7.095,185426,168,109588
7.100,185417,168,109574
7.105,185403,168,109565
7.110,185420,168,109578
7.115,185387,168,109561
7.120,185389,168,109554
7.125,185390,168,109550
7.130,185377,168,109560
7.135,185381,168,109553
7.140,185371,168,109552
7.145,185389,168,109542
7.150,185366,168,109550
7.154,185370,168,109541
7.159,185395,168,109551
7.164,185370,168,109539
7.169,185370,168,109539
7.174,185370,168,109527
7.179,185376,168,109524
7.184,185368,168,109517
7.189,185392,168,109502
7.194,185381,168,109505
7.199,185367,168,109497
7.204,185358,168,109492
7.209,185367,168,109473
7.214,185368,168,109463
7.219,185355,168,109462
7.224,185352,168,109454
7.229,185350,168,109434
7.234,185343,168,109429
7.239,185350,168,109441
7.244,185341,168,109421
7.249,185343,168,109426
7.254,185337,168,109433
7.259,185369,168,109449
7.264,185373,168,109445
7.269,185383,168,109453
7.274,185378,168,109456
7.279,185418,168,109477
7.284,185421,168,109483
7.288,185442,168,109502
7.293,185457,168,109519
7.298,185489,168,109532
7.303,185502,168,109538
7.308,185527,168,109560
7.313,185529,168,109576
7.318,185542,168,109589
7.323,185561,168,109594
7.328,185580,168,109619
7.333,185601,168,109628
7.338,185611,168,109640
7.343,185616,168,109654
7.348,185642,168,109661
7.353,185656,168,109675
7.358,185680,168,109686
7.363,185688,168,109687
7.368,185691,168,109720
7.373,185711,168,109730
7.378,185710,168,109742
7.383,185730,168,109759
7.388,185732,168,109773
7.393,185743,168,109770
7.398,185753,168,109774
7.403,185776,168,109798
7.408,185779,168,109790
7.413,185804,168,109813
7.418,185805,168,109826
7.422,185832,168,109837
7.427,185843,168,109825
7.432,185863,168,109835
7.437,185870,168,109833
7.442,185878,168,109847
7.447,185886,168,109857
7.452,185936,168,109874
7.457,185925,168,109886
7.462,185924,168,109878
7.467,185926,168,109889
7.472,185940,168,109896
7.477,185952,168,109895
7.482,185966,168,109908
7.487,185998,168,109919
7.492,185990,168,109919
7.497,185993,168,109937
7.502,186024,168,109942
7.507,186027,168,109946
7.512,186049,168,109959
7.517,186067,168,109972
7.522,186085,168,109973
7.527,186115,168,109984
7.532,186123,168,110008
7.537,186139,168,110016
7.542,186161,168,110021
7.547,186192,168,110034
7.552,186211,168,110039
7.556,186227,168,110062
7.561,186235,168,110075
7.566,186251,168,110095
7.571,186274,168,110106
7.576,186283,168,110121
7.581,186316,168,110140
7.586,186347,168,110140
7.591,186362,168,110161
7.596,186374,168,110184
7.601,186403,168,110193
7.606,186440,168,110220
7.611,186454,168,110247
7.616,186474,168,110262
7.621,186472,168,110285
7.626,186501,168,110290
7.631,186517,168,110311
7.636,186540,168,110315
7.641,186551,168,110338
7.646,186540,168,110345
7.651,186561,168,110362
7.656,186540,168,110352
7.661,186543,168,110354
7.666,186548,168,110349
7.671,186518,168,110351
7.676,186517,168,110360
7.681,186488,168,110342
7.686,186474,168,110336
7.690,186458,168,110344
7.695,186449,168,110346
7.700,186435,168,110349
7.705,186438,168,110350
7.710,186420,168,110356
7.715,186423,168,110379
7.720,186442,168,110388
7.725,186434,168,110403
7.730,186431,168,110416
7.735,186462,168,110424
7.740,186460,168,110449
7.745,186480,168,110468
7.750,186458,168,110471
7.755,186472,168,110474
7.760,186471,168,110472
7.765,186474,168,110476
7.770,186455,168,110488
7.775,186471,168,110487
7.780,186449,168,110492
7.785,186460,168,110492
7.790,186449,168,110503
7.795,186451,168,110493
7.800,186440,168,110480
7.805,186426,168,110494
7.810,186414,168,110491
7.815,186419,168,110491
7.820,186420,168,110489
7.824,186413,168,110481
7.829,186418,168,110485
7.834,186410,168,110485
7.839,186379,168,110479
7.844,186384,168,110481
7.849,186393,168,110482
7.854,186395,168,110493
7.859,186389,168,110484
7.864,186397,168,110487
7.869,186382,168,110483
7.874,186387,168,110492
7.879,186399,168,110490
7.884,186388,168,110497
7.889,186371,168,110523
7.894,186387,168,110489
7.899,186371,168,110482
7.904,186354,168,110496
7.909,186356,168,110486
7.914,186348,168,110502
7.919,186335,168,110497
7.924,186340,168,110493
7.929,186324,168,110496
7.934,186334,168,110511
7.939,186311,168,110532
7.944,186354,168,110541
7.949,186372,168,110563
7.954,186380,168,110597
7.959,186401,168,110590
7.963,186398,168,110599
7.968,186408,168,110615
7.973,186414,168,110605
7.978,186414,168,110620
7.983,186396,168,110611
7.988,186392,168,110604
7.993,186403,168,110604
7.998,186377,168,110600
8.003,186380,168,110596
8.008,186396,168,110586
8.013,186391,168,110574
8.018,186383,168,110573
8.023,186358,168,110557
8.028,186361,168,110541
8.033,186377,168,110548
8.038,186380,168,110540
8.043,186375,168,110534
8.048,186375,168,110535
8.053,186391,168,110537
8.058,186390,168,110535
8.063,186373,168,110519
8.068,186377,168,110531
8.073,186379,168,110532
8.078,186391,168,110533
8.083,186388,168,110529
8.088,186384,168,110545
8.093,186400,168,110552
8.097,186393,168,110563
8.102,186415,168,110557
8.107,186389,168,110564
8.112,186417,168,110573
8.117,186391,168,110563
8.122,186401,168,110566
8.127,186388,168,110552
8.132,186371,168,110563
8.137,186373,168,110554
8.142,186362,168,110555
8.147,186359,168,110556
8.152,186369,168,110558
8.157,186370,168,110544
8.162,186354,168,110550
8.167,186355,168,110537
8.172,186337,168,110535
8.177,186343,168,110520
8.182,186312,168,110515
8.187,186315,168,110505
8.192,186310,168,110510
8.197,186304,168,110500
8.202,186279,168,110494
8.207,186285,168,110484
8.212,186285,168,110493
8.217,186279,168,110492
8.222,186277,168,110480
8.227,186274,168,110483
8.231,186267,168,110479
8.236,186268,168,110480
8.241,186256,168,110477
8.246,186245,168,110471
8.251,186241,168,110455
8.256,186226,168,110461
8.261,186220,168,110457
8.266,186226,168,110446
8.271,186210,168,110434
8.276,186207,168,110435
8.281,186189,168,110425
8.286,186166,168,110412
8.291,186181,168,110408
8.296,186164,168,110398
8.301,186167,168,110410
8.306,186174,168,110411
8.311,186180,168,110405
8.316,186169,168,110407
8.321,186153,168,110394
8.326,186151,168,110394
8.331,186142,168,110394
8.336,186140,168,110389
8.341,186143,168,110389
8.346,186133,168,110395
8.351,186120,168,110391
8.356,186114,168,110393
8.361,186100,168,110371
8.365,186095,168,110366
8.370,186070,168,110362
8.375,186049,168,110351
8.380,186031,168,110338
8.385,186010,168,110333
8.390,185989,168,110319
8.395,185951,168,110309
8.400,185942,168,110292
8.405,185910,168,110279
8.410,185889,168,110266
8.415,185867,168,110274
8.420,185851,168,110269
8.425,185839,168,110258
8.430,185830,168,110249
8.435,185819,168,110222
8.440,185796,168,110247
8.445,185779,168,110238
8.450,185770,168,110226
8.455,185770,168,110211
8.460,185766,168,110223
8.465,185739,168,110207
8.470,185720,168,110197
8.475,185734,169,110183
8.480,185718,168,110180
8.485,185700,168,110182
8.490,185696,168,110177
8.495,185693,168,110170
8.499,185678,168,110167
8.504,185669,168,110150
8.509,185651,168,110137
8.514,185655,168,110130
8.519,185632,168,110122
8.524,185640,168,110118
8.529,185616,168,110105
8.534,185592,168,110104
8.539,185618,168,110102
8.544,185598,168,110092
8.549,185587,168,110092
8.554,185575,168,110088
8.559,185586,168,110087
8.564,185574,168,110079
8.569,185570,168,110067
8.574,185570,168,110074
8.579,185558,168,110064
8.584,185547,168,110066
8.589,185558,168,110067
8.594,185559,168,110061
8.599,185553,168,110055
8.604,185553,168,110051
8.609,185572,168,110046
8.614,185565,168,110053
8.619,185562,168,110052
8.624,185540,168,110054
8.629,185539,168,110037
8.633,185552,168,110038
8.638,185514,168,110044
8.643,185525,168,110022
8.648,185528,168,110013
8.653,185522,168,110016
8.658,185515,168,110007
8.663,185515,168,110007
8.668,185513,168,110005
8.673,185514,168,110009
8.678,185519,168,110005
8.683,185498,168,109991
8.688,185504,168,109994
8.693,185491,168,109990
8.698,185500,168,109988
8.703,185496,168,109982
8.708,185504,168,109980
8.713,185492,168,109971
8.718,185497,168,109988
8.723,185486,168,109961
8.728,185477,168,109968
8.733,185475,168,109966
8.738,185508,168,109959
8.743,185492,168,109955
8.748,185508,168,109960
8.753,185486,168,109967
8.758,185496,168,109955
8.763,185505,168,109955
8.767,185513,168,109950
8.772,185508,168,109965
8.777,185531,168,109957
8.782,185519,168,109961
8.787,185526,168,109947
8.792,185538,168,109976
8.797,185540,168,109968
8.802,185556,168,109966
8.807,185539,168,109957
8.812,185576,168,109958
8.817,185530,168,109979
8.822,185554,168,109968
8.827,185549,168,109972
8.832,185573,168,109975
8.837,185561,168,109982
8.842,185578,168,109973
8.847,185566,168,109978
8.852,185575,168,109971
8.857,185573,168,109981
8.862,185577,168,109979
8.867,185618,168,109978
8.872,185593,168,109982
8.877,185605,168,109985
8.882,185614,168,109987
8.887,185603,168,109976
8.892,185599,168,109967
8.897,185600,168,109955
8.902,185605,168,109955
8.906,185604,168,109951
8.911,185626,168,109960
8.916,185622,168,109954
8.921,185636,168,109960
8.926,185645,168,109951
8.931,185641,168,109968
8.936,185657,168,109962
8.941,185664,168,109969
8.946,185667,168,109973
8.951,185668,168,109965
8.956,185677,168,109981
8.961,185680,168,109975
8.966,185688,168,109972
8.971,185696,168,109979
8.976,185678,168,109984
8.981,185678,168,109987
8.986,185673,168,109984
8.991,185692,168,109985
8.996,185718,168,109985
9.001,185710,168,109985
9.006,185699,168,109995
9.011,185699,168,110023
9.016,185703,168,109989
9.021,185719,168,109986
9.026,185727,168,109996
9.031,185732,168,109999
9.036,185725,168,109994
9.040,185737,168,109990
9.045,185746,168,110001
9.050,185756,168,109999
9.055,185744,168,109999
9.060,185709,168,109984
9.065,185724,168,109973
9.070,185704,168,109977
9.075,185684,168,109956
9.080,185642,168,109950
9.085,185625,168,109941
9.090,185601,168,109939
9.095,185581,168,109931
9.100,185556,168,109914
9.105,185546,168,109907
9.110,185520,168,109899
9.115,185479,168,109886
9.120,185473,168,109883
9.125,185463,168,109879
9.130,185442,168,109864
9.135,185438,168,109881
9.140,185435,168,109858
9.145,185408,168,109861
9.150,185405,168,109862
9.155,185381,168,109850
9.160,185373,168,109848
9.165,185368,168,109847
9.170,185376,168,109835
9.174,185354,168,109845
9.179,185346,168,109822
9.184,185334,168,109833
9.189,185360,168,109844
9.194,185329,168,109846
9.199,185334,168,109839
9.204,185334,168,109817
9.209,185323,168,109834
9.214,185312,168,109822
9.219,185301,168,109809
9.224,185291,168,109814
9.229,185294,168,109813
9.234,185271,168,109802
9.239,185269,168,109806
9.244,185271,168,109803
9.249,185255,168,109802
9.254,185257,168,109805
9.259,185246,168,109794
9.264,185236,168,109798
9.269,185236,168,109800
9.274,185234,168,109798
9.279,185251,168,109800
9.284,185235,168,109793
9.289,185233,168,109803
9.294,185235,168,109803
9.299,185235,168,109795
9.304,185248,168,109802
9.308,185239,168,109803
9.313,185234,168,109814
9.318,185230,168,109801
9.323,185213,168,109812
9.328,185245,168,109805
9.333,185226,168,109808
9.338,185239,168,109799
9.343,185239,168,109819
9.348,185224,168,109809
9.353,185238,168,109802
9.358,185217,168,109815
9.363,185212,168,109804
9.368,185224,168,109812
9.373,185211,168,109807
9.378,185224,168,109806
9.383,185208,168,109802
9.388,185211,168,109807
9.393,185194,168,109812
9.398,185210,168,109805
9.403,185198,168,109802
9.408,185219,168,109807
9.413,185215,168,109802
9.418,185232,168,109802
9.423,185198,168,109821
9.428,185214,168,109814
9.433,185208,168,109815
9.438,185220,168,109815
9.442,185233,168,109808
9.447,185237,168,109819
9.452,185222,168,109820
9.457,185233,168,109820
9.462,185224,168,109828
9.467,185235,168,109830
9.472,185224,168,109817
9.477,185236,168,109840
9.482,185238,168,109833
9.487,185248,168,109832
9.492,185247,168,109838
9.497,185255,168,109845
9.502,185275,168,109848
9.507,185268,168,109839
9.512,185272,168,109862
9.517,185280,168,109855
9.522,185296,168,109847
9.527,185300,168,109864
9.532,185291,168,109867
9.537,185304,168,109864
9.542,185295,168,109877
9.547,185298,168,109861
9.552,185327,168,109870
9.557,185333,168,109888
9.562,185339,168,109883
9.567,185337,168,109897
9.572,185345,168,109898
9.576,185333,168,109899
9.581,185354,168,109913
9.586,185365,168,109897
9.591,185382,168,109912
9.596,185412,168,109910
9.601,185396,168,109912
9.606,185390,168,109927
9.611,185398,168,109927
9.616,185401,168,109927
9.621,185412,168,109931
9.626,185406,168,109945
9.631,185423,168,109941
9.636,185430,168,109937
9.641,185443,168,109940
9.646,185446,168,109948
9.651,185448,168,109946
9.656,185477,168,109942
9.661,185468,168,109943
9.666,185476,168,109952
9.671,185482,168,109948
9.676,185501,168,109957
9.681,185484,168,109961
9.686,185508,168,109955
9.691,185527,168,109962
9.696,185532,168,109971
9.701,185539,168,109965
9.706,185561,168,109965
9.711,185559,168,109979
9.715,185573,168,109992
9.720,185580,168,109993
9.725,185608,168,109990
9.730,185610,168,109999
9.735,185625,168,110002
9.740,185624,168,110012
9.745,185638,168,110009
9.750,185645,168,110030
9.755,185658,168,110035
9.760,185671,168,110046
9.765,185686,168,110043
9.770,185688,168,110052
9.775,185691,168,110052
9.780,185693,168,110055
9.785,185671,168,110052
9.790,185684,168,110062
9.795,185666,168,110054
9.800,185641,168,110055
9.805,185626,168,110033
9.810,185618,168,110035
9.815,185592,168,110028
9.820,185577,168,110031
9.825,185564,168,110022
9.830,185551,168,110012
9.835,185535,168,110006
9.840,185525,168,110011
9.845,185510,168,110007
9.849,185515,168,110008
9.854,185521,168,110007
9.859,185509,168,110012
9.864,185510,168,110019
9.869,185493,168,110016
9.874,185493,168,110028
9.879,185487,168,110024
9.884,185500,168,110027
9.889,185491,168,110019
9.894,185475,168,110022
9.899,185500,168,110025
9.904,185488,168,110031
9.909,185478,168,110030
9.914,185476,168,110030
9.919,185483,168,110027
9.924,185471,168,110030
9.929,185471,168,110027
9.934,185476,168,110031
9.939,185484,168,110021
9.944,185471,168,110018
9.949,185451,168,110027
9.954,185483,168,110022
9.959,185447,168,110026
9.964,185466,168,110035
9.969,185468,168,110039
9.974,185470,168,110040
9.979,185469,168,110034
9.983,185466,168,110026
9.988,185444,168,110050
9.993,185473,168,110021
9.998,185452,168,110023
10.003,185463,168,110031
10.008,185461,168,110040
10.013,185474,168,110026
10.018,185468,168,110034
10.023,185475,168,110038
10.028,185462,168,110038
10.033,185465,168,110028
10.038,185486,168,110030
10.043,185474,168,110028
10.048,185474,168,110035
10.053,185482,168,110029
10.058,185475,168,110022
10.063,185472,168,110039
10.068,185462,168,110038
10.073,185450,168,110022
10.078,185464,168,110026
10.083,185471,168,110048
10.088,185456,168,110029
10.093,185444,168,110022
10.098,185464,168,110018
10.103,185458,168,110019
10.108,185440,168,110013
10.113,185444,168,110016
10.117,185452,168,110018
10.122,185451,168,110026
10.127,185456,168,110031
10.132,185464,168,110012
10.137,185462,168,110026
10.142,185461,168,110017
10.147,185461,168,110019
10.152,185470,168,110019
10.157,185470,168,110028
10.162,185485,168,110030
10.167,185462,168,110014
10.172,185463,168,110027
10.177,185469,168,110025
10.182,185489,168,110027
10.187,185483,168,110036
10.192,185495,168,110030
10.197,185501,168,110037
10.202,185502,168,110047
10.207,185521,168,110040
10.212,185509,168,110045
10.217,185525,168,110050
10.222,185522,168,110045
10.227,185537,168,110055
10.232,185541,168,110056
10.237,185539,168,110051
10.242,185558,168,110067
10.247,185565,168,110069
10.251,185551,168,110078
10.256,185557,168,110070
10.261,185551,168,110064
10.266,185581,168,110072
10.271,185585,168,110082
10.276,185604,168,110077
10.281,185590,168,110082
10.286,185598,168,110088
10.291,185600,168,110086
10.296,185617,168,110088
10.301,185606,168,110101
10.306,185625,168,110086
10.311,185628,168,110098
10.316,185639,168,110104
10.321,185629,168,110101
10.326,185641,168,110108
10.331,185653,168,110108
10.336,185634,168,110100
10.341,185658,168,110121
10.346,185653,168,110129
10.351,185669,168,110127
10.356,185673,168,110140
10.361,185686,168,110126
10.366,185691,168,110131
10.371,185710,168,110141
10.376,185709,168,110146
10.381,185723,168,110143
10.385,185729,168,110153
10.390,185742,168,110144
10.395,185740,168,110151
10.400,185740,168,110162
10.405,185777,168,110151
10.410,185775,168,110169
10.415,185772,168,110165
10.420,185771,168,110165
10.425,185787,168,110168
10.430,185788,168,110165
10.435,185788,168,110183
10.440,185799,168,110195
10.445,185798,168,110173
10.450,185809,168,110183
10.455,185790,168,110177
10.460,185790,168,110173
10.465,185784,168,110166
10.470,185766,168,110161
10.475,185733,168,110162
10.480,185719,168,110150
10.485,185700,168,110142
10.490,185674,168,110137
10.495,185655,168,110119
10.500,185634,168,110117
10.505,185626,168,110108
10.510,185585,168,110104
10.515,185587,168,110098
10.520,185575,168,110100
10.524,185558,168,110083
10.529,185547,168,110086
10.534,185518,168,110080
10.539,185521,168,110068
10.544,185501,168,110073
10.549,185482,168,110059
10.554,185476,168,110065
10.559,185483,168,110056
10.564,185474,168,110050
10.569,185448,168,110049
10.574,185451,168,110050
10.579,185454,168,110050
10.584,185449,168,110042
10.589,185448,168,110042
10.594,185442,168,110049
10.599,185444,168,110043
10.604,185420,168,110045
10.609,185433,168,110032
10.614,185415,168,110033
10.619,185402,168,110044
10.624,185410,168,110034
10.629,185383,168,110026
10.634,185392,168,110024
10.639,185400,168,110018
10.644,185393,168,110019
10.649,185386,168,110021
10.654,185385,168,110019
10.658,185365,168,110018
10.663,185377,168,110008
10.668,185359,168,110016
10.673,185380,168,110005
10.678,185360,168,110006
10.683,185365,168,110014
10.688,185399,168,110015
10.693,185366,168,110013
10.698,185386,168,110009
10.703,185379,168,110003
10.708,185367,168,110014
10.713,185375,168,110019
10.718,185374,168,110020
10.723,185374,168,110010
10.728,185371,168,109998
10.733,185375,168,110010
10.738,185394,168,110002
10.743,185377,168,110012
10.748,185365,168,110007
10.753,185376,168,110015
10.758,185358,168,109992
10.763,185366,168,109999
10.768,185352,168,110004
10.773,185361,168,110000
10.778,185350,168,109992
10.783,185350,168,109992
10.788,185341,168,109997
10.792,185336,168,109994
10.797,185330,168,110001
10.802,185340,168,109972
10.807,185317,168,109983
10.812,185341,168,109985
10.817,185333,168,109986
10.822,185330,168,109980
10.827,185339,168,109975
10.832,185328,168,109983
10.837,185333,168,109992
10.842,185345,168,109976
10.847,185342,168,109980
10.852,185355,168,109989
10.857,185341,168,109996
10.862,185355,168,109994
10.867,185363,168,109997
10.872,185358,168,109995
10.877,185379,168,109990
10.882,185368,168,109995
10.887,185358,168,110003
10.892,185361,168,109997
10.897,185378,168,110006
10.902,185367,168,109998
10.907,185358,168,109995
10.912,185373,168,110003
10.917,185382,168,110004
10.922,185376,168,110001
10.926,185376,168,110007
10.931,185366,168,109999
10.936,185382,168,110009
10.941,185380,168,110003
10.946,185379,168,110003
10.951,185388,168,110003
10.956,185393,168,110006
10.961,185391,168,110020
10.966,185406,168,110019
10.971,185396,168,110013
10.976,185380,168,110013
10.981,185392,168,110011
10.986,185376,168,110003
10.991,185387,168,110009
10.996,185401,168,110022
11.001,185388,168,110000
11.006,185387,168,109999
11.011,185399,168,109988
11.016,185385,168,110002
11.021,185385,168,110004
11.026,185403,168,109997
11.031,185390,168,109997
11.036,185424,168,110006
11.041,185410,168,110010
11.046,185414,168,110013
11.051,185430,168,110011
11.056,185422,168,110014
11.060,185442,168,110016
11.065,185434,168,110020
11.070,185445,168,110024
11.075,185429,168,110017
11.080,185436,168,110017
11.085,185452,168,110016
11.090,185453,168,110008
11.095,185447,168,110021
11.100,185448,168,110010
11.105,185461,168,110020
11.110,185466,168,110014
11.115,185455,168,110017
11.120,185470,168,110017
11.125,185500,168,110019
11.130,185474,168,110012
11.135,185470,168,110026
11.140,185452,168,110004
11.145,185451,168,110005
11.150,185419,168,109992
11.155,185410,168,110001
11.160,185380,168,109978
11.165,185345,168,109975
11.170,185328,168,109958
11.175,185320,168,109949
11.180,185274,168,109945
11.185,185260,168,109952
11.190,185246,168,109932
11.194,185223,168,109931
11.199,185202,168,109921
11.204,185185,170,109924
11.209,185183,168,109912
11.214,185157,168,109902
11.219,185150,168,109909
11.224,185152,168,109903
11.229,185129,168,109911
11.234,185129,168,109899
11.239,185116,168,109904
11.244,185119,168,109892
11.249,185107,168,109888
11.254,185090,168,109884
11.259,185077,168,109885
11.264,185083,168,109883
11.269,185084,168,109881
11.274,185082,168,109889
11.279,185069,168,109881
11.284,185056,168,109881
11.289,185050,168,109868
11.294,185055,168,109872
11.299,185044,168,109867
11.304,185030,168,109872
11.309,185025,168,109864
11.314,185003,168,109867
11.319,185007,168,109853
11.324,185022,168,109849
11.329,184983,168,109847
11.333,184990,168,109845
11.338,184979,168,109849
11.343,184978,168,109847
11.348,184978,168,109866
11.353,184971,168,109848
11.358,184974,168,109853
11.363,184971,168,109857
11.368,184980,168,109851
11.373,184982,168,109853
11.378,184992,168,109845
11.383,184990,168,109847
11.388,184985,168,109856
11.393,184996,168,109855
11.398,184968,168,109856
11.403,184988,168,109842
11.408,184982,168,109841
11.413,184966,168,109851
11.418,184978,168,109843
11.423,184974,168,109832
11.428,184957,168,109832
11.433,184951,168,109835
11.438,184957,168,109828
11.443,184940,168,109822
11.448,184942,168,109836
11.453,184934,168,109822
11.458,184934,168,109799
11.463,184929,168,109803
11.467,184918,168,109803
11.472,184912,168,109799
11.477,184913,168,109787
11.482,184923,168,109798
11.487,184903,168,109801
11.492,184903,168,109792
11.497,184896,168,109800
11.502,184913,168,109795
11.507,184898,168,109789
11.512,184915,168,109790
11.517,184905,168,109791
11.522,184901,168,109790
11.527,184924,168,109786
11.532,184906,168,109787
11.537,184908,168,109807
11.542,184914,168,109803
11.547,184926,168,109809
11.552,184932,168,109812
11.557,184926,168,109786
11.562,184933,168,109797
11.567,184934,168,109786
11.572,184950,168,109807
11.577,184960,168,109810
11.582,184949,168,109813
11.587,184964,168,109821
11.592,184965,168,109823
11.597,184976,168,109815
11.601,184958,168,109810
11.606,184974,168,109816
11.611,184994,168,109822
11.616,184994,168,109833
11.621,184996,168,109813
11.626,185004,168,109816
11.631,185006,168,109826
11.636,185001,168,109818
11.641,185002,168,109825
11.646,185015,168,109814
11.651,185020,168,109810
11.656,185018,168,109814
11.661,185015,168,109816
11.666,185028,168,109813
11.671,185021,168,109805
11.676,185034,168,109814
11.681,185050,168,109806
11.686,185045,168,109809
11.691,185059,168,109811
11.696,185061,168,109810
11.701,185076,168,109824
11.706,185076,168,109833
11.711,185071,168,109813
11.716,185102,168,109826
11.721,185082,168,109817
11.726,185087,168,109836
11.731,185094,168,109833
11.735,185104,168,109837
11.740,185103,168,109847
11.745,185115,168,109847
11.750,185127,168,109844
11.755,185134,168,109847
11.760,185152,168,109847
11.765,185143,168,109852
11.770,185147,168,109849
11.775,185161,168,109845
11.780,185178,168,109867
11.785,185169,168,109859
11.790,185191,168,109860
11.795,185182,168,109864
11.800,185203,168,109870
11.805,185213,168,109876
11.810,185219,168,109877
11.815,185235,168,109886
11.820,185234,168,109874
11.825,185230,168,109868
11.830,185212,168,109882
11.835,185214,168,109877
11.840,185192,168,109869
11.845,185176,168,109853
11.850,185167,168,109845
11.855,185146,168,109848
11.860,185129,168,109841
11.865,185087,168,109818
11.869,185080,168,109820
11.874,185046,168,109803
11.879,185045,168,109795
11.884,185025,168,109786
11.889,184994,168,109779
11.894,184987,168,109786
11.899,184963,168,109778
11.904,184953,168,109773
11.909,184967,168,109774
11.914,184952,168,109767
11.919,184941,168,109765
11.924,184927,168,109766
11.929,184928,168,109768
11.934,184933,168,109755
11.939,184914,168,109764
11.944,184903,168,109763
11.949,184918,168,109747
11.954,184912,168,109759
11.959,184906,168,109753
11.964,184895,168,109765
11.969,184880,168,109757
11.974,184869,168,109743
11.979,184887,168,109742
11.984,184879,168,109757
11.989,184877,168,109740
11.994,184869,168,109731
11.999,184864,168,109737
12.003,184846,168,109739
12.008,184864,168,109741
12.013,184862,168,109735
12.018,184838,168,109729
12.023,184848,168,109734
12.028,184835,168,109727
12.033,184845,168,109712
12.038,184842,168,109732
12.043,184840,168,109735
12.048,184836,168,109714
12.053,184835,168,109718
12.058,184846,168,109723
12.063,184846,168,109723
12.068,184844,168,109720
12.073,184855,168,109727
12.078,184860,168,109720
12.083,184834,168,109718
12.088,184865,168,109727
12.093,184861,168,109732
12.098,184838,168,109717
12.103,184847,168,109719
12.108,184843,168,109716
12.113,184827,168,109716
12.118,184849,168,109719
12.123,184840,168,109710
12.128,184838,168,109703
12.133,184847,168,109725
12.138,184823,168,109696
12.142,184839,168,109713
12.147,184805,168,109696
12.152,184820,168,109699
12.157,184820,168,109699
12.162,184821,168,109696
12.167,184825,168,109704
12.172,184825,168,109695
12.177,184823,168,109706
12.182,184808,168,109703
12.187,184829,168,109694
12.192,184823,168,109698
12.197,184835,168,109698
12.202,184836,168,109703
12.207,184843,168,109701
12.212,184839,168,109702
12.217,184853,168,109701
12.222,184832,168,109711
12.227,184834,168,109704
12.232,184859,168,109704
12.237,184841,168,109714
12.242,184860,168,109712
12.247,184861,168,109726
12.252,184853,168,109705
12.257,184871,168,109714
12.262,184877,168,109718
12.267,184863,168,109712
12.272,184854,168,109726
12.276,184857,168,109719
12.281,184880,168,109718
12.286,184885,168,109715
12.291,184884,168,109717
12.296,184891,168,109721
12.301,184891,168,109719
12.306,184901,168,109719
12.311,184899,168,109717
12.316,184915,168,109726
12.321,184899,168,109726
12.326,184915,168,109732
12.331,184930,168,109730
12.336,184928,168,109741
12.341,184940,168,109733
12.346,184959,168,109735
12.351,184945,168,109747
12.356,184947,168,109743
12.361,184961,168,109731
12.366,184957,168,109738
12.371,184975,168,109738
12.376,184975,168,109752
12.381,184979,168,109737
12.386,184982,168,109758
12.391,184993,168,109744
12.396,185007,168,109763
12.401,184999,168,109761
12.406,185010,168,109758
12.410,185035,168,109771
12.415,185020,168,109769
12.420,185028,168,109774
12.425,185039,168,109779
12.430,185032,168,109765
12.435,185045,168,109785
12.440,185051,168,109776
12.445,185076,168,109772
12.450,185063,168,109765
12.455,185067,168,109786
12.460,185082,168,109789
12.465,185069,168,109786
12.470,185108,168,109794
12.475,185114,168,109781
12.480,185108,168,109797
12.485,185116,168,109797
12.490,185136,168,109799
12.495,185140,168,109797
12.500,185137,168,109792
12.505,185161,168,109788
12.510,185141,168,109783
12.515,185162,168,109793
12.520,185134,168,109783
12.525,185113,168,109777
12.530,185106,168,109757
12.535,185092,168,109755
12.540,185056,168,109756
12.544,185048,168,109739
12.549,185021,168,109721
12.554,185003,168,109713
12.559,184998,168,109713
12.564,184969,168,109706
12.569,184952,168,109721
12.574,184931,168,109689
12.579,184932,168,109684
12.584,184916,168,109686
12.589,184897,168,109685
12.594,184917,168,109688
12.599,184882,168,109683
12.604,184882,168,109686
12.609,184875,168,109671
12.614,184872,168,109676
12.619,184870,168,109676
12.624,184862,168,109679
12.629,184870,168,109674
12.634,184862,168,109685
12.639,184853,168,109666
12.644,184861,168,109669
12.649,184851,168,109666
12.654,184867,168,109671
12.659,184864,168,109657
12.664,184843,168,109672
12.669,184846,168,109660
12.674,184848,168,109665
12.678,184844,168,109656
12.683,184837,168,109655
12.688,184833,168,109668
12.693,184842,168,109656
12.698,184832,168,109656
12.703,184835,168,109656
12.708,184833,168,109661
12.713,184839,168,109654
12.718,184843,168,109654
12.723,184848,168,109655
12.728,184843,168,109648
12.733,184850,168,109653
12.738,184850,168,109655
12.743,184855,168,109650
12.748,184866,168,109652
12.753,184848,168,109651
12.758,184856,168,109659
12.763,184858,168,109645
12.768,184856,168,109653
12.773,184852,168,109661
12.778,184852,168,109652
12.783,184859,168,109659
12.788,184872,168,109656
12.793,184868,168,109653
12.798,184847,168,109661
12.803,184862,168,109662
12.808,184873,168,109658
12.812,184852,168,109664
12.817,184852,168,109650
12.822,184863,168,109646
12.827,184857,168,109649
12.832,184857,168,109657
12.837,184865,168,109647
12.842,184860,168,109643
12.847,184867,168,109653
12.852,184844,168,109653
12.857,184857,168,109653
12.862,184848,168,109661
12.867,184862,168,109646
12.872,184860,168,109664
12.877,184870,168,109659
12.882,184876,168,109655
12.887,184876,168,109656
12.892,184868,168,109654
12.897,184895,168,109653
12.902,184872,168,109666
12.907,184887,168,109658
12.912,184902,168,109666
12.917,184911,168,109653
12.922,184908,168,109673
12.927,184898,168,109669
12.932,184901,168,109673
12.937,184920,168,109669
12.942,184924,168,109682
12.946,184933,168,109678
12.951,184941,168,109683
12.956,184919,168,109683
12.961,184944,168,109691
12.966,184947,168,109692
12.971,184965,168,109685
12.976,184958,168,109701
12.981,184973,168,109693
12.986,184984,168,109709
12.991,184988,168,109707
12.996,184977,168,109701
13.001,184989,168,109696
13.006,184988,168,109696
13.011,185005,168,109717
13.016,184997,168,109712
13.021,185025,168,109708
13.026,185025,168,109710
13.031,185051,168,109719
13.036,185061,168,109718
13.041,185065,168,109712
13.046,185069,168,109727
13.051,185063,168,109724
13.056,185074,168,109737
13.061,185105,168,109746
13.066,185077,168,109729
13.071,185108,168,109738
13.076,185120,168,109747
13.081,185131,168,109747
13.085,185110,168,109748
13.090,185136,168,109767
13.095,185136,168,109754
13.100,185140,168,109770
13.105,185163,168,109770
13.110,185181,168,109769
13.115,185185,168,109776
13.120,185183,168,109780
13.125,185196,168,109777
13.130,185201,168,109792
13.135,185227,168,109781
13.140,185218,168,109780
13.145,185241,168,109793
13.150,185259,168,109792
13.155,185245,168,109813
13.160,185222,168,109800
13.165,185247,168,109781
13.170,185236,168,109788
13.175,185225,168,109791
13.180,185191,168,109779
13.185,185183,168,109771
13.190,185182,168,109762
13.195,185164,168,109761
13.200,185134,168,109753
13.205,185098,168,109739
13.210,185089,168,109734
13.215,185072,168,109729
13.219,185046,168,109728
13.224,185021,168,109717
13.229,185022,168,109713
13.234,185030,168,109705
13.239,185002,168,109702
13.244,184988,168,109694
13.249,184982,168,109709
13.254,184971,168,109693
13.259,184969,168,109701
13.264,184973,168,109690
13.269,184954,168,109686
13.274,184937,168,109685
13.279,184950,168,109677
13.284,184931,168,109691
13.289,184929,168,109688
13.294,184924,168,109678
13.299,184920,168,109676
13.304,184931,168,109674
13.309,184925,168,109667
13.314,184914,168,109674
13.319,184915,168,109671
13.324,184898,168,109668
13.329,184897,168,109672
13.334,184896,168,109649
13.339,184898,168,109658
13.344,184890,168,109659
13.349,184863,168,109661
13.353,184878,168,109662
13.358,184862,168,109655
13.363,184849,168,109642
13.368,184859,168,109647
13.373,184841,168,109647
13.378,184855,168,109660
13.383,184852,168,109641
13.388,184853,168,109654
13.393,184883,168,109660
13.398,184866,168,109640
13.403,184867,168,109656
13.408,184888,168,109652
13.413,184885,168,109652
13.418,184877,168,109640
13.423,184885,168,109645
13.428,184861,168,109659
13.433,184853,168,109655
13.438,184866,168,109643
13.443,184877,168,109639
13.448,184864,168,109653
13.453,184879,168,109628
13.458,184860,168,109623
13.463,184848,168,109636
13.468,184868,168,109636
13.473,184864,168,109639
13.478,184865,168,109630
13.483,184853,168,109628
13.487,184856,168,109633
13.492,184864,168,109620
13.497,184852,168,109619
13.502,184838,168,109642
13.507,184849,168,109622
13.512,184873,168,109635
13.517,184860,168,109641
13.522,184857,168,109623
13.527,184852,168,109620
13.532,184854,168,109639
13.537,184854,168,109619
13.542,184855,168,109629
13.547,184877,168,109621
13.552,184877,168,109619
13.557,184860,168,109625
13.562,184874,168,109620
13.567,184882,168,109627
13.572,184875,168,109634
13.577,184890,168,109617
13.582,184876,168,109629
13.587,184886,168,109640
13.592,184888,168,109620
13.597,184889,168,109625
13.602,184883,168,109635
13.607,184898,168,109630
13.612,184902,168,109642
13.617,184912,168,109623
13.621,184901,168,109634
13.626,184931,168,109631
13.631,184922,168,109640
13.636,184936,168,109651
13.641,184921,168,109638
13.646,184952,168,109645
13.651,184960,168,109654
13.656,184957,168,109663
13.661,184945,168,109650
13.666,184961,168,109663
13.671,184951,168,109666
13.676,184978,168,109680
13.681,184976,168,109675
13.686,184980,168,109676
13.691,184994,168,109683
13.696,184992,168,109686
13.701,184998,168,109683
13.706,184997,168,109684
13.711,185010,168,109687
13.716,185026,168,109703
13.721,185014,168,109707
13.726,185010,168,109699
13.731,185027,168,109708
13.736,185017,168,109709
13.741,185045,171,109709
13.746,185052,168,109708
13.751,185034,168,109709
13.755,185055,168,109713
13.760,185061,168,109714
13.765,185067,168,109724
13.770,185068,168,109714
13.775,185059,168,109720
13.780,185078,168,109696
13.785,185058,168,109723
13.790,185086,168,109721
13.795,185092,168,109715
13.800,185089,168,109736
13.805,185107,168,109722
13.810,185104,168,109740
13.815,185094,168,109732
13.820,185101,168,109732
13.825,185112,168,109739
13.830,185104,168,109737
13.835,185104,168,109732
13.840,185088,168,109720
13.845,185074,168,109715
13.850,185055,168,109711
13.855,185053,168,109704
13.860,185009,168,109682
13.865,185009,168,109682
13.870,184969,168,109663
13.875,184945,168,109655
13.880,184915,168,109644
13.885,184910,168,109645
13.890,184866,168,109632
13.894,184863,168,109626
13.899,184851,168,109624
13.904,184835,168,109618
13.909,184819,168,109608
13.914,184828,168,109609
13.919,184797,168,109616
13.924,184792,168,109610
13.929,184768,168,109619
13.934,184760,168,109611
13.939,184765,168,109606
13.944,184746,168,109607
13.949,184744,168,109604
13.954,184746,168,109604
13.959,184735,168,109596
13.964,184736,168,109601
13.969,184723,168,109588
13.974,184704,168,109602
13.979,184715,168,109596
13.984,184723,168,109597
13.989,184700,168,109593
13.994,184700,168,109580
13.999,184674,168,109584
14.004,184686,168,109592
14.009,184677,168,109571
14.014,184674,168,109572
14.019,184647,168,109574
14.024,184642,168,109570
14.028,184642,168,109565
14.033,184664,168,109559
14.038,184635,168,109565
14.043,184641,168,109560
14.048,184631,168,109560
14.053,184628,168,109566
14.058,184642,168,109557
14.063,184643,168,109552
14.068,184635,168,109556
14.073,184637,168,109553
14.078,184638,168,109545
14.083,184619,168,109546
14.088,184605,168,109556
14.093,184625,168,109542
14.098,184624,168,109547
14.103,184609,168,109533
14.108,184613,168,109543
14.113,184613,168,109540
14.118,184611,168,109530
14.123,184602,168,109535
14.128,184581,168,109528
14.133,184594,168,109524
14.138,184587,168,109529
14.143,184587,168,109517
14.148,184584,168,109522
14.153,184598,168,109514
14.158,184582,168,109511
14.162,184561,168,109517
14.167,184568,168,109514
14.172,184563,168,109509
14.177,184579,168,109529
14.182,184557,168,109512
14.187,184552,168,109497
14.192,184573,168,109509
14.197,184552,168,109505
14.202,184553,168,109509
14.207,184550,168,109502
14.212,184559,168,109498
14.217,184557,168,109497
14.222,184552,168,109496
14.227,184556,168,109505
14.232,184577,168,109504
14.237,184570,168,109498
14.242,184572,168,109503
14.247,184581,168,109501
14.252,184573,168,109508
14.257,184583,168,109508
14.262,184583,168,109509
14.267,184577,168,109504
14.272,184593,168,109499
14.277,184593,168,109496
14.282,184582,168,109501
14.287,184586,168,109499
14.292,184593,168,109506
14.296,184600,168,109498
14.301,184603,168,109502
14.306,184610,168,109501
14.311,184616,168,109507
14.316,184607,168,109496
14.321,184610,168,109504
14.326,184593,168,109512
14.331,184636,168,109505
14.336,184626,168,109519
14.341,184635,168,109505
14.346,184639,168,109514
14.351,184641,168,109506
14.356,184654,168,109510
14.361,184644,168,109516
14.366,184656,168,109505
14.371,184679,168,109512
14.376,184701,168,109513
14.381,184682,168,109519
14.386,184692,168,109523
14.391,184706,168,109535
14.396,184710,168,109515
14.401,184706,168,109534
14.406,184705,168,109524
14.411,184737,168,109536
14.416,184723,168,109523
14.421,184726,168,109531
14.426,184733,168,109543
14.430,184755,168,109541
14.435,184754,168,109537
14.440,184775,168,109554
14.445,184772,168,109561
14.450,184792,168,109550
14.455,184776,168,109551
14.460,184791,168,109558
14.465,184800,168,109557
14.470,184803,168,109563
14.475,184809,168,109569
14.480,184834,168,109564
14.485,184834,168,109575
14.490,184839,168,109575
14.495,184848,168,109576
14.500,184848,168,109578
14.505,184853,168,109580
14.510,184859,168,109587
14.515,184865,168,109594
14.520,184876,168,109595
14.525,184882,168,109586
14.530,184881,168,109589
14.535,184862,168,109584
14.540,184846,168,109586
14.545,184847,168,109567
14.550,184828,168,109570
14.555,184786,168,109549
14.560,184784,168,109544
14.564,184743,168,109541
14.569,184740,168,109570
14.574,184716,168,109516
14.579,184697,168,109522
14.584,184667,168,109513
14.589,184660,168,109500
14.594,184658,168,109504
14.599,184625,168,109495
14.604,184605,168,109481
14.609,184605,168,109491
14.614,184606,168,109480
14.619,184620,168,109481
14.624,184589,168,109482
14.629,184591,168,109475
14.634,184573,168,109476
14.639,184577,168,109474
14.644,184559,168,109480
14.649,184552,168,109475
14.654,184559,168,109461
14.659,184534,168,109461
14.664,184529,168,109458
14.669,184555,168,109458
14.674,184535,168,109462
14.679,184518,168,109457
14.684,184521,168,109460
14.689,184520,168,109451
14.694,184513,168,109457
14.699,184503,168,109442
14.703,184521,168,109443
14.708,184497,168,109445
14.713,184503,168,109438
14.718,184503,168,109431
14.723,184503,168,109432
14.728,184505,168,109442
14.733,184493,168,109430
14.738,184486,168,109433
14.743,184490,168,109435
14.748,184486,168,109436
14.753,184510,168,109432
14.758,184509,168,109434
14.763,184509,168,109435
14.768,184521,168,109447
14.773,184508,168,109432
14.778,184496,168,109431
14.783,184505,168,109433
14.788,184504,168,109427
14.793,184475,168,109424
14.798,184484,168,109434
14.803,184496,168,109424
14.808,184495,168,109417
14.813,184493,168,109417
14.818,184484,168,109417
14.823,184474,168,109420
14.828,184481,168,109426
14.833,184487,168,109416
14.837,184485,168,109416
14.842,184478,168,109417
14.847,184470,168,109414
14.852,184475,168,109416
14.857,184462,168,109413
14.862,184471,168,109390
14.867,184470,168,109403
14.872,184474,168,109413
14.877,184473,168,109417
14.882,184468,168,109404
14.887,184477,168,109414
14.892,184480,168,109414
14.897,184486,168,109423
14.902,184464,168,109411
14.907,184487,168,109414
14.912,184499,168,109405
14.917,184497,168,109408
14.922,184497,168,109421
14.927,184483,168,109417
14.932,184482,168,109424
14.937,184496,168,109419
14.942,184502,168,109411
14.947,184502,168,109417
14.952,184517,168,109424
14.957,184514,168,109422
14.962,184500,168,109412
14.967,184500,168,109413
14.971,184518,168,109429
14.976,184532,168,109428
14.981,184522,168,109421
14.986,184523,168,109416
14.991,184533,168,109434
14.996,184534,168,109426
15.001,184545,168,109435
15.006,184528,168,109434
15.011,184558,168,109431
15.016,184583,168,109431
15.021,184560,168,109428
15.026,184585,168,109439
15.031,184594,168,109438
15.036,184593,168,109442
15.041,184591,168,109441
15.046,184596,168,109448
15.051,184607,168,109453
15.056,184615,168,109452
15.061,184622,168,109446
15.066,184626,168,109448
15.071,184632,168,109456
15.076,184613,168,109461
15.081,184647,168,109454
15.086,184634,168,109461
15.091,184650,168,109458
15.096,184648,168,109448
15.101,184674,168,109470
15.105,184663,168,109462
15.110,184676,168,109478
15.115,184698,168,109475
15.120,184704,168,109471
15.125,184692,168,109486
15.130,184699,168,109473
15.135,184722,168,109491
15.140,184727,168,109485
15.145,184734,168,109488
15.150,184741,168,109496
15.155,184748,168,109510
15.160,184749,168,109495
15.165,184760,168,109503
15.170,184768,168,109515
15.175,184767,168,109513
15.180,184804,168,109517
15.185,184801,168,109517
15.190,184803,168,109527
15.195,184809,168,109521
15.200,184810,168,109526
15.205,184822,168,109531
15.210,184809,168,109532
15.215,184817,168,109522
15.220,184812,168,109524
15.225,184805,168,109524
15.230,184803,168,109511
15.235,184762,168,109518
15.239,184752,168,109498
15.244,184744,168,109504
15.249,184728,168,109504
15.254,184704,168,109480
15.259,184669,168,109477
15.264,184645,168,109468
15.269,184634,168,109462
15.274,184618,168,109462
15.279,184615,168,109456
15.284,184600,168,109458
15.289,184565,168,109447
15.294,184573,168,109443
15.299,184557,168,109439
15.304,184576,168,109437
15.309,184577,168,109444
15.314,184539,168,109440
15.319,184527,168,109430
15.324,184540,168,109428
15.329,184528,168,109424
15.334,184524,168,109424
15.339,184516,168,109425
15.344,184501,168,109417
15.349,184536,168,109422
15.354,184517,168,109426
15.359,184517,168,109415
15.364,184512,168,109409
15.369,184499,168,109402
15.373,184492,168,109407
15.378,184486,168,109414
15.383,184490,168,109399
15.388,184495,168,109410
15.393,184486,168,109399
15.398,184489,168,109398
15.403,184482,168,109395
15.408,184473,168,109395
15.413,184467,168,109388
15.418,184464,168,109393
15.423,184475,168,109395
15.428,184468,168,109385
15.433,184466,168,109388
15.438,184475,168,109389
15.443,184473,168,109383
15.448,184501,168,109380
15.453,184486,168,109392
15.458,184478,168,109386
15.463,184481,168,109383
15.468,184478,168,109386
15.473,184470,168,109381
15.478,184472,168,109387
15.483,184494,168,109385
15.488,184484,168,109383
15.493,184477,168,109385
15.498,184482,168,109375
15.503,184472,168,109377
15.508,184454,168,109374
15.512,184458,168,109370
15.517,184463,168,109371
15.522,184447,168,109359
15.527,184444,168,109367
15.532,184435,168,109369
15.537,184426,168,109360
15.542,184431,168,109361
15.547,184448,168,109356
15.552,184447,168,109366
15.557,184447,168,109369
15.562,184449,168,109366
15.567,184428,168,109362
15.572,184459,168,109365
15.577,184443,168,109364
15.582,184445,168,109366
15.587,184447,168,109372
15.592,184454,168,109345
15.597,184459,168,109356
15.602,184445,168,109373
15.607,184468,168,109359
15.612,184449,168,109373
15.617,184455,168,109367
15.622,184460,168,109368
15.627,184469,168,109367
15.632,184466,168,109364
15.637,184473,168,109372
15.642,184477,168,109374
15.646,184491,168,109374
15.651,184483,168,109373
15.656,184496,168,109368
15.661,184492,168,109372
15.666,184472,168,109376
15.671,184499,168,109364
15.676,184501,168,109370
15.681,184511,168,109376
15.686,184490,168,109375
15.691,184500,168,109367
15.696,184502,168,109380
15.701,184520,168,109378
15.706,184529,168,109377
15.711,184516,168,109371
15.716,184516,168,109390
15.721,184506,168,109376
15.726,184542,168,109375
15.731,184542,168,109378
15.736,184540,168,109388
15.741,184554,168,109392
15.746,184553,168,109386
15.751,184558,168,109385
15.756,184572,168,109398
15.761,184579,168,109392
15.766,184579,168,109395
15.771,184590,168,109391
15.776,184594,168,109395
15.780,184597,168,109398
15.785,184611,168,109398
15.790,184610,168,109401
15.795,184614,168,109398
15.800,184628,168,109404
15.805,184634,168,109417
15.810,184662,168,109409
15.815,184626,168,109416
15.820,184647,168,109412
15.825,184674,168,109423
15.830,184650,168,109411
15.835,184666,168,109419
15.840,184681,168,109431
15.845,184698,168,109421
15.850,184702,168,109433
15.855,184703,168,109433
15.860,184701,168,109432
15.865,184707,168,109426
15.870,184708,168,109434
15.875,184707,168,109433
15.880,184699,168,109425
15.885,184661,168,109416
15.890,184659,168,109418
15.895,184635,168,109397
15.900,184616,168,109403
15.905,184602,168,109400
15.910,184569,168,109392
15.914,184545,168,109373
15.919,184529,168,109372
15.924,184518,168,109366
15.929,184504,168,109366
15.934,184489,168,109353
15.939,184478,168,109357
15.944,184472,168,109353
15.949,184461,168,109351
15.954,184443,168,109357
15.959,184424,168,109346
15.964,184430,168,109344
15.969,184437,168,109343
15.974,184410,168,109338
15.979,184403,168,109336
15.984,184403,168,109307
15.989,184396,168,109326
15.994,184405,168,109333
15.999,184401,168,109337
16.004,184391,168,109329
16.009,184394,168,109335
16.014,184381,168,109313
16.019,184377,168,109338
16.024,184380,168,109325
16.029,184386,168,109327
16.034,184382,168,109323
16.039,184381,168,109327
16.044,184376,168,109323
16.048,184352,168,109315
16.053,184346,168,109326
16.058,184348,168,109318
16.063,184363,168,109312
16.068,184362,168,109306
16.073,184346,168,109309
16.078,184347,168,109309
16.083,184327,168,109317
16.088,184348,168,109321
16.093,184349,168,109311
16.098,184359,168,109318
16.103,184347,168,109315
16.108,184361,168,109323
16.113,184370,168,109312
16.118,184372,168,109317
16.123,184368,168,109316
16.128,184369,168,109322
16.133,184364,168,109310
16.138,184374,168,109330
16.143,184372,168,109318
16.148,184371,168,109317
16.153,184370,168,109322
16.158,184360,168,109301
16.163,184373,168,109307
16.168,184366,168,109311
16.173,184355,168,109309
16.178,184376,168,109306
16.182,184362,168,109312
16.187,184367,168,109302
16.192,184356,168,109302
16.197,184359,168,109302
16.202,184371,168,109303
16.207,184376,168,109284
16.212,184365,168,109282
16.217,184364,168,109287
16.222,184345,168,109287
16.227,184372,168,109285
16.232,184353,168,109286
16.237,184362,168,109280
16.242,184363,168,109279
16.247,184363,168,109280
16.252,184379,168,109263
16.257,184381,168,109274
16.262,184387,168,109283
16.267,184403,168,109282
16.272,184394,168,109282
16.277,184403,168,109281
16.282,184392,168,109286
16.287,184400,168,109285
16.292,184409,168,109274
16.297,184425,168,109284
16.302,184428,168,109285
16.307,184433,168,109292
16.312,184435,168,109301
16.317,184446,168,109303
16.321,184441,168,109290
16.326,184462,168,109306
16.331,184470,168,109314
16.336,184473,168,109314
16.341,184490,168,109312
16.346,184494,168,109307
16.351,184501,168,109324
16.356,184496,168,109327
16.361,184507,168,109324
16.366,184520,168,109329
16.371,184519,168,109347
16.376,184533,168,109330
16.381,184552,168,109336
16.386,184555,168,109334
16.391,184564,168,109346
16.396,184552,168,109345
16.401,184593,168,109342
16.406,184601,168,109347
16.411,184591,168,109365
16.416,184594,168,109357
16.421,184595,168,109372
16.426,184613,168,109371
16.431,184606,168,109367
16.436,184625,168,109366
16.441,184635,168,109379
16.446,184656,168,109384
16.451,184647,168,109373
16.455,184654,168,109388
16.460,184668,168,109388
16.465,184697,168,109396
16.470,184679,168,109396
16.475,184708,168,109399
16.480,184701,168,109404
16.485,184708,168,109406
16.490,184737,168,109406
16.495,184747,168,109419
16.500,184754,168,109416
16.505,184755,168,109417
16.510,184757,168,109426
16.515,184760,168,109419
16.520,184773,168,109420
16.525,184784,168,109434
16.530,184806,168,109429
16.535,184787,168,109430
16.540,184797,168,109446
16.545,184783,168,109433
16.550,184788,168,109436
16.555,184766,168,109441
16.560,184746,168,109420
16.565,184736,168,109413
16.570,184715,168,109407
16.575,184683,168,109401
16.580,184673,168,109387
16.585,184664,168,109382
16.589,184651,168,109380
16.594,184620,168,109372
16.599,184614,168,109358
16.604,184593,168,109359
16.609,184608,168,109362
16.614,184585,168,109352
16.619,184577,168,109349
16.624,184547,168,109353
16.629,184541,168,109346
16.634,184551,168,109346
16.639,184545,168,109350
16.644,184538,168,109348
16.649,184534,168,109338
16.654,184531,168,109339
16.659,184532,168,109345
16.664,184535,168,109337
16.669,184526,168,109336
16.674,184527,168,109336
16.679,184501,168,109332
16.684,184516,168,109339
16.689,184508,168,109334
16.694,184512,168,109334
16.699,184508,168,109337
16.704,184494,168,109323
16.709,184505,168,109338
16.714,184496,168,109328
16.719,184498,168,109333
16.723,184496,168,109323
16.728,184478,168,109329
16.733,184476,168,109324
16.738,184472,168,109323
16.743,184474,168,109324
16.748,184491,168,109327
16.753,184460,168,109314
16.758,184466,168,109323
16.763,184482,168,109325
16.768,184480,168,109324
16.773,184502,168,109318
16.778,184500,168,109327
16.783,184479,168,109321
16.788,184500,168,109328
16.793,184503,168,109328
16.798,184492,168,109320
16.803,184494,168,109321
16.808,184499,168,109319
16.813,184497,168,109330
16.818,184489,168,109323
16.823,184476,168,109334
16.828,184496,168,109326
16.833,184510,168,109325
16.838,184490,168,109315
16.843,184505,168,109333
16.848,184497,168,109323
16.853,184497,168,109330
16.857,184496,168,109329
16.862,184500,168,109319
16.867,184486,168,109332
16.872,184502,168,109325
16.877,184511,168,109314
16.882,184495,168,109324
16.887,184503,168,109329
16.892,184515,168,109323
16.897,184535,168,109328
16.902,184519,168,109326
16.907,184529,168,109337
16.912,184520,168,109321
16.917,184536,168,109328
16.922,184551,168,109328
16.927,184539,168,109334
16.932,184534,168,109340
16.937,184539,168,109342
16.942,184536,168,109335
16.947,184559,168,109340
16.952,184562,168,109344
16.957,184564,168,109336
16.962,184572,168,109354
16.967,184572,168,109351
16.972,184574,168,109356
16.977,184585,168,109344
16.982,184596,168,109344
16.987,184604,168,109348
16.991,184623,168,109354
16.996,184622,168,109362
17.001,184610,168,109373
17.006,184645,168,109360
17.011,184648,168,109358
17.016,184648,168,109369
17.021,184658,168,109362
17.026,184661,168,109374
17.031,184683,168,109386
17.036,184665,168,109379
17.041,184677,168,109379
17.046,184686,168,109378
17.051,184683,168,109381
17.056,184683,168,109392
17.061,184713,168,109391
17.066,184735,168,109397
17.071,184723,168,109397
17.076,184747,168,109394
17.081,184748,168,109408
17.086,184750,168,109409
17.091,184754,168,109409
17.096,184777,168,109420
17.101,184755,168,109412
17.106,184779,168,109411
17.111,184796,168,109415
17.116,184799,168,109420
17.121,184808,168,109428
17.125,184810,168,109433
17.130,184835,168,109423
17.135,184834,168,109431
17.140,184846,168,109438
17.145,184840,168,109443
17.150,184850,168,109444
17.155,184869,168,109439
17.160,184890,168,109452
17.165,184896,168,109455
17.170,184902,168,109464
17.175,184911,168,109460
17.180,184921,168,109465
17.185,184928,168,109470
17.190,184937,168,109472
17.195,184970,168,109487
17.200,184965,168,109482
17.205,184975,168,109469
17.210,184975,168,109489
17.215,184983,168,109493
17.220,185003,168,109486
17.225,185001,168,109500
17.230,185013,168,109505
17.235,185000,168,109499
17.240,185004,168,109498
17.245,184987,168,109497
17.250,184981,168,109484
17.255,184964,168,109480
17.260,184942,168,109466
17.264,184933,168,109463
17.269,184899,168,109444
17.274,184893,168,109440
17.279,184862,168,109437
17.284,184848,168,109434
17.289,184831,168,109418
17.294,184814,168,109409
17.299,184793,168,109411
17.304,184791,168,109412
17.309,184780,168,109409
17.314,184773,168,109389
17.319,184757,168,109384
17.324,184764,168,109393
17.329,184745,168,109390
17.334,184733,168,109387
17.339,184747,168,109387
17.344,184747,168,109391
17.349,184761,168,109438
17.354,184731,168,109401
17.359,184749,168,109403
17.364,184730,168,109396
17.369,184747,168,109401
17.374,184736,168,109404
17.379,184734,168,109402
17.384,184749,168,109399
17.389,184730,168,109397
17.394,184732,168,109397
17.398,184736,168,109394
17.403,184741,168,109408
17.408,184726,168,109392
17.413,184722,168,109383
17.418,184721,168,109389
17.423,184714,168,109395
17.428,184716,168,109388
17.433,184708,168,109389
17.438,184723,168,109387
17.443,184728,168,109387
17.448,184705,168,109386
17.453,184723,168,109391
17.458,184736,168,109386
17.463,184723,168,109387
17.468,184725,168,109390
17.473,184737,168,109402
17.478,184726,168,109396
17.483,184719,168,109403
17.488,184739,168,109387
17.493,184727,168,109385
17.498,184725,168,109390
17.503,184727,168,109387
17.508,184748,168,109381
17.513,184745,168,109390
17.518,184731,168,109388
17.523,184740,168,109395
17.528,184737,168,109391
17.532,184737,168,109390
17.537,184730,168,109396
17.542,184727,168,109391
17.547,184746,168,109401
17.552,184743,168,109388
17.557,184733,168,109391
17.562,184764,168,109387
17.567,184728,168,109398
17.572,184753,168,109392
17.577,184734,168,109390
17.582,184745,168,109385
17.587,184741,168,109379
17.592,184761,168,109392
17.597,184760,168,109381
17.602,184749,168,109391
17.607,184752,168,109394
17.612,184744,168,109398
17.617,184752,168,109396
17.622,184773,168,109395
17.627,184774,168,109400
17.632,184779,168,109388
17.637,184778,168,109393
17.642,184786,168,109389
17.647,184776,168,109409
17.652,184796,168,109401
17.657,184803,168,109407
17.662,184805,168,109413
17.666,184800,168,109407
17.671,184808,168,109426
17.676,184811,168,109405
17.681,184825,168,109403
17.686,184828,168,109410
17.691,184875,168,109412
17.696,184839,168,109412
17.701,184837,168,109418
17.706,184858,168,109433
17.711,184864,168,109425
17.716,184862,168,109425
17.721,184873,168,109430
17.726,184875,168,109417
17.731,184875,168,109431
17.736,184896,168,109435
17.741,184887,168,109431
17.746,184904,168,109442
17.751,184913,168,109419
17.756,184917,168,109442
17.761,184917,168,109450
17.766,184935,168,109459
17.771,184923,168,109452
17.776,184943,168,109452
17.781,184943,168,109453
17.786,184953,168,109476
17.791,184965,168,109464
17.796,184963,168,109477
17.800,184986,168,109473
17.805,184987,168,109472
17.810,184993,168,109470
17.815,184993,168,109480
17.820,185002,168,109474
17.825,185026,168,109480
17.830,185025,168,109494
17.835,185017,168,109485
17.840,185030,168,109491
17.845,185055,168,109484
17.850,185043,168,109492
17.855,185057,168,109500
17.860,185057,168,109495
17.865,185072,168,109506
17.870,185093,168,109509
17.875,185093,168,109497
17.880,185102,168,109505
17.885,185095,168,109513
17.890,185113,168,109521
17.895,185121,168,109522
17.900,185151,168,109529
17.905,185146,168,109530
17.910,185152,168,109529
17.915,185162,168,109546
17.920,185185,168,109534
17.925,185178,168,109546
17.930,185182,168,109553
17.934,185183,168,109558
17.939,185195,168,109552
17.944,185211,168,109558
17.949,185195,168,109549
17.954,185201,168,109547
17.959,185176,168,109551
17.964,185174,168,109544
17.969,185172,168,109541
17.974,185173,168,109535
17.979,185149,168,109525
17.984,185141,168,109521
17.989,185111,168,109515
17.994,185084,168,109515
17.999,185086,168,109497
18.004,185063,168,109497
18.009,185055,168,109493
18.014,185047,168,109493
18.019,185030,168,109484
18.024,185004,168,109482
18.029,185000,168,109479
18.034,185000,168,109461
18.039,185000,168,109482
18.044,184997,168,109480
18.049,184997,168,109477
18.054,184977,168,109477
18.059,184981,168,109472
18.064,184981,168,109470
18.069,184991,168,109474
18.073,184966,168,109470
18.078,184976,168,109462
18.083,184984,168,109468
18.088,184970,168,109468
18.093,184977,168,109476
18.098,184962,168,109475
18.103,184959,168,109459
18.108,184980,168,109462
18.113,184961,168,109464
18.118,184974,168,109458
18.123,184973,168,109466
18.128,184971,168,109459
18.133,184964,168,109457
18.138,184961,168,109458
18.143,184970,168,109453
18.148,184960,168,109443
18.153,184958,168,109446
18.158,184958,168,109444
18.163,184948,168,109447
18.168,184944,168,109453
18.173,184964,168,109454
18.178,184957,168,109444
18.183,184945,168,109456
18.188,184963,168,109450
18.193,184964,168,109444
18.198,184955,168,109440
18.203,184967,168,109427
18.207,184976,168,109434
18.212,184960,168,109446
18.217,184970,168,109434
18.222,184966,168,109437
18.227,184967,168,109447
18.232,184964,168,109435
18.237,184947,168,109437
18.242,184969,168,109443
18.247,184971,168,109434
18.252,184950,168,109434
18.257,184962,168,109442
18.262,184953,168,109430
18.267,184944,168,109433
18.272,184972,168,109438
18.277,184968,168,109430
18.282,184952,168,109446
18.287,184962,168,109433
18.292,184971,168,109443
18.297,184983,168,109426
18.302,184963,168,109435
18.307,184961,168,109438
18.312,184992,168,109435
18.317,184979,168,109443
18.322,184972,168,109426
18.327,184989,168,109433
18.332,184989,168,109443
18.337,184999,168,109443
18.341,184979,168,109449
18.346,185000,168,109435
18.351,185004,168,109449
18.356,185005,168,109447
18.361,185015,168,109443
18.366,185006,168,109450
18.371,185014,168,109449
18.376,185009,168,109443
18.381,185021,168,109450
18.386,185020,168,109447
18.391,185016,168,109455
18.396,185032,168,109449
18.401,185029,168,109446
18.406,185049,168,109450
18.411,185046,168,109458
18.416,185053,168,109461
18.421,185052,168,109423
18.426,185056,168,109463
18.431,185058,168,109454
18.436,185087,168,109458
18.441,185088,168,109462
18.446,185087,168,109458
18.451,185100,168,109469
18.456,185110,168,109466
18.461,185099,168,109461
18.466,185109,168,109462
18.471,185124,168,109461
18.475,185126,168,109474
18.480,185126,168,109470
18.485,185132,168,109482
18.490,185166,168,109482
18.495,185153,168,109465
18.500,185171,168,109479
18.505,185165,168,109487
18.510,185165,168,109485
18.515,185203,168,109488
18.520,185173,168,109497
18.525,185176,168,109492
18.530,185199,168,109488
18.535,185210,168,109497
18.540,185223,168,109506
18.545,185228,168,109504
18.550,185220,168,109516
18.555,185221,168,109518
18.560,185248,168,109513
18.565,185250,168,109515
18.570,185256,168,109519
18.575,185247,168,109524
18.580,185280,168,109516
18.585,185285,168,109530
18.590,185294,168,109526
18.595,185295,168,109537
18.600,185314,168,109527
18.605,185296,168,109541
18.609,185315,168,109524
18.614,185346,168,109535
18.619,185335,168,109544
18.624,185326,168,109545
18.629,185320,168,109538
18.634,185312,168,109538
18.639,185299,168,109529
18.644,185289,168,109508
18.649,185258,168,109517
18.654,185245,168,109507
18.659,185223,168,109506
18.664,185188,168,109476
18.669,185190,168,109490
18.674,185164,168,109477
18.679,185141,168,109470
18.684,185127,168,109456
18.689,185125,168,109457
18.694,185101,168,109462
18.699,185099,168,109444
18.704,185097,168,109444
18.709,185070,168,109446
18.714,185085,168,109459
18.719,185064,168,109445
18.724,185066,168,109434
18.729,185068,168,109439
18.734,185055,168,109443
18.739,185040,168,109433
18.743,185040,168,109437
18.748,185033,168,109438
18.753,185026,168,109429
18.758,185016,168,109424
18.763,185039,168,109421
18.768,184999,168,109411
18.773,185015,168,109419
18.778,184999,168,109414
18.783,185009,168,109427
18.788,185002,168,109422
18.793,184988,168,109408
18.798,184984,168,109413
18.803,184992,168,109398
18.808,184979,168,109405
18.813,184978,168,109402
18.818,184965,168,109405
18.823,184969,168,109398
18.828,184958,168,109387
18.833,184960,168,109389
18.838,184951,168,109388
18.843,184977,168,109389
18.848,184960,168,109391
18.853,184959,168,109396
18.858,184961,168,109387
18.863,184974,168,109385
18.868,184958,168,109383
18.873,184973,168,109379
18.878,184965,168,109384
18.882,184961,168,109377
18.887,184963,168,109380
18.892,184962,168,109378
18.897,184947,168,109368
18.902,184959,168,109369
18.907,184958,168,109388
18.912,184974,168,109367
18.917,184934,168,109373
18.922,184940,168,109354
18.927,184946,168,109365
18.932,184941,168,109356
18.937,184929,168,109363
18.942,184951,168,109362
18.947,184942,168,109356
18.952,184940,168,109358
18.957,184936,168,109351
18.962,184938,168,109360
18.967,184944,168,109356
18.972,184917,168,109347
18.977,184916,168,109345
18.982,184916,168,109347
18.987,184926,168,109348
18.992,184929,168,109343
18.997,184930,168,109338
19.002,184926,168,109335
19.007,184938,168,109338
19.012,184930,168,109352
19.016,184929,168,109355
19.021,184950,168,109349
19.026,184939,168,109334
19.031,184965,168,109346
19.036,184954,168,109343
19.041,184958,168,109339
19.046,184948,168,109346
19.051,184949,168,109349
19.056,184970,168,109338
19.061,184953,168,109348
19.066,184976,168,109342
19.071,184981,168,109343
19.076,184980,168,109344
19.081,184986,168,109345
19.086,184974,168,109339
19.091,184984,168,109345
19.096,184984,168,109356
19.101,184994,168,109341
19.106,185004,168,109342
19.111,185007,168,109352
19.116,184998,168,109354
19.121,185032,168,109355
19.126,185022,168,109353
19.131,185037,168,109355
19.136,185025,168,109358
19.141,185040,168,109363
19.146,185033,168,109353
19.150,185033,168,109358
19.155,185038,168,109358
19.160,185052,168,109356
19.165,185049,168,109362
19.170,185057,168,109363
19.175,185070,168,109366
19.180,185061,168,109361
19.185,185074,168,109367
19.190,185096,168,109362
19.195,185077,168,109380
19.200,185089,168,109380
19.205,185088,168,109371
19.210,185100,168,109380
19.215,185098,168,109367
19.220,185101,168,109376
19.225,185119,168,109380
19.230,185126,168,109376
19.235,185137,168,109389
19.240,185141,168,109386
19.245,185139,168,109386
19.250,185154,168,109394
19.255,185165,168,109381
19.260,185167,168,109383
19.265,185176,168,109389
19.270,185187,168,109385
19.275,185179,168,109389
19.280,185172,168,109407
19.284,185181,168,109399
19.289,185177,168,109391
19.294,185170,168,109391
19.299,185162,168,109399
19.304,185147,168,109394
19.309,185135,168,109378
19.314,185111,168,109359
19.319,185088,168,109356
19.324,185076,168,109353
19.329,185035,168,109343
19.334,185022,168,109343
19.339,185008,168,109326
19.344,184973,168,109340
19.349,184963,168,109304
19.354,184919,168,109297
19.359,184936,168,109298
19.364,184908,168,109287
19.369,184885,168,109276
19.374,184888,168,109266
19.379,184856,168,109275
19.384,184847,168,109256
19.389,184839,168,109254
19.394,184826,168,109259
19.399,184814,168,109242
19.404,184810,168,109230
19.409,184811,168,109235
19.414,184797,168,109240
19.418,184798,168,109224
19.423,184796,168,109230
19.428,184794,168,109235
19.433,184783,168,109226
19.438,184776,168,109231
19.443,184794,168,109244
19.448,184773,168,109237
19.453,184767,168,109228
19.458,184779,168,109225
19.463,184782,168,109226
19.468,184761,168,109228
19.473,184770,168,109234
19.478,184749,168,109240
19.483,184753,168,109238
19.488,184750,168,109223
19.493,184765,168,109228
19.498,184738,168,109214
19.503,184720,168,109216
19.508,184735,168,109227
19.513,184752,168,109228
19.518,184731,168,109224
19.523,184745,168,109222
19.528,184745,168,109227
19.533,184740,168,109226
19.538,184731,168,109228
19.543,184747,168,109224
19.548,184721,168,109227
19.552,184738,168,109229
19.557,184729,168,109221
19.562,184744,168,109225
19.567,184736,168,109213
19.572,184740,168,109225
19.577,184740,168,109213
19.582,184723,168,109227
19.587,184722,168,109214
19.592,184710,168,109228
19.597,184721,168,109215
19.602,184687,168,109214
19.607,184704,168,109224
19.612,184690,168,109216
19.617,184696,168,109208
19.622,184695,168,109233
19.627,184694,168,109227
19.632,184696,168,109225
19.637,184691,168,109221
19.642,184691,168,109232
19.647,184698,168,109238
19.652,184699,168,109236
19.657,184700,168,109251
19.662,184705,168,109258
19.667,184711,168,109262
19.672,184717,168,109252
19.677,184728,168,109258
19.682,184725,168,109266
19.687,184724,168,109274
19.691,184721,168,109266
19.696,184740,168,109263
19.701,184730,168,109275
19.706,184752,168,109272
19.711,184740,168,109281
19.716,184740,168,109266
19.721,184742,168,109272
19.726,184754,168,109278
19.731,184757,168,109281
19.736,184760,168,109273
19.741,184743,168,109277
19.746,184755,168,109284
19.751,184771,168,109289
19.756,184763,168,109291
19.761,184768,168,109282
19.766,184787,168,109292
19.771,184768,168,109295
19.776,184794,168,109296
19.781,184778,168,109295
19.786,184791,168,109298
19.791,184791,168,109302
19.796,184801,168,109302
19.801,184799,168,109300
19.806,184799,168,109297
19.811,184815,168,109303
19.816,184824,168,109302
19.821,184831,168,109308
19.825,184824,168,109317
19.830,184833,168,109307
19.835,184842,168,109326
19.840,184844,168,109329
19.845,184843,168,109330
19.850,184854,168,109318
19.855,184873,168,109329
19.860,184859,168,109334
19.865,184870,168,109338
19.870,184895,168,109343
19.875,184903,168,109344
19.880,184910,168,109335
19.885,184909,168,109350
19.890,184918,168,109374
19.895,184901,168,109366
19.900,184930,168,109361
19.905,184945,168,109361
19.910,184944,168,109369
19.915,184959,168,109372
19.920,184955,168,109380
19.925,184965,168,109382
19.930,184973,168,109378
19.935,184983,168,109390
19.940,184988,168,109391
19.945,184975,168,109392
19.950,184998,168,109399
19.955,184998,168,109409
19.959,185020,168,109402
19.964,185021,168,109404
19.969,185012,168,109415
19.974,185023,168,109402
19.979,185024,168,109408
19.984,185031,168,109410
19.989,185032,168,109411
19.994,185016,168,109398
19.999,184995,168,109389
20.004,184971,168,109387
20.009,184955,168,109383
20.014,184943,168,109376
20.019,184916,168,109365
20.024,184898,168,109354
20.029,184870,168,109340
20.034,184841,168,109326
20.039,184821,168,109319
20.044,184804,168,109324
20.049,184797,168,109310
20.054,184766,168,109300
20.059,184770,168,109308
20.064,184749,168,109302
20.069,184726,168,109300
20.074,184734,168,109293
20.079,184712,168,109291
20.084,184714,168,109283
20.089,184700,168,109282
20.093,184700,168,109277
20.098,184698,168,109263
20.103,184699,168,109275
20.108,184681,168,109269
20.113,184677,168,109275
20.118,184680,168,109270
20.123,184672,168,109283
20.128,184672,168,109266
20.133,184653,168,109276
20.138,184676,168,109280
20.143,184665,168,109262
20.148,184649,168,109272
20.153,184671,168,109279
20.158,184651,168,109270
20.163,184654,168,109275
20.168,184666,168,109277
20.173,184640,168,109284
20.178,184652,168,109268
20.183,184629,168,109267
20.188,184636,168,109262
20.193,184642,168,109265
20.198,184638,168,109268
20.203,184648,168,109269
20.208,184652,168,109278
20.213,184654,168,109272
20.218,184644,168,109265
20.223,184649,168,109280
20.227,184661,168,109275
20.232,184657,168,109275
20.237,184660,168,109279
20.242,184653,168,109267
20.247,184644,168,109261
20.252,184640,168,109267
20.257,184635,168,109271
20.262,184639,168,109263
20.267,184646,168,109262
20.272,184639,168,109257
20.277,184620,168,109259
20.282,184627,168,109248
20.287,184613,168,109255
20.292,184610,168,109247
20.297,184614,168,109241
20.302,184614,168,109246
20.307,184623,168,109251
20.312,184616,168,109240
20.317,184606,168,109253
20.322,184613,168,109244
20.327,184601,168,109244
20.332,184607,168,109243
20.337,184606,168,109243
20.342,184608,168,109233
20.347,184606,168,109241
20.352,184609,168,109248
20.357,184630,168,109245
20.361,184605,168,109251
20.366,184615,168,109244
20.371,184617,168,109240
20.376,184620,168,109251
20.381,184626,168,109245
20.386,184624,168,109244
20.391,184622,168,109244
20.396,184632,168,109248
20.401,184638,168,109248
20.406,184656,168,109244
20.411,184630,168,109240
20.416,184641,168,109255
20.421,184655,168,109250
20.426,184642,168,109256
20.431,184649,168,109252
20.436,184663,168,109253
20.441,184667,168,109249
20.446,184679,168,109262
20.451,184678,168,109258
20.456,184673,168,109266
20.461,184664,168,109261
20.466,184672,168,109262
20.471,184695,168,109261
20.476,184708,168,109257
20.481,184701,168,109268
20.486,184690,168,109259
20.491,184704,168,109271
20.496,184707,168,109267
20.500,184696,168,109258
20.505,184711,168,109264
20.510,184723,168,109272
20.515,184737,168,109273
20.520,184734,168,109263
20.525,184743,168,109277
20.530,184733,168,109277
20.535,184733,168,109267
20.540,184748,168,109281
20.545,184750,168,109277
20.550,184762,168,109282
20.555,184754,168,109278
20.560,184756,168,109286
20.565,184773,168,109283
20.570,184780,168,109286
20.575,184785,168,109293
20.580,184787,168,109286
20.585,184781,168,109293
20.590,184791,168,109305
20.595,184818,168,109305
20.600,184808,168,109297
20.605,184821,168,109306
20.610,184830,168,109303
20.615,184834,168,109312
20.620,184845,168,109319
20.625,184850,168,109306
20.630,184854,168,109313
20.634,184856,168,109322
20.639,184864,168,109313
20.644,184880,168,109327
20.649,184878,168,109329
20.654,184889,168,109332
20.659,184868,168,109320
20.664,184870,168,109324
20.669,184862,168,109315
20.674,184837,168,109302
20.679,184811,168,109306
20.684,184798,168,109297
20.689,184785,168,109291
20.694,184765,168,109289
20.699,184754,168,109270
20.704,184735,168,109265
20.709,184700,168,109275
20.714,184697,168,109256
20.719,184677,168,109261
20.724,184668,168,109251
20.729,184634,168,109244
20.734,184639,168,109238
20.739,184629,168,109232
20.744,184615,168,109243
20.749,184615,168,109242
20.754,184614,168,109243
20.759,184595,168,109230
20.764,184598,168,109231
20.768,184587,168,109234
20.773,184577,168,109228
20.778,184585,168,109222
20.783,184574,168,109230
20.788,184573,168,109236
20.793,184583,168,109220
20.798,184576,168,109222
20.803,184570,168,109213
20.808,184558,168,109222
20.813,184570,168,109223
20.818,184556,168,109224
20.823,184563,168,109230
20.828,184540,168,109212
20.833,184525,168,109210
20.838,184542,168,109214
20.843,184546,168,109211
20.848,184527,168,109205
20.853,184537,168,109207
20.858,184528,168,109212
20.863,184539,168,109206
20.868,184554,168,109217
20.873,184526,168,109216
20.878,184531,168,109199
20.883,184537,168,109204
20.888,184523,168,109217
20.893,184547,168,109220
20.898,184525,168,109219
20.902,184545,168,109198
20.907,184547,168,109202
20.912,184560,168,109208
20.917,184555,168,109201
20.922,184528,168,109200
20.927,184536,168,109198
20.932,184529,168,109207
20.937,184537,168,109197
20.942,184525,168,109203
20.947,184527,168,109197
20.952,184513,168,109209
20.957,184522,168,109202
20.962,184506,168,109201
20.967,184514,168,109194
20.972,184514,168,109196
20.977,184500,168,109192
20.982,184519,168,109190
20.987,184510,168,109184
20.992,184501,168,109197
20.997,184500,168,109188
21.002,184518,168,109178
21.007,184505,168,109201
21.012,184511,168,109186
21.017,184519,168,109199
21.022,184510,168,109192
21.027,184524,168,109203
21.032,184513,168,109184
21.036,184528,168,109199
21.041,184525,168,109191
21.046,184533,168,109198
21.051,184559,168,109208
21.056,184536,168,109200
21.061,184545,168,109203
21.066,184550,168,109203
21.071,184541,168,109209
21.076,184549,168,109211
21.081,184542,168,109203
21.086,184557,168,109210
21.091,184564,168,109207
21.096,184542,168,109215
21.101,184579,168,109213
21.106,184568,168,109213
21.111,184592,168,109214
21.116,184585,168,109209
21.121,184588,168,109225
21.126,184593,168,109226
21.131,184595,168,109223
21.136,184600,168,109224
21.141,184602,168,109239
21.146,184610,168,109234
21.151,184616,168,109227
21.156,184636,168,109222
21.161,184632,168,109236
21.166,184648,168,109243
21.170,184630,168,109247
21.175,184656,168,109233
21.180,184646,168,109250
21.185,184650,168,109247
21.190,184660,168,109255
21.195,184675,168,109243
21.200,184684,168,109259
21.205,184679,168,109261
21.210,184690,168,109255
21.215,184693,168,109260
21.220,184693,168,109262
21.225,184701,168,109266
21.230,184720,168,109266
21.235,184726,168,109281
21.240,184731,168,109272
21.245,184730,168,109274
21.250,184734,168,109281
21.255,184743,168,109281
21.260,184747,168,109286
21.265,184751,168,109286
21.270,184772,168,109289
21.275,184761,168,109303
21.280,184780,168,109298
21.285,184777,168,109284
21.290,184771,168,109295
21.295,184770,168,109299
21.300,184753,168,109282
21.304,184738,168,109279
21.309,184731,168,109271
21.314,184711,168,109279
21.319,184696,168,109264
21.324,184669,168,109259
21.329,184668,168,109254
21.334,184629,168,109243
21.339,184615,168,109231
21.344,184588,168,109226
21.349,184589,168,109219
21.354,184555,168,109205
21.359,184550,168,109216
21.364,184561,168,109214
21.369,184548,168,109219
21.374,184531,168,109207
21.379,184510,168,109206
21.384,184520,168,109205
21.389,184495,168,109207
21.394,184495,168,109188
21.399,184505,168,109209
21.404,184493,168,109212
21.409,184499,168,109209
21.414,184482,168,109207
21.419,184484,168,109223
21.424,184467,168,109199
21.429,184475,168,109214
21.434,184462,168,109205
21.439,184473,168,109212
21.443,184468,168,109195
21.448,184466,168,109205
21.453,184469,168,109213
21.458,184446,168,109204
21.463,184454,168,109204
21.468,184440,168,109194
21.473,184433,168,109195
21.478,184435,168,109200
21.483,184414,168,109189
21.488,184420,168,109195
21.493,184420,168,109198
21.498,184425,168,109194
21.503,184405,168,109187
21.508,184419,168,109179
21.513,184412,168,109186
21.518,184408,168,109172
21.523,184430,168,109193
21.528,184423,168,109182
21.533,184409,168,109192
21.538,184428,168,109210
21.543,184431,168,109200
21.548,184434,168,109209
21.553,184430,168,109207
21.558,184426,168,109205
21.563,184429,168,109197
21.568,184436,168,109202
21.573,184442,168,109201
21.577,184442,168,109208
21.582,184410,168,109208
21.587,184430,168,109214
21.592,184440,168,109205
21.597,184427,168,109203
21.602,184429,168,109225
21.607,184416,168,109209
21.612,184413,168,109214
21.617,184418,168,109214
21.622,184435,168,109220
21.627,184416,168,109217
21.632,184425,168,109214
21.637,184426,168,109224
21.642,184414,168,109218
21.647,184429,168,109220
21.652,184428,168,109217
21.657,184417,168,109216
21.662,184419,168,109234
21.667,184440,168,109222
21.672,184431,168,109220
21.677,184447,168,109231
21.682,184432,168,109246
21.687,184445,168,109231
21.692,184445,168,109232
21.697,184464,168,109243
21.702,184453,168,109248
21.707,184456,168,109238
21.711,184470,168,109239
21.716,184463,168,109230
21.721,184458,168,109230
21.726,184486,168,109245
21.731,184468,168,109243
21.736,184484,168,109261
21.741,184498,168,109242
21.746,184506,168,109253
21.751,184506,168,109254
21.756,184507,168,109247
21.761,184504,168,109254
21.766,184512,168,109254
21.771,184518,168,109256
21.776,184540,168,109259
21.781,184527,168,109266
21.786,184547,168,109256
21.791,184550,168,109266
21.796,184555,168,109264
21.801,184555,168,109256
21.806,184559,168,109275
21.811,184583,168,109273
21.816,184585,168,109278
21.821,184595,168,109276
21.826,184584,168,109273
21.831,184626,168,109285
21.836,184600,168,109272
21.841,184625,168,109275
21.845,184612,168,109277
21.850,184632,168,109287
21.855,184655,168,109289
21.860,184641,168,109285
21.865,184649,168,109291
21.870,184666,168,109299
21.875,184663,168,109296
21.880,184681,168,109300
21.885,184682,168,109296
21.890,184683,168,109312
21.895,184680,168,109308
21.900,184710,168,109308
21.905,184735,168,109306
21.910,184706,168,109317
21.915,184733,168,109320
21.920,184727,168,109332
21.925,184735,168,109328
21.930,184731,168,109328
21.935,184715,168,109318
21.940,184696,168,109307
21.945,184697,168,109305
21.950,184657,168,109306
21.955,184648,168,109284
21.960,184616,168,109303
21.965,184611,168,109297
21.970,184590,168,109300
21.975,184583,168,109294
21.979,184578,168,109282
21.984,184551,168,109291
21.989,184567,168,109278
21.994,184535,168,109289
21.999,184531,168,109272
22.004,184517,168,109287
22.009,184511,168,109290
22.014,184522,168,109277
22.019,184486,168,109275
22.024,184489,168,109285
22.029,184494,168,109271
22.034,184473,168,109275
22.039,184490,168,109278
22.044,184485,168,109268
22.049,184459,168,109278
22.054,184452,168,109278
22.059,184463,168,109276
22.064,184469,168,109265
22.069,184434,168,109260
22.074,184436,168,109271
22.079,184428,168,109265
22.084,184427,168,109253
22.089,184429,168,109258
22.094,184411,168,109249
22.099,184420,168,109258
22.104,184394,168,109253
22.109,184385,168,109257
22.113,184389,168,109249
22.118,184391,168,109233
22.123,184381,168,109239
22.128,184375,168,109244
22.133,184369,168,109245
22.138,184373,168,109236
22.143,184363,168,109246
22.148,184361,168,109243
22.153,184369,168,109236
22.158,184359,168,109235
22.163,184379,168,109243
22.168,184380,168,109247
22.173,184367,168,109240
22.178,184379,168,109253
22.183,184374,168,109258
22.188,184367,168,109256
22.193,184378,168,109243
22.198,184348,168,109248
22.203,184367,168,109242
22.208,184368,168,109251
22.213,184384,168,109254
22.218,184376,168,109241
22.223,184360,168,109249
22.228,184366,168,109248
22.233,184377,168,109247
22.238,184365,168,109244
22.243,184348,168,109238
22.248,184354,168,109244
22.252,184352,168,109252
22.257,184338,168,109249
22.262,184354,168,109238
22.267,184365,168,109233
22.272,184356,168,109243
22.277,184373,168,109239
22.282,184350,168,109251
22.287,184362,168,109241
22.292,184363,168,109237
22.297,184360,168,109230
22.302,184368,168,109240
22.307,184372,168,109239
22.312,184376,168,109253
22.317,184365,168,109217
22.322,184386,168,109247
22.327,184388,168,109242
22.332,184399,168,109253
22.337,184376,168,109260
22.342,184401,168,109258
22.347,184395,168,109265
22.352,184395,168,109251
22.357,184403,168,109261
22.362,184409,168,109264
22.367,184426,168,109271
22.372,184434,168,109265
22.377,184438,168,109270
22.382,184428,168,109259
22.386,184426,168,109257
22.391,184452,168,109275
22.396,184460,168,109280
22.401,184443,168,109273
22.406,184458,168,109275
22.411,184471,168,109283
22.416,184469,168,109280
22.421,184475,168,109270
22.426,184490,168,109276
22.431,184493,168,109294
22.436,184501,168,109289
22.441,184500,168,109292
22.446,184517,168,109287
22.451,184511,168,109302
22.456,184528,168,109295
22.461,184520,168,109301
22.466,184532,168,109296
22.471,184539,168,109311
22.476,184551,168,109309
22.481,184549,168,109317
22.486,184577,168,109309
22.491,184559,168,109324
22.496,184579,168,109314
22.501,184592,168,109323
22.506,184585,168,109316
22.511,184602,168,109318
22.516,184598,168,109314
22.520,184627,168,109325
22.525,184627,168,109343
22.530,184628,168,109334
22.535,184625,168,109335
22.540,184643,168,109339
22.545,184657,168,109354
22.550,184661,168,109355
22.555,184659,168,109340
22.560,184680,168,109346
22.565,184676,168,109358
22.570,184672,168,109351
22.575,184685,168,109354
22.580,184686,168,109369
22.585,184694,168,109355
22.590,184719,168,109351
22.595,184719,168,109369
22.600,184718,168,109363
22.605,184694,168,109356
22.610,184727,168,109358
22.615,184701,168,109351
22.620,184684,168,109347
22.625,184669,168,109344
22.630,184655,168,109335
22.635,184617,168,109326
22.640,184623,168,109322
22.645,184597,168,109306
22.650,184576,168,109307
22.654,184568,168,109305
22.659,184555,168,109315
22.664,184533,168,109299
22.669,184523,168,109320
22.674,184507,168,109295
22.679,184515,168,109299
22.684,184487,168,109312
22.689,184485,168,109307
22.694,184482,168,109301
22.699,184491,168,109311
22.704,184477,168,109317
22.709,184480,168,109307
22.714,184480,168,109313
22.719,184477,168,109321
22.724,184477,168,109324
22.729,184489,168,109328
22.734,184457,168,109331
22.739,184474,168,109319
22.744,184459,168,109329
22.749,184457,168,109334
22.754,184459,168,109335
22.759,184447,168,109324
22.764,184447,168,109333
22.769,184426,168,109341
22.774,184429,168,109331
22.779,184424,168,109324
22.784,184435,168,109339
22.788,184412,168,109345
22.793,184425,168,109327
22.798,184410,168,109325
22.803,184418,168,109332
22.808,184412,168,109332
22.813,184402,168,109322
22.818,184407,168,109326
22.823,184429,168,109327
22.828,184417,168,109322
22.833,184403,168,109323
22.838,184415,168,109324
22.843,184430,168,109330
22.848,184420,168,109328
22.853,184438,168,109341
22.858,184431,168,109331
22.863,184429,168,109328
22.868,184438,168,109336
22.873,184438,168,109335
22.878,184428,168,109333
22.883,184435,168,109334
22.888,184432,168,109332
22.893,184442,168,109323
22.898,184436,168,109332
22.903,184459,168,109328
22.908,184444,168,109338
22.913,184436,168,109324
22.918,184439,168,109319
22.922,184416,168,109323
22.927,184436,168,109331
22.932,184431,168,109325
22.937,184440,168,109334
22.942,184443,168,109338
22.947,184444,168,109335
22.952,184443,168,109340
22.957,184443,168,109332
22.962,184458,168,109330
22.967,184455,168,109325
22.972,184445,168,109333
22.977,184455,168,109324
22.982,184472,168,109326
22.987,184461,168,109327
22.992,184487,168,109325
22.997,184483,168,109337
23.002,184482,168,109344
23.007,184486,168,109330
23.012,184493,168,109331
23.017,184494,168,109339
23.022,184516,168,109339
23.027,184513,168,109340
23.032,184514,168,109333
23.037,184519,168,109335
23.042,184512,168,109331
23.047,184526,168,109331
23.052,184533,168,109331
23.057,184526,168,109311
23.061,184521,168,109314
23.066,184532,168,109316
23.071,184535,168,109321
23.076,184551,168,109319
23.081,184547,168,109320
23.086,184564,168,109328
23.091,184563,168,109321
23.096,184559,168,109315
23.101,184575,168,109315
23.106,184582,168,109330
23.111,184574,168,109316
23.116,184603,168,109321
23.121,184611,168,109325
23.126,184611,168,109334
23.131,184632,168,109332
23.136,184630,168,109337
23.141,184641,168,109345
23.146,184645,168,109342
23.151,184677,168,109345
23.156,184685,168,109346
23.161,184691,168,109347
23.166,184676,168,109353
23.171,184690,168,109360
23.176,184707,168,109359
23.181,184718,168,109361
23.186,184717,168,109362
23.191,184732,168,109373
23.195,184727,168,109364
23.200,184752,168,109372
23.205,184753,168,109378
23.210,184761,168,109385
23.215,184767,168,109372
23.220,184777,168,109394
23.225,184792,168,109389
23.230,184786,168,109400
23.235,184806,168,109391
23.240,184814,168,109414
23.245,184801,168,109405
23.250,184844,168,109409
23.255,184836,168,109409
23.260,184863,168,109430
23.265,184850,168,109426
23.270,184877,168,109435
23.275,184869,168,109424
23.280,184874,168,109426
23.285,184901,168,109433
23.290,184909,168,109446
23.295,184906,168,109442
23.300,184911,168,109447
23.305,184931,168,109458
23.310,184947,168,109460
23.315,184939,168,109469
23.320,184968,168,109468
23.325,184971,168,109473
23.329,184970,168,109476
23.334,184989,168,109481
23.339,184990,168,109484
23.344,184997,168,109484
23.349,184982,168,109490
23.354,185004,168,109479
23.359,184982,168,109476
23.364,184963,168,109475
23.369,184936,168,109455
23.374,184919,168,109457
23.379,184903,168,109452
23.384,184910,168,109442
23.389,184857,168,109452
23.394,184859,168,109449
23.399,184848,168,109443
23.404,184860,168,109438
23.409,184834,168,109440
23.414,184841,168,109428
23.419,184837,168,109434
23.424,184834,168,109438
23.429,184838,168,109426
23.434,184823,168,109431
23.439,184812,168,109429
23.444,184824,168,109418
23.449,184807,168,109426
23.454,184803,168,109427
23.459,184790,168,109419
23.463,184800,168,109430
23.468,184806,168,109434
23.473,184794,168,109426
23.478,184796,168,109419
23.483,184816,168,109433
23.488,184788,168,109424
23.493,184802,168,109433
23.498,184806,168,109423
23.503,184817,168,109439
23.508,184795,168,109422
23.513,184794,168,109416
23.518,184786,168,109415
23.523,184778,168,109422
23.528,184773,168,109426
23.533,184778,168,109426
23.538,184766,168,109412
23.543,184773,168,109421
23.548,184773,168,109419
23.553,184768,168,109412
23.558,184778,168,109427
23.563,184789,168,109420
23.568,184776,168,109421
23.573,184796,168,109417
23.578,184806,168,109415
23.583,184803,168,109428
23.588,184807,168,109435
23.593,184802,168,109435
23.597,184801,168,109429
23.602,184799,168,109432
23.607,184803,168,109430
23.612,184796,168,109432
23.617,184831,168,109435
23.622,184823,168,109426
23.627,184813,168,109427
23.632,184806,168,109433
23.637,184814,168,109436
23.642,184804,168,109445
23.647,184794,168,109432
23.652,184793,168,109424
23.657,184823,168,109432
23.662,184809,168,109432
23.667,184819,168,109433
23.672,184803,168,109427
23.677,184802,168,109439
23.682,184833,168,109436
23.687,184809,168,109428
23.692,184828,168,109433
23.697,184830,168,109437
23.702,184842,168,109419
23.707,184841,168,109434
23.712,184851,168,109434
23.717,184854,168,109424
23.722,184846,168,109432
23.727,184847,168,109441
23.731,184861,168,109436
23.736,184868,168,109435
23.741,184874,168,109441
23.746,184855,168,109448
23.751,184863,168,109445
23.756,184880,168,109443
23.761,184892,168,109443
23.766,184895,168,109450
23.771,184905,168,109456
23.776,184899,168,109468
23.781,184924,168,109461
23.786,184919,168,109461
23.791,184919,168,109472
23.796,184936,168,109466
23.801,184954,168,109473
23.806,184936,168,109478
23.811,184937,168,109463
23.816,184956,168,109467
23.821,184951,168,109490
23.826,184975,168,109478
23.831,184964,168,109488
23.836,184978,168,109480
23.841,184976,168,109491
23.846,184981,168,109494
23.851,184987,168,109497
23.856,185003,168,109498
23.861,185028,168,109513
23.866,185012,168,109500
23.870,185020,168,109505
23.875,185035,168,109498
23.880,185036,168,109506
23.885,185058,168,109505
23.890,185050,168,109511
23.895,185059,168,109527
23.900,185063,168,109526
23.905,185067,168,109520
23.910,185071,168,109532
23.915,185071,168,109531
23.920,185085,168,109532
23.925,185081,168,109537
23.930,185086,168,109538
23.935,185116,168,109541
23.940,185097,168,109537
23.945,185110,168,109547
23.950,185131,168,109547
23.955,185118,168,109560
23.960,185145,168,109556
23.965,185156,168,109561
23.970,185159,168,109560
23.975,185129,168,109562
23.980,185181,168,109571
23.985,185181,168,109572
23.990,185181,168,109586
23.995,185186,168,109589
24.000,185176,168,109588
24.004,185204,168,109585
24.009,185214,168,109599
24.014,185224,168,109598
24.019,185239,168,109598
24.024,185248,168,109612
24.029,185241,168,109613
24.034,185258,168,109606
24.039,185271,168,109630
24.044,185288,168,109633
24.049,185278,168,109624
24.054,185281,168,109624
24.059,185300,168,109639
24.064,185294,168,109634
24.069,185312,168,109627
24.074,185294,168,109629
24.079,185292,168,109629
24.084,185247,168,109627
24.089,185257,168,109612
24.094,185254,168,109610
24.099,185222,168,109602
24.104,185200,168,109599
24.109,185192,168,109592
24.114,185182,168,109587
24.119,185149,168,109602
24.124,185134,168,109586
24.129,185142,168,109581
24.134,185123,168,109569
24.138,185129,168,109567
24.143,185114,168,109568
24.148,185107,168,109558
24.153,185094,168,109568
24.158,185102,168,109569
24.163,185104,168,109575
24.168,185097,168,109571
24.173,185110,168,109568
24.178,185087,168,109558
24.183,185099,168,109554
24.188,185081,168,109551
24.193,185071,168,109553
24.198,185087,168,109559
24.203,185080,168,109561
24.208,185082,168,109554
24.213,185086,168,109546
24.218,185100,168,109543
24.223,185077,168,109549
24.228,185089,168,109549
24.233,185073,168,109541
24.238,185065,168,109539
24.243,185070,168,109542
24.248,185060,168,109544
24.253,185077,168,109540
24.258,185054,168,109541
24.263,185053,168,109546
24.268,185046,168,109535
24.272,185057,168,109534
24.277,185071,168,109536
24.282,185080,168,109538
24.287,185064,168,109546
24.292,185080,168,109543
24.297,185083,168,109536
24.302,185075,168,109540
24.307,185073,168,109539
24.312,185076,168,109540
24.317,185084,168,109551
24.322,185065,168,109538
24.327,185079,168,109530
24.332,185076,168,109544
24.337,185081,168,109548
24.342,185091,168,109526
24.347,185080,168,109531
24.352,185067,168,109535
24.357,185078,168,109536
24.362,185075,168,109549
24.367,185075,168,109539
24.372,185069,168,109537
24.377,185064,168,109533
24.382,185073,168,109540
24.387,185078,168,109527
24.392,185067,168,109538
24.397,185073,168,109539
24.402,185083,168,109548
24.406,185066,168,109530
24.411,185072,168,109537
24.416,185089,168,109533
24.421,185084,168,109533
24.426,185088,168,109545
24.431,185100,168,109542
24.436,185091,168,109538
24.441,185096,168,109542
24.446,185103,168,109538
24.451,185096,168,109544
24.456,185099,168,109540
24.461,185120,168,109541
24.466,185104,168,109537
24.471,185107,168,109535
24.476,185128,168,109539
24.481,185126,168,109552
24.486,185131,168,109551
24.491,185134,168,109548
24.496,185144,168,109548
24.501,185149,168,109547
24.506,185158,168,109552
24.511,185130,168,109539
24.516,185135,168,109548
24.521,185155,168,109550
24.526,185186,168,109556
24.531,185178,168,109566
24.536,185181,168,109569
24.540,185187,168,109569
24.545,185186,168,109564
24.550,185202,168,109564
24.555,185212,168,109568
24.560,185209,168,109562
24.565,185221,168,109568
24.570,185232,168,109563
24.575,185227,168,109580
24.580,185237,168,109580
24.585,185259,168,109586
24.590,185242,168,109582
24.595,185264,168,109590
24.600,185258,168,109581
24.605,185262,168,109585
24.610,185282,168,109593
24.615,185272,168,109585
24.620,185301,168,109599
24.625,185295,168,109591
24.630,185309,168,109607
24.635,185297,168,109605
24.640,185328,168,109614
24.645,185320,168,109600
24.650,185338,168,109620
24.655,185346,168,109575
24.660,185334,168,109629
24.665,185332,168,109615
24.670,185347,168,109621
24.674,185346,168,109624
24.679,185385,168,109619
24.684,185390,168,109629
24.689,185382,168,109620
24.694,185400,168,109635
24.699,185400,168,109619
24.704,185437,168,109634
24.709,185418,168,109636
24.714,185422,168,109642
24.719,185431,168,109648
24.724,185450,168,109642
24.729,185430,168,109652
24.734,185468,168,109654
24.739,185465,168,109659
24.744,185463,168,109655
24.749,185472,168,109663
24.754,185460,168,109650
24.759,185445,168,109648
24.764,185433,168,109644
24.769,185441,168,109635
24.774,185423,168,109634
24.779,185413,168,109632
24.784,185392,168,109626
24.789,185341,168,109609
24.794,185343,168,109606
24.799,185317,168,109589
24.804,185306,168,109585
24.809,185277,168,109584
24.813,185284,168,109577
24.818,185272,168,109572
24.823,185255,168,109566
24.828,185238,168,109562
24.833,185228,168,109568
24.838,185229,168,109561
24.843,185215,168,109568
24.848,185222,168,109552
24.853,185197,168,109540
24.858,185197,168,109562
24.863,185190,168,109563
24.868,185175,168,109549
24.873,185173,168,109557
24.878,185168,168,109541
24.883,185178,168,109555
24.888,185179,168,109560
24.893,185166,168,109548
24.898,185145,168,109512
24.903,185166,168,109535
24.908,185144,168,109529
24.913,185128,168,109536
24.918,185124,168,109534
24.923,185125,168,109518
24.928,185120,168,109527
24.933,185116,168,109522
24.938,185103,168,109513
24.943,185112,168,109520
24.947,185097,168,109511
24.952,185094,168,109508
24.957,185076,168,109497
24.962,185086,168,109501
24.967,185077,168,109505
24.972,185080,168,109505
24.977,185072,168,109496
24.982,185094,168,109501
24.987,185082,168,109512
24.992,185093,168,109493
24.997,185090,168,109507
25.002,185081,168,109483
25.007,185084,168,109493
25.012,185086,168,109508
25.017,185085,168,109491
25.022,185086,168,109494
25.027,185069,168,109500
25.032,185090,168,109501
25.037,185085,168,109505
25.042,185064,168,109489
25.047,185083,168,109491
25.052,185059,168,109492
25.057,185074,168,109491
25.062,185065,168,109492
25.067,185067,168,109490
25.072,185066,168,109481
25.077,185057,168,109485
25.081,185047,168,109488
25.086,185058,168,109479
25.091,185060,168,109468
25.096,185057,168,109484
25.101,185066,168,109472
25.106,185048,168,109472
25.111,185049,168,109458
25.116,185047,168,109471
25.121,185054,168,109465
25.126,185048,168,109457
25.131,185048,168,109460
25.136,185059,168,109470
25.141,185050,168,109451
25.146,185049,168,109460
25.151,185050,168,109459
25.156,185063,168,109460
25.161,185047,168,109460
25.166,185051,168,109460
25.171,185061,168,109472
25.176,185058,168,109458
25.181,185070,168,109479
25.186,185075,168,109472
25.191,185079,168,109470
25.196,185069,168,109455
25.201,185072,168,109463
25.206,185070,168,109467
25.211,185079,168,109468
25.215,185072,168,109458
25.220,185083,168,109466
25.225,185075,168,109473
25.230,185072,168,109475
25.235,185091,168,109471
25.240,185098,168,109483
25.245,185106,168,109480
25.250,185100,168,109478
25.255,185124,168,109477
25.260,185108,168,109486
25.265,185110,168,109489
25.270,185115,168,109484
25.275,185144,168,109476
25.280,185148,168,109484
25.285,185130,168,109485
25.290,185156,168,109496
25.295,185136,168,109498
25.300,185145,168,109496
25.305,185169,168,109505
25.310,185178,168,109501
25.315,185170,168,109500
25.320,185170,168,109495
25.325,185188,168,109504
25.330,185179,168,109501
25.335,185210,168,109503
25.340,185202,168,109499
25.345,185201,168,109516
25.349,185213,168,109517
25.354,185219,168,109515
25.359,185217,168,109523
25.364,185215,168,109531
25.369,185256,168,109534
25.374,185251,168,109522
25.379,185255,168,109530
25.384,185259,168,109538
25.389,185267,168,109541
25.394,185269,168,109533
25.399,185283,168,109545
25.404,185297,168,109550
25.409,185285,168,109542
25.414,185301,168,109546
25.419,185299,168,109551
25.424,185311,168,109551
25.429,185328,168,109555
25.434,185337,168,109551
25.439,185326,168,109552
25.444,185333,168,109556
25.449,185327,168,109572
25.454,185312,168,109536
25.459,185316,168,109552
25.464,185297,168,109546
25.469,185287,168,109538
25.474,185267,168,109543
25.479,185244,168,109516
25.483,185218,168,109516
25.488,185200,168,109504
25.493,185183,168,109496
25.498,185163,168,109482
25.503,185133,168,109483
25.508,185120,168,109472
25.513,185102,168,109468
25.518,185088,168,109462
25.523,185072,168,109461
25.528,185059,168,109461
25.533,185047,168,109454
25.538,185038,168,109445
25.543,185011,168,109449
25.548,185018,168,109435
25.553,185016,168,109439
25.558,185015,168,109429
25.563,184997,168,109422
25.568,184981,168,109428
25.573,184975,168,109435
25.578,184991,168,109427
25.583,184983,168,109416
25.588,184964,168,109422
25.593,184962,168,109411
25.598,184953,168,109410
25.603,184937,168,109408
25.608,184945,168,109418
25.613,184939,168,109396
25.618,184926,168,109393
25.622,184912,168,109394
25.627,184911,168,109386
25.632,184900,168,109390
25.637,184908,168,109385
25.642,184902,168,109380
25.647,184896,168,109378
25.652,184888,168,109375
25.657,184886,168,109377
25.662,184876,168,109361
25.667,184883,168,109369
25.672,184877,168,109361
25.677,184863,168,109331
25.682,184870,168,109373
25.687,184894,168,109365
25.692,184881,168,109370
25.697,184864,168,109374
25.702,184859,168,109369
25.707,184858,168,109379
25.712,184849,168,109362
25.717,184874,168,109361
25.722,184862,168,109364
25.727,184899,168,109360
25.732,184847,168,109351
25.737,184852,168,109356
25.742,184867,168,109351
25.747,184856,168,109359
25.752,184852,168,109350
25.756,184843,168,109352
25.761,184844,168,109336
25.766,184841,168,109352
25.771,184829,168,109338
25.776,184845,168,109357
25.781,184824,168,109346
25.786,184833,168,109339
25.791,184824,168,109343
25.796,184835,168,109342
25.801,184824,168,109354
25.806,184828,168,109333
25.811,184819,168,109338
25.816,184826,168,109341
25.821,184815,168,109339
25.826,184813,168,109335
25.831,184835,168,109336
25.836,184830,168,109335
25.841,184819,168,109337
25.846,184821,168,109333
25.851,184845,168,109328
25.856,184846,168,109345
25.861,184853,168,109334
25.866,184848,168,109349
25.871,184834,168,109333
25.876,184849,168,109344
25.881,184851,168,109339
25.886,184856,168,109345
25.890,184860,168,109343
25.895,184862,168,109355
25.900,184863,168,109337
25.905,184862,168,109339
25.910,184873,168,109341
25.915,184870,168,109346
25.920,184870,168,109358
25.925,184882,168,109353
25.930,184889,168,109344
25.935,184884,168,109353
25.940,184894,168,109357
25.945,184896,168,109355
25.950,184897,168,109353
25.955,184909,168,109350
25.960,184921,168,109359
25.965,184907,168,109352
25.970,184916,168,109356
25.975,184921,168,109375
25.980,184929,168,109369
25.985,184937,168,109360
25.990,184946,168,109359
25.995,184956,168,109374
26.000,184962,168,109364
26.005,184962,168,109372
26.010,184982,168,109372
26.015,184988,168,109377
26.020,184998,168,109377
26.024,184982,168,109375
26.029,184994,168,109388
26.034,184998,168,109388
26.039,184992,168,109395
26.044,184996,168,109392
26.049,185024,168,109395
26.054,185014,168,109394
26.059,185034,168,109397
26.064,185040,168,109410
26.069,185038,168,109407
26.074,185046,168,109403
26.079,185071,168,109409
26.084,185067,168,109410
26.089,185065,168,109411
26.094,185069,168,109418
26.099,185079,168,109412
26.104,185101,168,109419
26.109,185099,168,109422
26.114,185104,168,109441
26.119,185114,168,109436
26.124,185112,168,109440
26.129,185105,168,109433
26.134,185131,168,109440
26.139,185139,168,109429
26.144,185150,168,109443
26.149,185135,168,109433
26.154,185139,168,109430
26.158,185127,168,109436
26.163,185109,168,109425
26.168,185091,168,109434
26.173,185078,168,109412
26.178,185060,168,109401
26.183,185035,168,109408
26.188,185007,168,109394
26.193,184985,168,109376
26.198,184973,168,109372
26.203,184951,168,109361
26.208,184916,168,109358
26.213,184911,168,109364
26.218,184886,168,109339
26.223,184854,168,109343
26.228,184867,168,109342
26.233,184833,168,109341
26.238,184848,168,109336
26.243,184834,168,109325
26.248,184811,168,109320
26.253,184813,168,109331
26.258,184804,168,109316
26.263,184778,168,109315
26.268,184791,168,109299
26.273,184773,168,109311
26.278,184768,168,109310
26.283,184774,168,109316
26.288,184761,168,109293
26.292,184756,168,109293
26.297,184773,168,109298
26.302,184765,168,109295
26.307,184760,168,109283
26.312,184737,168,109291
26.317,184756,168,109297
26.322,184740,168,109298
26.327,184729,168,109299
26.332,184731,168,109288
26.337,184742,168,109290
26.342,184731,168,109291
26.347,184727,168,109291
26.352,184712,168,109286
26.357,184735,168,109287
26.362,184727,168,109298
26.367,184732,168,109287
26.372,184738,168,109297
26.377,184740,168,109310
26.382,184731,168,109304
26.387,184716,168,109308
26.392,184738,168,109301
26.397,184744,168,109293
26.402,184729,168,109294
26.407,184717,168,109299
26.412,184738,168,109285
26.417,184743,168,109304
26.422,184726,168,109287
26.427,184724,168,109297
26.431,184722,168,109282
26.436,184728,168,109293
26.441,184708,168,109285
26.446,184717,168,109287
26.451,184729,168,109298
26.456,184727,168,109292
26.461,184703,168,109280
26.466,184718,168,109277
26.471,184695,168,109277
26.476,184707,168,109281
26.481,184708,168,109277
26.486,184699,168,109282
26.491,184702,168,109277
26.496,184715,168,109285
26.501,184713,168,109291
26.506,184708,168,109330
26.511,184715,168,109286
26.516,184714,168,109287
26.521,184712,168,109287
26.526,184709,168,109283
26.531,184723,168,109286
26.536,184722,168,109281
26.541,184737,168,109290
26.546,184733,168,109307
26.551,184733,168,109288
26.556,184744,168,109289
26.561,184745,168,109301
26.565,184746,168,109289
26.570,184734,168,109302
26.575,184760,168,109297
26.580,184758,168,109304
26.585,184771,168,109305
26.590,184785,168,109317
26.595,184775,168,109309
26.600,184779,168,109304
26.605,184784,168,109318
26.610,184778,168,109316
26.615,184802,168,109319
26.620,184812,168,109326
26.625,184797,168,109323
26.630,184814,168,109323
26.635,184826,168,109329
26.640,184814,168,109334
26.645,184819,168,109327
26.650,184832,168,109335
26.655,184843,168,109327
26.660,184849,168,109336
26.665,184849,168,109331
26.670,184848,168,109342
26.675,184871,168,109345
26.680,184877,168,109360
26.685,184868,168,109348
26.690,184875,168,109350
26.695,184876,168,109358
26.699,184876,168,109355
26.704,184900,168,109349
26.709,184909,168,109362
26.714,184911,168,109366
26.719,184917,168,109368
26.724,184906,168,109368
26.729,184929,168,109378
26.734,184942,168,109382
26.739,184956,168,109386
26.744,184936,168,109380
26.749,184953,168,109388
26.754,184975,168,109388
26.759,184980,168,109396
26.764,184993,168,109402
26.769,184992,168,109392
26.774,184979,168,109402
26.779,185007,168,109410
26.784,185027,168,109419
26.789,185010,168,109414
26.794,185026,168,109420
26.799,185030,168,109434
26.804,185042,168,109429
26.809,185042,168,109417
26.814,185044,168,109430
26.819,185037,168,109423
26.824,185049,168,109425
26.829,185043,168,109424
26.833,185029,168,109417
26.838,185016,168,109419
26.843,184978,168,109399
26.848,184989,168,109402
26.853,184953,168,109399
26.858,184927,168,109386
26.863,184906,168,109380
26.868,184880,168,109375
26.873,184874,168,109364
26.878,184851,168,109359
26.883,184839,168,109348
26.888,184814,168,109341
26.893,184801,168,109345
26.898,184778,168,109351
26.903,184767,168,109327
26.908,184750,168,109326
26.913,184747,168,109324
26.918,184741,168,109325
26.923,184732,168,109326
26.928,184735,168,109311
26.933,184735,168,109310
26.938,184715,168,109317
26.943,184704,168,109315
26.948,184704,168,109304
26.953,184702,168,109312
26.958,184689,168,109302
26.963,184696,168,109301
26.967,184673,168,109301
26.972,184679,168,109302
26.977,184684,168,109301
26.982,184654,168,109292
26.987,184652,168,109289
26.992,184631,168,109294
26.997,184648,168,109307
27.002,184645,168,109294
27.007,184645,168,109294
27.012,184623,168,109281
27.017,184626,168,109299
27.022,184603,168,109294
27.027,184617,168,109280
27.032,184616,168,109276
27.037,184619,168,109276
27.042,184615,168,109285
27.047,184620,168,109281
27.052,184626,168,109284
27.057,184618,168,109287
27.062,184611,168,109280
27.067,184611,168,109290
27.072,184613,168,109278
27.077,184625,168,109280
27.082,184612,168,109275
27.087,184614,168,109273
27.092,184609,168,109287
27.097,184618,168,109284
27.101,184610,168,109280
27.106,184606,168,109282
27.111,184610,168,109270
27.116,184602,168,109281
27.121,184596,168,109289
27.126,184615,168,109281
27.131,184602,168,109269
27.136,184602,168,109268
27.141,184597,168,109266
27.146,184579,168,109265
27.151,184592,168,109276
27.156,184581,168,109265
27.161,184582,168,109268
27.166,184588,168,109269
27.171,184587,168,109267
27.176,184601,168,109267
27.181,184584,168,109268
27.186,184584,168,109269
27.191,184604,168,109267
27.196,184588,168,109269
27.201,184581,168,109270
27.206,184595,168,109267
27.211,184599,168,109281
27.216,184589,168,109275
27.221,184605,168,109268
27.226,184588,168,109277
27.231,184608,168,109277
27.236,184616,168,109278
27.240,184615,168,109277
27.245,184603,168,109272
27.250,184630,168,109285
27.255,184620,168,109289
27.260,184634,168,109285
27.265,184639,168,109289
27.270,184640,168,109283
27.275,184651,168,109287
27.280,184655,168,109289
27.285,184655,168,109291
27.290,184641,168,109298
27.295,184662,168,109296
27.300,184672,168,109305
27.305,184679,168,109305
27.310,184686,168,109313
27.315,184689,168,109305
27.320,184678,168,109318
27.325,184707,168,109315
27.330,184711,168,109318
27.335,184733,168,109316
27.340,184720,168,109325
27.345,184732,168,109325
27.350,184740,168,109326
27.355,184724,168,109323
27.360,184732,168,109332
27.365,184747,168,109338
27.370,184755,168,109332
27.374,184761,168,109337
27.379,184782,168,109344
27.384,184760,168,109349
27.389,184778,168,109342
27.394,184784,168,109347
27.399,184800,168,109351
27.404,184809,168,109343
27.409,184809,168,109364
27.414,184818,168,109354
27.419,184827,168,109358
27.424,184827,168,109352
27.429,184836,168,109360
27.434,184847,168,109354
27.439,184847,168,109366
27.444,184852,168,109374
27.449,184868,168,109368
27.454,184874,168,109370
27.459,184878,168,109370
27.464,184885,168,109378
27.469,184875,168,109377
27.474,184901,168,109378
27.479,184884,168,109382
27.484,184912,168,109377
27.489,184922,168,109386
27.494,184924,168,109393
27.499,184931,168,109385
27.504,184922,168,109392
27.508,184914,168,109391
27.513,184896,168,109382
27.518,184888,168,109383
27.523,184872,168,109378
27.528,184859,168,109369
27.533,184834,168,109361
27.538,184807,168,109354
27.543,184774,168,109341
27.548,184774,168,109336
27.553,184757,168,109336
27.558,184732,168,109321
27.563,184703,168,109322
27.568,184685,168,109310
27.573,184674,168,109306
27.578,184684,168,109310
27.583,184660,168,109311
27.588,184657,168,109304
27.593,184639,168,109311
27.598,184623,168,109292
27.603,184615,168,109295
27.608,184620,168,109290
27.613,184599,168,109291
27.618,184587,168,109282
27.623,184592,168,109288
27.628,184585,168,109296
27.633,184572,168,109292
27.638,184569,168,109287
27.642,184563,168,109289
27.647,184583,168,109284
27.652,184575,168,109274
27.657,184539,168,109281
27.662,184540,168,109272
27.667,184547,168,109261
27.672,184543,168,109276
27.677,184502,168,109279
27.682,184538,168,109261
27.687,184516,168,109260
27.692,184502,168,109253
27.697,184506,168,109261
27.702,184500,168,109254
27.707,184487,168,109256
27.712,184459,168,109236
27.717,184486,168,109249
27.722,184486,168,109255
27.727,184474,168,109248
27.732,184479,168,109234
27.737,184478,168,109251
27.742,184486,168,109245
27.747,184492,168,109245
27.752,184484,168,109249
27.757,184485,168,109261
27.762,184486,168,109245
27.767,184489,168,109263
27.772,184486,168,109239
27.776,184482,168,109253
27.781,184476,168,109246
27.786,184473,168,109248
27.791,184471,168,109257
27.796,184481,168,109250
27.801,184476,168,109256
27.806,184466,168,109245
27.811,184472,168,109247
27.816,184472,168,109243
27.821,184470,168,109248
27.826,184454,168,109248
27.831,184472,168,109243
27.836,184464,168,109249
27.841,184467,168,109242
27.846,184452,168,109241
27.851,184472,168,109246
27.856,184462,168,109242
27.861,184457,168,109237
27.866,184471,168,109240
27.871,184473,168,109249
27.876,184469,168,109238
27.881,184467,168,109251
27.886,184472,168,109238
27.891,184463,168,109244
27.896,184488,168,109247
27.901,184464,168,109245
27.906,184473,168,109242
27.910,184479,168,109250
27.915,184484,168,109255
27.920,184488,168,109248
27.925,184495,168,109248
27.930,184500,168,109255
27.935,184500,168,109255
27.940,184503,168,109253
27.945,184523,168,109250
27.950,184519,168,109274
27.955,184531,168,109278
27.960,184522,168,109257
27.965,184527,168,109265
27.970,184501,168,109280
27.975,184549,168,109286
27.980,184545,168,109279
27.985,184553,168,109270
27.990,184557,168,109278
27.995,184569,168,109273
28.000,184552,168,109278
28.005,184561,168,109291
28.010,184583,168,109286
28.015,184588,168,109290
28.020,184580,168,109302
28.025,184583,168,109301
28.030,184605,168,109301
28.035,184610,168,109314
28.040,184609,168,109295
28.044,184625,168,109312
28.049,184624,168,109314
28.054,184632,168,109327
28.059,184648,168,109332
28.064,184637,168,109318
28.069,184643,168,109321
28.074,184661,168,109333
28.079,184673,168,109335
28.084,184683,168,109330
28.089,184674,168,109334
28.094,184674,168,109350
28.099,184699,168,109343
28.104,184700,168,109343
28.109,184714,168,109356
28.114,184705,168,109349
28.119,184712,168,109353
28.124,184737,168,109368
28.129,184743,168,109367
28.134,184737,168,109372
28.139,184744,168,109373
28.144,184749,168,109377
28.149,184772,168,109366
28.154,184756,168,109382
28.159,184786,168,109392
28.164,184780,168,109382
28.169,184778,168,109386
28.174,184800,168,109406
28.179,184813,168,109398
28.183,184831,168,109405
28.188,184831,168,109401
28.193,184821,168,109407
28.198,184845,168,109411
28.203,184843,168,109403
28.208,184848,168,109413
28.213,184837,168,109419
28.218,184839,168,109418
28.223,184838,168,109415
28.228,184823,168,109415
28.233,184825,168,109408
28.238,184791,168,109397
28.243,184768,168,109390
28.248,184750,168,109380
28.253,184727,168,109367
28.258,184708,168,109372
28.263,184710,168,109362
28.268,184666,168,109359
28.273,184656,168,109341
28.278,184650,168,109342
28.283,184637,168,109340
28.288,184628,168,109342
28.293,184588,168,109334
28.298,184601,168,109333
28.303,184575,168,109329
28.308,184577,168,109316
28.313,184561,168,109333
28.317,184566,168,109329
28.322,184545,168,109312
28.327,184557,168,109319
28.332,184557,168,109316
28.337,184537,168,109313
28.342,184538,168,109305
28.347,184532,168,109320
28.352,184526,168,109305
28.357,184521,168,109323
28.362,184529,168,109313
28.367,184518,168,109307
28.372,184520,168,109300
28.377,184509,168,109303
28.382,184503,168,109304
28.387,184493,168,109307
28.392,184490,168,109294
28.397,184469,168,109293
28.402,184485,168,109294
28.407,184456,168,109277
28.412,184456,168,109282
28.417,184471,168,109284
28.422,184452,168,109273
28.427,184443,168,109284
28.432,184452,168,109272
28.437,184458,168,109284
28.442,184459,168,109282
28.447,184455,168,109272
28.451,184459,168,109266
28.456,184467,168,109241
28.461,184455,168,109277
28.466,184475,168,109283
28.471,184452,168,109286
28.476,184459,168,109284
28.481,184454,168,109267
28.486,184454,168,109288
28.491,184471,168,109278
28.496,184471,168,109266
28.501,184445,168,109267
28.506,184443,168,109271
28.511,184439,168,109271
28.516,184439,168,109266
28.521,184440,168,109270
28.526,184444,168,109266
28.531,184447,168,109275
28.536,184447,168,109258
28.541,184438,168,109263
28.546,184439,168,109265
28.551,184436,168,109263
28.556,184445,168,109257
28.561,184448,168,109259
28.566,184444,168,109255
28.571,184444,168,109266
28.576,184438,168,109271
28.581,184439,168,109255
28.585,184447,168,109256
28.590,184442,168,109262
28.595,184453,168,109276
28.600,184465,168,109264
28.605,184489,168,109260
28.610,184461,168,109265
28.615,184465,168,109269
28.620,184462,168,109267
28.625,184471,168,109262
28.630,184470,168,109268
28.635,184475,168,109265
28.640,184465,168,109272
28.645,184496,168,109274
28.650,184485,168,109272
28.655,184496,168,109276
28.660,184504,168,109272
28.665,184486,168,109271
28.670,184497,168,109276
28.675,184498,168,109287
28.680,184516,168,109262
28.685,184505,168,109278
28.690,184519,168,109262
28.695,184530,168,109272
28.700,184526,168,109272
28.705,184517,168,109293
28.710,184538,168,109283
28.715,184542,168,109285
28.719,184549,168,109286
28.724,184560,168,109292
28.729,184577,168,109296
28.734,184568,168,109294
28.739,184581,168,109300
28.744,184587,168,109304
28.749,184615,168,109345
28.754,184606,168,109315
28.759,184595,168,109301
28.764,184608,168,109315
28.769,184623,168,109312
28.774,184642,168,109319
28.779,184627,168,109315
28.784,184630,168,109319
28.789,184650,168,109322
28.794,184644,168,109327
28.799,184662,168,109318
28.804,184652,168,109323
28.809,184661,168,109332
28.814,184688,168,109327
28.819,184700,168,109336
28.824,184680,168,109333
28.829,184699,168,109342
28.834,184713,168,109345
28.839,184698,168,109343
28.844,184713,168,109339
28.849,184714,168,109352
28.853,184734,168,109357
28.858,184729,168,109362
28.863,184742,168,109353
28.868,184730,168,109348
28.873,184756,168,109357
28.878,184771,168,109347
28.883,184769,168,109353
28.888,184779,168,109362
28.893,184767,168,109352
28.898,184771,168,109357
28.903,184786,168,109365
28.908,184796,168,109369
28.913,184798,168,109374
28.918,184805,168,109365
28.923,184819,168,109379
28.928,184823,168,109359
28.933,184808,168,109362
28.938,184825,168,109372
28.943,184803,168,109364
28.948,184797,168,109360
28.953,184800,168,109355
28.958,184798,168,109356
28.963,184760,168,109339
28.968,184754,168,109342
28.973,184731,168,109338
28.978,184733,168,109326
28.983,184702,168,109317
28.988,184697,168,109316
28.992,184678,168,109312
28.997,184668,168,109307
29.002,184637,168,109310
29.007,184669,168,109302
29.012,184630,168,109301
29.017,184628,168,109291
29.022,184623,168,109301
29.027,184601,168,109301
29.032,184606,168,109291
29.037,184606,168,109299
29.042,184604,168,109269
29.047,184605,168,109300
29.052,184602,168,109305
29.057,184607,168,109301
29.062,184595,168,109298
29.067,184600,168,109302
29.072,184606,168,109301
29.077,184603,168,109297
29.082,184622,168,109310
29.087,184606,168,109304
29.092,184607,168,109297
29.097,184616,168,109302
29.102,184604,168,109309
29.107,184611,168,109304
29.112,184599,168,109304
29.117,184609,168,109302
29.122,184603,168,109300
29.126,184613,168,109303
29.131,184587,168,109292
29.136,184596,168,109307
29.141,184612,168,109302
29.146,184607,168,109308
29.151,184623,168,109299
29.156,184613,168,109303
29.161,184637,168,109316
29.166,184622,168,109307
29.171,184637,168,109306
29.176,184630,168,109313
29.181,184636,168,109311
29.186,184651,168,109321
29.191,184647,168,109325
29.196,184663,168,109323
29.201,184661,168,109329
29.206,184652,168,109329
29.211,184650,168,109326
29.216,184652,168,109328
29.221,184674,168,109328
29.226,184662,168,109334
29.231,184669,168,109329
29.236,184674,168,109337
29.241,184659,168,109328
29.246,184662,168,109343
29.251,184675,168,109342
29.256,184684,168,109335
29.260,184669,168,109335
29.265,184682,168,109343
29.270,184693,168,109346
29.275,184669,168,109341
29.280,184684,168,109337
29.285,184682,168,109343
29.290,184691,168,109341
29.295,184694,168,109356
29.300,184690,168,109357
29.305,184718,168,109358
29.310,184710,168,109348
29.315,184720,168,109360
29.320,184739,168,109364
29.325,184713,168,109374
29.330,184734,168,109365
29.335,184746,168,109351
29.340,184741,168,109374
29.345,184738,168,109365
29.350,184751,168,109365
29.355,184764,168,109367
29.360,184761,168,109373
29.365,184758,168,109368
29.370,184771,168,109373
