df_hash,22ZHK4.V1TMJW
device,HZ2X61
project_hash,29R7
project_name,istanbul_aydin_university
person_hash,29R7.NQB8
person_label,V52
date_time_start,2025-10-30_18-35-51.808000_+03
date_time_start_unix,1761834951.808
date_time_end,2025-10-30_18-44-06.305000_+03
length_difference_noticed,no

time,ppg_med
5.663,476
5.688,547
5.713,660
5.738,721
5.763,697
5.788,672
5.813,737
5.838,857
5.863,903
5.888,829
5.913,751
5.938,792
5.963,903
5.988,910
6.013,752
6.038,584
6.063,575
6.088,658
6.113,598
6.138,316
6.163,22
6.188,-60
6.213,-22
6.238,-171
6.263,-609
6.288,-1060
6.313,-1230
6.338,-1237
6.363,-1480
6.388,-2090
6.413,-2707
6.438,-2952
6.463,-2975
6.488,-3289
6.513,-4057
6.538,-4818
6.563,-5088
6.588,-5060
6.613,-5381
6.638,-6257
6.663,-7102
6.688,-7307
6.713,-7114
6.738,-7338
6.763,-8234
6.788,-9066
6.813,-9074
6.838,-8560
6.863,-8544
6.888,-9344
6.913,-10041
6.938,-9689
6.963,-8666
6.988,-8245
7.013,-8823
7.038,-9259
7.063,-8371
7.088,-6633
7.113,-5638
7.138,-5892
7.163,-5965
7.188,-4374
7.213,-1714
7.238,-1
7.263,118
7.288,446
7.313,2878
7.338,6659
7.363,9197
7.388,9632
7.413,10290
7.438,13662
7.463,18783
7.488,22202
7.513,22715
7.538,23442
7.563,27844
7.588,32767
7.613,32767
7.638,32767
7.663,32767
7.688,32767
7.713,32767
7.738,32767
7.763,32767
7.788,32767
7.813,32767
7.838,32767
7.863,32767
7.888,32767
7.913,12644
7.938,-32768
7.963,-32768
7.988,-32768
8.013,-32768
8.038,-32768
8.063,-32768
8.088,-32768
8.113,-32768
8.138,-32768
8.163,-32768
8.188,-32768
8.213,-32768
8.238,-32768
8.263,-30465
8.288,-24663
8.313,-22681
8.338,-22606
8.363,-20496
8.388,-15716
8.413,-11337
8.438,-9705
8.463,-9464
8.488,-7749
8.513,-4111
8.538,-873
8.563,184
8.588,111
8.613,1141
8.638,3644
8.663,5823
8.688,6294
8.713,5887
8.738,6363
8.763,7998
8.788,9344
8.813,9297
8.838,8544
8.863,8520
8.888,9448
8.913,10145
8.938,9712
8.963,8729
8.988,8404
9.013,8956
9.038,9407
9.063,8958
9.088,7996
9.113,7470
9.138,7595
9.163,7644
9.188,7013
9.213,6020
9.238,5415
9.263,5364
9.288,5283
9.313,4681
9.338,3793
9.363,3215
9.388,3094
9.413,2991
9.438,2514
9.463,1820
9.488,1348
9.513,1227
9.538,1163
9.563,891
9.588,524
9.613,339
9.638,368
9.663,360
9.688,140
9.713,-161
9.738,-312
9.763,-290
9.788,-286
9.813,-423
9.838,-596
9.863,-645
9.888,-584
9.913,-573
9.938,-684
9.963,-804
9.988,-798
10.013,-704
10.038,-679
10.063,-782
10.088,-883
10.113,-818
10.138,-589
10.163,-359
10.188,-258
10.213,-255
10.238,-228
10.263,-127
10.288,-19
10.313,17
10.338,-2
10.363,0
10.388,68
10.413,158
10.438,202
10.463,188
10.488,149
10.513,94
10.538,73
10.563,92
10.588,111
10.613,85
10.638,14
10.663,-50
10.688,-46
10.713,41
10.738,169
10.763,275
10.788,331
10.813,353
10.838,368
10.863,386
10.888,391
10.913,378
10.938,356
10.963,344
10.988,347
11.013,350
11.038,339
11.063,309
11.088,269
11.113,230
11.138,203
11.163,193
11.188,194
11.213,181
11.238,122
11.263,19
11.288,-83
11.313,-121
11.338,-65
11.363,51
11.388,163
11.413,229
11.438,255
11.463,267
11.488,276
11.513,269
11.538,241
11.563,212
11.588,209
11.613,235
11.638,263
11.663,263
11.688,233
11.713,193
11.738,166
11.763,156
11.788,155
11.813,155
11.838,144
11.863,106
11.888,35
11.913,-43
11.938,-83
11.963,-47
11.988,56
12.013,176
12.038,261
12.063,301
12.088,317
12.113,326
12.138,327
12.163,306
12.188,267
12.213,232
12.238,222
12.263,234
12.288,245
12.313,237
12.338,208
12.363,173
12.388,150
12.413,144
12.438,145
12.463,134
12.488,92
12.513,26
12.538,-26
12.563,-21
12.588,58
12.613,181
12.638,283
12.663,323
12.688,315
12.713,303
12.738,316
12.763,343
12.788,350
12.813,323
12.838,283
12.863,258
12.888,249
12.913,234
12.938,193
12.963,135
12.988,91
13.013,84
13.038,95
13.063,87
13.088,31
13.113,-54
13.138,-118
13.163,-111
13.188,-28
13.213,89
13.238,184
13.263,223
13.288,222
13.313,213
13.338,215
13.363,215
13.388,191
13.413,144
13.438,100
13.463,83
13.488,86
13.513,79
13.538,41
13.563,-11
13.588,-47
13.613,-51
13.638,-48
13.663,-77
13.688,-146
13.713,-219
13.738,-238
13.763,-175
13.788,-52
13.813,78
13.838,172
13.863,220
13.888,244
13.913,271
13.938,306
13.963,338
13.988,359
14.013,382
14.038,437
14.063,537
14.088,660
14.113,758
14.138,804
14.163,824
14.188,874
14.213,980
14.238,1101
14.263,1165
14.288,1147
14.313,1104
14.338,1128
14.363,1243
14.388,1366
14.413,1361
14.438,1151
14.463,784
14.488,384
14.513,63
14.538,-146
14.563,-270
14.588,-343
14.613,-386
14.638,-413
14.663,-448
14.688,-510
14.713,-595
14.738,-680
14.763,-752
14.788,-825
14.813,-925
14.838,-1044
14.863,-1139
14.888,-1156
14.913,-1076
14.938,-922
14.963,-736
14.988,-538
15.013,-331
15.038,-123
15.063,59
15.088,184
15.113,249
15.138,284
15.163,329
15.188,392
15.213,440
15.238,433
15.263,373
15.288,306
15.313,290
15.338,333
15.363,388
15.388,396
15.413,352
15.438,313
15.463,347
15.488,462
15.513,603
15.538,706
15.563,755
15.588,778
15.613,795
15.638,779
15.663,696
15.688,558
15.713,437
15.738,402
15.763,449
15.788,504
15.813,503
15.838,453
15.863,411
15.888,412
15.913,422
15.938,390
15.963,317
15.988,264
16.013,286
16.038,365
16.063,427
16.088,413
16.113,334
16.138,246
16.163,182
16.188,129
16.213,57
16.238,-35
16.263,-123
16.288,-192
16.313,-255
16.338,-331
16.363,-415
16.388,-489
16.413,-547
16.438,-604
16.463,-673
16.488,-732
16.513,-733
16.538,-641
16.563,-456
16.588,-201
16.613,91
16.638,384
16.663,627
16.688,771
16.713,802
16.738,763
16.763,715
16.788,686
16.813,651
16.838,581
16.863,492
16.888,433
16.913,428
16.938,438
16.963,404
16.988,317
17.013,236
17.038,226
17.063,288
17.088,363
17.113,396
17.138,381
17.163,351
17.188,323
17.213,281
17.238,214
17.263,146
17.288,115
17.313,127
17.338,147
17.363,136
17.388,93
17.413,51
17.438,30
17.463,12
17.488,-27
17.513,-75
17.538,-85
17.563,-20
17.588,95
17.613,202
17.638,258
17.663,267
17.688,266
17.713,272
17.738,273
17.763,256
17.788,231
17.813,222
17.838,234
17.863,240
17.888,209
17.913,144
17.938,84
17.963,60
17.988,65
18.013,55
18.038,2
18.063,-67
18.088,-96
18.113,-43
18.138,71
18.163,188
18.188,258
18.213,284
18.238,298
18.263,322
18.288,342
18.313,334
18.338,302
18.363,275
18.388,276
18.413,290
18.438,285
18.463,248
18.488,203
18.513,179
18.538,173
18.563,156
18.588,112
18.613,63
18.638,45
18.663,60
18.688,66
18.713,27
18.738,-39
18.763,-70
18.788,-22
18.813,89
18.838,202
18.863,270
18.888,297
18.913,315
18.938,339
18.963,357
18.988,356
19.013,344
19.038,341
19.063,354
19.088,368
19.113,364
19.138,342
19.163,316
19.188,295
19.213,276
19.238,251
19.263,221
19.288,189
19.313,155
19.338,118
19.363,83
19.388,59
19.413,44
19.438,15
19.463,-41
19.488,-107
19.513,-130
19.538,-71
19.563,55
19.588,188
19.613,267
19.638,284
19.663,278
19.688,284
19.713,308
19.738,328
19.763,326
19.788,308
19.813,291
19.838,282
19.863,276
19.888,268
19.913,258
19.938,247
19.963,234
19.988,212
20.013,177
20.038,133
20.063,87
20.088,48
20.113,25
20.138,21
20.163,30
20.188,29
20.213,-2
20.238,-60
20.263,-105
20.288,-94
20.313,-13
20.338,105
20.363,215
20.388,290
20.413,333
20.438,361
20.463,373
20.488,356
20.513,306
20.538,249
20.563,220
20.588,237
20.613,279
20.638,306
20.663,293
20.688,245
20.713,186
20.738,139
20.763,112
20.788,103
20.813,110
20.838,126
20.863,130
20.888,97
20.913,21
20.938,-59
20.963,-89
20.988,-29
21.013,100
21.038,239
21.063,333
21.088,371
21.113,380
21.138,387
21.163,391
21.188,376
21.213,342
21.238,309
21.263,296
21.288,303
21.313,309
21.338,301
21.363,279
21.388,252
21.413,222
21.438,186
21.463,152
21.488,134
21.513,137
21.538,135
21.563,98
21.588,23
21.613,-45
21.638,-55
21.663,10
21.688,116
21.713,205
21.738,248
21.763,257
21.788,261
21.813,271
21.838,282
21.863,282
21.888,275
21.913,272
21.938,276
21.963,282
21.988,278
22.013,260
22.038,233
22.063,205
22.088,187
22.113,181
22.138,175
22.163,150
22.188,93
22.213,17
22.238,-37
22.263,-34
22.288,31
22.313,128
22.338,212
22.363,259
22.388,278
22.413,288
22.438,294
22.463,289
22.488,262
22.513,220
22.538,184
22.563,170
22.588,171
22.613,162
22.638,124
22.663,62
22.688,4
22.713,-26
22.738,-39
22.763,-68
22.788,-144
22.813,-251
22.838,-330
22.863,-324
22.888,-221
22.913,-71
22.938,63
22.963,159
22.988,237
23.013,329
23.038,431
23.063,503
23.088,506
23.113,446
23.138,370
23.163,323
23.188,308
23.213,290
23.238,241
23.263,169
23.288,118
23.313,123
23.338,173
23.363,217
23.388,215
23.413,177
23.438,155
23.463,195
23.488,296
23.513,406
23.538,478
23.563,501
23.588,508
23.613,536
23.638,585
23.663,626
23.688,637
23.713,624
23.738,619
23.763,648
23.788,699
23.813,732
23.838,693
23.863,558
23.888,350
23.913,133
23.938,-26
23.963,-108
23.988,-145
24.013,-190
24.038,-259
24.063,-318
24.088,-314
24.113,-231
24.138,-109
24.163,-7
24.188,51
24.213,80
24.238,104
24.263,121
24.288,108
24.313,59
24.338,-6
24.363,-57
24.388,-82
24.413,-93
24.438,-106
24.463,-128
24.488,-160
24.513,-201
24.538,-250
24.563,-297
24.588,-329
24.613,-348
24.638,-372
24.663,-415
24.688,-457
24.713,-447
24.738,-343
24.763,-157
24.788,54
24.813,228
24.838,342
24.863,413
24.888,467
24.913,509
24.938,532
24.963,532
24.988,526
25.013,535
25.038,561
25.063,586
25.088,587
25.113,555
25.138,508
25.163,473
25.188,458
25.213,447
25.238,412
25.263,340
25.288,250
25.313,179
25.338,153
25.363,175
25.388,231
25.413,316
25.438,434
25.463,579
25.488,726
25.513,840
25.538,906
25.563,939
25.588,964
25.613,989
25.638,1000
25.663,978
25.688,918
25.713,827
25.738,719
25.763,608
25.788,512
25.813,424
25.838,295
25.863,48
25.888,-355
25.913,-852
25.938,-1286
25.963,-1509
25.988,-1478
26.013,-1262
26.038,-956
26.063,-609
26.088,-241
26.113,92
26.138,290
26.163,283
26.188,126
26.213,-34
26.238,-86
26.263,-48
26.288,-29
26.313,-94
26.338,-194
26.363,-234
26.388,-189
26.413,-137
26.438,-160
26.463,-249
26.488,-313
26.513,-280
26.538,-168
26.563,-43
26.588,76
26.613,247
26.638,527
26.663,902
26.688,1285
26.713,1583
26.738,1748
26.763,1763
26.788,1615
26.813,1308
26.838,897
26.863,488
26.888,178
26.913,-10
26.938,-125
26.963,-217
26.988,-299
27.013,-357
27.038,-387
27.063,-396
27.088,-365
27.113,-245
27.138,-13
27.163,275
27.188,507
27.213,598
27.238,568
27.263,508
27.288,484
27.313,483
27.338,449
27.363,359
27.388,255
27.413,186
27.438,163
27.463,151
27.488,119
27.513,75
27.538,49
27.563,59
27.588,97
27.613,149
27.638,199
27.663,240
27.688,264
27.713,276
27.738,289
27.763,308
27.788,313
27.813,264
27.838,147
27.863,-8
27.888,-152
27.913,-258
27.938,-342
27.963,-430
27.988,-510
28.013,-540
28.038,-496
28.063,-405
28.088,-323
28.113,-280
28.138,-254
28.163,-200
28.188,-104
28.213,14
28.238,128
28.263,233
28.288,344
28.313,464
28.338,567
28.363,618
28.388,605
28.413,544
28.438,472
28.463,418
28.488,390
28.513,378
28.538,364
28.563,339
28.588,307
28.613,276
28.638,251
28.663,227
28.688,197
28.713,164
28.738,146
28.763,159
28.788,212
28.813,299
28.838,405
28.863,499
28.888,543
28.913,508
28.938,400
28.963,279
28.988,216
29.013,247
29.038,339
29.063,426
29.088,471
29.113,487
29.138,510
29.163,546
29.188,567
29.213,545
29.238,487
29.263,431
29.288,400
29.313,388
29.338,363
29.363,306
29.388,220
29.413,121
29.438,26
29.463,-54
29.488,-122
29.513,-186
29.538,-255
29.563,-318
29.588,-334
29.613,-254
29.638,-73
29.663,150
29.688,324
29.713,390
29.738,361
29.763,299
29.788,248
29.813,213
29.838,170
29.863,115
29.888,65
29.913,41
29.938,41
29.963,45
29.988,32
30.013,-2
30.038,-47
30.063,-83
30.088,-94
30.113,-80
30.138,-64
30.163,-83
30.188,-149
30.213,-228
30.238,-250
30.263,-168
30.288,1
30.313,191
30.338,336
30.363,416
30.388,454
30.413,470
30.438,469
30.463,446
30.488,414
30.513,393
30.538,388
30.563,385
30.588,368
30.613,337
30.638,301
30.663,263
30.688,214
30.713,156
30.738,106
30.763,78
30.788,58
30.813,9
30.838,-81
30.863,-173
30.888,-199
30.913,-122
30.938,27
30.963,181
30.988,285
31.013,337
31.038,362
31.063,379
31.088,390
31.113,388
31.138,376
31.163,362
31.188,347
31.213,330
31.238,310
31.263,288
31.288,262
31.313,227
31.338,187
31.363,156
31.388,148
31.413,147
31.438,120
31.463,50
31.488,-29
31.513,-55
31.538,13
31.563,156
31.588,301
31.613,388
31.638,412
31.663,410
31.688,414
31.713,421
31.738,410
31.763,371
31.788,324
31.813,295
31.838,290
31.863,290
31.888,270
31.913,224
31.938,170
31.963,132
31.988,119
32.013,111
32.038,79
32.063,11
32.088,-65
32.113,-105
32.138,-71
32.163,27
32.188,144
32.213,225
32.238,254
32.263,252
32.288,251
32.313,260
32.338,262
32.363,243
32.388,209
32.413,185
32.438,187
32.463,199
32.488,191
32.513,149
32.538,96
32.563,64
32.588,67
32.613,77
32.638,56
32.663,-7
32.688,-75
32.713,-88
32.738,-16
32.763,114
32.788,243
32.813,322
32.838,346
32.863,347
32.888,350
32.913,356
32.938,346
32.963,309
32.988,264
33.013,238
33.038,240
33.063,248
33.088,232
33.113,184
33.138,128
33.163,98
33.188,101
33.213,105
33.238,73
33.263,-3
33.288,-84
33.313,-109
33.338,-53
33.363,58
33.388,171
33.413,244
33.438,277
33.463,295
33.488,313
33.513,326
33.538,320
33.563,297
33.588,269
33.613,254
33.638,252
33.663,252
33.688,239
33.713,208
33.738,168
33.763,137
33.788,127
33.813,131
33.838,121
33.863,72
33.888,-10
33.913,-77
33.938,-71
33.963,28
33.988,176
34.013,296
34.038,346
34.063,342
34.088,332
34.113,340
34.138,349
34.163,335
34.188,297
34.213,263
34.238,254
34.263,260
34.288,256
34.313,229
34.338,189
34.363,152
34.388,127
34.413,111
34.438,100
34.463,88
34.488,60
34.513,3
34.538,-68
34.563,-113
34.588,-85
34.613,14
34.638,137
34.663,221
34.688,250
34.713,255
34.738,272
34.763,299
34.788,308
34.813,287
34.838,260
34.863,258
34.888,280
34.913,294
34.938,277
34.963,243
34.988,221
35.013,221
35.038,220
35.063,197
35.088,161
35.113,139
35.138,137
35.163,126
35.188,75
35.213,0
35.238,-39
35.263,-1
35.288,106
35.313,228
35.338,320
35.363,376
35.388,417
35.413,445
35.438,442
35.463,398
35.488,340
35.513,308
35.538,316
35.563,333
35.588,320
35.613,273
35.638,219
35.663,184
35.688,161
35.713,127
35.738,79
35.763,45
35.788,39
35.813,39
35.838,5
35.863,-68
35.888,-128
35.913,-108
35.938,1
35.963,139
35.988,227
36.013,243
36.038,226
36.063,224
36.088,244
36.113,255
36.138,238
36.163,209
36.188,197
36.213,209
36.238,221
36.263,210
36.288,180
36.313,151
36.338,133
36.363,121
36.388,106
36.413,92
36.438,85
36.463,72
36.488,35
36.513,-22
36.538,-57
36.563,-26
36.588,75
36.613,199
36.638,289
36.663,326
36.688,337
36.713,351
36.738,366
36.763,364
36.788,338
36.813,308
36.838,298
36.863,304
36.888,307
36.913,288
36.938,255
36.963,221
36.988,195
37.013,173
37.038,152
37.063,135
37.088,116
37.113,79
37.138,17
37.163,-45
37.188,-64
37.213,-9
37.238,97
37.263,200
37.288,259
37.313,277
37.338,290
37.363,313
37.388,332
37.413,323
37.438,291
37.463,263
37.488,259
37.513,270
37.538,268
37.563,243
37.588,206
37.613,176
37.638,157
37.663,144
37.688,131
37.713,115
37.738,90
37.763,45
37.788,-17
37.813,-66
37.838,-58
37.863,20
37.888,135
37.913,232
37.938,281
37.963,297
37.988,314
38.013,339
38.038,352
38.063,335
38.088,300
38.113,278
38.138,283
38.163,299
38.188,295
38.213,266
38.238,228
38.263,200
38.288,182
38.313,163
38.338,138
38.363,113
38.388,88
38.413,49
38.438,-8
38.463,-64
38.488,-75
38.513,-18
38.538,85
38.563,183
38.588,238
38.613,256
38.638,267
38.663,284
38.688,293
38.713,280
38.738,256
38.763,247
38.788,261
38.813,277
38.838,267
38.863,233
38.888,199
38.913,187
38.938,188
38.963,179
38.988,152
39.013,125
39.038,105
39.063,81
39.088,31
39.113,-32
39.138,-66
39.163,-30
39.188,71
39.213,186
39.238,263
39.263,294
39.288,301
39.313,308
39.338,312
39.363,303
39.388,281
39.413,262
39.438,256
39.463,255
39.488,246
39.513,229
39.538,209
39.563,190
39.588,165
39.613,137
39.638,115
39.663,107
39.688,96
39.713,57
39.738,-6
39.763,-52
39.788,-29
39.813,71
39.838,199
39.863,289
39.888,318
39.913,315
39.938,319
39.963,334
39.988,335
40.013,309
40.038,269
40.063,242
40.088,237
40.113,239
40.138,229
40.163,204
40.188,175
40.213,151
40.238,134
40.263,122
40.288,112
40.313,91
40.338,50
40.363,-4
40.388,-42
40.413,-26
40.438,53
40.463,163
40.488,251
40.513,293
40.538,305
40.563,313
40.588,325
40.613,324
40.638,303
40.663,274
40.688,260
40.713,266
40.738,275
40.763,267
40.788,239
40.813,202
40.838,169
40.863,147
40.888,132
40.913,117
40.938,89
40.963,38
40.988,-28
41.013,-75
41.038,-63
41.063,13
41.088,121
41.113,206
41.138,247
41.163,262
41.188,281
41.213,309
41.238,323
41.263,309
41.288,280
41.313,263
41.338,265
41.363,271
41.388,259
41.413,229
41.438,198
41.463,178
41.488,166
41.513,154
41.538,140
41.563,122
41.588,89
41.613,35
41.638,-21
41.663,-42
41.688,4
41.713,107
41.738,213
41.763,276
41.788,295
41.813,302
41.838,323
41.863,346
41.888,344
41.913,313
41.938,279
41.963,267
41.988,277
42.013,281
42.038,264
42.063,233
42.088,207
42.113,189
42.138,168
42.163,138
42.188,111
42.213,96
42.238,81
42.263,43
42.288,-21
42.313,-78
42.338,-79
42.363,-9
42.388,98
42.413,191
42.438,239
42.463,255
42.488,265
42.513,279
42.538,287
42.563,276
42.588,254
42.613,241
42.638,247
42.663,259
42.688,254
42.713,228
42.738,194
42.763,174
42.788,169
42.813,161
42.838,137
42.863,102
42.888,76
42.913,62
42.938,43
42.963,-3
42.988,-70
43.013,-106
43.038,-64
43.063,59
43.088,210
43.113,318
43.138,356
43.163,355
43.188,356
43.213,373
43.238,381
43.263,358
43.288,317
43.313,288
43.338,284
43.363,288
43.388,273
43.413,238
43.438,202
43.463,179
43.488,160
43.513,132
43.538,101
43.563,82
43.588,76
43.613,53
43.638,-7
43.663,-84
43.688,-114
43.713,-51
43.738,81
43.763,214
43.788,288
43.813,304
43.838,305
43.863,323
43.888,345
43.913,346
43.938,320
43.963,290
43.988,277
44.013,278
44.038,274
44.063,257
44.088,233
44.113,210
44.138,187
44.163,165
44.188,149
44.213,143
44.238,134
44.263,99
44.288,32
44.313,-29
44.338,-32
44.363,42
44.388,157
44.413,249
44.438,286
44.463,285
44.488,284
44.513,295
44.538,302
44.563,286
44.588,256
44.613,235
44.638,238
44.663,251
44.688,250
44.713,227
44.738,190
44.763,157
44.788,138
44.813,130
44.838,118
44.863,90
44.888,40
44.913,-18
44.938,-53
44.963,-34
44.988,40
45.013,138
45.038,215
45.063,249
45.088,255
45.113,260
45.138,275
45.163,291
45.188,296
45.213,287
45.238,275
45.263,265
45.288,255
45.313,236
45.338,207
45.363,174
45.388,145
45.413,125
45.438,115
45.463,107
45.488,87
45.513,43
45.538,-16
45.563,-57
45.588,-41
45.613,37
45.638,143
45.663,227
45.688,266
45.713,279
45.738,293
45.763,316
45.788,329
45.813,318
45.838,291
45.863,273
45.888,273
45.913,276
45.938,263
45.963,231
45.988,196
46.013,173
46.038,161
46.063,152
46.088,140
46.113,117
46.138,77
46.163,17
46.188,-42
46.213,-64
46.238,-20
46.263,78
46.288,184
46.313,254
46.338,280
46.363,288
46.388,304
46.413,322
46.438,321
46.463,298
46.488,271
46.513,263
46.538,273
46.563,276
46.588,258
46.613,227
46.638,203
46.663,191
46.688,181
46.713,159
46.738,132
46.763,107
46.788,83
46.813,44
46.838,-14
46.863,-65
46.888,-67
46.913,-2
46.938,105
46.963,201
46.988,253
47.013,266
47.038,272
47.063,289
47.088,308
47.113,310
47.138,293
47.163,273
47.188,269
47.213,279
47.238,288
47.263,280
47.288,258
47.313,235
47.338,215
47.363,194
47.388,163
47.413,128
47.438,100
47.463,78
47.488,47
47.513,-2
47.538,-57
47.563,-76
47.588,-29
47.613,72
47.638,179
47.663,245
47.688,266
47.713,271
47.738,286
47.763,309
47.788,316
47.813,300
47.838,277
47.863,271
47.888,278
47.913,278
47.938,256
47.963,226
47.988,210
48.013,208
48.038,199
48.063,171
48.088,136
48.113,117
48.138,109
48.163,81
48.188,17
48.213,-48
48.238,-57
48.263,20
48.288,144
48.313,240
48.338,270
48.363,257
48.388,252
48.413,272
48.438,293
48.463,285
48.488,255
48.513,232
48.538,231
48.563,238
48.588,229
48.613,206
48.638,186
48.663,183
48.688,184
48.713,172
48.738,149
48.763,125
48.788,104
48.813,71
48.838,20
48.863,-23
48.888,-20
48.913,47
48.938,153
48.963,244
48.988,291
49.013,303
49.038,304
49.063,307
49.088,303
49.113,286
49.138,264
49.163,251
49.188,250
49.213,252
49.238,249
49.263,239
49.288,222
49.313,199
49.338,168
49.363,139
49.388,118
49.413,100
49.438,68
49.463,14
49.488,-36
49.513,-43
49.538,14
49.563,111
49.588,200
49.613,248
49.638,264
49.663,274
49.688,289
49.713,299
49.738,292
49.763,272
49.788,255
49.813,250
49.838,252
49.863,249
49.888,235
49.913,210
49.938,180
49.963,152
49.988,136
50.013,132
50.038,125
50.063,92
50.088,29
50.113,-30
50.138,-39
50.163,24
50.188,131
50.213,226
50.238,275
50.263,291
50.288,301
50.313,317
50.338,324
50.363,309
50.388,279
50.413,257
50.438,252
50.463,251
50.488,242
50.513,221
50.538,197
50.563,173
50.588,149
50.613,129
50.638,123
50.663,128
50.688,121
50.713,78
50.738,9
50.763,-38
50.788,-18
50.813,69
50.838,172
50.863,238
50.888,254
50.913,251
50.938,258
50.963,275
50.988,282
51.013,264
51.038,234
51.063,212
51.088,208
51.113,213
51.138,212
51.163,197
51.188,171
51.213,143
51.238,125
51.263,119
51.288,114
51.313,87
51.338,30
51.363,-29
51.388,-43
51.413,16
51.438,127
51.463,233
51.488,287
51.513,295
51.538,296
51.563,315
51.588,339
51.613,337
51.638,300
51.663,254
51.688,231
51.713,235
51.738,242
51.763,229
51.788,197
51.813,174
51.838,178
51.863,201
51.888,207
51.913,165
51.938,80
51.963,-6
51.988,-39
52.013,3
52.038,103
52.063,206
52.088,270
52.113,291
52.138,292
52.163,295
52.188,299
52.213,291
52.238,267
52.263,241
52.288,231
52.313,238
52.338,243
52.363,228
52.388,192
52.413,151
52.438,123
52.463,113
52.488,112
52.513,98
52.538,59
52.563,2
52.588,-41
52.613,-38
52.638,25
52.663,125
52.688,218
52.713,272
52.738,290
52.763,294
52.788,300
52.813,300
52.838,284
52.863,257
52.888,236
52.913,232
52.938,236
52.963,229
52.988,207
53.013,179
53.038,156
53.063,141
53.088,130
53.113,118
53.138,102
53.163,73
53.188,25
53.213,-25
53.238,-42
53.263,6
53.288,109
53.313,214
53.338,273
53.363,283
53.388,280
53.413,291
53.438,307
53.463,301
53.488,268
53.513,239
53.538,239
53.563,257
53.588,261
53.613,234
53.638,196
53.663,173
53.688,167
53.713,155
53.738,129
53.763,104
53.788,96
53.813,84
53.838,29
53.863,-72
53.888,-167
53.913,-185
53.938,-112
53.963,-5
53.988,68
54.013,96
54.038,117
54.063,168
54.088,236
54.113,276
54.138,273
54.163,255
54.188,258
54.213,286
54.238,311
54.263,314
54.288,302
54.313,295
54.338,298
54.363,294
54.388,275
54.413,254
54.438,246
54.463,244
54.488,232
54.513,205
54.538,185
54.563,195
54.588,233
54.613,278
54.638,315
54.663,352
54.688,407
54.713,477
54.738,539
54.763,578
54.788,601
54.813,624
54.838,647
54.863,649
54.888,618
54.913,571
54.938,535
54.963,520
54.988,506
55.013,470
55.038,402
55.063,312
55.088,206
55.113,91
55.138,-9
55.163,-60
55.188,-37
55.213,32
55.238,91
55.263,96
55.288,60
55.313,34
55.338,45
55.363,69
55.388,65
55.413,21
55.438,-38
55.463,-93
55.488,-156
55.513,-252
55.538,-375
55.563,-485
55.588,-543
55.613,-562
55.638,-583
55.663,-625
55.688,-646
55.713,-582
55.738,-412
55.763,-178
55.788,47
55.813,229
55.838,374
55.863,494
55.888,571
55.913,570
55.938,487
55.963,364
55.988,262
56.013,207
56.038,177
56.063,135
56.088,75
56.113,25
56.138,11
56.163,15
56.188,-12
56.213,-106
56.238,-243
56.263,-349
56.288,-357
56.313,-248
56.338,-60
56.363,150
56.388,347
56.413,507
56.438,607
56.463,618
56.488,527
56.513,372
56.538,225
56.563,147
56.588,144
56.613,169
56.638,165
56.663,115
56.688,40
56.713,-21
56.738,-54
56.763,-66
56.788,-70
56.813,-64
56.838,-31
56.863,49
56.888,188
56.913,372
56.938,560
56.963,699
56.988,759
57.013,755
57.038,750
57.063,811
57.088,950
57.113,1104
57.138,1178
57.163,1123
57.188,984
57.213,867
57.238,852
57.263,910
57.288,911
57.313,722
57.338,325
57.363,-147
57.388,-495
57.413,-594
57.438,-472
57.463,-268
57.488,-107
57.513,-12
57.538,70
57.563,179
57.588,287
57.613,334
57.638,312
57.663,276
57.688,287
57.713,341
57.738,378
57.763,351
57.788,287
57.813,246
57.838,248
57.863,252
57.888,212
57.913,150
57.938,140
57.963,227
57.988,366
58.013,470
58.038,499
58.063,495
58.088,526
58.113,594
58.138,643
58.163,624
58.188,555
58.213,475
58.238,378
58.263,207
58.288,-61
58.313,-351
58.338,-536
58.363,-571
58.388,-551
58.413,-614
58.438,-785
58.463,-931
58.488,-894
58.513,-662
58.538,-400
58.563,-294
58.588,-383
58.613,-536
58.638,-590
58.663,-493
58.688,-317
58.713,-165
58.738,-74
58.763,-7
58.788,88
58.813,237
58.838,430
58.863,631
58.888,780
58.913,812
58.938,698
58.963,495
58.988,320
59.013,271
59.038,342
59.063,444
59.088,482
59.113,438
59.138,355
59.163,279
59.188,213
59.213,141
59.238,74
59.263,48
59.288,84
59.313,156
59.338,214
59.363,231
59.388,218
59.413,200
59.438,176
59.463,128
59.488,59
59.513,4
59.538,5
59.563,72
59.588,174
59.613,275
59.638,358
59.663,419
59.688,445
59.713,414
59.738,328
59.763,235
59.788,202
59.813,257
59.838,357
59.863,425
59.888,418
59.913,358
59.938,303
59.963,279
59.988,261
60.013,211
60.038,130
60.063,71
60.088,85
60.113,172
60.138,278
60.163,348
60.188,373
60.213,379
60.238,384
60.263,370
60.288,304
60.313,190
60.338,76
60.363,18
60.388,28
60.413,67
60.438,91
60.463,94
60.488,102
60.513,128
60.538,151
60.563,138
60.588,96
60.613,77
60.638,137
60.663,271
60.688,416
60.713,501
60.738,509
60.763,470
60.788,426
60.813,383
60.838,323
60.863,244
60.888,171
60.913,140
60.938,153
60.963,181
60.988,188
61.013,168
61.038,138
61.063,113
61.088,82
61.113,29
61.138,-43
61.163,-103
61.188,-104
61.213,-28
61.238,103
61.263,244
61.288,354
61.313,419
61.338,444
61.363,441
61.388,418
61.413,379
61.438,332
61.463,293
61.488,276
61.513,276
61.538,270
61.563,236
61.588,171
61.613,102
61.638,58
61.663,42
61.688,21
61.713,-35
61.738,-120
61.763,-176
61.788,-145
61.813,-24
61.838,130
61.863,244
61.888,283
61.913,275
61.938,263
61.963,263
61.988,257
62.013,231
62.038,200
62.063,195
62.088,221
62.113,249
62.138,243
62.163,202
62.188,165
62.213,157
62.238,166
62.263,150
62.288,92
62.313,35
62.338,44
62.363,151
62.388,316
62.413,464
62.438,541
62.463,551
62.488,532
62.513,510
62.538,484
62.563,439
62.588,380
62.613,330
62.638,309
62.663,307
62.688,293
62.713,243
62.738,160
62.763,70
62.788,-8
62.813,-82
62.838,-171
62.863,-277
62.888,-372
62.913,-409
62.938,-368
62.963,-276
62.988,-193
63.013,-172
63.038,-226
63.063,-327
63.088,-433
63.113,-513
63.138,-551
63.163,-544
63.188,-498
63.213,-434
63.238,-373
63.263,-318
63.288,-248
63.313,-133
63.338,25
63.363,185
63.388,287
63.413,315
63.438,315
63.463,363
63.488,508
63.513,737
63.538,1000
63.563,1251
63.588,1471
63.613,1653
63.638,1774
63.663,1799
63.688,1714
63.713,1552
63.738,1374
63.763,1225
63.788,1105
63.813,979
63.838,828
63.863,678
63.888,582
63.913,564
63.938,575
63.963,517
63.988,313
64.013,-23
64.038,-392
64.063,-681
64.088,-835
64.113,-882
64.138,-883
64.163,-876
64.188,-856
64.213,-806
64.238,-730
64.263,-649
64.288,-571
64.313,-483
64.338,-367
64.363,-236
64.388,-124
64.413,-60
64.438,-36
64.463,-21
64.488,3
64.513,21
64.538,6
64.563,-38
64.588,-65
64.613,-24
64.638,94
64.663,243
64.688,358
64.713,407
64.738,408
64.763,399
64.788,394
64.813,379
64.838,342
64.863,295
64.888,271
64.913,283
64.938,308
64.963,308
64.988,271
65.013,228
65.038,217
65.063,243
65.088,263
65.113,233
65.138,157
65.163,91
65.188,94
65.213,179
65.238,300
65.263,398
65.288,443
65.313,445
65.338,434
65.363,420
65.388,402
65.413,371
65.438,335
65.463,306
65.488,294
65.513,290
65.538,275
65.563,237
65.588,182
65.613,135
65.638,118
65.663,124
65.688,119
65.713,72
65.738,-8
65.763,-68
65.788,-51
65.813,50
65.838,184
65.863,283
65.888,322
65.913,328
65.938,339
65.963,357
65.988,353
66.013,314
66.038,258
66.063,226
66.088,229
66.113,244
66.138,240
66.163,209
66.188,171
66.213,145
66.238,129
66.263,114
66.288,94
66.313,69
66.338,33
66.363,-17
66.388,-66
66.413,-74
66.438,-11
66.463,112
66.488,239
66.513,318
66.538,340
66.563,338
66.588,339
66.613,340
66.638,321
66.663,282
66.688,248
66.713,240
66.738,246
66.763,236
66.788,193
66.813,134
66.838,86
66.863,61
66.888,48
66.913,39
66.938,28
66.963,11
66.988,-24
67.013,-80
67.038,-126
67.063,-115
67.088,-25
67.113,109
67.138,221
67.163,269
67.188,267
67.213,260
67.238,267
67.263,270
67.288,249
67.313,216
67.338,203
67.363,222
67.388,245
67.413,240
67.438,200
67.463,151
67.488,120
67.513,106
67.538,97
67.563,91
67.588,94
67.613,101
67.638,91
67.663,54
67.688,17
67.713,34
67.738,129
67.763,269
67.788,386
67.813,442
67.838,450
67.863,448
67.888,451
67.913,444
67.938,415
67.963,381
67.988,368
68.013,380
68.038,388
68.063,368
68.088,320
68.113,272
68.138,243
68.163,228
68.188,213
68.213,188
68.238,154
68.263,106
68.288,40
68.313,-30
68.338,-67
68.363,-33
68.388,66
68.413,179
68.438,245
68.463,238
68.488,185
68.513,126
68.538,77
68.563,30
68.588,-24
68.613,-76
68.638,-107
68.663,-116
68.688,-126
68.713,-160
68.738,-223
68.763,-286
68.788,-310
68.813,-270
68.838,-177
68.863,-68
68.888,16
68.913,63
68.938,97
68.963,162
68.988,284
69.013,446
69.038,599
69.063,696
69.088,723
69.113,694
69.138,631
69.163,547
69.188,454
69.213,370
69.238,318
69.263,308
69.288,328
69.313,346
69.338,342
69.363,316
69.388,286
69.413,267
69.438,261
69.463,253
69.488,226
69.513,167
69.538,88
69.563,23
69.588,18
69.613,97
69.638,238
69.663,382
69.688,472
69.713,498
69.738,495
69.763,503
69.788,530
69.813,547
69.838,537
69.863,521
69.888,532
69.913,569
69.938,566
69.963,447
69.988,200
70.013,-93
70.038,-315
70.063,-408
70.088,-412
70.113,-412
70.138,-442
70.163,-454
70.188,-375
70.213,-193
70.238,17
70.263,155
70.288,181
70.313,135
70.338,89
70.363,75
70.388,75
70.413,63
70.438,42
70.463,43
70.488,81
70.513,135
70.538,166
70.563,156
70.588,121
70.613,96
70.638,90
70.663,83
70.688,48
70.713,-14
70.738,-70
70.763,-73
70.788,-5
70.813,110
70.838,224
70.863,295
70.888,314
70.913,306
70.938,296
70.963,287
70.988,263
71.013,219
71.038,175
71.063,161
71.088,185
71.113,222
71.138,240
71.163,233
71.188,225
71.213,237
71.238,260
71.263,259
71.288,218
71.313,168
71.338,165
71.363,238
71.388,363
71.413,480
71.438,545
71.463,557
71.488,542
71.513,522
71.538,498
71.563,460
71.588,408
71.613,358
71.638,323
71.663,306
71.688,289
71.713,252
71.738,194
71.763,132
71.788,92
71.813,79
71.838,72
71.863,34
71.888,-43
71.913,-123
71.938,-147
71.963,-83
71.988,39
72.013,155
72.038,216
72.063,223
72.088,214
72.113,214
72.138,215
72.163,196
72.188,156
72.213,117
72.238,100
72.263,97
72.288,85
72.313,52
72.338,9
72.363,-26
72.388,-53
72.413,-80
72.438,-107
72.463,-129
72.488,-145
72.513,-166
72.538,-197
72.563,-213
72.588,-164
72.613,-22
72.638,178
72.663,361
72.688,465
72.713,496
72.738,503
72.763,528
72.788,565
72.813,584
72.838,576
72.863,570
72.888,596
72.913,644
72.938,671
72.963,643
72.988,571
73.013,498
73.038,454
73.063,431
73.088,402
73.113,354
73.138,302
73.163,259
73.188,216
73.213,149
73.238,50
73.263,-45
73.288,-90
73.313,-61
73.338,14
73.363,85
73.388,116
73.413,109
73.438,94
73.463,88
73.488,87
73.513,72
73.538,42
73.563,12
73.588,2
73.613,12
73.638,20
73.663,8
73.688,-20
73.713,-46
73.738,-55
73.763,-49
73.788,-49
73.813,-63
73.838,-82
73.863,-90
73.888,-86
73.913,-86
73.938,-98
73.963,-104
73.988,-68
74.013,32
74.038,178
74.063,322
74.088,429
74.113,502
74.138,562
74.163,617
74.188,650
74.213,641
74.238,602
74.263,565
74.288,546
74.313,528
74.338,476
74.363,381
74.388,272
74.413,182
74.438,117
74.463,60
74.488,4
74.513,-28
74.538,-19
74.563,18
74.588,37
74.613,15
74.638,-12
74.663,19
74.688,137
74.713,290
74.738,398
74.763,419
74.788,380
74.813,337
74.838,310
74.863,281
74.888,231
74.913,170
74.938,128
74.963,112
74.988,103
75.013,77
75.038,34
75.063,-8
75.088,-42
75.113,-72
75.138,-103
75.163,-134
75.188,-164
75.213,-205
75.238,-266
75.263,-327
75.288,-336
75.313,-254
75.338,-99
75.363,64
75.388,181
75.413,241
75.438,275
75.463,299
75.488,301
75.513,265
75.538,209
75.563,174
75.588,188
75.613,235
75.638,281
75.663,305
75.688,312
75.713,312
75.738,308
75.763,304
75.788,314
75.813,341
75.838,364
75.863,351
75.888,310
75.913,296
75.938,374
75.963,540
75.988,719
76.013,832
76.038,870
76.063,883
76.088,908
76.113,926
76.138,894
76.163,818
76.188,755
76.213,743
76.238,735
76.263,625
76.288,351
76.313,-41
76.338,-426
76.363,-694
76.388,-812
76.413,-819
76.438,-775
76.463,-728
76.488,-696
76.513,-666
76.538,-600
76.563,-467
76.588,-276
76.613,-72
76.638,97
76.663,231
76.688,354
76.713,476
76.738,567
76.763,598
76.788,597
76.813,632
76.838,738
76.863,854
76.888,875
76.913,750
76.938,532
76.963,326
76.988,186
77.013,90
77.038,0
77.063,-78
77.088,-97
77.113,-42
77.138,42
77.163,94
77.188,102
77.213,103
77.238,138
77.263,203
77.288,259
77.313,276
77.338,256
77.363,207
77.388,133
77.413,34
77.438,-65
77.463,-126
77.488,-126
77.513,-82
77.538,-39
77.563,-31
77.588,-57
77.613,-85
77.638,-85
77.663,-52
77.688,-3
77.713,31
77.738,32
77.763,9
77.788,3
77.813,64
77.838,208
77.863,397
77.888,556
77.913,627
77.938,609
77.963,538
77.988,453
78.013,366
78.038,275
78.063,189
78.088,132
78.113,121
78.138,140
78.163,155
78.188,138
78.213,92
78.238,46
78.263,26
78.288,27
78.313,21
78.338,-16
78.363,-77
78.388,-117
78.413,-88
78.438,19
78.463,165
78.488,282
78.513,332
78.538,328
78.563,311
78.588,312
78.613,319
78.638,308
78.663,274
78.688,241
78.713,235
78.738,254
78.763,269
78.788,256
78.813,224
78.838,200
78.863,200
78.888,213
78.913,210
78.938,170
78.963,107
78.988,55
79.013,50
79.038,105
79.063,199
79.088,290
79.113,339
79.138,340
79.163,321
79.188,317
79.213,340
79.238,369
79.263,382
79.288,383
79.313,402
79.338,456
79.363,518
79.388,533
79.413,478
79.438,404
79.463,402
79.488,526
79.513,725
79.538,870
79.563,854
79.588,675
79.613,431
79.638,236
79.663,134
79.688,80
79.713,14
79.738,-83
79.763,-175
79.788,-226
79.813,-237
79.838,-244
79.863,-266
79.888,-286
79.913,-273
79.938,-225
79.963,-173
79.988,-150
80.013,-153
80.038,-149
80.063,-112
80.088,-55
80.113,-11
80.138,-9
80.163,-40
80.188,-73
80.213,-75
80.238,-29
80.263,57
80.288,161
80.313,249
80.338,308
80.363,349
80.388,400
80.413,471
80.438,536
80.463,564
80.488,557
80.513,544
80.538,539
80.563,496
80.588,354
80.613,117
80.638,-104
80.663,-184
80.688,-102
80.713,24
80.738,54
80.763,-41
80.788,-151
80.813,-150
80.838,-26
80.863,111
80.888,150
80.913,74
80.938,-54
80.963,-180
80.988,-291
81.013,-383
81.038,-413
81.063,-328
81.088,-135
81.113,85
81.138,246
81.163,325
81.188,365
81.213,417
81.238,484
81.263,548
81.288,610
81.313,682
81.338,751
81.363,771
81.388,713
81.413,613
81.438,560
81.463,606
81.488,713
81.513,790
81.538,779
81.563,698
81.588,603
81.613,521
81.638,435
81.663,313
81.688,156
81.713,-9
81.738,-158
81.763,-275
81.788,-345
81.813,-356
81.838,-307
81.863,-225
81.888,-158
81.913,-143
81.938,-180
81.963,-236
81.988,-264
82.013,-219
82.038,-72
82.063,165
82.088,435
82.113,652
82.138,753
82.163,734
82.188,642
82.213,529
82.238,417
82.263,303
82.288,195
82.313,113
82.338,74
82.363,62
82.388,45
82.413,3
82.438,-47
82.463,-73
82.488,-54
82.513,-2
82.538,45
82.563,61
82.588,44
82.613,24
82.638,43
82.663,128
82.688,266
82.713,404
82.738,485
82.763,486
82.788,433
82.813,372
82.838,326
82.863,284
82.888,223
82.913,149
82.938,95
82.963,84
82.988,104
83.013,120
83.038,110
83.063,88
83.088,82
83.113,99
83.138,112
83.163,90
83.188,32
83.213,-26
83.238,-37
83.263,20
83.288,126
83.313,233
83.338,297
83.363,306
83.388,276
83.413,236
83.438,205
83.463,183
83.488,162
83.513,141
83.538,127
83.563,128
83.588,135
83.613,131
83.638,111
83.663,92
83.688,91
83.713,106
83.738,108
83.763,70
83.788,0
83.813,-58
83.838,-53
83.863,30
83.888,158
83.913,273
83.938,338
83.963,354
83.988,349
84.013,344
84.038,341
84.063,328
84.088,298
84.113,262
84.138,235
84.163,222
84.188,208
84.213,174
84.238,117
84.263,62
84.288,37
84.313,37
84.338,25
84.363,-30
84.388,-119
84.413,-179
84.438,-148
84.463,-17
84.488,157
84.513,300
84.538,371
84.563,383
84.588,374
84.613,372
84.638,376
84.663,374
84.688,363
84.713,352
84.738,353
84.763,363
84.788,373
84.813,370
84.838,355
84.863,344
84.888,354
84.913,385
84.938,413
84.963,405
84.988,359
85.013,320
85.038,345
85.063,450
85.088,584
85.113,665
85.138,648
85.163,555
85.188,440
85.213,337
85.238,232
85.263,107
85.288,-25
85.313,-127
85.338,-175
85.363,-184
85.388,-193
85.413,-226
85.438,-273
85.463,-311
85.488,-328
85.513,-327
85.538,-321
85.563,-318
85.588,-325
85.613,-339
85.638,-332
85.663,-265
85.688,-113
85.713,99
85.738,304
85.763,438
85.788,488
85.813,487
85.838,475
85.863,460
85.888,433
85.913,390
85.938,349
85.963,330
85.988,333
86.013,332
86.038,308
86.063,259
86.088,203
86.113,161
86.138,143
86.163,141
86.188,138
86.213,112
86.238,62
86.263,13
86.288,8
86.313,72
86.338,186
86.363,297
86.388,358
86.413,365
86.438,345
86.463,323
86.488,305
86.513,277
86.538,241
86.563,209
86.588,196
86.613,198
86.638,200
86.663,186
86.688,155
86.713,119
86.738,88
86.763,72
86.788,69
86.813,62
86.838,29
86.863,-34
86.888,-99
86.913,-115
86.938,-49
86.963,83
86.988,222
87.013,311
87.038,340
87.063,337
87.088,332
87.113,333
87.138,326
87.163,305
87.188,284
87.213,277
87.238,287
87.263,297
87.288,292
87.313,271
87.338,248
87.363,240
87.388,249
87.413,264
87.438,261
87.463,225
87.488,164
87.513,116
87.538,126
87.563,208
87.588,328
87.613,424
87.638,454
87.663,427
87.688,385
87.713,360
87.738,348
87.763,318
87.788,251
87.813,162
87.838,84
87.863,34
87.888,-1
87.913,-50
87.938,-116
87.963,-172
87.988,-189
88.013,-169
88.038,-148
88.063,-164
88.088,-204
88.113,-201
88.138,-82
88.163,160
88.188,456
88.213,696
88.238,811
88.263,808
88.288,747
88.313,683
88.338,628
88.363,565
88.388,487
88.413,409
88.438,358
88.463,338
88.488,325
88.513,285
88.538,206
88.563,108
88.588,25
88.613,-28
88.638,-66
88.663,-119
88.688,-206
88.713,-309
88.738,-385
88.763,-396
88.788,-343
88.813,-263
88.838,-202
88.863,-185
88.888,-202
88.913,-231
88.938,-257
88.963,-280
88.988,-309
89.013,-346
89.038,-381
89.063,-402
89.088,-402
89.113,-387
89.138,-361
89.163,-325
89.188,-269
89.213,-185
89.238,-84
89.263,2
89.288,46
89.313,47
89.338,52
89.363,125
89.388,293
89.413,521
89.438,732
89.463,872
89.488,944
89.513,999
89.538,1082
89.563,1192
89.588,1294
89.613,1359
89.638,1396
89.663,1434
89.688,1494
89.713,1563
89.738,1613
89.763,1622
89.788,1594
89.813,1544
89.838,1476
89.863,1368
89.888,1185
89.913,903
89.938,534
89.963,134
89.988,-222
90.013,-469
90.038,-590
90.063,-610
90.088,-584
90.113,-554
90.138,-534
90.163,-513
90.188,-483
90.213,-449
90.238,-428
90.263,-434
90.288,-464
90.313,-499
90.338,-527
90.363,-552
90.388,-596
90.413,-670
90.438,-762
90.463,-839
90.488,-867
90.513,-838
90.538,-777
90.563,-714
90.588,-663
90.613,-609
90.638,-525
90.663,-395
90.688,-225
90.713,-33
90.738,159
90.763,341
90.788,503
90.813,629
90.838,709
90.863,737
90.888,733
90.913,734
90.938,779
90.963,882
90.988,1015
91.013,1120
91.038,1141
91.063,1059
91.088,892
91.113,671
91.138,408
91.163,98
91.188,-235
91.213,-526
91.238,-682
91.263,-650
91.288,-463
91.313,-228
91.338,-57
91.363,-4
91.388,-48
91.413,-131
91.438,-205
91.463,-240
91.488,-221
91.513,-132
91.538,35
91.563,268
91.588,530
91.613,780
91.638,986
91.663,1139
91.688,1246
91.713,1314
91.738,1340
91.763,1301
91.788,1171
91.813,953
91.838,704
91.863,512
91.888,445
91.913,497
91.938,582
91.963,604
91.988,523
92.013,378
92.038,239
92.063,137
92.088,52
92.113,-49
92.138,-172
92.163,-286
92.188,-361
92.213,-400
92.238,-427
92.263,-453
92.288,-456
92.313,-413
92.338,-329
92.363,-254
92.388,-236
92.413,-273
92.438,-312
92.463,-283
92.488,-163
92.513,11
92.538,174
92.563,282
92.588,333
92.613,353
92.638,359
92.663,349
92.688,315
92.713,262
92.738,209
92.763,173
92.788,152
92.813,130
92.838,93
92.863,39
92.888,-20
92.913,-75
92.938,-113
92.963,-132
92.988,-132
93.013,-119
93.038,-96
93.063,-55
93.088,25
93.113,161
93.138,338
93.163,509
93.188,620
93.213,645
93.238,603
93.263,538
93.288,488
93.313,457
93.338,433
93.363,404
93.388,375
93.413,356
93.438,345
93.463,325
93.488,282
93.513,222
93.538,171
93.563,151
93.588,150
93.613,133
93.638,75
93.663,-3
93.688,-44
93.713,2
93.738,130
93.763,276
93.788,368
93.813,381
93.838,346
93.863,309
93.888,293
93.913,281
93.938,253
93.963,213
93.988,182
94.013,175
94.038,182
94.063,179
94.088,153
94.113,115
94.138,89
94.163,85
94.188,94
94.213,89
94.238,53
94.263,-4
94.288,-54
94.313,-57
94.338,0
94.363,101
94.388,200
94.413,262
94.438,279
94.463,271
94.488,261
94.513,255
94.538,240
94.563,213
94.588,184
94.613,173
94.638,182
94.663,192
94.688,183
94.713,154
94.738,125
94.763,117
94.788,125
94.813,123
94.838,89
94.863,31
94.888,-13
94.913,-1
94.938,75
94.963,190
94.988,290
95.013,344
95.038,354
95.063,350
95.088,353
95.113,355
95.138,337
95.163,293
95.188,243
95.213,217
95.238,221
95.263,229
95.288,209
95.313,159
95.338,110
95.363,91
95.388,99
95.413,96
95.438,53
95.463,-16
95.488,-59
95.513,-28
95.538,79
95.563,215
95.588,321
95.613,370
95.638,376
95.663,371
95.688,370
95.713,364
95.738,337
95.763,289
95.788,244
95.813,226
95.838,234
95.863,242
95.888,218
95.913,160
95.938,100
95.963,70
95.988,68
96.013,61
96.038,17
96.063,-53
96.088,-100
96.113,-74
96.138,26
96.163,155
96.188,255
96.213,303
96.238,309
96.263,299
96.288,284
96.313,260
96.338,224
96.363,187
96.388,165
96.413,163
96.438,172
96.463,171
96.488,148
96.513,110
96.538,79
96.563,72
96.588,86
96.613,90
96.638,57
96.663,-7
96.688,-61
96.713,-53
96.738,37
96.763,177
96.788,305
96.813,380
96.838,404
96.863,402
96.888,395
96.913,380
96.938,349
96.963,305
96.988,266
97.013,246
97.038,241
97.063,232
97.088,210
97.113,176
97.138,145
97.163,131
97.188,134
97.213,141
97.238,129
97.263,87
97.288,26
97.313,-14
97.338,3
97.363,89
97.388,213
97.413,319
97.438,375
97.463,383
97.488,375
97.513,370
97.538,367
97.563,351
97.588,319
97.613,288
97.638,275
97.663,279
97.688,277
97.713,246
97.738,185
97.763,122
97.788,87
97.813,81
97.838,78
97.863,41
97.888,-34
97.913,-112
97.938,-138
97.963,-84
97.988,23
98.013,128
98.038,186
98.063,191
98.088,171
98.113,152
98.138,139
98.163,117
98.188,81
98.213,39
98.238,11
98.263,5
98.288,11
98.313,9
98.338,-14
98.363,-51
98.388,-80
98.413,-80
98.438,-53
98.463,-26
98.488,-23
98.513,-36
98.538,-25
98.563,44
98.588,173
98.613,314
98.638,412
98.663,452
98.688,455
98.713,453
98.738,452
98.763,442
98.788,419
98.813,396
98.838,392
98.863,404
98.888,418
98.913,420
98.938,415
98.963,410
98.988,403
99.013,386
99.038,365
99.063,359
99.088,391
99.113,469
99.138,595
99.163,775
99.188,1010
99.213,1256
99.238,1416
99.263,1386
99.288,1140
99.313,762
99.338,387
99.363,105
99.388,-87
99.413,-245
99.438,-392
99.463,-493
99.488,-510
99.513,-462
99.538,-418
99.563,-437
99.588,-511
99.613,-578
99.638,-594
99.663,-574
99.688,-563
99.713,-580
99.738,-580
99.763,-501
99.788,-325
99.813,-105
99.838,76
99.863,181
99.888,231
99.913,277
99.938,341
99.963,396
99.988,402
100.013,361
100.038,317
100.063,311
100.088,341
100.113,362
100.138,334
100.163,267
100.188,207
100.213,190
100.238,205
100.263,206
100.288,163
100.313,95
100.338,48
100.363,52
100.388,96
100.413,141
100.438,158
100.463,145
100.488,119
100.513,95
100.538,80
100.563,77
100.588,93
100.613,136
100.638,206
100.663,287
100.688,360
100.713,410
100.738,432
100.763,430
100.788,406
100.813,358
100.838,285
100.863,202
100.888,138
100.913,124
100.938,170
100.963,258
100.988,349
101.013,410
101.038,437
101.063,443
101.088,443
101.113,435
101.138,419
101.163,404
101.188,411
101.213,444
101.238,471
101.263,445
101.288,341
101.313,189
101.338,48
101.363,-41
101.388,-95
101.413,-149
101.438,-215
101.463,-259
101.488,-229
101.513,-116
101.538,33
101.563,157
101.588,222
101.613,243
101.638,250
101.663,254
101.688,243
101.713,215
101.738,190
101.763,192
101.788,220
101.813,241
101.838,229
101.863,191
101.888,164
101.913,168
101.938,187
101.963,182
101.988,137
102.013,86
102.038,83
102.063,152
102.088,264
102.113,365
102.138,418
102.163,429
102.188,422
102.213,409
102.238,384
102.263,337
102.288,280
102.313,237
102.338,220
102.363,215
102.388,195
102.413,148
102.438,92
102.463,58
102.488,50
102.513,47
102.538,21
102.563,-25
102.588,-55
102.613,-28
102.638,54
102.663,151
102.688,212
102.713,222
102.738,204
102.763,184
102.788,164
102.813,128
102.838,74
102.863,26
102.888,8
102.913,12
102.938,1
102.963,-49
102.988,-121
103.013,-172
103.038,-180
103.063,-174
103.088,-197
103.113,-254
103.138,-294
103.163,-263
103.188,-150
103.213,-4
103.238,118
103.263,191
103.288,227
103.313,241
103.338,236
103.363,206
103.388,163
103.413,130
103.438,116
103.463,111
103.488,108
103.513,130
103.538,229
103.563,442
103.588,748
103.613,1089
103.638,1401
103.663,1650
103.688,1821
103.713,1884
103.738,1801
103.763,1563
103.788,1223
103.813,881
103.838,623
103.863,472
103.888,388
103.913,319
103.938,241
103.963,157
103.988,75
104.013,-9
104.038,-112
104.063,-237
104.088,-375
104.113,-504
104.138,-602
104.163,-657
104.188,-671
104.213,-664
104.238,-669
104.263,-708
104.288,-769
104.313,-804
104.338,-766
104.363,-648
104.388,-485
104.413,-335
104.438,-236
104.463,-187
104.488,-165
104.513,-141
104.538,-97
104.563,-28
104.588,55
104.613,143
104.638,224
104.663,295
104.688,356
104.713,403
104.738,423
104.763,410
104.788,379
104.813,358
104.838,360
104.863,364
104.888,332
104.913,262
104.938,198
104.963,202
104.988,290
105.013,419
105.038,518
105.063,554
105.088,545
105.113,525
105.138,506
105.163,476
105.188,427
105.213,372
105.238,334
105.263,319
105.288,312
105.313,295
105.338,260
105.363,217
105.388,173
105.413,135
105.438,113
105.463,109
105.488,108
105.513,88
105.538,41
105.563,2
105.588,30
105.613,154
105.638,339
105.663,504
105.688,589
105.713,600
105.738,584
105.763,576
105.788,575
105.813,561
105.838,536
105.863,520
105.888,517
105.913,493
105.938,406
105.963,260
105.988,118
106.013,56
106.038,91
106.063,157
106.088,159
106.113,49
106.138,-129
106.163,-280
106.188,-325
106.213,-261
106.238,-151
106.263,-70
106.288,-50
106.313,-71
106.338,-93
106.363,-90
106.388,-68
106.413,-43
106.438,-22
106.463,4
106.488,48
106.513,101
106.538,141
106.563,150
106.588,129
106.613,99
106.638,81
106.663,79
106.688,79
106.713,61
106.738,25
106.763,-4
106.788,3
106.813,71
106.838,183
106.863,298
106.888,376
106.913,404
106.938,403
106.963,397
106.988,392
107.013,376
107.038,345
107.063,314
107.088,306
107.113,324
107.138,338
107.163,317
107.188,261
107.213,202
107.238,175
107.263,176
107.288,172
107.313,132
107.338,67
107.363,25
107.388,46
107.413,130
107.438,235
107.463,313
107.488,339
107.513,324
107.538,296
107.563,275
107.588,262
107.613,251
107.638,235
107.663,219
107.688,209
107.713,205
107.738,194
107.763,163
107.788,118
107.813,81
107.838,70
107.863,76
107.888,69
107.913,26
107.938,-33
107.963,-62
107.988,-25
108.013,70
108.038,177
108.063,254
108.088,292
108.113,308
108.138,316
108.163,314
108.188,295
108.213,264
108.238,238
108.263,228
108.288,228
108.313,226
108.338,215
108.363,199
108.388,180
108.413,162
108.438,146
108.463,134
108.488,120
108.513,90
108.538,35
108.563,-27
108.588,-54
108.613,-8
108.638,103
108.663,228
108.688,311
108.713,334
108.738,323
108.763,314
108.788,317
108.813,314
108.838,291
108.863,256
108.888,233
108.913,233
108.938,245
108.963,249
108.988,232
109.013,199
109.038,166
109.063,147
109.088,140
109.113,127
109.138,89
109.163,27
109.188,-22
109.213,-17
109.238,64
109.263,193
109.288,309
109.313,366
109.338,366
109.363,345
109.388,330
109.413,321
109.438,300
109.463,263
109.488,227
109.513,213
109.538,219
109.563,220
109.588,197
109.613,152
109.638,110
109.663,91
109.688,92
109.713,89
109.738,58
109.763,-2
109.788,-61
109.813,-75
109.838,-20
109.863,84
109.888,187
109.913,246
109.938,258
109.963,251
109.988,251
110.013,257
110.038,247
110.063,212
110.088,171
110.113,148
110.138,145
110.163,143
110.188,117
110.213,66
110.238,10
110.263,-27
110.288,-39
110.313,-35
110.338,-41
110.363,-78
110.388,-143
110.413,-200
110.438,-195
110.463,-101
110.488,51
110.513,194
110.538,273
110.563,293
110.588,300
110.613,328
110.638,364
110.663,375
110.688,354
110.713,330
110.738,333
110.763,356
110.788,369
110.813,358
110.838,338
110.863,330
110.888,337
110.913,347
110.938,345
110.963,316
110.988,232
111.013,63
111.038,-163
111.063,-338
111.088,-319
111.113,-57
111.138,340
111.163,677
111.188,814
111.213,762
111.238,641
111.263,556
111.288,526
111.313,507
111.338,463
111.363,395
111.388,323
111.413,262
111.438,216
111.463,192
111.488,185
111.513,178
111.538,149
111.563,109
111.588,98
111.613,153
111.638,264
111.663,381
111.688,452
111.713,458
111.738,418
111.763,372
111.788,366
111.813,438
111.838,574
111.863,679
111.888,612
111.913,298
111.938,-181
111.963,-622
111.988,-856
112.013,-872
112.038,-790
112.063,-718
112.088,-652
112.113,-528
112.138,-341
112.163,-183
112.188,-146
112.213,-211
112.238,-252
112.263,-155
112.288,82
112.313,377
112.338,644
112.363,862
112.388,1041
112.413,1175
112.438,1240
112.463,1221
112.488,1126
112.513,961
112.538,714
112.563,388
112.588,35
112.613,-256
112.638,-431
112.663,-507
112.688,-546
112.713,-584
112.738,-605
112.763,-575
112.788,-494
112.813,-399
112.838,-319
112.863,-245
112.888,-162
112.913,-80
112.938,-27
112.963,-9
112.988,14
113.013,96
113.038,238
113.063,388
113.088,487
113.113,524
113.138,538
113.163,564
113.188,597
113.213,605
113.238,574
113.263,525
113.288,496
113.313,495
113.338,497
113.363,471
113.388,412
113.413,349
113.438,314
113.463,304
113.488,283
113.513,211
113.538,92
113.563,-22
113.588,-67
113.613,-13
113.638,104
113.663,217
113.688,282
113.713,298
113.738,298
113.763,297
113.788,286
113.813,254
113.838,215
113.863,207
113.888,247
113.913,314
113.938,364
113.963,374
113.988,363
114.013,367
114.038,394
114.063,411
114.088,383
114.113,311
114.138,241
114.163,217
114.188,246
114.213,295
114.238,324
114.263,320
114.288,299
114.313,271
114.338,235
114.363,180
114.388,112
114.413,55
114.438,32
114.463,36
114.488,35
114.513,1
114.538,-63
114.563,-124
114.588,-152
114.613,-150
114.638,-150
114.663,-178
114.688,-225
114.713,-250
114.738,-224
114.763,-160
114.788,-97
114.813,-66
114.838,-61
114.863,-60
114.888,-55
114.913,-59
114.938,-87
114.963,-130
114.988,-159
115.013,-162
115.038,-156
115.063,-167
115.088,-194
115.113,-209
115.138,-193
115.163,-163
115.188,-155
115.213,-167
115.238,-140
115.263,1
115.288,273
115.313,602
115.338,874
115.363,1017
115.388,1046
115.413,1029
115.438,1028
115.463,1061
115.488,1112
115.513,1166
115.538,1224
115.563,1286
115.588,1333
115.613,1332
115.638,1259
115.663,1121
115.688,950
115.713,777
115.738,603
115.763,408
115.788,178
115.813,-65
115.838,-268
115.863,-389
115.888,-433
115.913,-438
115.938,-430
115.963,-398
115.988,-320
116.013,-209
116.038,-125
116.063,-112
116.088,-150
116.113,-166
116.138,-121
116.163,-62
116.188,-74
116.213,-190
116.238,-340
116.263,-430
116.288,-435
116.313,-423
116.338,-458
116.363,-520
116.388,-515
116.413,-387
116.438,-184
116.463,-9
116.488,84
116.513,141
116.538,241
116.563,401
116.588,566
116.613,667
116.638,691
116.663,678
116.688,664
116.713,644
116.738,585
116.763,465
116.788,290
116.813,82
116.838,-133
116.863,-328
116.888,-482
116.913,-593
116.938,-674
116.963,-731
116.988,-739
117.013,-658
117.038,-477
117.063,-242
117.088,-28
117.113,119
117.138,203
117.163,255
117.188,287
117.213,291
117.238,272
117.263,264
117.288,307
117.313,403
117.338,515
117.363,597
117.388,635
117.413,653
117.438,685
117.463,743
117.488,816
117.513,874
117.538,893
117.563,882
117.588,889
117.613,972
117.638,1141
117.663,1337
117.688,1468
117.713,1504
117.738,1501
117.763,1524
117.788,1537
117.813,1390
117.838,958
117.863,294
117.888,-363
117.913,-758
117.938,-811
117.963,-648
117.988,-466
118.013,-374
118.038,-351
118.063,-331
118.088,-284
118.113,-228
118.138,-187
118.163,-168
118.188,-178
118.213,-217
118.238,-265
118.263,-273
118.288,-204
118.313,-85
118.338,10
118.363,30
118.388,-1
118.413,-20
118.438,4
118.463,31
118.488,7
118.513,-57
118.538,-99
118.563,-71
118.588,1
118.613,58
118.638,68
118.663,59
118.688,69
118.713,87
118.738,72
118.763,13
118.788,-56
118.813,-93
118.838,-103
118.863,-118
118.888,-145
118.913,-138
118.938,-56
118.963,84
118.988,212
119.013,277
119.038,300
119.063,339
119.088,411
119.113,466
119.138,450
119.163,372
119.188,298
119.213,282
119.238,319
119.263,358
119.288,365
119.313,347
119.338,323
119.363,300
119.388,275
119.413,258
119.438,268
119.463,296
119.488,303
119.513,259
119.538,193
119.563,182
119.588,273
119.613,426
119.638,552
119.663,591
119.688,568
119.713,549
119.738,559
119.763,562
119.788,510
119.813,409
119.838,312
119.863,260
119.888,241
119.913,212
119.938,151
119.963,73
119.988,8
120.013,-28
120.038,-37
120.063,-22
120.088,8
120.113,18
120.138,-34
120.163,-151
120.188,-261
120.213,-270
120.238,-153
120.263,2
120.288,73
120.313,9
120.338,-117
120.363,-192
120.388,-171
120.413,-112
120.438,-94
120.463,-124
120.488,-139
120.513,-85
120.538,13
120.563,79
120.588,69
120.613,12
120.638,-26
120.663,-14
120.688,22
120.713,35
120.738,0
120.763,-79
120.788,-176
120.813,-255
120.838,-267
120.863,-161
120.888,81
120.913,417
120.938,746
120.963,973
120.988,1056
121.013,1025
121.038,940
121.063,853
121.088,781
121.113,723
121.138,680
121.163,657
121.188,660
121.213,684
121.238,707
121.263,702
121.288,656
121.313,575
121.338,482
121.363,389
121.388,289
121.413,168
121.438,38
121.463,-56
121.488,-71
121.513,0
121.538,108
121.563,192
121.588,218
121.613,201
121.638,181
121.663,180
121.688,189
121.713,182
121.738,147
121.763,93
121.788,42
121.813,14
121.838,17
121.863,35
121.888,45
121.913,32
121.938,5
121.963,-9
121.988,-1
122.013,10
122.038,-8
122.063,-68
122.088,-131
122.113,-140
122.138,-71
122.163,41
122.188,142
122.213,200
122.238,230
122.263,258
122.288,287
122.313,295
122.338,269
122.363,226
122.388,197
122.413,194
122.438,203
122.463,195
122.488,159
122.513,108
122.538,61
122.563,29
122.588,11
122.613,-3
122.638,-29
122.663,-73
122.688,-123
122.713,-149
122.738,-123
122.763,-40
122.788,67
122.813,158
122.838,210
122.863,236
122.888,258
122.913,281
122.938,290
122.963,272
122.988,237
123.013,212
123.038,216
123.063,239
123.088,256
123.113,246
123.138,214
123.163,177
123.188,155
123.213,148
123.238,142
123.263,120
123.288,81
123.313,44
123.338,38
123.363,80
123.388,163
123.413,261
123.438,345
123.463,400
123.488,423
123.513,419
123.538,396
123.563,365
123.588,339
123.613,323
123.638,314
123.663,301
123.688,279
123.713,249
123.738,211
123.763,164
123.788,110
123.813,59
123.838,26
123.863,9
123.888,-12
123.913,-56
123.938,-109
123.963,-130
123.988,-83
124.013,19
124.038,131
124.063,205
124.088,237
124.113,249
124.138,261
124.163,268
124.188,255
124.213,224
124.238,197
124.263,191
124.288,202
124.313,212
124.338,211
124.363,201
124.388,184
124.413,158
124.438,125
124.463,101
124.488,98
124.513,107
124.538,100
124.563,62
124.588,19
124.613,22
124.638,96
124.663,216
124.688,324
124.713,386
124.738,407
124.763,414
124.788,417
124.813,404
124.838,365
124.863,318
124.888,289
124.913,287
124.938,295
124.963,287
124.988,253
125.013,205
125.038,161
125.063,135
125.088,126
125.113,124
125.138,110
125.163,65
125.188,-5
125.213,-69
125.238,-80
125.263,-19
125.288,89
125.313,197
125.338,264
125.363,288
125.388,290
125.413,289
125.438,286
125.463,275
125.488,257
125.513,238
125.538,223
125.563,213
125.588,204
125.613,190
125.638,164
125.663,126
125.688,88
125.713,65
125.738,64
125.763,62
125.788,29
125.813,-38
125.838,-97
125.863,-86
125.888,17
125.913,171
125.938,299
125.963,356
125.988,355
126.013,342
126.038,341
126.063,339
126.088,314
126.113,268
126.138,226
126.163,207
126.188,204
126.213,191
126.238,152
126.263,93
126.288,36
126.313,4
126.338,0
126.363,8
126.388,7
126.413,-16
126.438,-49
126.463,-55
126.488,0
126.513,116
126.538,249
126.563,348
126.588,386
126.613,379
126.638,361
126.663,347
126.688,328
126.713,294
126.738,254
126.763,232
126.788,243
126.813,265
126.838,264
126.863,222
126.888,160
126.913,116
126.938,112
126.963,130
126.988,124
127.013,66
127.038,-25
127.063,-94
127.088,-85
127.113,11
127.138,156
127.163,284
127.188,357
127.213,375
127.238,366
127.263,353
127.288,339
127.313,315
127.338,278
127.363,240
127.388,218
127.413,216
127.438,220
127.463,208
127.488,174
127.513,134
127.538,114
127.563,123
127.588,138
127.613,122
127.638,63
127.663,-7
127.688,-31
127.713,26
127.738,148
127.763,274
127.788,350
127.813,366
127.838,349
127.863,329
127.888,309
127.913,278
127.938,233
127.963,192
127.988,175
128.013,181
128.038,187
128.063,168
128.088,120
128.113,63
128.138,24
128.163,15
128.188,19
128.213,6
128.238,-40
128.263,-105
128.288,-142
128.313,-107
128.338,2
128.363,148
128.388,271
128.413,341
128.438,361
128.463,358
128.488,348
128.513,326
128.538,289
128.563,245
128.588,217
128.613,215
128.638,229
128.663,233
128.688,212
128.713,168
128.738,122
128.763,93
128.788,82
128.813,73
128.838,43
128.863,-16
128.888,-83
128.913,-116
128.938,-75
128.963,41
128.988,199
129.013,339
129.038,420
129.063,437
129.088,413
129.113,373
129.138,334
129.163,298
129.188,266
129.213,244
129.238,235
129.263,235
129.288,229
129.313,204
129.338,164
129.363,128
129.388,114
129.413,121
129.438,123
129.463,93
129.488,33
129.513,-13
129.538,0
129.563,89
129.588,213
129.613,317
129.638,371
129.663,383
129.688,378
129.713,367
129.738,343
129.763,303
129.788,262
129.813,238
129.838,236
129.863,238
129.888,224
129.913,190
129.938,147
129.963,108
129.988,84
130.013,72
130.038,62
130.063,37
130.088,-16
130.113,-87
130.138,-134
130.163,-112
130.188,-11
130.213,123
130.238,230
130.263,276
130.288,278
130.313,272
130.338,273
130.363,264
130.388,234
130.413,195
130.438,175
130.463,182
130.488,197
130.513,193
130.538,164
130.563,129
130.588,105
130.613,96
130.638,95
130.663,92
130.688,81
130.713,51
130.738,7
130.763,-27
130.788,-9
130.813,84
130.838,231
130.863,368
130.888,445
130.913,459
130.938,439
130.963,412
130.988,379
131.013,331
131.038,279
131.063,247
131.088,247
131.113,259
131.138,253
131.163,219
131.188,175
131.213,139
131.238,119
131.263,106
131.288,95
131.313,82
131.338,55
131.363,4
131.388,-58
131.413,-91
131.438,-50
131.463,61
131.488,193
131.513,281
131.538,306
131.563,300
131.588,296
131.613,293
131.638,269
131.663,219
131.688,170
131.713,155
131.738,169
131.763,180
131.788,160
131.813,118
131.838,81
131.863,63
131.888,54
131.913,41
131.938,28
131.963,17
131.988,0
132.013,-40
132.038,-93
132.063,-110
132.088,-41
132.113,117
132.138,305
132.163,443
132.188,489
132.213,461
132.238,403
132.263,352
132.288,316
132.313,290
132.338,270
132.363,254
132.388,242
132.413,232
132.438,219
132.463,200
132.488,172
132.513,142
132.538,121
132.563,113
132.588,107
132.613,78
132.638,17
132.663,-46
132.688,-61
132.713,4
132.738,130
132.763,255
132.788,328
132.813,343
132.838,329
132.863,317
132.888,309
132.913,292
132.938,261
132.963,230
132.988,213
133.013,212
133.038,210
133.063,192
133.088,156
133.113,116
133.138,88
133.163,81
133.188,86
133.213,78
133.238,42
133.263,-10
133.288,-40
133.313,-8
133.338,90
133.363,218
133.388,320
133.413,369
133.438,376
133.463,367
133.488,355
133.513,335
133.538,306
133.563,276
133.588,261
133.613,261
133.638,261
133.663,243
133.688,202
133.713,149
133.738,103
133.763,80
133.788,80
133.813,84
133.838,68
133.863,19
133.888,-38
133.913,-57
133.938,0
133.963,123
133.988,258
134.013,347
134.038,378
134.063,374
134.088,364
134.113,351
134.138,323
134.163,279
134.188,240
134.213,226
134.238,232
134.263,237
134.288,225
134.313,197
134.338,166
134.363,140
134.388,122
134.413,113
134.438,103
134.463,74
134.488,12
134.513,-69
134.538,-121
134.563,-92
134.588,17
134.613,151
134.638,236
134.663,245
134.688,208
134.713,168
134.738,142
134.763,113
134.788,65
134.813,6
134.838,-41
134.863,-66
134.888,-76
134.913,-87
134.938,-112
134.963,-159
134.988,-219
135.013,-252
135.038,-209
135.063,-71
135.088,111
135.113,239
135.138,249
135.163,168
135.188,92
135.213,93
135.238,153
135.263,203
135.288,198
135.313,166
135.338,154
135.363,177
135.388,207
135.413,231
135.438,275
135.463,374
135.488,507
135.513,607
135.538,619
135.563,557
135.588,489
135.613,462
135.638,473
135.663,491
135.688,509
135.713,545
135.738,602
135.763,639
135.788,601
135.813,475
135.838,306
135.863,169
135.888,113
135.913,143
135.938,236
135.963,366
135.988,509
136.013,638
136.038,712
136.063,689
136.088,539
136.113,276
136.138,-25
136.163,-254
136.188,-328
136.213,-254
136.238,-136
136.263,-100
136.288,-197
136.313,-375
136.338,-540
136.363,-639
136.388,-674
136.413,-666
136.438,-605
136.463,-462
136.488,-241
136.513,3
136.538,202
136.563,326
136.588,400
136.613,470
136.638,562
136.663,671
136.688,781
136.713,890
136.738,998
136.763,1105
136.788,1202
136.813,1284
136.838,1348
136.863,1391
136.888,1408
136.913,1382
136.938,1297
136.963,1141
136.988,916
137.013,649
137.038,392
137.063,203
137.088,109
137.113,96
137.138,110
137.163,106
137.188,64
137.213,-4
137.238,-85
137.263,-171
137.288,-267
137.313,-376
137.338,-489
137.363,-589
137.388,-673
137.413,-755
137.438,-863
137.463,-1011
137.488,-1179
137.513,-1329
137.538,-1440
137.563,-1535
137.588,-1660
137.613,-1827
137.638,-1980
137.663,-2025
137.688,-1897
137.713,-1604
137.738,-1203
137.763,-752
137.788,-295
137.813,114
137.838,404
137.863,535
137.888,546
137.913,543
137.938,610
137.963,745
137.988,882
138.013,983
138.038,1089
138.063,1261
138.088,1489
138.113,1675
138.138,1724
138.163,1624
138.188,1453
138.213,1289
138.238,1151
138.263,1023
138.288,904
138.313,818
138.338,771
138.363,718
138.388,607
138.413,445
138.438,298
138.463,222
138.488,194
138.513,126
138.538,-40
138.563,-278
138.588,-489
138.613,-580
138.638,-525
138.663,-351
138.688,-103
138.713,181
138.738,464
138.763,704
138.788,868
138.813,957
138.838,1006
138.863,1057
138.888,1126
138.913,1198
138.938,1256
138.963,1306
138.988,1372
139.013,1456
139.038,1500
139.063,1409
139.088,1122
139.113,679
139.138,214
139.163,-149
139.188,-382
139.213,-545
139.238,-692
139.263,-795
139.288,-791
139.313,-682
139.338,-585
139.363,-636
139.388,-848
139.413,-1092
139.438,-1222
139.463,-1213
139.488,-1162
139.513,-1150
139.538,-1138
139.563,-1011
139.588,-723
139.613,-361
139.638,-62
139.663,123
139.688,251
139.713,389
139.738,519
139.763,570
139.788,517
139.813,434
139.838,427
139.863,527
139.888,670
139.913,774
139.938,814
139.963,813
139.988,790
140.013,728
140.038,611
140.063,464
140.088,338
140.113,264
140.138,230
140.163,218
140.188,234
140.213,293
140.238,381
140.263,447
140.288,443
140.313,372
140.338,270
140.363,164
140.388,38
140.413,-124
140.438,-305
140.463,-446
140.488,-507
140.513,-503
140.538,-479
140.563,-451
140.588,-390
140.613,-272
140.638,-132
140.663,-50
140.688,-70
140.713,-152
140.738,-191
140.763,-117
140.788,51
140.813,230
140.838,348
140.863,400
140.888,429
140.913,468
140.938,513
140.963,544
140.988,565
141.013,600
141.038,663
141.063,728
141.088,741
141.113,675
141.138,556
141.163,447
141.188,388
141.213,364
141.238,314
141.263,200
141.288,43
141.313,-86
141.338,-128
141.363,-80
141.388,2
141.413,59
141.438,68
141.463,54
141.488,52
141.513,69
141.538,85
141.563,77
141.588,58
141.613,58
141.638,97
141.663,152
141.688,181
141.713,164
141.738,128
141.763,113
141.788,127
141.813,132
141.838,85
141.863,4
141.888,-33
141.913,44
141.938,233
141.963,440
141.988,559
142.013,556
142.038,479
142.063,402
142.088,357
142.113,324
142.138,283
142.163,241
142.188,227
142.213,243
142.238,257
142.263,238
142.288,188
142.313,137
142.338,104
142.363,73
142.388,21
142.413,-44
142.438,-80
142.463,-46
142.488,50
142.513,158
142.538,225
142.563,242
142.588,235
142.613,228
142.638,217
142.663,188
142.688,147
142.713,119
142.738,120
142.763,139
142.788,145
142.813,124
142.838,88
142.863,64
142.888,54
142.913,36
142.938,-7
142.963,-58
142.988,-71
143.013,-13
143.038,99
143.063,218
143.088,296
143.113,326
143.138,330
143.163,325
143.188,310
143.213,281
143.238,245
143.263,225
143.288,233
143.313,250
143.338,246
143.363,210
143.388,163
143.413,134
143.438,126
143.463,112
143.488,71
143.513,20
143.538,5
143.563,58
143.588,160
143.613,261
143.638,318
143.663,330
143.688,323
143.713,314
143.738,295
143.763,258
143.788,212
143.813,183
143.838,183
143.863,192
143.888,181
143.913,141
143.938,97
143.963,76
143.988,78
144.013,75
144.038,44
144.063,1
144.088,-9
144.113,44
144.138,151
144.163,263
144.188,333
144.213,350
144.238,333
144.263,308
144.288,284
144.313,256
144.338,227
144.363,208
144.388,209
144.413,218
144.438,213
144.463,178
144.488,130
144.513,99
144.538,98
144.563,108
144.588,93
144.613,41
144.638,-14
144.663,-25
144.688,32
144.713,136
144.738,238
144.763,306
144.788,335
144.813,343
144.838,341
144.863,331
144.888,311
144.913,287
144.938,265
144.963,246
144.988,225
145.013,204
145.038,186
145.063,173
145.088,157
145.113,132
145.138,97
145.163,58
145.188,13
145.213,-48
145.238,-123
145.263,-182
145.288,-178
145.313,-85
145.338,67
145.363,212
145.388,298
145.413,317
145.438,305
145.463,293
145.488,288
145.513,273
145.538,244
145.563,213
145.588,200
145.613,207
145.638,219
145.663,216
145.688,192
145.713,157
145.738,127
145.763,113
145.788,113
145.813,113
145.838,95
145.863,57
145.888,20
145.913,20
145.938,79
145.963,182
145.988,285
146.013,347
146.038,361
146.063,350
146.088,340
146.113,334
146.138,321
146.163,293
146.188,259
146.213,236
146.238,228
146.263,223
146.288,204
146.313,169
146.338,134
146.363,118
146.388,119
146.413,118
146.438,93
146.463,43
146.488,-8
146.513,-24
146.538,19
146.563,114
146.588,221
146.613,298
146.638,324
146.663,311
146.688,283
146.713,257
146.738,233
146.763,202
146.788,169
146.813,144
146.838,137
146.863,143
146.888,146
146.913,136
146.938,118
146.963,106
146.988,101
147.013,90
147.038,57
147.063,9
147.088,-25
147.113,-14
147.138,52
147.163,153
147.188,249
147.213,310
147.238,330
147.263,321
147.288,297
147.313,265
147.338,232
147.363,208
147.388,203
147.413,219
147.438,242
147.463,253
147.488,248
147.513,235
147.538,226
147.563,225
147.588,222
147.613,204
147.638,168
147.663,126
147.688,99
147.713,112
147.738,177
147.763,285
147.788,404
147.813,491
147.838,522
147.863,508
147.888,481
147.913,468
147.938,463
147.963,448
147.988,415
148.013,379
148.038,358
148.063,345
148.088,317
148.113,261
148.138,197
148.163,159
148.188,153
148.213,147
148.238,106
148.263,30
148.288,-38
148.313,-55
148.338,-19
148.363,38
148.388,81
148.413,91
148.438,69
148.463,12
148.488,-78
148.513,-189
148.538,-293
148.563,-373
148.588,-430
148.613,-479
148.638,-526
148.663,-566
148.688,-605
148.713,-659
148.738,-728
148.763,-767
148.788,-712
148.813,-548
148.838,-340
148.863,-182
148.888,-104
148.913,-42
148.938,81
148.963,262
148.988,401
149.013,408
149.038,304
149.063,198
149.088,172
149.113,208
149.138,239
149.163,256
149.188,337
149.213,549
149.238,856
149.263,1128
149.288,1270
149.313,1298
149.338,1297
149.363,1307
149.388,1281
149.413,1164
149.438,989
149.463,866
149.488,873
149.513,961
149.538,1007
149.563,928
149.588,761
149.613,604
149.638,515
149.663,463
149.688,387
149.713,267
149.738,133
149.763,16
149.788,-93
149.813,-220
149.838,-364
149.863,-489
149.888,-566
149.913,-605
149.938,-642
149.963,-690
149.988,-719
150.013,-684
150.038,-578
150.063,-439
150.088,-319
150.113,-235
150.138,-163
150.163,-70
150.188,42
150.213,140
150.238,187
150.263,183
150.288,160
150.313,152
150.338,164
150.363,177
150.388,180
150.413,185
150.438,221
150.463,291
150.488,360
150.513,377
150.538,326
150.563,252
150.588,227
150.613,288
150.638,408
150.663,522
150.688,589
150.713,612
150.738,625
150.763,640
150.788,640
150.813,601
150.838,527
150.863,445
150.888,373
150.913,301
150.938,199
150.963,59
150.988,-91
151.013,-207
151.038,-263
151.063,-276
151.088,-280
151.113,-295
151.138,-301
151.163,-260
151.188,-156
151.213,-13
151.238,115
151.263,195
151.288,229
151.313,250
151.338,275
151.363,293
151.388,281
151.413,240
151.438,207
151.463,215
151.488,258
151.513,288
151.538,263
151.563,187
151.588,100
151.613,37
151.638,-8
151.663,-62
151.688,-125
151.713,-160
151.738,-127
151.763,-30
151.788,88
151.813,185
151.838,249
151.863,288
151.888,294
151.913,238
151.938,111
151.963,-54
151.988,-202
152.013,-305
152.038,-384
152.063,-476
152.088,-569
152.113,-601
152.138,-513
152.163,-320
152.188,-106
152.213,36
152.238,87
152.263,99
152.288,147
152.313,267
152.338,435
152.363,609
152.388,762
152.413,895
152.438,1009
152.463,1090
152.488,1114
152.513,1076
152.538,1001
152.563,924
152.588,866
152.613,820
152.638,773
152.663,738
152.688,746
152.713,816
152.738,912
152.763,952
152.788,864
152.813,642
152.838,361
152.863,124
152.888,-3
152.913,-28
152.938,0
152.963,35
152.988,62
153.013,77
153.038,70
153.063,24
153.088,-68
153.113,-182
153.138,-272
153.163,-304
153.188,-283
153.213,-246
153.238,-241
153.263,-283
153.288,-348
153.313,-395
153.338,-404
153.363,-388
153.388,-382
153.413,-403
153.438,-435
153.463,-434
153.488,-367
153.513,-239
153.538,-89
153.563,38
153.588,121
153.613,165
153.638,189
153.663,210
153.688,228
153.713,239
153.738,241
153.763,244
153.788,258
153.813,277
153.838,283
153.863,258
153.888,205
153.913,150
153.938,117
153.963,102
153.988,74
154.013,10
154.038,-72
154.063,-126
154.088,-105
154.113,-10
154.138,118
154.163,229
154.188,301
154.213,343
154.238,372
154.263,395
154.288,404
154.313,392
154.338,365
154.363,341
154.388,338
154.413,361
154.438,390
154.463,395
154.488,364
154.513,319
154.538,297
154.563,309
154.588,316
154.613,262
154.638,129
154.663,-32
154.688,-139
154.713,-143
154.738,-60
154.763,61
154.788,185
154.813,298
154.838,382
154.863,413
154.888,399
154.913,412
154.938,551
154.963,846
154.988,1208
155.013,1484
155.038,1578
155.063,1513
155.088,1376
155.113,1215
155.138,1000
155.163,692
155.188,312
155.213,-56
155.238,-342
155.263,-538
155.288,-677
155.313,-779
155.338,-828
155.363,-814
155.388,-767
155.413,-734
155.438,-734
155.463,-741
155.488,-722
155.513,-678
155.538,-635
155.563,-601
155.588,-555
155.613,-477
155.638,-383
155.663,-307
155.688,-260
155.713,-209
155.738,-121
155.763,-11
155.788,67
155.813,91
155.838,102
155.863,179
155.888,355
155.913,584
155.938,784
155.963,912
155.988,989
156.013,1051
156.038,1101
156.063,1126
156.088,1139
156.113,1189
156.138,1303
156.163,1430
156.188,1454
156.213,1290
156.238,974
156.263,644
156.288,429
156.313,347
156.338,305
156.363,196
156.388,-5
156.413,-234
156.438,-398
156.463,-454
156.488,-429
156.513,-379
156.538,-342
156.563,-321
156.588,-299
156.613,-264
156.638,-222
156.663,-191
156.688,-185
156.713,-204
156.738,-233
156.763,-260
156.788,-278
156.813,-288
156.838,-286
156.863,-264
156.888,-218
156.913,-168
156.938,-150
156.963,-181
156.988,-234
157.013,-243
157.038,-147
157.063,53
157.088,302
157.113,521
157.138,663
157.163,726
157.188,728
157.213,684
157.238,603
157.263,501
157.288,408
157.313,345
157.338,305
157.363,255
157.388,172
157.413,68
157.438,-20
157.463,-72
157.488,-100
157.513,-141
157.538,-208
157.563,-264
157.588,-242
157.613,-98
157.638,146
157.663,414
157.688,623
157.713,734
157.738,766
157.763,762
157.788,752
157.813,735
157.838,698
157.863,635
157.888,560
157.913,485
157.938,410
157.963,325
157.988,225
158.013,126
158.038,47
158.063,-3
158.088,-45
158.113,-98
158.138,-161
158.163,-205
158.188,-196
158.213,-133
158.238,-51
158.263,5
158.288,17
158.313,1
158.338,-12
158.363,-13
158.388,-11
158.413,-17
158.438,-20
158.463,3
158.488,62
158.513,129
158.538,170
158.563,177
158.588,176
158.613,198
158.638,240
158.663,267
158.688,252
158.713,218
158.738,224
158.763,314
158.788,463
158.813,601
158.838,666
158.863,653
158.888,600
158.913,539
158.938,469
158.963,370
158.988,245
159.013,131
159.038,65
159.063,46
159.088,39
159.113,8
159.138,-43
159.163,-85
159.188,-90
159.213,-70
159.238,-64
159.263,-90
159.288,-127
159.313,-124
159.338,-47
159.363,89
159.388,235
159.413,339
159.438,386
159.463,391
159.488,375
159.513,347
159.538,306
159.563,258
159.588,220
159.613,207
159.638,215
159.663,225
159.688,222
159.713,208
159.738,202
159.763,213
159.788,232
159.813,241
159.838,234
159.863,231
159.888,262
159.913,341
159.938,452
159.963,555
159.988,608
160.013,589
160.038,512
160.063,414
160.088,331
160.113,273
160.138,213
160.163,115
160.188,-26
160.213,-182
160.238,-305
160.263,-375
160.288,-407
160.313,-424
160.338,-430
160.363,-408
160.388,-352
160.413,-288
160.438,-247
160.463,-226
160.488,-181
160.513,-68
160.538,106
160.563,280
160.588,389
160.613,418
160.638,401
160.663,381
160.688,371
160.713,356
160.738,328
160.763,297
160.788,274
160.813,259
160.838,234
160.863,190
160.888,137
160.913,95
160.938,78
160.963,78
160.988,83
161.013,78
161.038,53
161.063,10
161.088,-28
161.113,-19
161.138,72
161.163,243
161.188,435
161.213,575
161.238,628
161.263,612
161.288,570
161.313,533
161.338,510
161.363,511
161.388,551
161.413,632
161.438,715
161.463,739
161.488,673
161.513,546
161.538,420
161.563,324
161.588,239
161.613,130
161.638,-1
161.663,-126
161.688,-232
161.713,-349
161.738,-501
161.763,-654
161.788,-722
161.813,-649
161.838,-476
161.863,-310
161.888,-223
161.913,-193
161.938,-155
161.963,-86
161.988,-30
162.013,-38
162.038,-100
162.063,-154
162.088,-169
162.113,-180
162.138,-250
162.163,-394
162.188,-562
162.213,-688
162.238,-740
162.263,-717
162.288,-616
162.313,-444
162.338,-241
162.363,-69
162.388,50
162.413,196
162.438,497
162.463,998
162.488,1595
162.513,2100
162.538,2400
162.563,2531
162.588,2597
162.613,2626
162.638,2532
162.663,2218
162.688,1712
162.713,1182
162.738,810
162.763,653
162.788,624
162.813,590
162.838,490
162.863,364
162.888,291
162.913,307
162.938,377
162.963,430
162.988,430
163.013,404
163.038,415
163.063,490
163.088,567
163.113,526
163.138,274
163.163,-171
163.188,-693
163.213,-1155
163.238,-1485
163.263,-1696
163.288,-1820
163.313,-1869
163.338,-1832
163.363,-1716
163.388,-1568
163.413,-1444
163.438,-1364
163.463,-1295
163.488,-1184
163.513,-997
163.538,-746
163.563,-482
163.588,-265
163.613,-128
163.638,-51
163.663,23
163.688,154
163.713,343
163.738,533
163.763,650
163.788,663
163.813,608
163.838,539
163.863,483
163.888,417
163.913,315
163.938,185
163.963,71
163.988,10
164.013,-7
164.038,-30
164.063,-98
164.088,-204
164.113,-299
164.138,-331
164.163,-298
164.188,-248
164.213,-245
164.238,-301
164.263,-354
164.288,-300
164.313,-74
164.338,291
164.363,683
164.388,985
164.413,1167
164.438,1291
164.463,1442
164.488,1654
164.513,1883
164.538,2059
164.563,2149
164.588,2168
164.613,2152
164.638,2124
164.663,2109
164.688,2147
164.713,2285
164.738,2506
164.763,2691
164.788,2653
164.813,2257
164.838,1531
164.863,667
164.888,-101
164.913,-645
164.938,-1005
164.963,-1312
164.988,-1654
165.013,-1999
165.038,-2217
165.063,-2191
165.088,-1904
165.113,-1452
165.138,-979
165.163,-592
165.188,-324
165.213,-155
165.238,-64
165.263,-58
165.288,-146
165.313,-305
165.338,-467
165.363,-562
165.388,-565
165.413,-496
165.438,-376
165.463,-190
165.488,90
165.513,435
165.538,743
165.563,907
165.588,916
165.613,873
165.638,900
165.663,1018
165.688,1134
165.713,1149
165.738,1062
165.763,956
165.788,893
165.813,835
165.838,690
165.863,430
165.888,134
165.913,-92
165.938,-247
165.963,-443
165.988,-799
166.013,-1313
166.038,-1848
166.063,-2237
166.088,-2402
166.113,-2384
166.138,-2266
166.163,-2098
166.188,-1871
166.213,-1570
166.238,-1216
166.263,-876
166.288,-622
166.313,-479
166.338,-405
166.363,-313
166.388,-128
166.413,152
166.438,450
166.463,656
166.488,712
166.513,658
166.538,601
166.563,634
166.588,781
166.613,1002
166.638,1247
166.663,1496
166.688,1747
166.713,1972
166.738,2116
166.763,2137
166.788,2051
166.813,1928
166.838,1835
166.863,1772
166.888,1680
166.913,1513
166.938,1294
166.963,1110
166.988,1026
167.013,1020
167.038,997
167.063,881
167.088,692
167.113,535
167.138,507
167.163,614
167.188,771
167.213,871
167.238,864
167.263,765
167.288,621
167.313,474
167.338,342
167.363,236
167.388,149
167.413,60
167.438,-66
167.463,-254
167.488,-493
167.513,-749
167.538,-987
167.563,-1192
167.588,-1352
167.613,-1450
167.638,-1466
167.663,-1395
167.688,-1262
167.713,-1103
167.738,-941
167.763,-777
167.788,-611
167.813,-458
167.838,-337
167.863,-244
167.888,-146
167.913,-14
167.938,139
167.963,263
167.988,310
168.013,283
168.038,228
168.063,190
168.088,173
168.113,148
168.138,99
168.163,53
168.188,52
168.213,110
168.238,193
168.263,247
168.288,249
168.313,215
168.338,174
168.363,129
168.388,63
168.413,-28
168.438,-116
168.463,-158
168.488,-143
168.513,-106
168.538,-93
168.563,-109
168.588,-112
168.613,-61
168.638,33
168.663,117
168.688,150
168.713,152
168.738,201
168.763,359
168.788,616
168.813,893
168.838,1105
168.863,1211
168.888,1232
168.913,1213
168.938,1184
168.963,1155
168.988,1123
169.013,1093
169.038,1073
169.063,1063
169.088,1054
169.113,1029
169.138,979
169.163,905
169.188,817
169.213,726
169.238,630
169.263,513
169.288,349
169.313,126
169.338,-136
169.363,-388
169.388,-571
169.413,-654
169.438,-642
169.463,-572
169.488,-480
169.513,-383
169.538,-282
169.563,-179
169.588,-89
169.613,-31
169.638,-14
169.663,-16
169.688,0
169.713,65
169.738,166
169.763,256
169.788,281
169.813,222
169.838,113
169.863,5
169.888,-69
169.913,-119
169.938,-174
169.963,-246
169.988,-312
170.013,-340
170.038,-322
170.063,-287
170.088,-273
170.113,-288
170.138,-298
170.163,-245
170.188,-87
170.213,163
170.238,448
170.263,681
170.288,801
170.313,794
170.338,700
170.363,573
170.388,454
170.413,351
170.438,265
170.463,208
170.488,200
170.513,243
170.538,308
170.563,358
170.588,384
170.613,409
170.638,457
170.663,512
170.688,529
170.713,478
170.738,375
170.763,264
170.788,172
170.813,90
170.838,2
170.863,-79
170.888,-119
170.913,-96
170.938,-25
170.963,62
170.988,159
171.013,281
171.038,436
171.063,591
171.088,693
171.113,713
171.138,673
171.163,612
171.188,548
171.213,473
171.238,379
171.263,275
171.288,177
171.313,73
171.338,-56
171.363,-212
171.388,-346
171.413,-401
171.438,-371
171.463,-300
171.488,-233
171.513,-147
171.538,23
171.563,305
171.588,609
171.613,771
171.638,670
171.663,326
171.688,-131
171.713,-579
171.738,-993
171.763,-1417
171.788,-1856
171.813,-2218
171.838,-2370
171.863,-2258
171.888,-1962
171.913,-1624
171.938,-1330
171.963,-1074
171.988,-827
172.013,-614
172.038,-504
172.063,-502
172.088,-490
172.113,-283
172.138,239
172.163,1049
172.188,2008
172.213,2955
172.238,3765
172.263,4338
172.288,4596
172.313,4527
172.338,4227
172.363,3860
172.388,3548
172.413,3290
172.438,2993
172.463,2580
172.488,2067
172.513,1531
172.538,1033
172.563,574
172.588,112
172.613,-378
172.638,-893
172.663,-1396
172.688,-1834
172.713,-2156
172.738,-2350
172.763,-2462
172.788,-2572
172.813,-2718
172.838,-2857
172.863,-2895
172.888,-2785
172.913,-2564
172.938,-2305
172.963,-2032
172.988,-1717
173.013,-1358
173.038,-1024
173.063,-806
173.088,-711
173.113,-628
173.138,-427
173.163,-76
173.188,330
173.213,672
173.238,899
173.263,1057
173.288,1222
173.313,1444
173.338,1729
173.363,2047
173.388,2344
173.413,2567
173.438,2703
173.463,2792
173.488,2878
173.513,2939
173.538,2886
173.563,2643
173.588,2252
173.613,1844
173.638,1526
173.663,1288
173.688,1047
173.713,768
173.738,510
173.763,355
173.788,301
173.813,273
173.838,203
173.863,101
173.888,9
173.913,-69
173.938,-179
173.963,-352
173.988,-576
174.013,-832
174.038,-1119
174.063,-1413
174.088,-1612
174.113,-1593
174.138,-1354
174.163,-1097
174.188,-1077
174.213,-1352
174.238,-1695
174.263,-1796
174.288,-1562
174.313,-1190
174.338,-942
174.363,-873
174.388,-821
174.413,-635
174.438,-366
174.463,-194
174.488,-208
174.513,-302
174.538,-314
174.563,-208
174.588,-92
174.613,-55
174.638,-52
174.663,29
174.688,209
174.713,376
174.738,416
174.763,356
174.788,332
174.813,433
174.838,598
174.863,703
174.888,708
174.913,702
174.938,791
174.963,963
174.988,1099
175.013,1099
175.038,986
175.063,871
175.088,832
175.113,835
175.138,785
175.163,631
175.188,419
175.213,243
175.238,164
175.263,169
175.288,205
175.313,235
175.338,260
175.363,302
175.388,361
175.413,408
175.438,416
175.463,386
175.488,359
175.513,377
175.538,448
175.563,530
175.588,570
175.613,548
175.638,483
175.663,411
175.688,349
175.713,296
175.738,260
175.763,264
175.788,330
175.813,434
175.838,514
175.863,514
175.888,431
175.913,314
175.938,218
175.963,154
175.988,103
176.013,48
176.038,0
176.063,-19
176.088,-17
176.113,-27
176.138,-79
176.163,-160
176.188,-227
176.213,-255
176.238,-258
176.263,-269
176.288,-291
176.313,-288
176.338,-218
176.363,-87
176.388,50
176.413,139
176.438,169
176.463,171
176.488,168
176.513,150
176.538,92
176.563,3
176.588,-60
176.613,-48
176.638,30
176.663,109
176.688,116
176.713,46
176.738,-43
176.763,-95
176.788,-100
176.813,-93
176.838,-102
176.863,-109
176.888,-66
176.913,46
176.938,205
176.963,357
176.988,461
177.013,515
177.038,536
177.063,541
177.088,533
177.113,507
177.138,464
177.163,421
177.188,397
177.213,403
177.238,421
177.263,413
177.288,351
177.313,250
177.338,164
177.363,136
177.388,144
177.413,117
177.438,8
177.463,-134
177.488,-189
177.513,-69
177.538,184
177.563,430
177.588,544
177.613,517
177.638,436
177.663,384
177.688,367
177.713,338
177.738,273
177.763,198
177.788,153
177.813,143
177.838,136
177.863,107
177.888,63
177.913,27
177.938,11
177.963,8
177.988,10
178.013,17
178.038,19
178.063,0
178.088,-48
178.113,-89
178.138,-69
178.163,35
178.188,187
178.213,316
178.238,378
178.263,390
178.288,387
178.313,383
178.338,360
178.363,311
178.388,259
178.413,238
178.438,250
178.463,259
178.488,233
178.513,180
178.538,134
178.563,118
178.588,117
178.613,107
178.638,82
178.663,52
178.688,18
178.713,-26
178.738,-81
178.763,-112
178.788,-74
178.813,37
178.838,173
178.863,267
178.888,294
178.913,281
178.938,270
178.963,271
178.988,261
179.013,231
179.038,201
179.063,203
179.088,234
179.113,257
179.138,243
179.163,198
179.188,161
179.213,156
179.238,167
179.263,162
179.288,130
179.313,92
179.338,71
179.363,62
179.388,36
179.413,-18
179.438,-73
179.463,-80
179.488,-10
179.513,110
179.538,228
179.563,299
179.588,320
179.613,315
179.638,307
179.663,304
179.688,296
179.713,279
179.738,262
179.763,255
179.788,257
179.813,258
179.838,242
179.863,210
179.888,177
179.913,163
179.938,171
179.963,178
179.988,162
180.013,121
180.038,81
180.063,66
180.088,74
180.113,72
180.138,31
180.163,-30
180.188,-60
180.213,-14
180.238,102
180.263,231
180.288,315
180.313,336
180.338,322
180.363,306
180.388,298
180.413,289
180.438,275
180.463,269
180.488,284
180.513,310
180.538,318
180.563,289
180.588,234
180.613,184
180.638,165
180.663,172
180.688,180
180.713,168
180.738,135
180.763,102
180.788,83
180.813,73
180.838,52
180.863,10
180.888,-33
180.913,-41
180.938,14
180.963,124
180.988,243
181.013,320
181.038,339
181.063,322
181.088,300
181.113,288
181.138,273
181.163,246
181.188,217
181.213,209
181.238,224
181.263,241
181.288,231
181.313,195
181.338,157
181.363,144
181.388,153
181.413,158
181.438,140
181.463,109
181.488,86
181.513,76
181.538,59
181.563,19
181.588,-28
181.613,-39
181.638,20
181.663,136
181.688,252
181.713,317
181.738,324
181.763,304
181.788,288
181.813,282
181.838,271
181.863,246
181.888,222
181.913,218
181.938,234
181.963,244
181.988,228
182.013,190
182.038,155
182.063,143
182.088,147
182.113,144
182.138,125
182.163,100
182.188,80
182.213,61
182.238,26
182.263,-20
182.288,-47
182.313,-14
182.338,82
182.363,199
182.388,278
182.413,298
182.438,285
182.463,275
182.488,280
182.513,279
182.538,258
182.563,228
182.588,215
182.613,226
182.638,240
182.663,231
182.688,198
182.713,165
182.738,150
182.763,149
182.788,145
182.813,132
182.838,120
182.863,115
182.888,105
182.913,75
182.938,35
182.963,23
182.988,69
183.013,161
183.038,251
183.063,295
183.088,296
183.113,286
183.138,288
183.163,294
183.188,282
183.213,249
183.238,219
183.263,214
183.288,227
183.313,234
183.338,218
183.363,189
183.388,167
183.413,157
183.438,149
183.463,137
183.488,124
183.513,114
183.538,92
183.563,47
183.588,-11
183.613,-39
183.638,3
183.663,111
183.688,231
183.713,305
183.738,321
183.763,313
183.788,312
183.813,318
183.838,306
183.863,273
183.888,245
183.913,245
183.938,266
183.963,276
183.988,255
184.013,218
184.038,193
184.063,191
184.088,196
184.113,194
184.138,178
184.163,150
184.188,101
184.213,31
184.238,-38
184.263,-62
184.288,-10
184.313,98
184.338,205
184.363,265
184.388,275
184.413,265
184.438,257
184.463,248
184.488,227
184.513,196
184.538,167
184.563,152
184.588,149
184.613,145
184.638,132
184.663,108
184.688,78
184.713,48
184.738,26
184.763,16
184.788,7
184.813,-20
184.838,-75
184.863,-139
184.888,-188
184.913,-204
184.938,-184
184.963,-130
184.988,-45
185.013,46
185.038,108
185.063,115
185.088,81
185.113,51
185.138,41
185.163,26
185.188,-25
185.213,-98
185.238,-140
185.263,-135
185.288,-135
185.313,-204
185.338,-329
185.363,-431
185.388,-458
185.413,-457
185.438,-506
185.463,-609
185.488,-683
185.513,-671
185.538,-625
185.563,-618
185.588,-621
185.613,-511
185.638,-232
185.663,99
185.688,313
185.713,370
185.738,379
185.763,402
185.788,337
185.813,65
185.838,-304
185.863,-478
185.888,-312
185.913,-20
185.938,69
185.963,-21
185.988,111
186.013,740
186.038,1552
186.063,1919
186.088,1695
186.113,1534
186.138,2125
186.163,3084
186.188,2859
186.213,109
186.238,-4673
186.263,-9032
186.288,-10281
186.313,-7629
186.338,-2774
186.363,1465
186.388,3190
186.413,2410
186.438,485
186.463,-1143
186.488,-1774
186.513,-1406
186.538,-242
186.563,1666
186.588,4372
186.613,7698
186.638,10945
186.663,12983
186.688,12790
186.713,10146
186.738,5902
186.763,1522
186.788,-1796
186.813,-3686
186.838,-4448
186.863,-4459
186.888,-3810
186.913,-2459
186.938,-556
186.963,1492
186.988,3218
187.013,4178
187.038,3855
187.063,1702
187.088,-2415
187.113,-7707
187.138,-12570
187.163,-15496
187.188,-16109
187.213,-15347
187.238,-14584
187.263,-14494
187.288,-14663
187.313,-14171
187.338,-12472
187.363,-9772
187.388,-6699
187.413,-3748
187.438,-1004
187.463,1733
187.488,4665
187.513,7798
187.538,10946
187.563,13883
187.588,16578
187.613,19329
187.638,22614
187.663,26656
187.688,30951
187.713,32767
187.738,32767
187.763,32767
187.788,30121
187.813,26790
187.838,24836
187.863,23777
187.888,21478
187.913,15671
187.938,5836
187.963,-6079
187.988,-16770
188.013,-23665
188.038,-26355
188.063,-26322
188.088,-25429
188.113,-24592
188.138,-23650
188.163,-22172
188.188,-20184
188.213,-18137
188.238,-16361
188.263,-14765
188.288,-13063
188.313,-11192
188.338,-9378
188.363,-7828
188.388,-6476
188.413,-5075
188.438,-3522
188.463,-1992
188.488,-730
188.513,227
188.538,1081
188.563,2027
188.588,3030
188.613,3877
188.638,4429
188.663,4778
188.688,5149
188.713,5669
188.738,6259
188.763,6743
188.788,7025
188.813,7147
188.838,7196
188.863,7196
188.888,7101
188.913,6873
188.938,6524
188.963,6085
188.988,5561
189.013,4946
189.038,4273
189.063,3593
189.088,2903
189.113,2108
189.138,1121
189.163,-19
189.188,-1160
189.213,-2214
189.238,-3301
189.263,-4632
189.288,-6246
189.313,-7920
189.338,-9437
189.363,-10941
189.388,-12903
189.413,-15575
189.438,-18436
189.463,-20263
189.488,-19918
189.513,-17171
189.538,-12781
189.563,-7809
189.588,-2851
189.613,2031
189.638,6771
189.663,10853
189.688,13558
189.713,14630
189.738,14590
189.763,14295
189.788,14171
189.813,13962
189.838,13234
189.863,12027
189.888,10875
189.913,10166
189.938,9617
189.963,8547
189.988,6715
190.013,4757
190.038,3622
190.063,3530
190.088,3575
190.113,2515
190.138,13
190.163,-2945
190.188,-4892
190.213,-5158
190.238,-4347
190.263,-3625
190.288,-3646
190.313,-4178
190.338,-4609
190.363,-4652
190.388,-4488
190.413,-4378
190.438,-4303
190.463,-4047
190.488,-3510
190.513,-2832
190.538,-2203
190.563,-1654
190.588,-1077
190.613,-414
190.638,265
190.663,863
190.688,1373
190.713,1854
190.738,2320
190.763,2728
190.788,3062
190.813,3382
190.838,3741
190.863,4074
190.888,4238
190.913,4168
190.938,3967
190.963,3791
190.988,3678
191.013,3513
191.038,3183
191.063,2713
191.088,2246
191.113,1889
191.138,1624
191.163,1362
191.188,1058
191.213,737
191.238,444
191.263,189
191.288,-29
191.313,-195
191.338,-289
191.363,-330
191.388,-376
191.413,-471
191.438,-601
191.463,-720
191.488,-807
191.513,-889
191.538,-990
191.563,-1103
191.588,-1200
191.613,-1277
191.638,-1363
191.663,-1475
191.688,-1583
191.713,-1639
191.738,-1633
191.763,-1604
191.788,-1601
191.813,-1622
191.838,-1611
191.863,-1508
191.888,-1303
191.913,-1043
191.938,-787
191.963,-579
191.988,-425
192.013,-316
192.038,-239
192.063,-184
192.088,-143
192.113,-105
192.138,-59
192.163,1
192.188,72
192.213,129
192.238,149
192.263,134
192.288,112
192.313,112
192.338,135
192.363,148
192.388,118
192.413,55
192.438,12
192.463,41
192.488,151
192.513,298
192.538,419
192.563,483
192.588,500
192.613,503
192.638,507
192.663,504
192.688,481
192.713,439
192.738,398
192.763,373
192.788,360
192.813,336
192.838,285
192.863,221
192.888,171
192.913,146
192.938,123
192.963,70
192.988,-11
193.013,-80
193.038,-77
193.063,9
193.088,141
193.113,253
193.138,306
193.163,313
193.188,304
193.213,299
193.238,287
193.263,257
193.288,215
193.313,184
193.338,177
193.363,178
193.388,162
193.413,116
193.438,61
193.463,29
193.488,25
193.513,24
193.538,-10
193.563,-82
193.588,-146
193.613,-145
193.638,-51
193.663,105
193.688,259
193.713,355
193.738,387
193.763,387
193.788,386
193.813,388
193.838,374
193.863,338
193.888,299
193.913,284
193.938,295
193.963,300
193.988,266
194.013,199
194.038,143
194.063,135
194.088,159
194.113,155
194.138,83
194.163,-28
194.188,-101
194.213,-72
194.238,53
194.263,207
194.288,323
194.313,375
194.338,383
194.363,375
194.388,361
194.413,340
194.438,315
194.463,293
194.488,282
194.513,274
194.538,260
194.563,232
194.588,191
194.613,147
194.638,112
194.663,94
194.688,89
194.713,72
194.738,20
194.763,-60
194.788,-127
194.813,-119
194.838,-17
194.863,140
194.888,281
194.913,358
194.938,376
194.963,371
194.988,366
195.013,356
195.038,329
195.063,290
195.088,259
195.113,251
195.138,257
195.163,259
195.188,244
195.213,211
195.238,171
195.263,134
195.288,111
195.313,97
195.338,77
195.363,28
195.388,-47
195.413,-107
195.438,-93
195.463,13
195.488,170
195.513,300
195.538,357
195.563,358
195.588,349
195.613,355
195.638,359
195.663,340
195.688,304
195.713,278
195.738,278
195.763,286
195.788,272
195.813,231
195.838,185
195.863,153
195.888,137
195.913,125
195.938,109
195.963,86
195.988,51
196.013,-4
196.038,-68
196.063,-99
196.088,-53
196.113,69
196.138,214
196.163,316
196.188,352
196.213,351
196.238,353
196.263,359
196.288,346
196.313,303
196.338,254
196.363,235
196.388,248
196.413,260
196.438,240
196.463,194
196.488,156
196.513,148
196.538,153
196.563,141
196.588,103
196.613,57
196.638,20
196.663,-10
196.688,-56
196.713,-115
196.738,-148
196.763,-113
196.788,-1
196.813,143
196.838,265
196.863,334
196.888,368
196.913,392
196.938,415
196.963,421
196.988,397
197.013,361
197.038,342
197.063,348
197.088,357
197.113,342
197.138,300
197.163,261
197.188,246
197.213,252
197.238,248
197.263,222
197.288,188
197.313,166
197.338,151
197.363,118
197.388,57
197.413,6
197.438,17
197.463,106
197.488,228
197.513,317
197.538,344
197.563,332
197.588,318
197.613,310
197.638,290
197.663,250
197.688,207
197.713,189
197.738,196
197.763,203
197.788,186
197.813,154
197.838,128
197.863,119
197.888,115
197.913,102
197.938,81
197.963,57
197.988,24
198.013,-30
198.038,-94
198.063,-124
198.088,-79
198.113,33
198.138,161
198.163,247
198.188,278
198.213,282
198.238,289
198.263,296
198.288,284
198.313,249
198.338,212
198.363,200
198.388,216
198.413,240
198.438,253
198.463,250
198.488,238
198.513,223
198.538,209
198.563,197
198.588,186
198.613,166
198.638,121
198.663,56
198.688,9
198.713,23
198.738,113
198.763,242
198.788,345
198.813,385
198.838,372
198.863,343
198.888,322
198.913,306
198.938,278
198.963,236
198.988,197
199.013,179
199.038,185
199.063,195
199.088,192
199.113,171
199.138,141
199.163,114
199.188,86
199.213,44
199.238,-20
199.263,-88
199.288,-116
199.313,-65
199.338,60
199.363,209
199.388,319
199.413,362
199.438,357
199.463,347
199.488,352
199.513,360
199.538,355
199.563,338
199.588,333
199.613,349
199.638,370
199.663,366
199.688,328
199.713,281
199.738,255
199.763,254
199.788,250
199.813,208
199.838,129
199.863,60
199.888,55
199.913,135
199.938,263
199.963,377
199.988,430
200.013,424
200.038,392
200.063,359
200.088,324
200.113,276
200.138,214
200.163,162
200.188,139
200.213,132
200.238,107
200.263,48
200.288,-26
200.313,-81
200.338,-111
200.363,-150
200.388,-230
200.413,-332
200.438,-386
200.463,-336
200.488,-197
200.513,-51
200.538,24
200.563,18
200.588,-24
200.613,-59
200.638,-83
200.663,-121
200.688,-182
200.713,-242
200.738,-275
200.763,-284
200.788,-297
200.813,-329
200.838,-362
200.863,-366
200.888,-345
200.913,-333
200.938,-347
200.963,-336
200.988,-201
201.013,120
201.038,579
201.063,1025
201.088,1312
201.113,1406
201.138,1402
201.163,1429
201.188,1544
201.213,1701
201.238,1822
201.263,1878
201.288,1902
201.313,1919
201.338,1888
201.363,1719
201.388,1363
201.413,874
201.438,388
201.463,18
201.488,-211
201.513,-355
201.538,-465
201.563,-534
201.588,-520
201.613,-405
201.638,-236
201.663,-94
201.688,-31
201.713,-40
201.738,-78
201.763,-113
201.788,-149
201.813,-203
201.838,-273
201.863,-326
201.888,-332
201.913,-290
201.938,-234
201.963,-202
201.988,-204
202.013,-214
202.038,-206
202.063,-186
202.088,-192
202.113,-256
202.138,-361
202.163,-441
202.188,-429
202.213,-314
202.238,-150
202.263,-11
202.288,63
202.313,90
202.338,99
202.363,104
202.388,98
202.413,85
202.438,88
202.463,132
202.488,203
202.513,257
202.538,263
202.563,233
202.588,213
202.613,224
202.638,237
202.663,212
202.688,152
202.713,118
202.738,173
202.763,318
202.788,490
202.813,615
202.838,666
202.863,665
202.888,634
202.913,573
202.938,481
202.963,388
202.988,346
203.013,381
203.038,450
203.063,475
203.088,406
203.113,268
203.138,134
203.163,62
203.188,47
203.213,39
203.238,-2
203.263,-70
203.288,-116
203.313,-86
203.338,31
203.363,207
203.388,380
203.413,497
203.438,537
203.463,513
203.488,456
203.513,389
203.538,322
203.563,263
203.588,215
203.613,181
203.638,152
203.663,120
203.688,90
203.713,79
203.738,96
203.763,114
203.788,92
203.813,14
203.838,-72
203.863,-91
203.888,0
203.913,164
203.938,318
203.963,400
203.988,413
204.013,401
204.038,392
204.063,377
204.088,345
204.113,310
204.138,308
204.163,345
204.188,381
204.213,365
204.238,291
204.263,207
204.288,169
204.313,181
204.338,191
204.363,154
204.388,79
204.413,32
204.438,68
204.463,184
204.488,322
204.513,419
204.538,455
204.563,448
204.588,423
204.613,385
204.638,330
204.663,265
204.688,213
204.713,191
204.738,193
204.763,185
204.788,143
204.813,77
204.838,23
204.863,1
204.888,-8
204.913,-50
204.938,-136
204.963,-221
204.988,-236
205.013,-152
205.038,-16
205.063,87
205.088,106
205.113,60
205.138,1
205.163,-44
205.188,-96
205.213,-178
205.238,-269
205.263,-311
205.288,-269
205.313,-169
205.338,-73
205.363,-15
205.388,23
205.413,78
205.438,142
205.463,169
205.488,130
205.513,70
205.538,78
205.563,209
205.588,425
205.613,624
205.638,730
205.663,741
205.688,712
205.713,689
205.738,671
205.763,636
205.788,584
205.813,539
205.838,520
205.863,512
205.888,480
205.913,407
205.938,320
205.963,255
205.988,223
206.013,194
206.038,132
206.063,39
206.088,-32
206.113,-30
206.138,55
206.163,178
206.188,273
206.213,309
206.238,303
206.263,292
206.288,287
206.313,271
206.338,222
206.363,153
206.388,100
206.413,88
206.438,106
206.463,119
206.488,103
206.513,73
206.538,58
206.563,64
206.588,65
206.613,27
206.638,-46
206.663,-106
206.688,-95
206.713,2
206.738,149
206.763,279
206.788,346
206.813,349
206.838,318
206.863,285
206.888,262
206.913,247
206.938,239
206.963,244
206.988,266
207.013,292
207.038,293
207.063,250
207.088,173
207.113,101
207.138,67
207.163,65
207.188,52
207.213,-5
207.238,-89
207.263,-134
207.288,-85
207.313,53
207.338,216
207.363,327
207.388,360
207.413,342
207.438,315
207.463,296
207.488,270
207.513,230
207.538,190
207.563,174
207.588,183
207.613,190
207.638,168
207.663,123
207.688,85
207.713,79
207.738,85
207.763,64
207.788,1
207.813,-66
207.838,-73
207.863,17
207.888,173
207.913,318
207.938,393
207.963,396
207.988,370
208.013,352
208.038,343
208.063,322
208.088,282
208.113,249
208.138,247
208.163,268
208.188,272
208.213,232
208.238,163
208.263,114
208.288,108
208.313,117
208.338,89
208.363,8
208.388,-72
208.413,-77
208.438,24
208.463,183
208.488,316
208.513,375
208.538,377
208.563,364
208.588,355
208.613,332
208.638,280
208.663,215
208.688,176
208.713,175
208.738,184
208.763,162
208.788,104
208.813,51
208.838,40
208.863,62
208.888,67
208.913,20
208.938,-52
208.963,-78
208.988,-3
209.013,155
209.038,324
209.063,434
209.088,465
209.113,448
209.138,422
209.163,401
209.188,374
209.213,336
209.238,301
209.263,289
209.288,308
209.313,336
209.338,343
209.363,317
209.388,268
209.413,217
209.438,169
209.463,114
209.488,48
209.513,-10
209.538,-23
209.563,33
209.588,145
209.613,260
209.638,331
209.663,351
209.688,347
209.713,342
209.738,335
209.763,304
209.788,247
209.813,191
209.838,169
209.863,182
209.888,194
209.913,167
209.938,104
209.963,38
209.988,-1
210.013,-26
210.038,-68
210.063,-141
210.088,-214
210.113,-240
210.138,-187
210.163,-72
210.188,57
210.213,158
210.238,208
210.263,208
210.288,178
210.313,145
210.338,132
210.363,149
210.388,190
210.413,237
210.438,269
210.463,276
210.488,256
210.513,214
210.538,167
210.563,139
210.588,144
210.613,166
210.638,168
210.663,123
210.688,52
210.713,17
210.738,69
210.763,205
210.788,360
210.813,462
210.838,484
210.863,455
210.888,418
210.913,393
210.938,371
210.963,339
210.988,304
211.013,282
211.038,277
211.063,268
211.088,234
211.113,177
211.138,125
211.163,103
211.188,109
211.213,108
211.238,68
211.263,-5
211.288,-65
211.313,-56
211.338,39
211.363,184
211.388,312
211.413,374
211.438,372
211.463,346
211.488,329
211.513,324
211.538,309
211.563,274
211.588,234
211.613,214
211.638,218
211.663,222
211.688,199
211.713,149
211.738,105
211.763,95
211.788,108
211.813,104
211.838,53
211.863,-20
211.888,-53
211.913,6
211.938,152
211.963,313
211.988,415
212.013,433
212.038,396
212.063,352
212.088,317
212.113,281
212.138,233
212.163,187
212.188,167
212.213,176
212.238,183
212.263,159
212.288,109
212.313,71
212.338,74
212.363,102
212.388,109
212.413,63
212.438,-10
212.463,-51
212.488,-8
212.513,108
212.538,246
212.563,344
212.588,380
212.613,369
212.638,341
212.663,310
212.688,274
212.713,232
212.738,197
212.763,190
212.788,218
212.813,259
212.838,278
212.863,261
212.888,226
212.913,209
212.938,219
212.963,228
212.988,192
213.013,105
213.038,12
213.063,-21
213.088,31
213.113,137
213.138,238
213.163,294
213.188,311
213.213,310
213.238,305
213.263,293
213.288,270
213.313,248
213.338,241
213.363,253
213.388,271
213.413,276
213.438,255
213.463,216
213.488,175
213.513,151
213.538,148
213.563,143
213.588,107
213.613,26
213.638,-63
213.663,-98
213.688,-35
213.713,104
213.738,249
213.763,335
213.788,358
213.813,354
213.838,351
213.863,339
213.888,296
213.913,229
213.938,175
213.963,157
213.988,157
214.013,138
214.038,84
214.063,18
214.088,-25
214.113,-44
214.138,-55
214.163,-74
214.188,-99
214.213,-127
214.238,-163
214.263,-209
214.288,-235
214.313,-199
214.338,-91
214.363,38
214.388,119
214.413,120
214.438,75
214.463,33
214.488,4
214.513,-39
214.538,-110
214.563,-175
214.588,-186
214.613,-142
214.638,-86
214.663,-50
214.688,-16
214.713,66
214.738,211
214.763,367
214.788,460
214.813,456
214.838,385
214.863,290
214.888,195
214.913,93
214.938,-14
214.963,-105
214.988,-141
215.013,-95
215.038,36
215.063,229
215.088,431
215.113,583
215.138,660
215.163,706
215.188,815
215.213,1044
215.238,1341
215.263,1573
215.288,1646
215.313,1612
215.338,1638
215.363,1850
215.388,2197
215.413,2468
215.438,2448
215.463,2087
215.488,1523
215.513,969
215.538,566
215.563,328
215.588,188
215.613,79
215.638,-25
215.663,-137
215.688,-273
215.713,-449
215.738,-659
215.763,-859
215.788,-1003
215.813,-1079
215.838,-1122
215.863,-1183
215.888,-1294
215.913,-1446
215.938,-1610
215.963,-1751
215.988,-1838
216.013,-1852
216.038,-1792
216.063,-1684
216.088,-1569
216.113,-1469
216.138,-1369
216.163,-1231
216.188,-1035
216.213,-805
216.238,-581
216.263,-383
216.288,-191
216.313,22
216.338,266
216.363,523
216.388,771
216.413,1003
216.438,1211
216.463,1385
216.488,1525
216.513,1655
216.538,1808
216.563,1988
216.588,2156
216.613,2263
216.638,2291
216.663,2251
216.688,2131
216.713,1879
216.738,1463
216.763,947
216.788,485
216.813,208
216.838,124
216.863,133
216.888,143
216.913,152
216.938,203
216.963,294
216.988,366
217.013,391
217.038,423
217.063,518
217.088,606
217.113,486
217.138,20
217.163,-679
217.188,-1270
217.213,-1445
217.238,-1180
217.263,-741
217.288,-446
217.313,-433
217.338,-615
217.363,-819
217.388,-912
217.413,-832
217.438,-573
217.463,-196
217.488,157
217.513,337
217.538,322
217.563,284
217.588,459
217.613,931
217.638,1530
217.663,1960
217.688,2037
217.713,1816
217.738,1489
217.763,1201
217.788,963
217.813,704
217.838,383
217.863,29
217.888,-304
217.913,-578
217.938,-766
217.963,-841
217.988,-792
218.013,-646
218.038,-474
218.063,-346
218.088,-291
218.113,-296
218.138,-329
218.163,-354
218.188,-330
218.213,-222
218.238,-36
218.263,168
218.288,311
218.313,357
218.338,344
218.363,337
218.388,356
218.413,361
218.438,312
218.463,229
218.488,182
218.513,223
218.538,331
218.563,436
218.588,485
218.613,479
218.638,446
218.663,399
218.688,331
218.713,241
218.738,158
218.763,109
218.788,93
218.813,77
218.838,30
218.863,-42
218.888,-110
218.913,-150
218.938,-176
218.963,-218
218.988,-297
219.013,-392
219.038,-449
219.063,-410
219.088,-244
219.113,26
219.138,327
219.163,565
219.188,680
219.213,689
219.238,672
219.263,715
219.288,846
219.313,1017
219.338,1140
219.363,1148
219.388,1029
219.413,829
219.438,614
219.463,438
219.488,317
219.513,225
219.538,130
219.563,21
219.588,-68
219.613,-88
219.638,-17
219.663,112
219.688,240
219.713,318
219.738,340
219.763,325
219.788,290
219.813,237
219.838,178
219.863,138
219.888,138
219.913,170
219.938,192
219.963,169
219.988,110
220.013,58
220.038,50
220.063,75
220.088,86
220.113,55
220.138,5
220.163,-3
220.188,69
220.213,208
220.238,352
220.263,444
220.288,462
220.313,426
220.338,365
220.363,296
220.388,225
220.413,162
220.438,120
220.463,105
220.488,98
220.513,74
220.538,23
220.563,-32
220.588,-63
220.613,-68
220.638,-76
220.663,-118
220.688,-178
220.713,-201
220.738,-140
220.763,-9
220.788,124
220.813,195
220.838,193
220.863,156
220.888,118
220.913,74
220.938,13
220.963,-48
220.988,-62
221.013,5
221.038,128
221.063,238
221.088,292
221.113,311
221.138,347
221.163,416
221.188,476
221.213,468
221.238,390
221.263,310
221.288,304
221.313,388
221.338,508
221.363,587
221.388,593
221.413,546
221.438,482
221.463,415
221.488,341
221.513,263
221.538,202
221.563,179
221.588,186
221.613,184
221.638,142
221.663,70
221.688,13
221.713,2
221.738,22
221.763,23
221.788,-28
221.813,-107
221.838,-144
221.863,-86
221.888,54
221.913,216
221.938,333
221.963,381
221.988,382
222.013,366
222.038,346
222.063,320
222.088,288
222.113,263
222.138,257
222.163,270
222.188,281
222.213,271
222.238,233
222.263,184
222.288,150
222.313,147
222.338,161
222.363,157
222.388,108
222.413,30
222.438,-21
222.463,5
222.488,116
222.513,254
222.538,352
222.563,382
222.588,368
222.613,351
222.638,344
222.663,330
222.688,298
222.713,264
222.738,256
222.763,281
222.788,312
222.813,313
222.838,273
222.863,209
222.888,154
222.913,125
222.938,119
222.963,111
222.988,75
223.013,-1
223.038,-95
223.063,-154
223.088,-124
223.113,-4
223.138,148
223.163,257
223.188,286
223.213,262
223.238,236
223.263,223
223.288,202
223.313,155
223.338,102
223.363,81
223.388,101
223.413,132
223.438,133
223.463,96
223.488,50
223.513,23
223.538,17
223.563,25
223.588,50
223.613,97
223.638,148
223.663,167
223.688,146
223.713,131
223.738,194
223.763,356
223.788,552
223.813,682
223.838,706
223.863,662
223.888,618
223.913,594
223.938,559
223.963,494
223.988,424
224.013,389
224.038,391
224.063,386
224.088,337
224.113,260
224.138,200
224.163,175
224.188,158
224.213,116
224.238,56
224.263,6
224.288,-30
224.313,-91
224.338,-203
224.363,-327
224.388,-382
224.413,-326
224.438,-205
224.463,-110
224.488,-90
224.513,-110
224.538,-110
224.563,-76
224.588,-49
224.613,-68
224.638,-117
224.663,-140
224.688,-107
224.713,-52
224.738,-42
224.763,-113
224.788,-235
224.813,-342
224.838,-381
224.863,-348
224.888,-288
224.913,-249
224.938,-254
224.963,-280
224.988,-285
225.013,-247
225.038,-186
225.063,-144
225.088,-130
225.113,-107
225.138,-26
225.163,124
225.188,304
225.213,474
225.238,634
225.263,814
225.288,1018
225.313,1190
225.338,1267
225.363,1247
225.388,1206
225.413,1230
225.438,1340
225.463,1484
225.488,1593
225.513,1636
225.538,1632
225.563,1618
225.588,1637
225.613,1729
225.638,1907
225.663,2114
225.688,2228
225.713,2149
225.738,1887
225.763,1570
225.788,1322
225.813,1145
225.838,920
225.863,536
225.888,12
225.913,-521
225.938,-958
225.963,-1297
225.988,-1602
226.013,-1898
226.038,-2129
226.063,-2233
226.088,-2209
226.113,-2115
226.138,-1983
226.163,-1794
226.188,-1534
226.213,-1256
226.238,-1056
226.263,-978
226.288,-951
226.313,-854
226.338,-632
226.363,-352
226.388,-131
226.413,-29
226.438,-12
226.463,-4
226.488,41
226.513,121
226.538,218
226.563,316
226.588,409
226.613,481
226.638,525
226.663,551
226.688,572
226.713,581
226.738,552
226.763,479
226.788,403
226.813,390
226.838,472
226.863,612
226.888,729
226.913,771
226.938,747
226.963,705
226.988,677
227.013,660
227.038,635
227.063,592
227.088,547
227.113,515
227.138,499
227.163,486
227.188,466
227.213,436
227.238,409
227.263,396
227.288,394
227.313,379
227.338,329
227.363,244
227.388,155
227.413,102
227.438,97
227.463,114
227.488,118
227.513,101
227.538,87
227.563,91
227.588,101
227.613,93
227.638,65
227.663,55
227.688,96
227.713,176
227.738,244
227.763,252
227.788,201
227.813,134
227.838,93
227.863,93
227.888,124
227.913,168
227.938,207
227.963,227
227.988,226
228.013,236
228.038,302
228.063,439
228.088,595
228.113,678
228.138,633
228.163,493
228.188,346
228.213,263
228.238,237
228.263,218
228.288,177
228.313,133
228.338,127
228.363,167
228.388,215
228.413,227
228.438,188
228.463,119
228.488,51
228.513,9
228.538,4
228.563,35
228.588,83
228.613,109
228.638,78
228.663,-11
228.688,-113
228.713,-165
228.738,-135
228.763,-42
228.788,59
228.813,131
228.838,167
228.863,182
228.888,184
228.913,161
228.938,110
228.963,49
228.988,14
229.013,21
229.038,47
229.063,55
229.088,29
229.113,-8
229.138,-26
229.163,-20
229.188,-16
229.213,-36
229.238,-67
229.263,-78
229.288,-58
229.313,-36
229.338,-43
229.363,-66
229.388,-54
229.413,33
229.438,183
229.463,342
229.488,469
229.513,556
229.538,608
229.563,624
229.588,604
229.613,581
229.638,602
229.663,674
229.688,744
229.713,765
229.738,783
229.763,927
229.788,1271
229.813,1714
229.838,2030
229.863,2074
229.888,1915
229.913,1746
229.938,1645
229.963,1472
229.988,1026
230.013,312
230.038,-399
230.063,-799
230.088,-820
230.113,-667
230.138,-569
230.163,-548
230.188,-453
230.213,-217
230.238,-16
230.263,-144
230.288,-721
230.313,-1539
230.338,-2205
230.363,-2426
230.388,-2176
230.413,-1652
230.438,-1102
230.463,-695
230.488,-482
230.513,-410
230.538,-376
230.563,-283
230.588,-111
230.613,87
230.638,265
230.663,447
230.688,696
230.713,1009
230.738,1261
230.763,1304
230.788,1119
230.813,844
230.838,648
230.863,569
230.888,512
230.913,389
230.938,227
230.963,105
230.988,17
231.013,-139
231.038,-427
231.063,-734
231.088,-858
231.113,-725
231.138,-509
231.163,-468
231.188,-675
231.213,-913
231.238,-872
231.263,-441
231.288,210
231.313,818
231.338,1250
231.363,1567
231.388,1866
231.413,2148
231.438,2328
231.463,2364
231.488,2314
231.513,2263
231.538,2216
231.563,2089
231.588,1809
231.613,1401
231.638,963
231.663,585
231.688,291
231.713,55
231.738,-154
231.763,-360
231.788,-577
231.813,-803
231.838,-996
231.863,-1087
231.888,-1033
231.913,-864
231.938,-668
231.963,-514
231.988,-411
232.013,-328
232.038,-259
232.063,-231
232.088,-261
232.113,-314
232.138,-335
232.163,-312
232.188,-287
232.213,-297
232.238,-315
232.263,-276
232.288,-158
232.313,-21
232.338,58
232.363,85
232.388,147
232.413,324
232.438,594
232.463,861
232.488,1047
232.513,1148
232.538,1198
232.563,1199
232.588,1126
232.613,981
232.638,806
232.663,624
232.688,387
232.713,12
232.738,-513
232.763,-1090
232.788,-1595
232.813,-2000
232.838,-2354
232.863,-2630
232.888,-2634
232.913,-2113
232.938,-1004
232.963,422
232.988,1712
233.013,2526
233.038,2845
233.063,2890
233.088,2879
233.113,2853
233.138,2707
233.163,2348
233.188,1807
233.213,1228
233.238,778
233.263,557
233.288,554
233.313,659
233.338,712
233.363,596
233.388,305
233.413,-64
233.438,-394
233.463,-642
233.488,-857
233.513,-1107
233.538,-1395
233.563,-1648
233.588,-1776
233.613,-1742
233.638,-1573
233.663,-1318
233.688,-1014
233.713,-692
233.738,-391
233.763,-147
233.788,30
233.813,178
233.838,341
233.863,529
233.888,705
233.913,814
233.938,829
233.963,768
233.988,671
234.013,573
234.038,488
234.063,420
234.088,362
234.113,295
234.138,197
234.163,66
234.188,-60
234.213,-124
234.238,-91
234.263,12
234.288,124
234.313,197
234.338,239
234.363,283
234.388,345
234.413,399
234.438,405
234.463,357
234.488,290
234.513,245
234.538,240
234.563,263
234.588,299
234.613,333
234.638,348
234.663,336
234.688,308
234.713,296
234.738,327
234.763,382
234.788,414
234.813,399
234.838,373
234.863,405
234.888,519
234.913,663
234.938,756
234.963,769
234.988,733
235.013,681
235.038,595
235.063,428
235.088,175
235.113,-93
235.138,-284
235.163,-356
235.188,-344
235.213,-307
235.238,-284
235.263,-293
235.288,-356
235.313,-481
235.338,-643
235.363,-776
235.388,-838
235.413,-845
235.438,-842
235.463,-828
235.488,-724
235.513,-457
235.538,-54
235.563,349
235.588,622
235.613,743
235.638,792
235.663,850
235.688,914
235.713,933
235.738,884
235.763,807
235.788,769
235.813,793
235.838,856
235.863,921
235.888,971
235.913,1005
235.938,1022
235.963,1023
235.988,1015
236.013,998
236.038,958
236.063,873
236.088,760
236.113,681
236.138,706
236.163,836
236.188,989
236.213,1053
236.238,975
236.263,787
236.288,561
236.313,359
236.338,201
236.363,79
236.388,-28
236.413,-156
236.438,-331
236.463,-546
236.488,-761
236.513,-934
236.538,-1074
236.563,-1243
236.588,-1508
236.613,-1884
236.638,-2330
236.663,-2768
236.688,-3105
236.713,-3241
236.738,-3107
236.763,-2716
236.788,-2167
236.813,-1564
236.838,-918
236.863,-155
236.888,763
236.913,1742
236.938,2593
236.963,3199
236.988,3605
237.013,3926
237.038,4195
237.063,4332
237.088,4293
237.113,4194
237.138,4229
237.163,4424
237.188,4535
237.213,4236
237.238,3448
237.263,2458
237.288,1692
237.313,1371
237.338,1367
237.363,1390
237.388,1254
237.413,969
237.438,617
237.463,208
237.488,-310
237.513,-924
237.538,-1507
237.563,-1917
237.588,-2144
237.613,-2336
237.638,-2652
237.663,-3110
237.688,-3570
237.713,-3887
237.738,-4067
237.763,-4262
237.788,-4625
237.813,-5135
237.838,-5587
237.863,-5764
237.888,-5617
237.913,-5298
237.938,-5016
237.963,-4891
237.988,-4920
238.013,-5041
238.038,-5168
238.063,-5170
238.088,-4886
238.113,-4220
238.138,-3234
238.163,-2103
238.188,-955
238.213,204
238.238,1369
238.263,2334
238.288,2725
238.313,2289
238.338,1168
238.363,-149
238.388,-1177
238.413,-1704
238.438,-1768
238.463,-1452
238.488,-806
238.513,40
238.538,837
238.563,1376
238.588,1703
238.613,2047
238.638,2526
238.663,2994
238.688,3255
238.713,3380
238.738,3682
238.763,4325
238.788,5090
238.813,5644
238.838,6006
238.863,6563
238.888,7557
238.913,8682
238.938,9441
238.963,9932
238.988,11028
239.013,13472
239.038,16677
239.063,18637
239.088,17305
239.113,12294
239.138,5313
239.163,-1048
239.188,-5020
239.213,-6370
239.238,-5808
239.263,-4005
239.288,-1267
239.313,2047
239.338,5114
239.363,6879
239.388,6748
239.413,5034
239.438,2672
239.463,519
239.488,-1052
239.513,-1890
239.538,-1530
239.563,810
239.588,5408
239.613,11083
239.638,15210
239.663,15087
239.688,9724
239.713,593
239.738,-9257
239.763,-16901
239.788,-20705
239.813,-20459
239.838,-17009
239.863,-11991
239.888,-7486
239.913,-5155
239.938,-5193
239.963,-6241
239.988,-6711
240.013,-6334
240.038,-6199
240.063,-7132
240.088,-8374
240.113,-8414
240.138,-7266
240.163,-7359
240.188,-11361
240.213,-18849
240.238,-25534
240.263,-26452
240.288,-20280
240.313,-10512
240.338,-2351
240.363,1524
240.388,2291
240.413,2682
240.438,4019
240.463,5567
240.488,6216
240.513,6034
240.538,5992
240.563,6613
240.588,7412
240.613,7671
240.638,7392
240.663,7201
240.688,7479
240.713,7918
240.738,7990
240.763,7631
240.788,7254
240.813,7169
240.838,7211
240.863,7022
240.888,6538
240.913,6037
240.938,5740
240.963,5524
240.988,5096
241.013,4354
241.038,3484
241.063,2722
241.088,2133
241.113,1655
241.138,1257
241.163,967
241.188,765
241.213,537
241.238,192
241.263,-230
241.288,-610
241.313,-886
241.338,-1085
241.363,-1217
241.388,-1194
241.413,-923
241.438,-456
241.463,9
241.488,291
241.513,366
241.538,340
241.563,298
241.588,232
241.613,103
241.638,-66
241.663,-201
241.688,-271
241.713,-318
241.738,-402
241.763,-535
241.788,-676
241.813,-788
241.838,-872
241.863,-950
241.888,-1030
241.913,-1098
241.938,-1135
241.963,-1124
241.988,-1047
242.013,-894
242.038,-679
242.063,-446
242.088,-242
242.113,-93
242.138,6
242.163,71
242.188,108
242.213,121
242.238,126
242.263,135
242.288,153
242.313,178
242.338,210
242.363,259
242.388,334
242.413,435
242.438,560
242.463,693
242.488,806
242.513,865
242.538,871
242.563,893
242.588,1036
242.613,1350
242.638,1769
242.663,2161
242.688,2450
242.713,2667
242.738,2879
242.763,3074
242.788,3155
242.813,3066
242.838,2880
242.863,2717
242.888,2551
242.913,2184
242.938,1455
242.963,504
242.988,-250
243.013,-446
243.038,-126
243.063,261
243.088,235
243.113,-325
243.138,-1123
243.163,-1735
243.188,-1949
243.213,-1854
243.238,-1654
243.263,-1475
243.288,-1325
243.313,-1198
243.338,-1151
243.363,-1250
243.388,-1472
243.413,-1683
243.438,-1727
243.463,-1547
243.488,-1221
243.513,-893
243.538,-677
243.563,-591
243.588,-572
243.613,-528
243.638,-400
243.663,-201
243.688,-17
243.713,39
243.738,-78
243.763,-305
243.788,-498
243.813,-550
243.838,-489
243.863,-465
243.888,-615
243.913,-952
243.938,-1366
243.963,-1752
243.988,-2092
244.013,-2406
244.038,-2634
244.063,-2598
244.088,-2150
244.113,-1353
244.138,-492
244.163,124
244.188,402
244.213,497
244.238,623
244.263,849
244.288,1082
244.313,1233
244.338,1344
244.363,1539
244.388,1857
244.413,2182
244.438,2344
244.463,2277
244.488,2057
244.513,1806
244.538,1572
244.563,1327
244.588,1054
244.613,805
244.638,650
244.663,604
244.688,601
244.713,571
244.738,506
244.763,459
244.788,476
244.813,542
244.838,596
244.863,593
244.888,539
244.913,480
244.938,459
244.963,483
244.988,532
245.013,577
245.038,603
245.063,606
245.088,584
245.113,533
245.138,450
245.163,349
245.188,261
245.213,218
245.238,230
245.263,268
245.288,285
245.313,255
245.338,194
245.363,145
245.388,139
245.413,169
245.438,206
245.463,235
245.488,273
245.513,356
245.538,499
245.563,667
245.588,799
245.613,851
245.638,823
245.663,746
245.688,641
245.713,506
245.738,333
245.763,145
245.788,-9
245.813,-101
245.838,-167
245.863,-283
245.888,-497
245.913,-772
245.938,-1014
245.963,-1145
245.988,-1169
246.013,-1142
246.038,-1106
246.063,-1049
246.088,-933
246.113,-745
246.138,-509
246.163,-244
246.188,52
246.213,387
246.238,718
246.263,969
246.288,1087
246.313,1092
246.338,1064
246.363,1063
246.388,1082
246.413,1075
246.438,1014
246.463,913
246.488,795
246.513,660
246.538,493
246.563,309
246.588,164
246.613,105
246.638,121
246.663,140
246.688,98
246.713,-8
246.738,-130
246.763,-220
246.788,-275
246.813,-319
246.838,-375
246.863,-441
246.888,-512
246.913,-599
246.938,-713
246.963,-847
246.988,-969
247.013,-1051
247.038,-1082
247.063,-1070
247.088,-1015
247.113,-898
247.138,-693
247.163,-401
247.188,-58
247.213,279
247.238,558
247.263,752
247.288,866
247.313,926
247.338,968
247.363,1008
247.388,1041
247.413,1047
247.438,1020
247.463,980
247.488,963
247.513,995
247.538,1066
247.563,1130
247.588,1131
247.613,1026
247.638,816
247.663,556
247.688,341
247.713,258
247.738,333
247.763,501
247.788,649
247.813,697
247.838,642
247.863,546
247.888,462
247.913,395
247.938,316
247.963,216
247.988,122
248.013,57
248.038,12
248.063,-51
248.088,-156
248.113,-278
248.138,-376
248.163,-437
248.188,-480
248.213,-523
248.238,-546
248.263,-510
248.288,-401
248.313,-255
248.338,-124
248.363,-31
248.388,40
248.413,113
248.438,181
248.463,219
248.488,216
248.513,189
248.538,168
248.563,164
248.588,168
248.613,161
248.638,135
248.663,88
248.688,22
248.713,-45
248.738,-90
248.763,-94
248.788,-74
248.813,-72
248.838,-110
248.863,-151
248.888,-126
248.913,0
248.938,176
248.963,307
248.988,331
249.013,276
249.038,226
249.063,238
249.088,302
249.113,365
249.138,393
249.163,390
249.188,380
249.213,374
249.238,364
249.263,343
249.288,316
249.313,287
249.338,250
249.363,198
249.388,142
249.413,111
249.438,119
249.463,145
249.488,150
249.513,116
249.538,75
249.563,84
249.588,172
249.613,310
249.638,439
249.663,523
249.688,578
249.713,641
249.738,721
249.763,786
249.788,799
249.813,767
249.838,727
249.863,702
249.888,669
249.913,591
249.938,469
249.963,362
249.988,325
250.013,350
250.038,369
250.063,330
250.088,247
250.113,180
250.138,161
250.163,163
250.188,140
250.213,83
250.238,26
250.263,-5
250.288,-15
250.313,-19
250.338,-13
250.363,0
250.388,-33
250.413,-207
250.438,-570
250.463,-1039
250.488,-1439
250.513,-1634
250.538,-1626
250.563,-1518
250.588,-1386
250.613,-1200
250.638,-862
250.663,-313
250.688,394
250.713,1109
250.738,1630
250.763,1785
250.788,1516
250.813,941
250.838,333
250.863,-38
250.888,-79
250.913,80
250.938,227
250.963,259
250.988,234
251.013,240
251.038,270
251.063,240
251.088,143
251.113,115
251.138,324
251.163,791
251.188,1339
251.213,1732
251.238,1853
251.263,1746
251.288,1524
251.313,1267
251.338,1010
251.363,780
251.388,603
251.413,468
251.438,331
251.463,161
251.488,-18
251.513,-162
251.538,-266
251.563,-373
251.588,-517
251.613,-662
251.638,-737
251.663,-714
251.688,-637
251.713,-573
251.738,-538
251.763,-506
251.788,-458
251.813,-414
251.838,-393
251.863,-389
251.888,-388
251.913,-410
251.938,-489
251.963,-598
251.988,-611
252.013,-393
252.038,51
252.063,544
252.088,853
252.113,876
252.138,708
252.163,541
252.188,522
252.213,683
252.238,964
252.263,1265
252.288,1462
252.313,1451
252.338,1214
252.363,864
252.388,584
252.413,472
252.438,456
252.463,362
252.488,98
252.513,-237
252.538,-439
252.563,-385
252.588,-147
252.613,76
252.638,139
252.663,42
252.688,-93
252.713,-150
252.738,-91
252.763,40
252.788,180
252.813,281
252.838,322
252.863,300
252.888,227
252.913,127
252.938,25
252.963,-58
252.988,-115
253.013,-135
253.038,-115
253.063,-54
253.088,33
253.113,123
253.138,197
253.163,248
253.188,281
253.213,307
253.238,331
253.263,347
253.288,352
253.313,341
253.338,318
253.363,286
253.388,243
253.413,185
253.438,117
253.463,52
253.488,9
253.513,-4
253.538,-1
253.563,-3
253.588,-19
253.613,-31
253.638,-12
253.663,49
253.688,135
253.713,213
253.738,263
253.763,284
253.788,292
253.813,295
253.838,287
253.863,262
253.888,226
253.913,194
253.938,183
253.963,193
253.988,205
254.013,203
254.038,184
254.063,159
254.088,143
254.113,134
254.138,121
254.163,98
254.188,75
254.213,77
254.238,120
254.263,195
254.288,272
254.313,327
254.338,358
254.363,379
254.388,398
254.413,406
254.438,393
254.463,368
254.488,360
254.513,387
254.538,438
254.563,469
254.588,452
254.613,395
254.638,336
254.663,301
254.688,277
254.713,233
254.738,157
254.763,76
254.788,36
254.813,53
254.838,105
254.863,149
254.888,162
254.913,154
254.938,145
254.963,139
254.988,122
255.013,85
255.038,39
255.063,7
255.088,2
255.113,16
255.138,26
255.163,18
255.188,2
255.213,-6
255.238,-3
255.263,-8
255.288,-38
255.313,-90
255.338,-128
255.363,-112
255.388,-33
255.413,78
255.438,172
255.463,218
255.488,225
255.513,218
255.538,214
255.563,207
255.588,183
255.613,146
255.638,115
255.663,100
255.688,90
255.713,64
255.738,22
255.763,-12
255.788,-21
255.813,-18
255.838,-41
255.863,-113
255.888,-205
255.913,-256
255.938,-234
255.963,-175
255.988,-164
256.013,-260
256.038,-432
256.063,-582
256.088,-620
256.113,-541
256.138,-417
256.163,-319
256.188,-254
256.213,-166
256.238,-2
256.263,229
256.288,474
256.313,700
256.338,925
256.363,1190
256.388,1490
256.413,1760
256.438,1927
256.463,1979
256.488,1964
256.513,1926
256.538,1859
256.563,1730
256.588,1553
256.613,1404
256.638,1357
256.663,1405
256.688,1459
256.713,1427
256.738,1301
256.763,1137
256.788,978
256.813,807
256.838,585
256.863,332
256.888,129
256.913,45
256.938,65
256.963,96
256.988,59
257.013,-54
257.038,-207
257.063,-375
257.088,-577
257.113,-830
257.138,-1103
257.163,-1335
257.188,-1492
257.213,-1604
257.238,-1732
257.263,-1900
257.288,-2070
257.313,-2173
257.338,-2171
257.363,-2072
257.388,-1902
257.413,-1669
257.438,-1365
257.463,-988
257.488,-569
257.513,-154
257.538,215
257.563,530
257.588,803
257.613,1050
257.638,1272
257.663,1455
257.688,1575
257.713,1622
257.738,1600
257.763,1541
257.788,1486
257.813,1469
257.838,1494
257.863,1533
257.888,1550
257.913,1543
257.938,1551
257.963,1616
257.988,1728
258.013,1801
258.038,1735
258.063,1502
258.088,1177
258.113,870
258.138,625
258.163,374
258.188,3
258.213,-541
258.238,-1204
258.263,-1845
258.288,-2319
258.313,-2525
258.338,-2444
258.363,-2154
258.388,-1807
258.413,-1540
258.438,-1376
258.463,-1197
258.488,-868
258.513,-392
258.538,62
258.563,325
258.588,401
258.613,479
258.638,734
258.663,1156
258.688,1567
258.713,1809
258.738,1872
258.763,1833
258.788,1730
258.813,1545
258.838,1297
258.863,1084
258.888,959
258.913,807
258.938,410
258.963,-289
258.988,-1057
259.013,-1545
259.038,-1651
259.063,-1637
259.088,-1844
259.113,-2310
259.138,-2712
259.163,-2721
259.188,-2372
259.213,-2023
259.238,-1959
