df_hash,22ZHK4.E50QS1
device,HZ2X61
project_hash,29R7
project_name,istanbul_aydin_university
person_hash,29R7.2ES5
person_label,v130
date_time_start,2026-04-07_17-55-40.586000_+03
date_time_start_unix,1775566540.586
date_time_end,2026-04-07_18-04-27.744000_+03
length_difference_noticed,no

time,ppg_med
5.549,545
5.574,626
5.599,755
5.624,825
5.649,798
5.674,770
5.699,845
5.724,982
5.749,1034
5.774,950
5.799,861
5.824,908
5.849,1035
5.874,1042
5.899,862
5.924,670
5.949,660
5.974,754
5.999,686
6.024,364
6.049,27
6.074,-68
6.099,-24
6.124,-194
6.149,-695
6.174,-1211
6.199,-1406
6.224,-1414
6.249,-1693
6.274,-2391
6.299,-3097
6.324,-3377
6.349,-3404
6.374,-3764
6.399,-4643
6.424,-5514
6.449,-5824
6.474,-5792
6.499,-6161
6.524,-7164
6.549,-8131
6.574,-8366
6.599,-8146
6.624,-8403
6.649,-9429
6.674,-10382
6.699,-10392
6.724,-9805
6.749,-9788
6.774,-10703
6.799,-11502
6.824,-11100
6.849,-9931
6.874,-9450
6.899,-10112
6.924,-10612
6.949,-9597
6.974,-7609
6.999,-6472
7.024,-6762
7.049,-6846
7.074,-5027
7.099,-1985
7.124,-24
7.149,113
7.174,488
7.199,3270
7.224,7596
7.249,10501
7.274,11001
7.299,11755
7.324,15613
7.349,21473
7.374,25386
7.399,25978
7.424,26812
7.449,31850
7.474,32767
7.499,32767
7.524,32767
7.549,32767
7.574,32767
7.599,32767
7.624,32767
7.649,32767
7.674,32767
7.699,32767
7.724,32767
7.749,32767
7.774,32767
7.799,14575
7.824,-32768
7.849,-32768
7.874,-32768
7.899,-32768
7.924,-32768
7.949,-32768
7.974,-32768
7.999,-32768
8.024,-32768
8.049,-32768
8.074,-32768
8.099,-32768
8.124,-32768
8.149,-32768
8.174,-28588
8.199,-26324
8.224,-26119
8.249,-23459
8.274,-17711
8.299,-12518
8.324,-10636
8.349,-10475
8.374,-8646
8.399,-4552
8.424,-856
8.449,345
8.474,223
8.499,1366
8.524,4242
8.549,6785
8.574,7341
8.599,6813
8.624,7246
8.649,9041
8.674,10578
8.699,10541
8.724,9633
8.749,9491
8.774,10478
8.799,11356
8.824,11102
8.849,10248
8.874,10024
8.899,10627
8.924,11016
8.949,10385
8.974,9226
8.999,8594
9.024,8690
9.049,8691
9.074,7941
9.099,6820
9.124,6157
9.149,6095
9.174,5962
9.199,5233
9.224,4213
9.249,3572
9.274,3432
9.299,3256
9.324,2614
9.349,1751
9.374,1222
9.399,1173
9.424,1215
9.449,994
9.474,617
9.499,423
9.524,470
9.549,472
9.574,214
9.599,-158
9.624,-356
9.649,-329
9.674,-297
9.699,-432
9.724,-636
9.749,-714
9.774,-649
9.799,-609
9.824,-707
9.849,-858
9.874,-917
9.899,-882
9.924,-872
9.949,-932
9.974,-950
9.999,-796
10.024,-501
10.049,-232
10.074,-107
10.099,-82
10.124,-39
10.149,55
10.174,130
10.199,126
10.224,85
10.249,95
10.274,175
10.299,249
10.324,249
10.349,197
10.374,151
10.399,101
10.424,55
10.449,-14
10.474,-118
10.499,-221
10.524,-257
10.549,-180
10.574,-8
10.599,185
10.624,328
10.649,396
10.674,417
10.699,426
10.724,430
10.749,415
10.774,375
10.799,333
10.824,314
10.849,317
10.874,313
10.899,275
10.924,211
10.949,148
10.974,102
10.999,51
11.024,-35
11.049,-152
11.074,-244
11.099,-246
11.124,-136
11.149,44
11.174,226
11.199,358
11.224,432
11.249,467
11.274,482
11.299,482
11.324,466
11.349,442
11.374,421
11.399,410
11.424,407
11.449,400
11.474,374
11.499,324
11.524,259
11.549,195
11.574,133
11.599,60
11.624,-38
11.649,-151
11.674,-227
11.699,-211
11.724,-85
11.749,102
11.774,273
11.799,374
11.824,405
11.849,406
11.874,404
11.899,401
11.924,386
11.949,363
11.974,350
11.999,355
12.024,362
12.049,350
12.074,314
12.099,268
12.124,223
12.149,177
12.174,125
12.199,69
12.224,24
12.249,-8
12.274,-45
12.299,-93
12.324,-129
12.349,-103
12.374,11
12.399,183
12.424,339
12.449,421
12.474,432
12.499,417
12.524,410
12.549,410
12.574,397
12.599,372
12.624,357
12.649,366
12.674,386
12.699,387
12.724,357
12.749,312
12.774,271
12.799,231
12.824,174
12.849,100
12.874,30
12.899,-15
12.924,-49
12.949,-104
12.974,-195
12.999,-286
13.024,-307
13.049,-212
13.074,-20
13.099,200
13.124,379
13.149,486
13.174,532
13.199,547
13.224,549
13.249,546
13.274,542
13.299,541
13.324,546
13.349,553
13.374,551
13.399,529
13.424,485
13.449,423
13.474,357
13.499,295
13.524,232
13.549,160
13.574,76
13.599,-4
13.624,-71
13.649,-125
13.674,-193
13.699,-291
13.724,-399
13.749,-454
13.774,-398
13.799,-228
13.824,-4
13.849,188
13.874,304
13.899,355
13.924,382
13.949,408
13.974,429
13.999,433
14.024,426
14.049,425
14.074,445
14.099,473
14.124,488
14.149,473
14.174,437
14.199,394
14.224,351
14.249,302
14.274,237
14.299,161
14.324,88
14.349,26
14.374,-36
14.399,-116
14.424,-219
14.449,-310
14.474,-333
14.499,-249
14.524,-68
14.549,147
14.574,329
14.599,439
14.624,491
14.649,517
14.674,536
14.699,541
14.724,527
14.749,502
14.774,485
14.799,486
14.824,492
14.849,484
14.874,454
14.899,412
14.924,367
14.949,314
14.974,245
14.999,161
15.024,81
15.049,14
15.074,-48
15.099,-133
15.124,-244
15.149,-341
15.174,-362
15.199,-268
15.224,-79
15.249,132
15.274,299
15.299,395
15.324,439
15.349,462
15.374,477
15.399,479
15.424,465
15.449,448
15.474,446
15.499,459
15.524,471
15.549,464
15.574,436
15.599,394
15.624,347
15.649,290
15.674,219
15.699,141
15.724,70
15.749,6
15.774,-71
15.799,-178
15.824,-288
15.849,-339
15.874,-276
15.899,-102
15.924,119
15.949,307
15.974,422
15.999,476
16.024,498
16.049,504
16.074,490
16.099,456
16.124,415
16.149,387
16.174,374
16.199,368
16.224,356
16.249,332
16.274,293
16.299,233
16.324,158
16.349,82
16.374,20
16.399,-35
16.424,-110
16.449,-219
16.474,-325
16.499,-360
16.524,-275
16.549,-85
16.574,135
16.599,311
16.624,412
16.649,455
16.674,468
16.699,466
16.724,449
16.749,425
16.774,404
16.799,394
16.824,391
16.849,387
16.874,373
16.899,348
16.924,309
16.949,257
16.974,197
16.999,136
17.024,66
17.049,-28
17.074,-146
17.099,-246
17.124,-263
17.149,-159
17.174,30
17.199,226
17.224,361
17.249,425
17.274,453
17.299,475
17.324,490
17.349,485
17.374,462
17.399,443
17.424,442
17.449,448
17.474,439
17.499,407
17.524,362
17.549,311
17.574,249
17.599,174
17.624,95
17.649,28
17.674,-32
17.699,-112
17.724,-218
17.749,-312
17.774,-327
17.799,-221
17.824,-27
17.849,173
17.874,313
17.899,382
17.924,416
17.949,450
17.974,484
17.999,501
18.024,494
18.049,480
18.074,476
18.099,485
18.124,489
18.149,472
18.174,437
18.199,396
18.224,359
18.249,318
18.274,261
18.299,182
18.324,98
18.349,28
18.374,-23
18.399,-76
18.424,-156
18.449,-261
18.474,-346
18.499,-352
18.524,-248
18.549,-65
18.574,127
18.599,271
18.624,354
18.649,402
18.674,441
18.699,475
18.724,494
18.749,496
18.774,494
18.799,503
18.824,520
18.849,533
18.874,527
18.899,503
18.924,469
18.949,431
18.974,386
18.999,328
19.024,255
19.049,176
19.074,99
19.099,30
19.124,-37
19.149,-117
19.174,-213
19.199,-306
19.224,-355
19.249,-319
19.274,-190
19.299,-12
19.324,151
19.349,256
19.374,303
19.399,325
19.424,347
19.449,368
19.474,371
19.499,358
19.524,347
19.549,358
19.574,386
19.599,407
19.624,398
19.649,363
19.674,320
19.699,278
19.724,234
19.749,178
19.774,115
19.799,61
19.824,21
19.849,-20
19.874,-87
19.899,-172
19.924,-228
19.949,-202
19.974,-79
19.999,96
20.024,258
20.049,362
20.074,414
20.099,444
20.124,474
20.149,495
20.174,496
20.199,481
20.224,472
20.249,482
20.274,496
20.299,492
20.324,457
20.349,405
20.374,353
20.399,303
20.424,243
20.449,166
20.474,83
20.499,11
20.524,-52
20.549,-128
20.574,-222
20.599,-301
20.624,-308
20.649,-208
20.674,-26
20.699,164
20.724,301
20.749,371
20.774,406
20.799,442
20.824,482
20.849,506
20.874,500
20.899,475
20.924,454
20.949,447
20.974,442
20.999,421
21.024,382
21.049,333
21.074,281
21.099,221
21.124,149
21.149,73
21.174,7
21.199,-48
21.224,-112
21.249,-202
21.274,-301
21.299,-356
21.324,-314
21.349,-166
21.374,34
21.399,213
21.424,327
21.449,383
21.474,418
21.499,454
21.524,486
21.549,500
21.574,496
21.599,490
21.624,497
21.649,510
21.674,511
21.699,490
21.724,451
21.749,408
21.774,363
21.799,308
21.824,238
21.849,162
21.874,93
21.899,26
21.924,-54
21.949,-160
21.974,-260
21.999,-296
22.024,-223
22.049,-55
22.074,135
22.099,278
22.124,349
22.149,375
22.174,398
22.199,424
22.224,433
22.249,414
22.274,385
22.299,375
22.324,390
22.349,407
22.374,397
22.399,361
22.424,318
22.449,280
22.474,237
22.499,175
22.524,103
22.549,40
22.574,-6
22.599,-63
22.624,-154
22.649,-254
22.674,-298
22.699,-230
22.724,-62
22.749,134
22.774,283
22.799,363
22.824,402
22.849,430
22.874,449
22.899,446
22.924,422
22.949,398
22.974,390
22.999,393
23.024,388
23.049,368
23.074,340
23.099,308
23.124,267
23.149,209
23.174,140
23.199,73
23.224,7
23.249,-73
23.274,-172
23.299,-252
23.324,-253
23.349,-142
23.374,45
23.399,229
23.424,348
23.449,402
23.474,431
23.499,463
23.524,489
23.549,489
23.574,464
23.599,440
23.624,436
23.649,443
23.674,439
23.699,411
23.724,368
23.749,321
23.774,266
23.799,199
23.824,125
23.849,55
23.874,-10
23.899,-91
23.924,-193
23.949,-279
23.974,-288
23.999,-185
24.024,-3
24.049,178
24.074,298
24.099,353
24.124,381
24.149,410
24.174,436
24.199,436
24.224,414
24.249,394
24.274,395
24.299,409
24.324,408
24.349,382
24.374,345
24.399,310
24.424,274
24.449,221
24.474,150
24.499,77
24.524,20
24.549,-32
24.574,-105
24.599,-201
24.624,-275
24.649,-269
24.674,-156
24.699,22
24.724,196
24.749,314
24.774,377
24.799,415
24.824,452
24.849,482
24.874,491
24.899,480
24.924,469
24.949,473
24.974,488
24.999,494
25.024,479
25.049,447
25.074,408
25.099,366
25.124,313
25.149,247
25.174,178
25.199,118
25.224,70
25.249,12
25.274,-75
25.299,-184
25.324,-268
25.349,-271
25.374,-173
25.399,-9
25.424,150
25.449,254
25.474,298
25.499,314
25.524,331
25.549,351
25.574,359
25.599,349
25.624,338
25.649,343
25.674,366
25.699,385
25.724,383
25.749,359
25.774,326
25.799,290
25.824,246
25.849,190
25.874,132
25.899,88
25.924,52
25.949,0
25.974,-84
25.999,-177
26.024,-216
26.049,-152
26.074,4
26.099,187
26.124,327
26.149,401
26.174,434
26.199,454
26.224,464
26.249,452
26.274,418
26.299,385
26.324,372
26.349,380
26.374,385
26.399,370
26.424,338
26.449,298
26.474,254
26.499,201
26.524,138
26.549,74
26.574,14
26.599,-53
26.624,-143
26.649,-236
26.674,-280
26.699,-224
26.724,-69
26.749,124
26.774,281
26.799,368
26.824,407
26.849,435
26.874,464
26.899,477
26.924,462
26.949,435
26.974,419
26.999,421
27.024,425
27.049,410
27.074,375
27.099,331
27.124,284
27.149,226
27.174,152
27.199,74
27.224,6
27.249,-54
27.274,-129
27.299,-225
27.324,-310
27.349,-321
27.374,-220
27.399,-35
27.424,157
27.449,292
27.474,357
27.499,387
27.524,417
27.549,446
27.574,457
27.599,443
27.624,423
27.649,419
27.674,430
27.699,436
27.724,423
27.749,391
27.774,351
27.799,305
27.824,248
27.849,178
27.874,109
27.899,52
27.924,-1
27.949,-75
27.974,-173
27.999,-261
28.024,-279
28.049,-189
28.074,-12
28.099,185
28.124,338
28.149,426
28.174,471
28.199,504
28.224,535
28.249,555
28.274,556
28.299,545
28.324,540
28.349,547
28.374,555
28.399,543
28.424,504
28.449,445
28.474,382
28.499,323
28.524,260
28.549,186
28.574,107
28.599,36
28.624,-23
28.649,-88
28.674,-173
28.699,-265
28.724,-314
28.749,-270
28.774,-129
28.799,54
28.824,206
28.849,290
28.874,324
28.899,347
28.924,374
28.949,389
28.974,378
28.999,352
29.024,337
29.049,347
29.074,363
29.099,361
29.124,335
29.149,304
29.174,277
29.199,247
29.224,197
29.249,132
29.274,73
29.299,26
29.324,-27
29.349,-109
29.374,-202
29.399,-249
29.424,-199
29.449,-59
29.474,107
29.499,235
29.524,302
29.549,333
29.574,357
29.599,378
29.624,383
29.649,368
29.674,348
29.699,338
29.724,338
29.749,334
29.774,319
29.799,295
29.824,265
29.849,226
29.874,174
29.899,116
29.924,62
29.949,10
29.974,-57
29.999,-153
30.024,-254
30.049,-309
30.074,-273
30.099,-149
30.124,14
30.149,164
30.174,280
30.199,379
30.224,486
30.249,604
30.274,712
30.299,789
30.324,833
30.349,855
30.374,864
30.399,856
30.424,820
30.449,752
30.474,658
30.499,553
30.524,446
30.549,338
30.574,231
30.599,132
30.624,45
30.649,-31
30.674,-112
30.699,-211
30.724,-321
30.749,-404
30.774,-414
30.799,-327
30.824,-171
30.849,-6
30.874,113
30.899,176
30.924,210
30.949,245
30.974,284
30.999,313
31.024,319
31.049,315
31.074,322
31.099,342
31.124,357
31.149,347
31.174,310
31.199,264
31.224,220
31.249,175
31.274,115
31.299,43
31.324,-24
31.349,-75
31.374,-124
31.399,-199
31.424,-307
31.449,-415
31.474,-465
31.499,-417
31.524,-285
31.549,-123
31.574,10
31.599,91
31.624,130
31.649,157
31.674,199
31.699,267
31.724,362
31.749,481
31.774,616
31.799,754
31.824,873
31.849,955
31.874,991
31.899,988
31.924,959
31.949,911
31.974,840
31.999,742
32.024,623
32.049,503
32.074,398
32.099,304
32.124,201
32.149,85
32.174,-14
32.199,-46
32.224,20
32.249,163
32.274,320
32.299,432
32.324,481
32.349,479
32.374,449
32.399,398
32.424,327
32.449,246
32.474,171
32.499,109
32.524,57
32.549,11
32.574,-24
32.599,-50
32.624,-74
32.649,-113
32.674,-172
32.699,-234
32.724,-279
32.749,-308
32.774,-344
32.799,-399
32.824,-441
32.849,-414
32.874,-292
32.899,-104
32.924,81
32.949,216
32.974,299
32.999,354
33.024,401
33.049,436
33.074,448
33.099,444
33.124,440
33.149,447
33.174,458
33.199,463
33.224,455
33.249,433
33.274,396
33.299,348
33.324,296
33.349,244
33.374,187
33.399,108
33.424,8
33.449,-75
33.474,-92
33.499,-15
33.524,125
33.549,264
33.574,356
33.599,398
33.624,419
33.649,438
33.674,448
33.699,437
33.724,412
33.749,392
33.774,387
33.799,388
33.824,381
33.849,357
33.874,321
33.899,277
33.924,223
33.949,162
33.974,103
33.999,49
34.024,-9
34.049,-86
34.074,-168
34.099,-211
34.124,-170
34.149,-45
34.174,115
34.199,251
34.224,332
34.249,371
34.274,396
34.299,418
34.324,432
34.349,428
34.374,411
34.399,395
34.424,389
34.449,390
34.474,387
34.499,365
34.524,320
34.549,257
34.574,191
34.599,132
34.624,74
34.649,0
34.674,-96
34.699,-187
34.724,-221
34.749,-164
34.774,-34
34.799,111
34.824,221
34.849,284
34.874,321
34.899,353
34.924,379
34.949,388
34.974,379
34.999,369
35.024,370
35.049,377
35.074,378
35.099,362
35.124,333
35.149,295
35.174,247
35.199,192
35.224,133
35.249,74
35.274,7
35.299,-76
35.324,-166
35.349,-221
35.374,-197
35.399,-85
35.424,75
35.449,223
35.474,320
35.499,373
35.524,409
35.549,443
35.574,469
35.599,475
35.624,464
35.649,456
35.674,464
35.699,481
35.724,490
35.749,476
35.774,443
35.799,401
35.824,355
35.849,302
35.874,236
35.899,164
35.924,96
35.949,37
35.974,-20
35.999,-96
36.024,-192
36.049,-278
36.074,-308
36.099,-250
36.124,-116
36.149,40
36.174,166
36.199,239
36.224,274
36.249,304
36.274,341
36.299,377
36.324,398
36.349,403
36.374,406
36.399,417
36.424,435
36.449,445
36.474,437
36.499,411
36.524,372
36.549,329
36.574,281
36.599,225
36.624,160
36.649,94
36.674,38
36.699,-9
36.724,-62
36.749,-133
36.774,-215
36.799,-270
36.824,-255
36.849,-151
36.874,10
36.899,172
36.924,292
36.949,363
36.974,409
36.999,451
37.024,491
37.049,519
37.074,531
37.099,535
37.124,542
37.149,552
37.174,556
37.199,548
37.224,525
37.249,490
37.274,444
37.299,389
37.324,330
37.349,270
37.374,209
37.399,144
37.424,79
37.449,16
37.474,-42
37.499,-109
37.524,-191
37.549,-272
37.574,-307
37.599,-259
37.624,-128
37.649,35
37.674,169
37.699,245
37.724,278
37.749,301
37.774,327
37.799,344
37.824,342
37.849,330
37.874,332
37.899,356
37.924,386
37.949,397
37.974,382
37.999,352
38.024,318
38.049,282
38.074,236
38.099,181
38.124,130
38.149,88
38.174,39
38.199,-36
38.224,-133
38.249,-211
38.274,-214
38.299,-120
38.324,38
38.349,199
38.374,314
38.399,378
38.424,415
38.449,444
38.474,464
38.499,463
38.524,444
38.549,425
38.574,424
38.599,436
38.624,441
38.649,425
38.674,390
38.699,347
38.724,301
38.749,248
38.774,183
38.799,115
38.824,50
38.849,-16
38.874,-101
38.899,-205
38.924,-295
38.949,-314
38.974,-231
38.999,-66
39.024,113
39.049,247
39.074,321
39.099,359
39.124,392
39.149,426
39.174,446
39.199,445
39.224,435
39.249,436
39.274,452
39.299,466
39.324,462
39.349,436
39.374,397
39.399,350
39.424,291
39.449,218
39.474,139
39.499,69
39.524,8
39.549,-62
39.574,-159
39.599,-266
39.624,-330
39.649,-298
39.674,-164
39.699,20
39.724,184
39.749,287
39.774,339
39.799,377
39.824,416
39.849,449
39.874,459
39.899,447
39.924,436
39.949,443
39.974,461
39.999,472
40.024,462
40.049,434
40.074,398
40.099,356
40.124,300
40.149,228
40.174,152
40.199,87
40.224,33
40.249,-28
40.274,-112
40.299,-205
40.324,-261
40.349,-231
40.374,-108
40.399,70
40.424,240
40.449,357
40.474,417
40.499,445
40.524,467
40.549,485
40.574,490
40.599,478
40.624,465
40.649,466
40.674,480
40.699,488
40.724,468
40.749,422
40.774,367
40.799,318
40.824,274
40.849,220
40.874,156
40.899,92
40.924,40
40.949,-13
40.974,-88
40.999,-182
41.024,-252
41.049,-243
41.074,-138
41.099,21
41.124,169
41.149,263
41.174,308
41.199,333
41.224,352
41.249,359
41.274,347
41.299,328
41.324,320
41.349,331
41.374,347
41.399,350
41.424,334
41.449,308
41.474,276
41.499,239
41.524,195
41.549,147
41.574,94
41.599,27
41.624,-64
41.649,-160
41.674,-211
41.699,-173
41.724,-43
41.749,125
41.774,266
41.799,347
41.824,381
41.849,400
41.874,416
41.899,421
41.924,406
41.949,379
41.974,356
41.999,346
42.024,343
42.049,338
42.074,322
42.099,290
42.124,245
42.149,190
42.174,135
42.199,80
42.224,12
42.249,-75
42.274,-169
42.299,-223
42.324,-190
42.349,-67
42.374,97
42.399,236
42.424,318
42.449,357
42.474,388
42.499,422
42.524,447
42.549,448
42.574,432
42.599,417
42.624,413
42.649,410
42.674,397
42.699,371
42.724,335
42.749,291
42.774,235
42.799,169
42.824,102
42.849,40
42.874,-26
42.899,-111
42.924,-201
42.949,-254
42.974,-222
42.999,-99
43.024,66
43.049,209
43.074,291
43.099,328
43.124,355
43.149,387
43.174,417
43.199,427
43.224,420
43.249,416
43.274,425
43.299,438
43.324,439
43.349,419
43.374,390
43.399,362
43.424,332
43.449,287
43.474,222
43.499,151
43.524,91
43.549,43
43.574,-12
43.599,-94
43.624,-187
43.649,-244
43.674,-220
43.699,-108
43.724,53
43.749,208
43.774,315
43.799,374
43.824,407
43.849,433
43.874,458
43.899,478
43.924,489
43.949,497
43.974,505
43.999,515
44.024,520
44.049,512
44.074,487
44.099,447
44.124,397
44.149,340
44.174,280
44.199,215
44.224,149
44.249,88
44.274,34
44.299,-21
44.324,-94
44.349,-184
44.374,-265
44.399,-289
44.424,-225
44.449,-84
44.474,80
44.499,211
44.524,283
44.549,313
44.574,332
44.599,353
44.624,366
44.649,363
44.674,352
44.699,352
44.724,367
44.749,384
44.774,380
44.799,352
44.824,316
44.849,285
44.874,258
44.899,219
44.924,164
44.949,106
44.974,62
44.999,25
45.024,-26
45.049,-106
45.074,-187
45.099,-214
45.124,-150
45.149,-12
45.174,144
45.199,263
45.224,331
45.249,369
45.274,401
45.299,430
45.324,443
45.349,434
45.374,417
45.399,406
45.424,404
45.449,400
45.474,387
45.499,363
45.524,328
45.549,283
45.574,226
45.599,164
45.624,106
45.649,50
45.674,-20
45.699,-114
45.724,-203
45.749,-232
45.774,-165
45.799,-20
45.824,140
45.849,256
45.874,316
45.899,349
45.924,383
45.949,417
45.974,430
45.999,418
46.024,399
46.049,394
46.074,403
46.099,405
46.124,388
46.149,355
46.174,316
46.199,274
46.224,221
46.249,155
46.274,89
46.299,28
46.324,-36
46.349,-120
46.374,-213
46.399,-270
46.424,-243
46.449,-122
46.474,48
46.499,201
46.524,298
46.549,350
46.574,390
46.599,435
46.624,473
46.649,485
46.674,473
46.699,460
46.724,465
46.749,482
46.774,488
46.799,468
46.824,430
46.849,388
46.874,345
46.899,291
46.924,220
46.949,141
46.974,72
46.999,16
47.024,-45
47.049,-133
47.074,-232
47.099,-294
47.124,-265
47.149,-139
47.174,33
47.199,187
47.224,282
47.249,329
47.274,362
47.299,402
47.324,442
47.349,466
47.374,474
47.399,481
47.424,497
47.449,518
47.474,526
47.499,510
47.524,475
47.549,433
47.574,387
47.599,333
47.624,264
47.649,189
47.674,120
47.699,65
47.724,13
47.749,-54
47.774,-140
47.799,-216
47.824,-235
47.849,-168
47.874,-32
47.899,121
47.924,237
47.949,297
47.974,322
47.999,339
48.024,355
48.049,359
48.074,342
48.099,319
48.124,313
48.149,330
48.174,351
48.199,352
48.224,329
48.249,293
48.274,257
48.299,218
48.324,167
48.349,111
48.374,61
48.399,19
48.424,-33
48.449,-114
48.474,-201
48.499,-236
48.524,-176
48.549,-31
48.574,135
48.599,258
48.624,322
48.649,354
48.674,384
48.699,414
48.724,425
48.749,411
48.774,391
48.799,386
48.824,399
48.849,410
48.874,404
48.899,379
48.924,344
48.949,300
48.974,248
48.999,189
49.024,129
49.049,68
49.074,-4
49.099,-90
49.124,-162
49.149,-175
49.174,-101
49.199,39
49.224,187
49.249,292
49.274,345
49.299,371
49.324,397
49.349,421
49.374,431
49.399,423
49.424,413
49.449,412
49.474,419
49.499,418
49.524,402
49.549,372
49.574,336
49.599,289
49.624,227
49.649,156
49.674,89
49.699,33
49.724,-25
49.749,-105
49.774,-201
49.799,-268
49.824,-256
49.849,-152
49.874,2
49.899,143
49.924,232
49.949,276
49.974,309
49.999,349
50.024,385
50.049,401
50.074,395
50.099,389
50.124,399
50.149,419
50.174,429
50.199,415
50.224,383
50.249,350
50.274,321
50.299,284
50.324,231
50.349,170
50.374,115
50.399,68
50.424,10
50.449,-73
50.474,-167
50.499,-220
50.524,-187
50.549,-65
50.574,99
50.599,245
50.624,341
50.649,394
50.674,430
50.699,464
50.724,494
50.749,509
50.774,512
50.799,514
50.824,522
50.849,534
50.874,537
50.899,521
50.924,484
50.949,431
50.974,369
50.999,299
51.024,220
51.049,136
51.074,58
51.099,-4
51.124,-57
51.149,-118
51.174,-201
51.199,-293
51.224,-348
51.249,-321
51.274,-206
51.299,-47
51.324,90
51.349,173
51.374,211
51.399,241
51.424,280
51.449,320
51.474,346
51.499,363
51.524,391
51.549,440
51.574,492
51.599,523
51.624,520
51.649,494
51.674,459
51.699,412
51.724,343
51.749,254
51.774,166
51.799,93
51.824,28
51.849,-53
51.874,-152
51.899,-227
51.924,-224
51.949,-123
51.974,34
51.999,182
52.024,277
52.049,323
52.074,354
52.099,389
52.124,416
52.149,419
52.174,401
52.199,387
52.224,391
52.249,407
52.274,414
52.299,399
52.324,369
52.349,332
52.374,288
52.399,231
52.424,163
52.449,99
52.474,49
52.499,0
52.524,-70
52.549,-165
52.574,-249
52.599,-267
52.624,-189
52.649,-40
52.674,119
52.699,239
52.724,307
52.749,347
52.774,383
52.799,418
52.824,439
52.849,440
52.874,431
52.899,430
52.924,441
52.949,451
52.974,446
52.999,423
53.024,389
53.049,353
53.074,313
53.099,259
53.124,191
53.149,120
53.174,59
53.199,4
53.224,-63
53.249,-152
53.274,-244
53.299,-290
53.324,-249
53.349,-120
53.374,48
53.399,194
53.424,285
53.449,329
53.474,358
53.499,391
53.524,419
53.549,430
53.574,423
53.599,416
53.624,425
53.649,443
53.674,450
53.699,435
53.724,405
53.749,373
53.774,342
53.799,301
53.824,242
53.849,174
53.874,115
53.899,70
53.924,22
53.949,-48
53.974,-137
53.999,-203
54.024,-196
54.049,-97
54.074,62
54.099,223
54.124,337
54.149,398
54.174,428
54.199,453
54.224,474
54.249,475
54.274,452
54.299,419
54.324,403
54.349,414
54.374,436
54.399,444
54.424,424
54.449,385
54.474,343
54.499,300
54.524,249
54.549,188
54.574,124
54.599,66
54.624,9
54.649,-63
54.674,-155
54.699,-233
54.724,-246
54.749,-165
54.774,-15
54.799,139
54.824,249
54.849,307
54.874,336
54.899,358
54.924,372
54.949,366
54.974,341
54.999,315
55.024,303
55.049,305
55.074,306
55.099,298
55.124,280
55.149,256
55.174,223
55.199,181
55.224,136
55.249,91
55.274,39
55.299,-34
55.324,-130
55.349,-208
55.374,-211
55.399,-115
55.424,48
55.449,210
55.474,321
55.499,377
55.524,409
55.549,437
55.574,453
55.599,444
55.624,420
55.649,401
55.674,403
55.699,414
55.724,414
55.749,392
55.774,359
55.799,322
55.824,277
55.849,218
55.874,152
55.899,87
55.924,23
55.949,-55
55.974,-153
55.999,-237
56.024,-251
56.049,-160
56.074,3
56.099,171
56.124,283
56.149,335
56.174,363
56.199,394
56.224,424
56.249,433
56.274,419
56.299,400
56.324,398
56.349,410
56.374,417
56.399,405
56.424,379
56.449,349
56.474,313
56.499,262
56.524,196
56.549,126
56.574,62
56.599,-2
56.624,-82
56.649,-173
56.674,-235
56.699,-221
56.724,-111
56.749,54
56.774,212
56.799,317
56.824,367
56.849,394
56.874,422
56.899,446
56.924,455
56.949,446
56.974,438
56.999,444
57.024,462
57.049,472
57.074,459
57.099,426
57.124,386
57.149,343
57.174,292
57.199,228
57.224,161
57.249,104
57.274,54
57.299,-6
57.324,-95
57.349,-196
57.374,-260
57.399,-236
57.424,-117
57.449,50
57.474,198
57.499,286
57.524,323
57.549,343
57.574,364
57.599,382
57.624,382
57.649,367
57.674,356
57.699,365
57.724,385
57.749,394
57.774,379
57.799,345
57.824,308
57.849,270
57.874,222
57.899,155
57.924,81
57.949,17
57.974,-33
57.999,-89
58.024,-167
58.049,-256
58.074,-308
58.099,-278
58.124,-157
58.149,13
58.174,175
58.199,290
58.224,359
58.249,405
58.274,445
58.299,477
58.324,492
58.349,493
58.374,494
58.399,507
58.424,526
58.449,537
58.474,527
58.499,498
58.524,460
58.549,421
58.574,374
58.599,312
58.624,236
58.649,159
58.674,92
58.699,29
58.724,-45
58.749,-136
58.774,-213
58.799,-230
58.824,-162
58.849,-30
58.874,110
58.899,208
58.924,256
58.949,281
58.974,313
58.999,353
59.024,384
59.049,395
59.074,390
59.099,385
59.124,383
59.149,374
59.174,348
59.199,309
59.224,269
59.249,230
59.274,188
59.299,145
59.324,111
59.349,97
59.374,90
59.399,63
59.424,5
59.449,-55
59.474,-65
59.499,6
59.524,135
59.549,262
59.574,340
59.599,368
59.624,375
59.649,383
59.674,388
59.699,375
59.724,347
59.749,323
59.774,319
59.799,329
59.824,334
59.849,324
59.874,301
59.899,271
59.924,231
59.949,180
59.974,120
59.999,62
60.024,4
60.049,-65
60.074,-154
60.099,-231
60.124,-248
60.149,-174
60.174,-30
60.199,119
60.224,225
60.249,280
60.274,315
60.299,354
60.324,396
60.349,426
60.374,443
60.399,466
60.424,508
60.449,555
60.474,578
60.499,563
60.524,519
60.549,461
60.574,397
60.599,319
60.624,231
60.649,145
60.674,68
60.699,-11
60.724,-111
60.749,-222
60.774,-300
60.799,-292
60.824,-189
60.849,-32
60.874,109
60.899,197
60.924,238
60.949,265
60.974,297
60.999,330
61.024,351
61.049,358
61.074,360
61.099,369
61.124,386
61.149,399
61.174,398
61.199,384
61.224,361
61.249,335
61.274,303
61.299,256
61.324,195
61.349,131
61.374,79
61.399,41
61.424,2
61.449,-59
61.474,-140
61.499,-202
61.524,-193
61.549,-92
61.574,71
61.599,236
61.624,352
61.649,412
61.674,441
61.699,463
61.724,482
61.749,489
61.774,478
61.799,462
61.824,454
61.849,460
61.874,470
61.899,476
61.924,472
61.949,460
61.974,443
61.999,418
62.024,381
62.049,321
62.074,236
62.099,132
62.124,24
62.149,-72
62.174,-161
62.199,-255
62.224,-356
62.249,-439
62.274,-457
62.299,-379
62.324,-220
62.349,-37
62.374,113
62.399,205
62.424,251
62.449,275
62.474,291
62.499,301
62.524,309
62.549,323
62.574,350
62.599,387
62.624,421
62.649,443
62.674,449
62.699,444
62.724,431
62.749,411
62.774,383
62.799,342
62.824,291
62.849,236
62.874,186
62.899,148
62.924,112
62.949,66
62.974,4
62.999,-47
63.024,-47
63.049,36
63.074,190
63.099,360
63.124,493
63.149,568
63.174,599
63.199,611
63.224,610
63.249,588
63.274,544
63.299,493
63.324,456
63.349,437
63.374,419
63.399,384
63.424,332
63.449,276
63.474,231
63.499,193
63.524,150
63.549,97
63.574,42
63.599,-5
63.624,-51
63.649,-112
63.674,-197
63.699,-289
63.724,-346
63.749,-330
63.774,-237
63.799,-100
63.824,30
63.849,121
63.874,171
63.899,200
63.924,225
63.949,247
63.974,258
63.999,256
64.024,251
64.049,253
64.074,261
64.099,263
64.124,243
64.149,199
64.174,144
64.199,88
64.224,30
64.249,-40
64.274,-124
64.299,-209
64.324,-272
64.349,-305
64.374,-314
64.399,-300
64.424,-245
64.449,-115
64.474,107
64.499,390
64.524,665
64.549,863
64.574,965
64.599,995
64.624,993
64.649,978
64.674,946
64.699,894
64.724,835
64.749,787
64.774,754
64.799,724
64.824,685
64.849,639
64.874,591
64.899,541
64.924,477
64.949,388
64.974,282
64.999,171
65.024,52
65.049,-87
65.074,-247
65.099,-392
65.124,-466
65.149,-434
65.174,-317
65.199,-173
65.224,-55
65.249,19
65.274,65
65.299,99
65.324,123
65.349,132
65.374,125
65.399,116
65.424,115
65.449,123
65.474,135
65.499,141
65.524,132
65.549,108
65.574,74
65.599,39
65.624,6
65.649,-35
65.674,-98
65.699,-179
65.724,-239
65.749,-225
65.774,-109
65.799,82
65.824,284
65.849,438
65.874,526
65.899,564
65.924,575
65.949,569
65.974,548
65.999,519
66.024,496
66.049,484
66.074,480
66.099,470
66.124,447
66.149,413
66.174,370
66.199,318
66.224,258
66.249,193
66.274,122
66.299,37
66.324,-63
66.349,-159
66.374,-204
66.399,-158
66.424,-25
66.449,141
66.474,279
66.499,357
66.524,392
66.549,413
66.574,430
66.599,434
66.624,417
66.649,391
66.674,379
66.699,386
66.724,397
66.749,390
66.774,364
66.799,330
66.824,292
66.849,243
66.874,176
66.899,101
66.924,36
66.949,-15
66.974,-74
66.999,-162
67.024,-265
67.049,-330
67.074,-299
67.099,-164
67.124,26
67.149,202
67.174,319
67.199,381
67.224,416
67.249,442
67.274,457
67.299,454
67.324,439
67.349,430
67.374,438
67.399,455
67.424,464
67.449,456
67.474,438
67.499,417
67.524,391
67.549,351
67.574,296
67.599,235
67.624,179
67.649,121
67.674,44
67.699,-57
67.724,-151
67.749,-183
67.774,-119
67.799,23
67.824,183
67.849,301
67.874,357
67.899,376
67.924,383
67.949,382
67.974,362
67.999,323
68.024,288
68.049,280
68.074,298
68.099,317
68.124,315
68.149,291
68.174,261
68.199,229
68.224,187
68.249,130
68.274,68
68.299,13
68.324,-35
68.349,-101
68.374,-192
68.399,-273
68.424,-284
68.449,-188
68.474,-9
68.499,180
68.524,321
68.549,400
68.574,442
68.599,469
68.624,483
68.649,474
68.674,450
68.699,427
68.724,419
68.749,418
68.774,411
68.799,393
68.824,367
68.849,334
68.874,288
68.899,227
68.924,160
68.949,94
68.974,23
68.999,-66
69.024,-170
69.049,-240
69.074,-220
69.099,-97
69.124,81
69.149,240
69.174,333
69.199,373
69.224,395
69.249,418
69.274,430
69.299,416
69.324,390
69.349,373
69.374,376
69.399,383
69.424,375
69.449,348
69.474,313
69.499,272
69.524,220
69.549,154
69.574,83
69.599,19
69.624,-48
69.649,-137
69.674,-239
69.699,-304
69.724,-272
69.749,-131
69.774,61
69.799,224
69.824,319
69.849,363
69.874,397
69.899,434
69.924,456
69.949,448
69.974,428
69.999,423
70.024,441
70.049,456
70.074,447
70.099,415
70.124,378
70.149,345
70.174,302
70.199,237
70.224,160
70.249,93
70.274,40
70.299,-21
70.324,-112
70.349,-209
70.374,-255
70.399,-200
70.424,-51
70.449,132
70.474,287
70.499,384
70.524,436
70.549,466
70.574,486
70.599,495
70.624,491
70.649,480
70.674,477
70.699,485
70.724,499
70.749,504
70.774,489
70.799,455
70.824,409
70.849,358
70.874,302
70.899,235
70.924,158
70.949,82
70.974,17
70.999,-44
71.024,-119
71.049,-211
71.074,-288
71.099,-297
71.124,-205
71.149,-40
71.174,131
71.199,250
71.224,307
71.249,331
71.274,351
71.299,366
71.324,362
71.349,339
71.374,317
71.399,315
71.424,330
71.449,342
71.474,337
71.499,318
71.524,289
71.549,252
71.574,202
71.599,147
71.624,96
71.649,44
71.674,-22
71.699,-109
71.724,-185
71.749,-196
71.774,-110
71.799,47
71.824,213
71.849,332
71.874,393
71.899,420
71.924,435
71.949,440
71.974,426
71.999,396
72.024,370
72.049,360
72.074,367
72.099,374
72.124,366
72.149,339
72.174,295
72.199,242
72.224,188
72.249,136
72.274,74
72.299,-10
72.324,-111
72.349,-191
72.374,-198
72.399,-107
72.424,48
72.449,203
72.474,308
72.499,360
72.524,385
72.549,405
72.574,416
72.599,405
72.624,377
72.649,351
72.674,342
72.699,349
72.724,356
72.749,347
72.774,319
72.799,275
72.824,220
72.849,161
72.874,104
72.899,44
72.924,-32
72.949,-129
72.974,-216
72.999,-242
73.024,-170
73.049,-17
73.074,152
73.099,275
73.124,337
73.149,365
73.174,391
73.199,414
73.224,418
73.249,400
73.274,379
73.299,378
73.324,392
73.349,400
73.374,385
73.399,354
73.424,319
73.449,279
73.474,224
73.499,155
73.524,90
73.549,41
73.574,-4
73.599,-74
73.624,-171
73.649,-252
73.674,-258
73.699,-162
73.724,1
73.749,166
73.774,283
73.799,349
73.824,391
73.849,428
73.874,459
73.899,475
73.924,478
73.949,480
73.974,490
73.999,508
74.024,521
74.049,521
74.074,505
74.099,476
74.124,440
74.149,399
74.174,353
74.199,299
74.224,239
74.249,176
74.274,115
74.299,54
74.324,-17
74.349,-106
74.374,-197
74.399,-247
74.424,-220
74.449,-108
74.474,44
74.499,179
74.524,262
74.549,299
74.574,323
74.599,351
74.624,376
74.649,381
74.674,366
74.699,351
74.724,355
74.749,376
74.774,391
74.799,383
74.824,354
74.849,319
74.874,287
74.899,251
74.924,203
74.949,146
74.974,92
74.999,46
75.024,-1
75.049,-67
75.074,-141
75.099,-184
75.124,-150
75.149,-34
75.174,124
75.199,264
75.224,349
75.249,385
75.274,403
75.299,418
75.324,424
75.349,411
75.374,386
75.399,373
75.424,381
75.449,397
75.474,399
75.499,379
75.524,347
75.549,314
75.574,275
75.599,219
75.624,146
75.649,72
75.674,12
75.699,-46
75.724,-128
75.749,-231
75.774,-317
75.799,-328
75.824,-244
75.849,-104
75.874,24
75.899,99
75.924,125
75.949,136
75.974,156
75.999,176
76.024,180
76.049,164
76.074,147
76.099,145
76.124,160
76.149,172
76.174,168
76.199,142
76.224,103
76.249,57
76.274,9
76.299,-27
76.324,-34
76.349,4
76.374,89
76.399,189
76.424,266
76.449,302
76.474,323
76.499,375
76.524,494
76.549,664
76.574,829
76.599,933
76.624,964
76.649,948
76.674,921
76.699,892
76.724,847
76.749,779
76.774,703
76.799,643
76.824,608
76.849,583
76.874,552
76.899,510
76.924,464
76.949,412
76.974,342
76.999,246
77.024,134
77.049,24
77.074,-84
77.099,-210
77.124,-357
77.149,-490
77.174,-551
77.199,-504
77.224,-374
77.249,-227
77.274,-117
77.299,-49
77.324,-1
77.349,46
77.374,88
77.399,114
77.424,124
77.449,134
77.474,156
77.499,184
77.524,204
77.549,210
77.574,201
77.599,180
77.624,148
77.649,111
77.674,72
77.699,26
77.724,-36
77.749,-111
77.774,-168
77.799,-160
77.824,-63
77.849,96
77.874,255
77.899,364
77.924,419
77.949,447
77.974,473
77.999,493
78.024,494
78.049,480
78.074,467
78.099,469
78.124,478
78.149,475
78.174,452
78.199,415
78.224,371
78.249,320
78.274,262
78.299,197
78.324,131
78.349,58
78.374,-31
78.399,-125
78.424,-180
78.449,-150
78.474,-28
78.499,135
78.524,273
78.549,348
78.574,379
78.599,398
78.624,419
78.649,427
78.674,411
78.699,386
78.724,376
78.749,384
78.774,390
78.799,375
78.824,342
78.849,307
78.874,278
78.899,242
78.924,189
78.949,124
78.974,64
78.999,9
79.024,-60
79.049,-151
79.074,-234
79.099,-249
79.124,-160
79.149,6
79.174,181
79.199,304
79.224,365
79.249,392
79.274,412
79.299,425
79.324,421
79.349,400
79.374,384
79.399,386
79.424,400
79.449,408
79.474,396
79.499,369
79.524,336
79.549,298
79.574,247
79.599,184
79.624,120
79.649,63
79.674,3
79.699,-75
79.724,-171
79.749,-245
79.774,-245
79.799,-146
79.824,24
79.849,200
79.874,326
79.899,391
79.924,419
79.949,435
79.974,443
79.999,436
80.024,415
80.049,399
80.074,402
80.099,420
80.124,435
80.149,429
80.174,407
80.199,380
80.224,351
80.249,311
80.274,255
80.299,191
80.324,133
80.349,77
80.374,4
80.399,-95
80.424,-188
80.449,-217
80.474,-143
80.499,11
80.524,178
80.549,297
80.574,352
80.599,368
80.624,374
80.649,377
80.674,371
80.699,355
80.724,342
80.749,340
80.774,344
80.799,344
80.824,333
80.849,315
80.874,290
80.899,254
80.924,203
80.949,145
80.974,89
80.999,32
81.024,-40
81.049,-130
81.074,-205
81.099,-217
81.124,-134
81.149,18
81.174,180
81.199,296
81.224,350
81.249,367
81.274,375
81.299,381
81.324,378
81.349,359
81.374,334
81.399,319
81.424,322
81.449,330
81.474,325
81.499,295
81.524,246
81.549,196
81.574,153
81.599,109
81.624,43
81.649,-47
81.674,-133
81.699,-163
81.724,-102
81.749,36
81.774,197
81.799,322
81.824,388
81.849,409
81.874,415
81.899,419
81.924,417
81.949,401
81.974,372
81.999,345
82.024,330
82.049,324
82.074,312
82.099,283
82.124,234
82.149,179
82.174,127
82.199,74
82.224,4
82.249,-88
82.274,-180
82.299,-221
82.324,-169
82.349,-31
82.374,135
82.399,268
82.424,340
82.449,372
82.474,395
82.499,418
82.524,429
82.549,416
82.574,391
82.599,377
82.624,379
82.649,386
82.674,380
82.699,355
82.724,319
82.749,274
82.774,221
82.799,160
82.824,100
82.849,44
82.874,-18
82.899,-102
82.924,-195
82.949,-252
82.974,-221
82.999,-93
83.024,81
83.049,237
83.074,334
83.099,383
83.124,416
83.149,449
83.174,476
83.199,485
83.224,481
83.249,477
83.274,486
83.299,501
83.324,509
83.349,501
83.374,478
83.399,445
83.424,406
83.449,361
83.474,308
83.499,250
83.524,192
83.549,136
83.574,79
83.599,11
83.624,-73
83.649,-161
83.674,-216
83.699,-195
83.724,-87
83.749,69
83.774,210
83.799,287
83.824,305
83.849,303
83.874,314
83.899,332
83.924,338
83.949,327
83.974,320
83.999,337
84.024,368
84.049,383
84.074,364
84.099,323
84.124,287
84.149,263
84.174,232
84.199,179
84.224,115
84.249,63
84.274,26
84.299,-21
84.324,-101
84.349,-191
84.374,-228
84.399,-170
84.424,-32
84.449,116
84.474,219
84.499,266
84.524,290
84.549,317
84.574,343
84.599,352
84.624,342
84.649,331
84.674,337
84.699,354
84.724,366
84.749,361
84.774,344
84.799,320
84.824,288
84.849,244
84.874,193
84.899,144
84.924,90
84.949,20
84.974,-68
84.999,-140
85.024,-144
85.049,-58
85.074,81
85.099,210
85.124,284
85.149,314
85.174,338
85.199,375
85.224,408
85.249,414
85.274,395
85.299,378
85.324,384
85.349,404
85.374,412
85.399,394
85.424,359
85.449,319
85.474,277
85.499,227
85.524,168
85.549,111
85.574,58
85.599,-3
85.624,-83
85.649,-165
85.674,-206
85.699,-167
85.724,-51
85.749,94
85.774,213
85.799,282
85.824,318
85.849,350
85.874,389
85.899,421
85.924,434
85.949,429
85.974,425
85.999,432
86.024,446
86.049,450
86.074,435
86.099,404
86.124,367
86.149,325
86.174,271
86.199,206
86.224,137
86.249,78
86.274,26
86.299,-34
86.324,-117
86.349,-210
86.374,-273
86.399,-261
86.424,-164
86.449,-19
86.474,120
86.499,217
86.524,274
86.549,312
86.574,349
86.599,384
86.624,405
86.649,413
86.674,418
86.699,430
86.724,447
86.749,459
86.774,458
86.799,442
86.824,417
86.849,384
86.874,342
86.899,289
86.924,229
86.949,171
86.974,121
86.999,76
87.024,22
87.049,-51
87.074,-134
87.099,-194
87.124,-190
87.149,-102
87.174,44
87.199,197
87.224,306
87.249,362
87.274,388
87.299,412
87.324,437
87.349,450
87.374,440
87.399,422
87.424,415
87.449,425
87.474,434
87.499,422
87.524,390
87.549,353
87.574,319
87.599,281
87.624,227
87.649,159
87.674,96
87.699,44
87.724,-10
87.749,-85
87.774,-169
87.799,-216
87.824,-181
87.849,-65
87.874,84
87.899,211
87.924,288
87.949,328
87.974,352
87.999,368
88.024,369
88.049,354
88.074,336
88.099,329
88.124,333
88.149,338
88.174,335
88.199,321
88.224,295
88.249,255
88.274,203
88.299,150
88.324,102
88.349,54
88.374,-11
88.399,-97
88.424,-172
88.449,-185
88.474,-108
88.499,36
88.524,190
88.549,298
88.574,350
88.599,371
88.624,388
88.649,406
88.674,414
88.699,401
88.724,377
88.749,358
88.774,353
88.799,353
88.824,339
88.849,305
88.874,255
88.899,206
88.924,163
88.949,115
88.974,44
88.999,-52
89.024,-144
89.049,-180
89.074,-130
89.099,-8
89.124,136
89.149,251
89.174,319
89.199,356
89.224,382
89.249,404
89.274,414
89.299,407
89.324,393
89.349,383
89.374,381
89.399,379
89.424,367
89.449,343
89.474,306
89.499,258
89.524,204
89.549,148
89.574,92
89.599,26
89.624,-58
89.649,-150
89.674,-209
89.699,-191
89.724,-88
89.749,60
89.774,195
89.799,281
89.824,326
89.849,359
89.874,394
89.899,417
89.924,416
89.949,398
89.974,387
89.999,396
90.024,412
90.049,413
90.074,394
90.099,364
90.124,334
90.149,301
90.174,252
90.199,190
90.224,131
90.249,82
90.274,35
90.299,-31
90.324,-119
90.349,-191
90.374,-199
90.399,-118
90.424,24
90.449,172
90.474,281
90.499,343
90.524,377
90.549,406
90.574,433
90.599,449
90.624,451
90.649,450
90.674,457
90.699,472
90.724,480
90.749,466
90.774,434
90.799,394
90.824,358
90.849,319
90.874,267
90.899,201
90.924,135
90.949,81
90.974,31
90.999,-34
91.024,-119
91.049,-190
91.074,-198
91.099,-118
91.124,20
91.149,158
91.174,247
91.199,287
91.224,307
91.249,330
91.274,348
91.299,347
91.324,329
91.349,314
91.374,319
91.399,335
91.424,341
91.449,325
91.474,298
91.499,271
91.524,243
91.549,202
91.574,146
91.599,88
91.624,40
91.649,-9
91.674,-77
91.699,-157
91.724,-206
91.749,-175
91.774,-59
91.799,93
91.824,219
91.849,288
91.874,321
91.899,348
91.924,378
91.949,394
91.974,386
91.999,366
92.024,357
92.049,368
92.074,383
92.099,384
92.124,366
92.149,334
92.174,294
92.199,248
92.224,196
92.249,141
92.274,77
92.299,-1
92.324,-91
92.349,-162
92.374,-166
92.399,-83
92.424,59
92.449,199
92.474,290
92.499,332
92.524,359
92.549,392
92.574,422
92.599,429
92.624,414
92.649,400
92.674,405
92.699,419
92.724,420
92.749,398
92.774,363
92.799,326
92.824,285
92.849,230
92.874,163
92.899,99
92.924,47
92.949,-10
92.974,-93
92.999,-191
93.024,-254
93.049,-231
93.074,-115
93.099,41
93.124,176
93.149,256
93.174,297
93.199,332
93.224,375
93.249,412
93.274,428
93.299,424
93.324,418
93.349,425
93.374,444
93.399,458
93.424,451
93.449,425
93.474,388
93.499,349
93.524,306
93.549,254
93.574,190
93.599,126
93.624,71
93.649,22
93.674,-37
93.699,-118
93.724,-199
93.749,-235
93.774,-187
93.799,-57
93.824,106
93.849,245
93.874,330
93.899,373
93.924,403
93.949,433
93.974,458
93.999,468
94.024,465
94.049,462
94.074,467
94.099,477
94.124,480
94.149,467
94.174,438
94.199,399
94.224,354
94.249,306
94.274,255
94.299,199
94.324,140
94.349,82
94.374,27
94.399,-30
94.424,-98
94.449,-175
94.474,-235
94.499,-237
94.524,-154
94.549,-8
94.574,146
94.599,255
94.624,306
94.649,324
94.674,340
94.699,356
94.724,357
94.749,340
94.774,322
94.799,326
94.824,348
94.849,366
94.874,359
94.899,330
94.924,297
94.949,267
94.974,234
94.999,186
95.024,129
95.049,75
95.074,23
95.099,-40
95.124,-120
95.149,-186
95.174,-190
95.199,-106
95.224,43
95.249,196
95.274,304
95.299,361
95.324,390
95.349,412
95.374,424
95.399,418
95.424,395
95.449,375
95.474,370
95.499,377
95.524,380
95.549,370
95.574,349
95.599,318
95.624,277
95.649,221
95.674,158
95.699,101
95.724,49
95.749,-12
95.774,-98
95.799,-187
95.824,-229
95.849,-180
95.874,-44
95.899,124
95.924,261
95.949,341
95.974,382
95.999,414
96.024,444
96.049,456
96.074,442
96.099,417
96.124,405
96.149,413
96.174,422
96.199,415
96.224,388
96.249,352
96.274,314
96.299,269
96.324,211
96.349,148
96.374,88
96.399,26
96.424,-52
96.449,-149
96.474,-231
96.499,-241
96.524,-150
96.549,13
96.574,180
96.599,297
96.624,357
96.649,393
96.674,427
96.699,453
96.724,454
96.749,429
96.774,402
96.799,397
96.824,412
96.849,423
96.874,411
96.899,381
96.924,345
96.949,306
96.974,255
96.999,186
97.024,110
97.049,44
97.074,-11
97.099,-77
97.124,-164
97.149,-249
97.174,-277
97.199,-209
97.224,-56
97.249,120
97.274,259
97.299,336
97.324,371
97.349,394
97.374,413
97.399,419
97.424,406
97.449,388
97.474,384
97.499,399
97.524,415
97.549,414
97.574,393
97.599,362
97.624,329
97.649,288
97.674,233
97.699,168
97.724,105
97.749,50
97.774,-9
97.799,-91
97.824,-184
97.849,-247
97.874,-229
97.899,-118
97.924,48
97.949,209
97.974,322
97.999,384
98.024,418
98.049,442
98.074,457
98.099,455
98.124,439
98.149,427
98.174,431
98.199,449
98.224,463
98.249,458
98.274,433
98.299,397
98.324,357
98.349,309
98.374,250
98.399,183
98.424,118
98.449,57
98.474,-9
98.499,-94
98.524,-188
98.549,-248
98.574,-227
98.599,-112
98.624,58
98.649,218
98.674,321
98.699,367
98.724,386
98.749,402
98.774,410
98.799,396
98.824,362
98.849,334
98.874,330
98.899,345
98.924,356
98.949,345
98.974,317
98.999,281
99.024,241
99.049,191
99.074,131
99.099,69
99.124,13
99.149,-44
99.174,-119
99.199,-199
99.224,-237
99.249,-189
99.274,-53
99.299,120
99.324,265
99.349,349
99.374,389
99.399,415
99.424,434
99.449,436
99.474,415
99.499,387
99.524,375
99.549,383
99.574,395
99.599,393
99.624,371
99.649,338
99.674,296
99.699,243
99.724,181
99.749,118
99.774,58
99.799,-8
99.824,-97
99.849,-189
99.874,-234
99.899,-183
99.924,-36
99.949,146
99.974,291
99.999,367
100.024,397
100.049,416
100.074,437
100.099,444
100.124,428
100.149,403
100.174,392
100.199,400
100.224,408
100.249,398
100.274,370
100.299,338
100.324,304
100.349,257
100.374,191
100.399,117
100.424,52
100.449,-2
100.474,-67
100.499,-157
100.524,-248
100.549,-285
100.574,-224
100.599,-75
100.624,103
100.649,249
100.674,338
100.699,384
100.724,414
100.749,441
100.774,459
100.799,459
100.824,449
100.849,441
100.874,447
100.899,461
100.924,466
100.949,450
100.974,414
100.999,369
101.024,324
101.049,278
101.074,221
101.099,151
101.124,78
101.149,14
101.174,-40
101.199,-104
101.224,-187
101.249,-270
101.274,-309
101.299,-260
101.324,-122
101.349,56
101.374,213
101.399,313
101.424,364
101.449,392
101.474,417
101.499,436
101.524,442
101.549,437
101.574,436
101.599,451
101.624,475
101.649,490
101.674,483
101.699,457
101.724,424
101.749,391
101.774,355
101.799,306
101.824,244
101.849,181
101.874,125
101.899,71
101.924,2
101.949,-89
101.974,-184
101.999,-233
102.024,-197
102.049,-77
102.074,81
102.099,218
102.124,302
102.149,339
102.174,358
102.199,376
102.224,388
102.249,384
102.274,366
102.299,354
102.324,361
102.349,380
102.374,393
102.399,384
102.424,359
102.449,330
102.474,298
102.499,258
102.524,203
102.549,138
102.574,77
102.599,26
102.624,-29
102.649,-104
102.674,-188
102.699,-241
102.724,-218
102.749,-109
102.774,49
102.799,201
102.824,304
102.849,357
102.874,383
102.899,397
102.924,402
102.949,392
102.974,372
102.999,359
103.024,360
103.049,372
103.074,379
103.099,371
103.124,349
103.149,315
103.174,269
103.199,215
103.224,159
103.249,106
103.274,50
103.299,-26
103.324,-121
103.349,-204
103.374,-218
103.399,-134
103.424,26
103.449,200
103.474,325
103.499,386
103.524,411
103.549,430
103.574,451
103.599,457
103.624,441
103.649,415
103.674,401
103.699,406
103.724,415
103.749,410
103.774,384
103.799,346
103.824,301
103.849,247
103.874,181
103.899,109
103.924,42
103.949,-17
103.974,-85
103.999,-170
104.024,-256
104.049,-297
104.074,-249
104.099,-110
104.124,73
104.149,235
104.174,337
104.199,388
104.224,416
104.249,442
104.274,458
104.299,454
104.324,433
104.349,415
104.374,417
104.399,431
104.424,438
104.449,424
104.474,394
104.499,355
104.524,310
104.549,253
104.574,183
104.599,113
104.624,50
104.649,-11
104.674,-90
104.699,-188
104.724,-273
104.749,-292
104.774,-211
104.799,-48
104.824,137
104.849,286
104.874,373
104.899,415
104.924,437
104.949,451
104.974,455
104.999,445
105.024,430
105.049,425
105.074,436
105.099,451
105.124,452
105.149,433
105.174,399
105.199,359
105.224,316
105.249,263
105.274,199
105.299,132
105.324,71
105.349,14
105.374,-54
105.399,-142
105.424,-229
105.449,-267
105.474,-216
105.499,-73
105.524,114
105.549,281
105.574,388
105.599,437
105.624,455
105.649,465
105.674,467
105.699,454
105.724,428
105.749,408
105.774,407
105.799,421
105.824,430
105.849,418
105.874,385
105.899,344
105.924,299
105.949,246
105.974,181
105.999,112
106.024,50
106.049,-3
106.074,-69
106.099,-159
106.124,-251
106.149,-293
106.174,-237
106.199,-88
106.224,95
106.249,245
106.274,331
106.299,369
106.324,392
106.349,409
106.374,408
106.399,383
106.424,353
106.449,341
106.474,354
106.499,371
106.524,369
106.549,347
106.574,318
106.599,289
106.624,253
106.649,203
106.674,142
106.699,83
106.724,23
106.749,-52
106.774,-147
106.799,-221
106.824,-216
106.849,-103
106.874,79
106.899,255
106.924,369
106.949,419
106.974,440
106.999,456
107.024,460
107.049,439
107.074,400
107.099,369
107.124,362
107.149,370
107.174,371
107.199,354
107.224,323
107.249,285
107.274,238
107.299,180
107.324,117
107.349,55
107.374,-10
107.399,-93
107.424,-191
107.449,-263
107.474,-252
107.499,-134
107.524,51
107.549,230
107.574,347
107.599,399
107.624,423
107.649,445
107.674,463
107.699,458
107.724,433
107.749,408
107.774,404
107.799,415
107.824,420
107.849,405
107.874,372
107.899,333
107.924,290
107.949,237
107.974,170
107.999,101
108.024,40
108.049,-20
108.074,-96
108.099,-191
108.124,-271
108.149,-284
108.174,-198
108.199,-32
108.224,148
108.249,285
108.274,356
108.299,384
108.324,402
108.349,420
108.374,428
108.399,419
108.424,401
108.449,395
108.474,407
108.499,424
108.524,424
108.549,400
108.574,363
108.599,325
108.624,284
108.649,232
108.674,169
108.699,107
108.724,55
108.749,4
108.774,-65
108.799,-156
108.824,-233
108.849,-241
108.874,-150
108.899,16
108.924,196
108.949,332
108.974,407
108.999,441
109.024,461
109.049,478
109.074,482
109.099,472
109.124,455
109.149,446
109.174,452
109.199,462
109.224,461
109.249,440
109.274,403
109.299,357
109.324,308
109.349,253
109.374,194
109.399,135
109.424,83
109.449,33
109.474,-25
109.499,-102
109.524,-187
109.549,-238
109.574,-216
109.599,-108
109.624,49
109.649,197
109.674,290
109.699,328
109.724,342
109.749,356
109.774,372
109.799,375
109.824,362
109.849,347
109.874,347
109.899,359
109.924,366
109.949,355
109.974,329
109.999,299
110.024,264
110.049,219
110.074,164
110.099,109
110.124,63
110.149,16
110.174,-51
110.199,-134
110.224,-194
110.249,-177
110.274,-70
110.299,85
110.324,223
110.349,304
110.374,341
110.399,366
110.424,392
110.449,407
110.474,397
110.499,374
110.524,365
110.549,377
110.574,394
110.599,392
110.624,369
110.649,338
110.674,308
110.699,272
110.724,218
110.749,153
110.774,96
110.799,51
110.824,1
110.849,-75
110.874,-161
110.899,-205
110.924,-159
110.949,-29
110.974,129
110.999,254
111.024,324
111.049,358
111.074,386
111.099,418
111.124,441
111.149,444
111.174,435
111.199,428
111.224,434
111.249,446
111.274,451
111.299,442
111.324,418
111.349,383
111.374,344
111.399,300
111.424,248
111.449,186
111.474,120
111.499,58
111.524,6
111.549,-45
111.574,-113
111.599,-199
111.624,-275
111.649,-292
111.674,-223
111.699,-83
111.724,72
111.749,193
111.774,263
111.799,302
111.824,336
111.849,372
111.874,401
111.899,415
111.924,417
111.949,421
111.974,434
111.999,451
112.024,460
112.049,453
112.074,428
112.099,392
112.124,352
112.149,309
112.174,261
112.199,204
112.224,141
112.249,83
112.274,35
112.299,-12
112.324,-77
112.349,-160
112.374,-230
112.399,-237
112.424,-151
112.449,8
112.474,181
112.499,313
112.524,387
112.549,425
112.574,455
112.599,485
112.624,502
112.649,500
112.674,489
112.699,485
112.724,495
112.749,506
112.774,504
112.799,483
112.824,446
112.849,401
112.874,354
112.899,301
112.924,240
112.949,170
112.974,98
112.999,32
113.024,-28
113.049,-96
113.074,-178
113.099,-261
113.124,-304
113.149,-268
113.174,-144
113.199,25
113.224,175
113.249,268
113.274,311
113.299,337
113.324,363
113.349,379
113.374,371
113.399,346
113.424,331
113.449,341
113.474,364
113.499,374
113.524,359
113.549,330
113.574,300
113.599,265
113.624,218
113.649,157
113.674,98
113.699,44
113.724,-18
113.749,-106
113.774,-201
113.799,-246
113.824,-190
113.849,-36
113.874,151
113.899,300
113.924,381
113.949,419
113.974,445
113.999,469
114.024,472
114.049,448
114.074,414
114.099,396
114.124,399
114.149,408
114.174,404
114.199,382
114.224,349
114.249,307
114.274,255
114.299,194
114.324,131
114.349,68
114.374,-9
114.399,-106
114.424,-200
114.449,-237
114.474,-173
114.499,-20
114.524,159
114.549,296
114.574,367
114.599,398
114.624,422
114.649,444
114.674,448
114.699,425
114.724,394
114.749,380
114.774,387
114.799,396
114.824,388
114.849,361
114.874,325
114.899,284
114.924,230
114.949,161
114.974,87
114.999,17
115.024,-56
115.049,-151
115.074,-256
115.099,-325
115.124,-299
115.149,-162
115.174,33
115.199,211
115.224,320
115.249,369
115.274,395
115.299,421
115.324,437
115.349,429
115.374,403
115.399,385
115.424,392
115.449,412
115.474,421
115.499,407
115.524,377
115.549,343
115.574,303
115.599,251
115.624,188
115.649,127
115.674,74
115.699,18
115.724,-57
115.749,-151
115.774,-221
115.799,-216
115.824,-111
115.849,63
115.874,243
115.899,373
115.924,441
115.949,469
115.974,485
115.999,497
116.024,495
116.049,474
116.074,447
116.099,433
116.124,437
116.149,444
116.174,435
116.199,403
116.224,359
116.249,312
116.274,262
116.299,202
116.324,135
116.349,72
116.374,17
116.399,-42
116.424,-123
116.449,-212
116.474,-262
116.499,-221
116.524,-86
116.549,90
116.574,239
116.599,325
116.624,360
116.649,377
116.674,390
116.699,387
116.724,363
116.749,331
116.774,315
116.799,321
116.824,332
116.849,330
116.874,309
116.899,277
116.924,239
116.949,194
116.974,144
116.999,94
117.024,47
117.049,-7
117.074,-81
117.099,-161
117.124,-201
117.149,-154
117.174,-19
117.199,152
117.224,293
117.249,372
117.274,403
117.299,417
117.324,426
117.349,423
117.374,403
117.399,377
117.424,361
117.449,359
117.474,361
117.499,353
117.524,332
117.549,301
117.574,260
117.599,212
117.624,157
117.649,97
117.674,24
117.699,-64
117.724,-155
117.749,-206
117.774,-174
117.799,-50
117.824,119
117.849,269
117.874,360
117.899,399
117.924,419
117.949,435
117.974,440
117.999,423
118.024,396
118.049,379
118.074,382
118.099,393
118.124,392
118.149,374
118.174,344
118.199,306
118.224,254
118.249,189
118.274,121
118.299,59
118.324,-1
118.349,-81
118.374,-177
118.399,-252
118.424,-250
118.449,-143
118.474,34
118.499,212
118.524,333
118.549,391
118.574,413
118.599,430
118.624,444
118.649,445
118.674,430
118.699,415
118.724,415
118.749,431
118.774,445
118.799,438
118.824,409
118.849,370
118.874,331
118.899,287
118.924,228
118.949,152
118.974,76
118.999,13
119.024,-38
119.049,-101
119.074,-190
119.099,-288
119.124,-340
119.149,-298
119.174,-156
119.199,35
119.224,208
119.249,319
119.274,373
119.299,401
119.324,424
119.349,440
119.374,437
119.399,420
119.424,409
119.449,420
119.474,445
119.499,463
119.524,459
119.549,434
119.574,403
119.599,371
119.624,333
119.649,279
119.674,209
119.699,138
119.724,76
119.749,23
119.774,-40
119.799,-126
119.824,-214
119.849,-261
119.874,-221
119.899,-87
119.924,97
119.949,267
119.974,376
119.999,424
120.024,441
120.049,456
120.074,470
120.099,466
120.124,442
120.149,415
120.174,409
120.199,426
120.224,445
120.249,442
120.274,413
120.299,371
120.324,330
120.349,285
120.374,230
120.399,167
120.424,106
120.449,51
120.474,-10
120.499,-92
120.524,-178
120.549,-220
120.574,-171
120.599,-29
120.624,151
120.649,302
120.674,389
120.699,421
120.724,430
120.749,429
120.774,414
120.799,381
120.824,344
120.849,324
120.874,327
120.899,340
120.924,343
120.949,330
120.974,305
120.999,270
121.024,220
121.049,156
121.074,89
121.099,29
121.124,-34
121.149,-121
121.174,-227
121.199,-308
121.224,-304
121.249,-193
121.274,-18
121.299,140
121.324,234
121.349,267
121.374,277
121.399,284
121.424,282
121.449,256
121.474,214
121.499,179
121.524,166
121.549,162
121.574,147
121.599,115
121.624,72
121.649,25
121.674,-24
121.699,-68
121.724,-81
121.749,-47
121.774,15
121.799,61
121.824,62
121.849,48
121.874,92
121.899,240
121.924,468
121.949,692
121.974,837
121.999,891
122.024,888
122.049,866
122.074,832
122.099,780
122.124,715
122.149,657
122.174,620
122.199,602
122.224,588
122.249,568
122.274,541
122.299,503
122.324,445
122.349,359
122.374,253
122.399,136
122.424,11
122.449,-124
122.474,-260
122.499,-361
122.524,-381
122.549,-301
122.574,-154
122.599,-1
122.624,108
122.649,163
122.674,182
122.699,186
122.724,183
122.749,170
122.774,149
122.799,131
122.824,126
122.849,138
122.874,153
122.899,156
122.924,139
122.949,107
122.974,73
122.999,43
123.024,4
123.049,-59
123.074,-144
123.099,-213
123.124,-215
123.149,-122
123.174,43
123.199,222
123.224,360
123.249,436
123.274,467
123.299,474
123.324,470
123.349,454
123.374,427
123.399,402
123.424,388
123.449,385
123.474,383
123.499,368
123.524,337
123.549,291
123.574,239
123.599,189
123.624,136
123.649,67
123.674,-27
123.699,-129
123.724,-192
123.749,-164
123.774,-36
123.799,146
123.824,312
123.849,415
123.874,457
123.899,469
123.924,473
123.949,464
123.974,434
123.999,394
124.024,366
124.049,361
124.074,368
124.099,367
124.124,350
124.149,322
124.174,285
124.199,236
124.224,174
124.249,109
124.274,47
124.299,-19
124.324,-105
124.349,-196
124.374,-242
124.399,-187
124.424,-27
124.449,178
124.474,349
124.499,447
124.524,488
124.549,507
124.574,515
124.599,496
124.624,448
124.649,397
124.674,374
124.699,386
124.724,406
124.749,408
124.774,385
124.799,352
124.824,314
124.849,264
124.874,200
124.899,129
124.924,63
124.949,-2
124.974,-87
124.999,-188
125.024,-265
125.049,-260
125.074,-148
125.099,34
125.124,217
125.149,345
125.174,405
125.199,420
125.224,413
125.249,392
125.274,359
125.299,321
125.324,294
125.349,288
125.374,298
125.399,304
125.424,291
125.449,256
125.474,209
125.499,165
125.524,125
125.549,75
125.574,0
125.599,-98
125.624,-186
125.649,-210
125.674,-135
125.699,25
125.724,214
125.749,365
125.774,446
125.799,468
125.824,465
125.849,456
125.874,439
125.899,404
125.924,359
125.949,324
125.974,313
125.999,318
126.024,314
126.049,281
126.074,228
126.099,174
126.124,128
126.149,75
126.174,-6
126.199,-114
126.224,-204
126.249,-219
126.274,-128
126.299,42
126.324,228
126.349,368
126.374,440
126.399,458
126.424,452
126.449,438
126.474,417
126.499,388
126.524,357
126.549,339
126.574,338
126.599,343
126.624,334
126.649,296
126.674,234
126.699,170
126.724,113
126.749,56
126.774,-23
126.799,-131
126.824,-230
126.849,-261
126.874,-186
126.899,-22
126.924,168
126.949,318
126.974,400
126.999,432
127.024,441
127.049,439
127.074,423
127.099,392
127.124,357
127.149,333
127.174,324
127.199,322
127.224,314
127.249,293
127.274,256
127.299,205
127.324,146
127.349,85
127.374,23
127.399,-49
127.424,-139
127.449,-227
127.474,-261
127.499,-193
127.524,-27
127.549,176
127.574,339
127.599,424
127.624,451
127.649,462
127.674,474
127.699,476
127.724,454
127.749,422
127.774,410
127.799,426
127.824,449
127.849,450
127.874,426
127.899,393
127.924,365
127.949,334
127.974,284
127.999,219
128.024,156
128.049,102
128.074,42
128.099,-43
128.124,-136
128.149,-181
128.174,-128
128.199,19
128.224,198
128.249,334
128.274,398
128.299,412
128.324,412
128.349,410
128.374,395
128.399,363
128.424,330
128.449,318
128.474,327
128.499,337
128.524,328
128.549,301
128.574,271
128.599,243
128.624,206
128.649,154
128.674,93
128.699,41
128.724,0
128.749,-54
128.774,-136
128.799,-219
128.824,-248
128.849,-179
128.874,-27
128.899,144
128.924,275
128.949,345
128.974,375
128.999,387
129.024,385
129.049,365
129.074,335
129.099,313
129.124,311
129.149,323
129.174,332
129.199,328
129.224,313
129.249,290
129.274,255
129.299,208
129.324,156
129.349,104
129.374,47
129.399,-25
129.424,-107
129.449,-156
129.474,-126
129.499,-4
129.524,163
129.549,308
129.574,390
129.599,416
129.624,419
129.649,419
129.674,411
129.699,387
129.724,357
129.749,338
129.774,339
129.799,348
129.824,348
129.849,330
129.874,297
129.899,254
129.924,205
129.949,154
129.974,102
129.999,41
130.024,-39
130.049,-130
130.074,-194
130.099,-181
130.124,-73
130.149,92
130.174,247
130.199,341
130.224,380
130.249,395
130.274,412
130.299,422
130.324,412
130.349,387
130.374,367
130.399,368
130.424,378
130.449,377
130.474,358
130.499,327
130.524,293
130.549,250
130.574,193
130.599,127
130.624,66
130.649,10
130.674,-58
130.699,-151
130.724,-238
130.749,-262
130.774,-183
130.799,-17
130.824,165
130.849,300
130.874,367
130.899,396
130.924,417
130.949,434
130.974,433
130.999,411
131.024,387
131.049,383
131.074,400
131.099,416
131.124,412
131.149,387
131.174,355
131.199,321
131.224,278
131.249,219
131.274,151
131.299,88
131.324,34
131.349,-28
131.374,-114
131.399,-213
131.424,-276
131.449,-253
131.474,-127
131.499,62
131.524,247
131.549,374
131.574,436
131.599,458
131.624,469
131.649,480
131.674,480
131.699,465
131.724,450
131.749,451
131.774,471
131.799,491
131.824,490
131.849,463
131.874,422
131.899,379
131.924,329
131.949,263
131.974,182
131.999,103
132.024,38
132.049,-24
132.074,-108
132.099,-214
132.124,-295
132.149,-288
132.174,-168
132.199,23
132.224,205
132.249,322
132.274,374
132.299,395
132.324,406
132.349,402
132.374,371
132.399,327
132.424,299
132.449,301
132.474,320
132.499,331
132.524,321
132.549,298
132.574,269
132.599,230
132.624,178
132.649,119
132.674,61
132.699,1
132.724,-75
132.749,-171
132.774,-245
132.799,-240
132.824,-126
132.849,61
132.874,252
132.899,383
132.924,446
132.949,467
132.974,469
132.999,458
133.024,430
133.049,393
133.074,363
133.099,350
133.124,349
133.149,350
133.174,343
133.199,321
133.224,282
133.249,225
133.274,160
133.299,96
133.324,31
133.349,-51
133.374,-150
133.399,-230
133.424,-233
133.449,-126
133.474,58
133.499,246
133.524,374
133.549,432
133.574,452
133.599,465
133.624,467
133.649,446
133.674,406
133.699,372
133.724,362
133.749,370
133.774,372
133.799,353
133.824,316
133.849,272
133.874,221
133.899,163
133.924,99
133.949,31
133.974,-43
133.999,-133
134.024,-225
134.049,-273
134.074,-227
134.099,-77
134.124,124
134.149,299
134.174,400
134.199,438
134.224,452
134.249,464
134.274,466
134.299,444
134.324,407
134.349,384
134.374,387
134.399,403
134.424,407
134.449,388
134.474,356
134.499,320
134.524,277
134.549,216
134.574,142
134.599,73
134.624,16
134.649,-43
134.674,-126
134.699,-224
134.724,-287
134.749,-259
134.774,-127
134.799,65
134.824,245
134.849,364
134.874,418
134.899,435
134.924,438
134.949,430
134.974,408
134.999,381
135.024,365
135.049,371
135.074,389
135.099,401
135.124,392
135.149,367
135.174,335
135.199,298
135.224,251
135.249,191
135.274,128
135.299,73
135.324,25
135.349,-34
135.374,-119
135.399,-213
135.424,-267
135.449,-229
135.474,-93
135.499,98
135.524,277
135.549,397
135.574,454
135.599,474
135.624,481
135.649,480
135.674,466
135.699,442
135.724,424
135.749,427
135.774,445
135.799,460
135.824,454
135.849,425
135.874,384
135.899,342
135.924,296
135.949,239
135.974,172
135.999,104
136.024,46
136.049,-10
136.074,-84
136.099,-178
136.124,-260
136.149,-276
136.174,-191
136.199,-21
136.224,167
136.249,311
136.274,384
136.299,408
136.324,412
136.349,406
136.374,383
136.399,341
136.424,302
136.449,289
136.474,303
136.499,321
136.524,320
136.549,298
136.574,270
136.599,244
136.624,211
136.649,163
136.674,107
136.699,56
136.724,8
136.749,-54
136.774,-139
136.799,-212
136.824,-213
136.849,-108
136.874,73
136.899,258
136.924,384
136.949,443
136.974,463
136.999,472
137.024,468
137.049,440
137.074,395
137.099,358
137.124,345
137.149,351
137.174,356
137.199,346
137.224,325
137.249,297
137.274,258
137.299,204
137.324,141
137.349,81
137.374,21
137.399,-53
137.424,-147
137.449,-227
137.474,-232
137.499,-128
137.524,59
137.549,256
137.574,394
137.599,461
137.624,485
137.649,496
137.674,494
137.699,470
137.724,426
137.749,389
137.774,381
137.799,395
137.824,406
137.849,395
137.874,364
137.899,326
137.924,283
137.949,229
137.974,161
137.999,90
138.024,26
138.049,-41
138.074,-130
138.099,-235
138.124,-310
138.149,-296
138.174,-169
138.199,31
138.224,230
138.249,368
138.274,437
138.299,465
138.324,477
138.349,476
138.374,451
138.399,409
138.424,373
138.449,361
138.474,371
138.499,380
138.524,370
138.549,340
138.574,303
138.599,264
138.624,215
138.649,149
138.674,71
138.699,-1
138.724,-66
138.749,-134
138.774,-223
138.799,-327
138.824,-398
138.849,-379
138.874,-247
138.899,-35
138.924,182
138.949,342
138.974,430
138.999,469
139.024,491
139.049,506
139.074,503
139.099,480
139.124,455
139.149,453
139.174,479
139.199,510
139.224,519
139.249,496
139.274,453
139.299,408
139.324,360
139.349,299
139.374,221
139.399,139
139.424,69
139.449,5
139.474,-73
139.499,-174
139.524,-265
139.549,-283
139.574,-186
139.599,6
139.624,220
139.649,383
139.674,467
139.699,494
139.724,499
139.749,498
139.774,481
139.799,444
139.824,404
139.849,385
139.874,397
139.899,419
139.924,424
139.949,398
139.974,354
139.999,309
140.024,267
140.049,218
140.074,154
140.099,84
140.124,20
140.149,-37
140.174,-108
140.199,-200
140.224,-284
140.249,-301
140.274,-210
140.299,-25
140.324,185
140.349,348
140.374,433
140.399,460
140.424,466
140.449,461
140.474,439
140.499,397
140.524,354
140.549,337
140.574,347
140.599,363
140.624,361
140.649,338
140.674,307
140.699,274
140.724,233
140.749,177
140.774,114
140.799,55
140.824,0
140.849,-71
140.874,-166
140.899,-253
140.924,-273
140.949,-186
140.974,-11
140.999,184
141.024,335
141.049,415
141.074,442
141.099,445
141.124,434
141.149,408
141.174,369
141.199,331
141.224,309
141.249,308
141.274,318
141.299,323
141.324,307
141.349,268
141.374,217
141.399,167
141.424,120
141.449,65
141.474,-15
141.499,-115
141.524,-195
141.549,-203
141.574,-111
141.599,56
141.624,236
141.649,371
141.674,437
141.699,453
141.724,447
141.749,433
141.774,411
141.799,376
141.824,338
141.849,313
141.874,309
141.899,314
141.924,307
141.949,275
141.974,223
141.999,169
142.024,121
142.049,67
142.074,-11
142.099,-116
142.124,-205
142.149,-220
142.174,-128
142.199,42
142.224,223
142.249,353
142.274,415
142.299,433
142.324,436
142.349,433
142.374,418
142.399,390
142.424,361
142.449,347
142.474,349
142.499,353
142.524,343
142.549,312
142.574,264
142.599,208
142.624,153
142.649,102
142.674,45
142.699,-30
142.724,-125
142.749,-210
142.774,-231
142.799,-147
142.824,25
142.849,221
142.874,366
142.899,434
142.924,452
142.949,460
142.974,474
142.999,476
143.024,455
143.049,424
143.074,409
143.099,420
143.124,436
143.149,430
143.174,396
143.199,349
143.224,307
143.249,265
143.274,210
143.299,140
143.324,69
143.349,12
143.374,-39
143.399,-108
143.424,-199
143.449,-279
143.474,-292
143.499,-203
143.524,-32
143.549,153
143.574,292
143.599,360
143.624,381
143.649,390
143.674,401
143.699,407
143.724,399
143.749,385
143.774,383
143.799,401
143.824,423
143.849,429
143.874,410
143.899,378
143.924,345
143.949,312
143.974,266
143.999,205
144.024,141
144.049,90
144.074,49
144.099,-3
144.124,-82
144.149,-164
144.174,-200
144.199,-146
144.224,-9
144.249,160
144.274,298
144.299,375
144.324,400
144.349,403
144.374,402
144.399,396
144.424,380
144.449,359
144.474,348
144.499,356
144.524,375
144.549,385
144.574,371
144.599,336
144.624,294
144.649,253
144.674,211
144.699,161
144.724,107
144.749,56
144.774,10
144.799,-43
144.824,-114
144.849,-188
144.874,-222
144.899,-175
144.924,-43
144.949,125
144.974,266
144.999,345
145.024,374
145.049,386
145.074,399
145.099,402
145.124,384
145.149,358
145.174,347
145.199,363
145.224,387
145.249,392
145.274,369
145.299,332
145.324,296
145.349,258
145.374,210
145.399,150
145.424,93
145.449,43
145.474,-11
145.499,-87
145.524,-165
145.549,-194
145.574,-129
145.599,18
145.624,186
145.649,308
145.674,364
145.699,383
145.724,398
145.749,414
145.774,414
145.799,392
145.824,367
145.849,359
145.874,370
145.899,378
145.924,367
145.949,339
145.974,308
145.999,274
146.024,228
146.049,168
146.074,102
146.099,43
146.124,-14
146.149,-88
146.174,-177
146.199,-240
146.224,-226
146.249,-115
146.274,53
146.299,212
146.324,315
146.349,365
146.374,392
146.399,419
146.424,438
146.449,435
146.474,415
146.499,398
146.524,401
146.549,416
146.574,422
146.599,405
146.624,371
146.649,334
146.674,296
146.699,249
146.724,185
146.749,116
146.774,55
146.799,3
146.824,-56
146.849,-140
146.874,-228
146.899,-270
146.924,-218
146.949,-73
146.974,112
146.999,272
147.024,370
147.049,416
147.074,439
147.099,458
147.124,468
147.149,459
147.174,440
147.199,431
147.224,443
147.249,465
147.274,473
147.299,456
147.324,421
147.349,379
147.374,333
147.399,276
147.424,206
147.449,135
147.474,74
147.499,17
147.524,-53
147.549,-146
147.574,-229
147.599,-245
147.624,-160
147.649,6
147.674,184
147.699,310
147.724,367
147.749,384
147.774,396
147.799,411
147.824,410
147.849,384
147.874,351
147.899,337
147.924,351
147.949,371
147.974,373
147.999,349
148.024,312
148.049,272
148.074,225
148.099,163
148.124,93
148.149,30
148.174,-23
148.199,-87
148.224,-172
148.249,-254
148.274,-275
148.299,-195
148.324,-31
148.349,147
148.374,277
148.399,347
148.424,384
148.449,417
148.474,442
148.499,440
148.524,413
148.549,386
148.574,385
148.599,405
148.624,421
148.649,411
148.674,379
148.699,336
148.724,290
148.749,237
148.774,178
148.799,118
148.824,58
148.849,-13
148.874,-102
148.899,-181
148.924,-197
148.949,-115
148.974,43
148.999,211
149.024,327
149.049,378
149.074,398
149.099,415
149.124,429
149.149,422
149.174,394
149.199,367
149.224,363
149.249,378
149.274,386
149.299,369
149.324,331
149.349,290
149.374,247
149.399,196
149.424,132
149.449,67
149.474,14
149.499,-33
149.524,-96
149.549,-179
149.574,-249
149.599,-250
149.624,-152
149.649,18
149.674,197
149.699,328
149.724,398
149.749,431
149.774,455
149.799,474
149.824,476
149.849,460
149.874,440
149.899,433
149.924,439
149.949,442
149.974,429
149.999,397
150.024,358
150.049,318
150.074,271
150.099,209
150.124,137
150.149,69
150.174,10
150.199,-53
150.224,-141
150.249,-246
150.274,-327
150.299,-334
150.324,-244
150.349,-90
150.374,64
150.399,171
150.424,222
150.449,248
150.474,279
150.499,326
150.524,383
150.549,443
150.574,510
150.599,583
150.624,650
150.649,684
150.674,664
150.699,592
150.724,489
150.749,378
150.774,274
150.799,175
150.824,83
150.849,5
150.874,-50
150.899,-90
150.924,-133
150.949,-190
150.974,-246
150.999,-256
151.024,-182
151.049,-24
151.074,166
151.099,329
151.124,432
151.149,485
151.174,515
151.199,537
151.224,539
151.249,516
151.274,480
151.299,456
151.324,454
151.349,458
151.374,442
151.399,404
151.424,359
151.449,319
151.474,279
151.499,222
151.524,149
151.549,78
151.574,21
151.599,-33
151.624,-108
151.649,-194
151.674,-241
151.699,-199
151.724,-63
151.749,111
151.774,255
151.799,335
151.824,367
151.849,381
151.874,389
151.899,378
151.924,346
151.949,310
151.974,291
151.999,295
152.024,306
152.049,306
152.074,287
152.099,254
152.124,210
152.149,158
152.174,103
152.199,49
152.224,-6
152.249,-80
152.274,-172
152.299,-247
152.324,-250
152.349,-149
152.374,28
152.399,213
152.424,343
152.449,407
152.474,433
152.499,450
152.524,457
152.549,446
152.574,419
152.599,396
152.624,391
152.649,398
152.674,398
152.699,380
152.724,348
152.749,307
152.774,256
152.799,195
152.824,130
152.849,67
152.874,0
152.899,-88
152.924,-187
152.949,-252
152.974,-224
152.999,-88
153.024,109
153.049,285
153.074,390
153.099,432
153.124,450
153.149,467
153.174,471
153.199,452
153.224,418
153.249,397
153.274,399
153.299,410
153.324,406
153.349,381
153.374,346
153.399,305
153.424,254
153.449,187
153.474,113
153.499,45
153.524,-20
153.549,-105
153.574,-207
153.599,-285
153.624,-275
153.649,-148
153.674,49
153.699,237
153.724,356
153.749,411
153.774,438
153.799,459
153.824,463
153.849,437
153.874,396
153.899,369
153.924,369
153.949,379
153.974,373
153.999,347
154.024,312
154.049,278
154.074,234
154.099,172
154.124,100
154.149,36
154.174,-21
154.199,-92
154.224,-187
154.249,-268
154.274,-268
154.299,-150
154.324,51
154.349,249
154.374,378
154.399,434
154.424,456
154.449,471
154.474,477
154.499,458
154.524,423
154.549,402
154.574,408
154.599,429
154.624,436
154.649,420
154.674,391
154.699,359
154.724,320
154.749,265
154.774,198
154.799,133
154.824,67
154.849,-14
154.874,-119
154.899,-211
154.924,-230
154.949,-139
154.974,33
154.999,212
155.024,334
155.049,385
155.074,396
155.099,395
155.124,388
155.149,369
155.174,340
155.199,316
155.224,310
155.249,319
155.274,326
155.299,317
155.324,289
155.349,247
155.374,198
155.399,150
155.424,102
155.449,44
155.474,-34
155.499,-124
155.524,-186
155.549,-173
155.574,-64
155.599,107
155.624,273
155.649,377
155.674,412
155.699,411
155.724,403
155.749,395
155.774,373
155.799,338
155.824,307
155.849,299
155.874,310
155.899,317
155.924,297
155.949,251
155.974,198
155.999,153
156.024,109
156.049,47
156.074,-42
156.099,-136
156.124,-190
156.149,-158
156.174,-36
156.199,132
156.224,285
156.249,375
156.274,402
156.299,399
156.324,394
156.349,392
156.374,377
156.399,346
156.424,316
156.449,305
156.474,308
156.499,301
156.524,268
156.549,216
156.574,165
156.599,124
156.624,72
156.649,-8
156.674,-105
156.699,-171
156.724,-155
156.749,-51
156.774,98
156.799,237
156.824,327
156.849,370
156.874,388
156.899,399
156.924,403
156.949,396
156.974,377
156.999,357
157.024,345
157.049,343
157.074,339
157.099,316
157.124,270
157.149,211
157.174,155
157.199,110
157.224,60
157.249,-11
157.274,-98
157.299,-162
157.324,-152
157.349,-51
157.374,105
157.399,256
157.424,353
157.449,396
157.474,417
157.499,440
157.524,464
157.549,471
157.574,458
157.599,443
157.624,445
157.649,459
157.674,464
157.699,442
157.724,400
157.749,355
157.774,315
157.799,271
157.824,211
157.849,142
157.874,78
157.899,24
157.924,-37
157.949,-123
157.974,-217
157.999,-267
158.024,-227
158.049,-103
158.074,48
158.099,160
158.124,209
158.149,220
158.174,233
158.199,259
158.224,278
158.249,276
158.274,261
158.299,255
158.324,266
158.349,283
158.374,289
158.399,291
158.424,306
158.449,339
158.474,371
158.499,383
158.524,375
158.549,360
158.574,341
158.599,297
158.624,207
158.649,91
158.674,8
158.699,8
158.724,88
158.749,196
158.774,273
158.799,304
158.824,313
158.849,324
158.874,334
158.899,329
158.924,308
158.949,289
158.974,288
158.999,300
159.024,305
159.049,292
159.074,266
159.099,236
159.124,201
159.149,158
159.174,110
159.199,64
159.224,23
159.249,-25
159.274,-92
159.299,-162
159.324,-190
159.349,-141
159.374,-23
159.399,116
159.424,224
159.449,283
159.474,316
159.499,348
159.524,383
159.549,406
159.574,404
159.599,389
159.624,383
159.649,394
159.674,408
159.699,407
159.724,383
159.749,347
159.774,310
159.799,273
159.824,226
159.849,166
159.874,102
159.899,50
159.924,6
159.949,-45
159.974,-121
159.999,-205
160.024,-255
160.049,-230
160.074,-126
160.099,16
160.124,146
160.149,234
160.174,287
160.199,332
160.224,381
160.249,427
160.274,451
160.299,451
160.324,445
160.349,450
160.374,464
160.399,473
160.424,459
160.449,426
160.474,386
160.499,348
160.524,307
160.549,252
160.574,186
160.599,122
160.624,73
160.649,33
160.674,-22
160.699,-107
160.724,-196
160.749,-239
160.774,-193
160.799,-65
160.824,96
160.849,235
160.874,326
160.899,381
160.924,423
160.949,464
160.974,496
160.999,509
161.024,508
161.049,507
161.074,517
161.099,531
161.124,532
161.149,507
161.174,459
161.199,402
161.224,347
161.249,296
161.274,241
161.299,174
161.324,99
161.349,30
161.374,-25
161.399,-79
161.424,-149
161.449,-233
161.474,-294
161.499,-281
161.524,-175
161.549,-12
161.574,140
161.599,237
161.624,281
161.649,307
161.674,336
161.699,358
161.724,359
161.749,345
161.774,340
161.799,358
161.824,383
161.849,390
161.874,370
161.899,335
161.924,299
161.949,258
161.974,203
161.999,139
162.024,80
162.049,31
162.074,-27
162.099,-110
162.124,-193
162.149,-218
162.174,-142
162.199,16
162.224,189
162.249,314
162.274,376
162.299,407
162.324,430
162.349,446
162.374,441
162.399,416
162.424,395
162.449,392
162.474,399
162.499,397
162.524,375
162.549,340
162.574,300
162.599,253
162.624,196
162.649,133
162.674,74
162.699,11
162.724,-68
162.749,-160
162.774,-222
162.799,-197
162.824,-71
162.849,107
162.874,262
162.899,349
162.924,383
162.949,408
162.974,442
162.999,466
163.024,459
163.049,427
163.074,403
163.099,403
163.124,414
163.149,407
163.174,373
163.199,326
163.224,281
163.249,232
163.274,172
163.299,101
163.324,35
163.349,-21
163.374,-85
163.399,-171
163.424,-258
163.449,-291
163.474,-223
163.499,-66
163.524,115
163.549,253
163.574,326
163.599,360
163.624,388
163.649,415
163.674,427
163.699,416
163.724,399
163.749,397
163.774,411
163.799,421
163.824,411
163.849,382
163.874,348
163.899,312
163.924,266
163.949,205
163.974,138
163.999,82
164.024,38
164.049,-14
164.074,-92
164.099,-177
164.124,-217
164.149,-168
164.174,-31
164.199,143
164.224,292
164.249,383
164.274,425
164.299,447
164.324,466
164.349,480
164.374,480
164.399,466
164.424,453
164.449,454
164.474,466
164.499,473
164.524,459
164.549,424
164.574,377
164.599,329
164.624,277
164.649,215
164.674,143
164.699,75
164.724,21
164.749,-22
164.774,-79
164.799,-158
164.824,-234
164.849,-255
164.874,-186
164.899,-41
164.924,119
164.949,238
164.974,299
164.999,324
165.024,341
165.049,354
165.074,352
165.099,332
165.124,312
165.149,310
165.174,325
165.199,337
165.224,332
165.249,309
165.274,276
165.299,239
165.324,194
165.349,145
165.374,97
165.399,51
165.424,-7
165.449,-84
165.474,-158
165.499,-178
165.524,-108
165.549,38
165.574,202
165.599,322
165.624,381
165.649,406
165.674,425
165.699,442
165.724,442
165.749,420
165.774,393
165.799,379
165.824,379
165.849,380
165.874,366
165.899,335
165.924,294
165.949,244
165.974,189
165.999,134
166.024,84
166.049,28
166.074,-47
166.099,-140
166.124,-212
166.149,-207
166.174,-100
166.199,72
166.224,235
166.249,338
166.274,381
166.299,401
166.324,422
166.349,441
166.374,439
166.399,417
166.424,397
166.449,394
166.474,401
166.499,400
166.524,378
166.549,342
166.574,301
166.599,251
166.624,188
166.649,119
166.674,54
166.699,-6
166.724,-79
166.749,-171
166.774,-258
166.799,-283
166.824,-204
166.849,-38
166.874,149
166.899,289
166.924,363
166.949,394
166.974,418
166.999,440
167.024,446
167.049,431
167.074,410
167.099,403
167.124,413
167.149,420
167.174,408
167.199,379
167.224,345
167.249,309
167.274,260
167.299,195
167.324,123
167.349,61
167.374,2
167.399,-71
167.424,-165
167.449,-241
167.474,-239
167.499,-126
167.524,62
167.549,251
167.574,376
167.599,433
167.624,457
167.649,475
167.674,485
167.699,475
167.724,448
167.749,425
167.774,423
167.799,432
167.824,431
167.849,410
167.874,378
167.899,342
167.924,296
167.949,232
167.974,158
167.999,92
168.024,35
168.049,-30
168.074,-127
168.099,-231
168.124,-283
168.149,-230
168.174,-76
168.199,114
168.224,268
168.249,353
168.274,385
168.299,393
168.324,392
168.349,378
168.374,353
168.399,327
168.424,313
168.449,312
168.474,313
168.499,305
168.524,282
168.549,243
168.574,195
168.599,146
168.624,99
168.649,47
168.674,-26
168.699,-123
168.724,-211
168.749,-233
168.774,-152
168.799,15
168.824,204
168.849,346
168.874,418
168.899,443
168.924,453
168.949,463
168.974,460
168.999,438
169.024,405
169.049,380
169.074,372
169.099,370
169.124,357
169.149,321
169.174,268
169.199,210
169.224,158
169.249,108
169.274,42
169.299,-50
169.324,-153
169.349,-219
169.374,-198
169.399,-78
169.424,96
169.449,259
169.474,363
169.499,408
169.524,423
169.549,432
169.574,434
169.599,422
169.624,397
169.649,373
169.674,362
169.699,359
169.724,352
169.749,329
169.774,285
169.799,228
169.824,167
169.849,111
169.874,58
169.899,-5
169.924,-92
169.949,-185
169.974,-238
169.999,-200
170.024,-65
170.049,116
170.074,272
170.099,360
170.124,391
170.149,403
170.174,414
170.199,415
170.224,395
170.249,364
170.274,346
170.299,348
170.324,353
170.349,341
170.374,312
170.399,277
170.424,240
170.449,196
170.474,140
170.499,81
170.524,28
170.549,-24
170.574,-90
170.599,-157
170.624,-175
170.649,-98
170.674,71
170.699,267
170.724,414
170.749,482
170.774,497
170.799,499
170.824,500
170.849,488
170.874,458
170.899,426
170.924,412
170.949,413
170.974,413
170.999,395
171.024,364
171.049,327
171.074,283
171.099,227
171.124,164
171.149,105
171.174,50
171.199,-14
171.224,-101
171.249,-185
171.274,-217
171.299,-156
171.324,-16
171.349,142
171.374,261
171.399,321
171.424,340
171.449,347
171.474,347
171.499,338
171.524,318
171.549,300
171.574,294
171.599,300
171.624,305
171.649,298
171.674,274
171.699,235
171.724,189
171.749,143
171.774,100
171.799,49
171.824,-19
171.849,-102
171.874,-165
171.899,-163
171.924,-72
171.949,80
171.974,235
171.999,337
172.024,379
172.049,388
172.074,395
172.099,403
172.124,399
172.149,373
172.174,339
172.199,320
172.224,321
172.249,325
172.274,308
172.299,263
172.324,207
172.349,158
172.374,117
172.399,64
172.424,-16
172.449,-112
172.474,-174
172.499,-155
172.524,-48
172.549,108
172.574,253
172.599,346
172.624,386
172.649,402
172.674,413
172.699,420
172.724,414
172.749,393
172.774,371
172.799,358
172.824,354
172.849,347
172.874,323
172.899,279
172.924,223
172.949,166
172.974,115
172.999,62
173.024,-8
173.049,-100
173.074,-190
173.099,-228
173.124,-174
173.149,-29
173.174,151
173.199,302
173.224,387
173.249,421
173.274,440
173.299,461
173.324,471
173.349,458
173.374,433
173.399,419
173.424,426
173.449,436
173.474,422
173.499,382
173.524,334
173.549,293
173.574,252
173.599,194
173.624,121
173.649,53
173.674,0
173.699,-52
173.724,-131
173.749,-231
173.774,-301
173.799,-281
173.824,-156
173.849,31
173.874,209
173.899,329
173.924,391
173.949,419
173.974,435
173.999,445
174.024,447
174.049,443
174.074,440
174.099,444
174.124,451
174.149,453
174.174,445
174.199,421
174.224,385
174.249,340
174.274,293
174.299,243
174.324,187
174.349,123
174.374,58
174.399,1
174.424,-49
174.449,-109
174.474,-186
174.499,-258
174.524,-278
174.549,-207
174.574,-51
174.599,133
174.624,284
174.649,369
174.674,403
174.699,420
174.724,436
174.749,448
174.774,447
174.799,438
174.824,436
174.849,449
174.874,465
174.899,466
174.924,442
174.949,401
174.974,358
174.999,316
175.024,268
175.049,207
175.074,142
175.099,86
175.124,41
175.149,-7
175.174,-79
175.199,-165
175.224,-224
175.249,-204
175.274,-92
175.299,73
175.324,225
175.349,318
175.374,355
175.399,369
175.424,379
175.449,382
175.474,365
175.499,336
175.524,318
175.549,322
175.574,337
175.599,342
175.624,327
175.649,299
175.674,268
175.699,229
175.724,178
175.749,120
175.774,65
175.799,15
175.824,-46
175.849,-124
175.874,-186
175.899,-181
175.924,-80
175.949,86
175.974,246
175.999,348
176.024,388
176.049,402
176.074,416
176.099,427
176.124,418
176.149,391
176.174,368
176.199,361
176.224,366
176.249,366
176.274,351
176.299,323
176.324,286
176.349,238
176.374,182
176.399,125
176.424,71
176.449,7
176.474,-77
176.499,-168
176.524,-216
176.549,-171
176.574,-32
176.599,144
176.624,287
176.649,366
176.674,398
176.699,416
176.724,432
176.749,432
176.774,410
176.799,382
176.824,367
176.849,370
176.874,374
176.899,363
176.924,337
176.949,305
176.974,265
176.999,212
177.024,147
177.049,83
177.074,25
177.099,-38
177.124,-125
177.149,-216
177.174,-258
177.199,-197
177.224,-36
177.249,159
177.274,310
177.299,385
177.324,409
177.349,427
177.374,451
177.399,464
177.424,449
177.449,418
177.474,400
177.499,406
177.524,419
177.549,416
177.574,389
177.599,351
177.624,312
177.649,268
177.674,207
177.699,133
177.724,62
177.749,4
177.774,-55
177.799,-140
177.824,-241
177.849,-310
177.874,-290
177.899,-160
177.924,35
177.949,222
177.974,346
177.999,406
178.024,432
178.049,451
178.074,460
178.099,451
178.124,427
178.149,409
178.174,413
178.199,431
178.224,441
178.249,427
178.274,394
178.299,357
178.324,320
178.349,274
178.374,209
178.399,134
178.424,67
178.449,11
178.474,-48
178.499,-130
178.524,-224
178.549,-285
178.574,-262
178.599,-140
178.624,44
178.649,227
178.674,356
178.699,421
178.724,443
178.749,451
178.774,455
178.799,451
178.824,435
178.849,415
178.874,407
178.899,415
178.924,427
178.949,426
178.974,402
178.999,364
179.024,323
179.049,282
179.074,231
179.099,165
179.124,90
179.149,22
179.174,-38
179.199,-106
179.224,-192
179.249,-275
179.274,-303
179.299,-232
179.324,-63
179.349,142
179.374,312
179.399,403
179.424,431
179.449,434
179.474,437
179.499,437
179.524,422
179.549,397
179.574,384
179.599,392
179.624,411
179.649,417
179.674,396
179.699,359
179.724,320
179.749,283
179.774,237
179.799,174
179.824,103
179.849,42
179.874,-8
179.899,-64
179.924,-141
179.949,-227
179.974,-277
179.999,-242
180.024,-111
180.049,79
180.074,263
180.099,392
180.124,453
180.149,469
180.174,468
180.199,462
180.224,449
180.249,429
180.274,411
180.299,406
180.324,414
180.349,423
180.374,418
180.399,393
180.424,356
180.449,316
180.474,274
180.499,221
180.524,155
180.549,86
180.574,25
180.599,-27
180.624,-92
180.649,-177
180.674,-264
180.699,-301
180.724,-243
180.749,-91
180.774,104
180.799,273
180.824,375
180.849,417
180.874,431
180.899,440
180.924,441
180.949,424
180.974,394
180.999,372
181.024,374
181.049,395
181.074,411
181.099,405
181.124,378
181.149,342
181.174,303
181.199,257
181.224,198
181.249,132
181.274,72
181.299,20
181.324,-37
181.349,-118
181.374,-209
181.399,-268
181.424,-243
181.449,-120
181.474,64
181.499,245
181.524,370
181.549,433
181.574,456
181.599,465
181.624,466
181.649,452
181.674,424
181.699,399
181.724,396
181.749,413
181.774,431
181.799,430
181.824,405
181.849,371
181.874,340
181.899,308
181.924,264
181.949,202
181.974,136
181.999,78
182.024,24
182.049,-46
182.074,-139
182.099,-223
182.124,-238
182.149,-147
182.174,28
182.199,220
182.224,356
182.249,419
182.274,435
182.299,439
182.324,439
182.349,423
182.374,385
182.399,344
182.424,324
182.449,327
182.474,333
182.499,323
182.524,299
182.549,271
182.574,241
182.599,199
182.624,141
182.649,79
182.674,27
182.699,-23
182.724,-95
182.749,-188
182.774,-258
182.799,-244
182.824,-121
182.849,69
182.874,252
182.899,373
182.924,430
182.949,453
182.974,461
182.999,452
183.024,423
183.049,384
183.074,355
183.099,344
183.124,344
183.149,340
183.174,326
183.199,302
183.224,266
183.249,218
183.274,165
183.299,112
183.324,52
183.349,-31
183.374,-135
183.399,-218
183.424,-218
183.449,-106
183.474,83
183.499,273
183.524,402
183.549,465
183.574,493
183.599,510
183.624,510
183.649,482
183.674,432
183.699,387
183.724,365
183.749,362
183.774,357
183.799,335
183.824,297
183.849,249
183.874,194
183.899,131
183.924,62
183.949,-14
183.974,-107
183.999,-211
184.024,-292
184.049,-297
184.074,-190
184.099,1
184.124,205
184.149,350
184.174,417
184.199,438
184.224,449
184.249,455
184.274,444
184.299,414
184.324,384
184.349,372
184.374,377
184.399,379
184.424,364
184.449,334
184.474,297
184.499,250
184.524,190
184.549,121
184.574,56
184.599,-5
184.624,-82
184.649,-184
184.674,-276
184.699,-293
184.724,-192
184.749,5
184.774,218
184.799,368
184.824,438
184.849,462
184.874,480
184.899,497
184.924,492
184.949,458
184.974,420
184.999,406
185.024,421
185.049,438
185.074,432
185.099,401
185.124,362
185.149,323
185.174,277
185.199,214
185.224,140
185.249,75
185.274,22
185.299,-36
185.324,-122
185.349,-220
185.374,-276
185.399,-230
185.424,-73
185.449,138
185.474,323
185.499,432
185.524,469
185.549,472
185.574,469
185.599,459
185.624,432
185.649,395
185.674,367
185.699,364
185.724,377
185.749,382
185.774,367
185.799,336
185.824,301
185.849,262
185.874,208
185.899,139
185.924,69
185.949,9
185.974,-45
185.999,-118
186.024,-210
186.049,-282
186.074,-274
186.099,-160
186.124,24
186.149,205
186.174,323
186.199,376
186.224,392
186.249,400
186.274,400
186.299,382
186.324,352
186.349,332
186.374,336
186.399,354
186.424,362
186.449,349
186.474,321
186.499,288
186.524,250
186.549,199
186.574,140
186.599,84
186.624,32
186.649,-30
186.674,-115
186.699,-200
186.724,-227
186.749,-151
186.774,14
186.799,204
186.824,349
186.849,422
186.874,450
186.899,466
186.924,477
186.949,471
186.974,443
186.999,411
187.024,398
187.049,405
187.074,413
187.099,405
187.124,380
187.149,347
187.174,308
187.199,255
187.224,190
187.249,125
187.274,71
187.299,21
187.324,-48
187.349,-141
187.374,-223
187.399,-236
187.424,-149
187.449,12
187.474,183
187.499,306
187.524,366
187.549,388
187.574,403
187.599,419
187.624,423
187.649,409
187.674,386
187.699,376
187.724,385
187.749,402
187.774,405
187.799,382
187.824,342
187.849,301
187.874,263
187.899,218
187.924,158
187.949,88
187.974,26
187.999,-19
188.024,-65
188.049,-132
188.074,-219
188.099,-285
188.124,-274
188.149,-162
188.174,18
188.199,201
188.224,330
188.249,397
188.274,427
188.299,449
188.324,465
188.349,467
188.374,451
188.399,433
188.424,431
188.449,448
188.474,466
188.499,466
188.524,443
188.549,408
188.574,370
188.599,328
188.624,274
188.649,205
188.674,133
188.699,68
188.724,8
188.749,-65
188.774,-160
188.799,-250
188.824,-282
188.849,-216
188.874,-59
188.899,127
188.924,275
188.949,354
188.974,384
188.999,399
189.024,415
189.049,420
189.074,401
189.099,370
189.124,353
189.149,361
189.174,378
189.199,381
189.224,362
189.249,329
189.274,292
189.299,249
189.324,192
189.349,128
189.374,68
189.399,14
189.424,-52
189.449,-142
189.474,-229
189.499,-254
189.524,-173
189.549,-3
189.574,188
189.599,331
189.624,407
189.649,438
189.674,456
189.699,463
189.724,449
189.749,413
189.774,376
189.799,357
189.824,358
189.849,361
189.874,353
189.899,332
189.924,300
189.949,255
189.974,198
189.999,135
190.024,75
190.049,13
190.074,-66
190.099,-161
190.124,-235
190.149,-227
190.174,-113
190.199,71
190.224,250
190.249,369
190.274,424
190.299,450
190.324,467
190.349,470
190.374,447
190.399,408
190.424,383
190.449,385
190.474,401
190.499,403
190.524,381
190.549,344
190.574,301
190.599,249
190.624,184
190.649,112
190.674,47
190.699,-14
190.724,-90
190.749,-183
190.774,-254
190.799,-242
190.824,-118
190.849,77
190.874,264
190.899,382
190.924,431
190.949,451
190.974,468
190.999,475
191.024,456
191.049,418
191.074,388
191.099,384
191.124,393
191.149,391
191.174,367
191.199,330
191.224,289
191.249,240
191.274,172
191.299,93
191.324,20
191.349,-40
191.374,-108
191.399,-201
191.424,-302
191.449,-356
191.474,-306
191.499,-154
191.524,39
191.549,198
191.574,286
191.599,317
191.624,329
191.649,340
191.674,342
191.699,326
191.724,305
191.749,305
191.774,335
191.799,381
191.824,411
191.849,411
191.874,389
191.899,363
191.924,341
191.949,317
191.974,286
191.999,256
192.024,237
192.049,220
192.074,182
192.099,114
192.124,44
192.149,28
192.174,104
192.199,250
192.224,398
192.249,486
192.274,506
192.299,493
192.324,479
192.349,467
192.374,436
192.399,383
192.424,331
192.449,303
192.474,301
192.499,299
192.524,279
192.549,246
192.574,211
192.599,177
192.624,133
192.649,76
192.674,18
192.699,-28
192.724,-78
192.749,-149
192.774,-234
192.799,-283
192.824,-241
192.849,-102
192.874,77
192.899,224
192.924,304
192.949,335
192.974,349
192.999,357
193.024,348
193.049,321
193.074,292
193.099,285
193.124,299
193.149,315
193.174,315
193.199,299
193.224,275
193.249,245
193.274,203
193.299,153
193.324,100
193.349,44
193.374,-24
193.399,-106
193.424,-172
193.449,-168
193.474,-67
193.499,100
193.524,267
193.549,377
193.574,425
193.599,443
193.624,454
193.649,455
193.674,435
193.699,402
193.724,378
193.749,375
193.774,382
193.799,378
193.824,358
193.849,326
193.874,290
193.899,244
193.924,187
193.949,127
193.974,70
193.999,7
194.024,-73
194.049,-161
194.074,-209
194.099,-162
194.124,-16
194.149,169
194.174,316
194.199,388
194.224,409
194.249,422
194.274,442
194.299,450
194.324,429
194.349,393
194.374,371
194.399,373
194.424,381
194.449,371
194.474,339
194.499,298
194.524,257
194.549,208
194.574,145
194.599,78
194.624,19
194.649,-38
194.674,-114
194.699,-213
194.724,-299
194.749,-309
194.774,-208
194.799,-27
194.824,160
194.849,292
194.874,361
194.899,398
194.924,433
194.949,463
194.974,473
194.999,459
195.024,441
195.049,441
195.074,462
195.099,481
195.124,481
195.149,459
195.174,427
195.199,391
195.224,346
195.249,283
195.274,213
195.299,147
195.324,88
195.349,17
195.374,-82
195.399,-192
195.424,-254
195.449,-214
195.474,-71
195.499,114
195.524,268
195.549,353
195.574,385
195.599,400
195.624,412
195.649,410
195.674,385
195.699,351
195.724,335
195.749,342
195.774,353
195.799,347
195.824,322
195.849,290
195.874,257
195.899,212
195.924,149
195.949,78
195.974,17
195.999,-34
196.024,-99
196.049,-184
196.074,-254
196.099,-246
196.124,-126
196.149,70
196.174,261
196.199,380
196.224,420
196.249,413
196.274,392
196.299,361
196.324,315
196.349,268
196.374,249
196.399,276
196.424,338
196.449,401
196.474,432
196.499,420
196.524,370
196.549,301
196.574,230
196.599,166
196.624,101
196.649,19
196.674,-79
196.699,-160
196.724,-170
196.749,-80
196.774,80
196.799,243
196.824,352
196.849,401
196.874,419
196.899,431
196.924,434
196.949,415
196.974,377
196.999,343
197.024,330
197.049,335
197.074,335
197.099,317
197.124,282
197.149,239
197.174,189
197.199,135
197.224,78
197.249,20
197.274,-47
197.299,-132
197.324,-220
197.349,-265
197.374,-217
197.399,-71
197.424,115
197.449,268
197.474,349
197.499,377
197.524,395
197.549,419
197.574,434
197.599,421
197.624,390
197.649,370
197.674,377
197.699,394
197.724,393
197.749,367
197.774,331
197.799,298
197.824,263
197.849,212
197.874,145
197.899,83
197.924,36
197.949,-6
197.974,-71
197.999,-157
198.024,-225
198.049,-217
198.074,-111
198.099,60
198.124,233
198.149,356
198.174,420
198.199,449
198.224,468
198.249,483
198.274,488
198.299,481
198.324,470
198.349,468
198.374,476
198.399,483
198.424,477
198.449,452
198.474,416
198.499,376
198.524,332
198.549,280
198.574,215
198.599,145
198.624,81
198.649,27
198.674,-29
198.699,-107
198.724,-198
198.749,-267
198.774,-263
198.799,-165
198.824,-5
198.849,152
198.874,257
198.899,301
198.924,315
198.949,328
198.974,344
198.999,347
199.024,333
199.049,315
199.074,313
199.099,330
199.124,346
199.149,344
199.174,325
199.199,299
199.224,272
199.249,237
199.274,187
199.299,131
199.324,83
199.349,43
199.374,-7
199.399,-80
199.424,-152
199.449,-173
199.474,-103
199.499,41
199.524,202
199.549,316
199.574,369
199.599,388
199.624,402
199.649,414
199.674,410
199.699,386
199.724,359
199.749,355
199.774,371
199.799,385
199.824,378
199.849,351
199.874,317
199.899,284
199.924,245
199.949,191
199.974,130
199.999,75
200.024,27
200.049,-30
200.074,-108
200.099,-186
200.124,-215
200.149,-155
200.174,-16
200.199,150
200.224,285
200.249,362
200.274,396
200.299,415
200.324,434
200.349,446
200.374,440
200.399,422
200.424,409
200.449,413
200.474,428
200.499,433
200.524,415
200.549,377
200.574,334
200.599,293
200.624,246
200.649,186
200.674,117
200.699,52
200.724,0
200.749,-52
200.774,-124
200.799,-211
200.824,-274
200.849,-264
200.874,-161
200.899,2
200.924,167
200.949,287
200.974,354
200.999,389
201.024,412
201.049,427
201.074,431
201.099,425
201.124,419
201.149,422
201.174,435
201.199,448
201.224,451
201.249,437
201.274,406
201.299,365
201.324,318
201.349,268
201.374,213
201.399,150
201.424,84
201.449,26
201.474,-22
201.499,-74
201.524,-146
201.549,-232
201.574,-292
201.599,-275
201.624,-159
201.649,19
201.674,198
201.699,323
201.724,388
201.749,420
201.774,443
201.799,461
201.824,464
201.849,453
201.874,441
201.899,443
201.924,456
201.949,469
201.974,467
201.999,449
202.024,419
202.049,382
202.074,339
202.099,288
202.124,230
202.149,168
202.174,108
202.199,53
202.224,0
202.249,-64
202.274,-144
202.299,-222
202.324,-254
202.349,-200
202.374,-58
202.399,125
202.424,282
202.449,371
202.474,401
202.499,410
202.524,418
202.549,420
202.574,400
202.599,366
202.624,343
202.649,351
202.674,377
202.699,389
202.724,369
202.749,328
202.774,287
202.799,252
202.824,211
202.849,152
202.874,86
202.899,27
202.924,-27
202.949,-94
202.974,-179
202.999,-249
203.024,-248
203.049,-142
203.074,37
203.099,223
203.124,356
203.149,423
203.174,451
203.199,466
203.224,468
203.249,449
203.274,413
203.299,383
203.324,375
203.349,385
203.374,390
203.399,378
203.424,351
203.449,316
203.474,274
203.499,218
203.524,151
203.549,83
203.574,20
203.599,-51
203.624,-141
203.649,-233
203.674,-274
203.699,-217
203.724,-62
203.749,133
203.774,295
203.799,389
203.824,429
203.849,450
203.874,465
203.899,464
203.924,439
203.949,402
203.974,379
203.999,381
204.024,391
204.049,390
204.074,369
204.099,337
204.124,298
204.149,246
204.174,180
204.199,109
204.224,43
204.249,-18
204.274,-97
204.299,-195
204.324,-277
204.349,-280
204.374,-170
204.399,21
204.424,218
204.449,352
204.474,415
204.499,441
204.524,463
204.549,480
204.574,474
204.599,443
204.624,411
204.649,399
204.674,409
204.699,418
204.724,412
204.749,392
204.774,364
204.799,324
204.824,268
204.849,199
204.874,131
204.899,67
204.924,-5
204.949,-104
204.974,-207
204.999,-261
205.024,-215
205.049,-71
205.074,111
205.099,266
205.124,358
205.149,400
205.174,416
205.199,417
205.224,398
205.249,363
205.274,327
205.299,311
205.324,314
205.349,324
205.374,324
205.399,307
205.424,276
205.449,233
205.474,185
205.499,135
205.524,84
205.549,22
205.574,-56
205.599,-142
205.624,-194
205.649,-167
205.674,-50
205.699,123
205.724,289
205.749,401
205.774,451
205.799,464
205.824,463
205.849,452
205.874,427
205.899,392
205.924,363
205.949,355
205.974,364
205.999,371
206.024,354
206.049,310
206.074,257
206.099,210
206.124,169
206.149,112
206.174,26
206.199,-76
206.224,-146
206.249,-135
206.274,-28
206.299,138
206.324,302
206.349,414
206.374,466
206.399,478
206.424,474
206.449,462
206.474,437
206.499,399
206.524,355
206.549,322
206.574,306
206.599,297
206.624,274
206.649,225
206.674,154
206.699,80
206.724,11
206.749,-60
206.774,-158
206.799,-278
206.824,-383
206.849,-414
206.874,-342
206.899,-196
206.924,-43
206.949,58
206.974,99
206.999,102
207.024,94
207.049,78
207.074,51
207.099,18
207.124,1
207.149,15
207.174,59
207.199,118
207.224,175
207.249,220
207.274,246
207.299,249
207.324,236
207.349,222
207.374,216
207.399,211
207.424,197
207.449,185
207.474,217
207.499,337
207.524,543
207.549,779
207.574,970
207.599,1076
207.624,1106
207.649,1091
207.674,1051
207.699,984
207.724,891
207.749,786
207.774,688
207.799,607
207.824,537
207.849,470
207.874,401
207.899,332
207.924,264
207.949,195
207.974,129
207.999,63
208.024,-13
208.049,-118
208.074,-246
208.099,-360
208.124,-404
208.149,-349
208.174,-223
208.199,-89
208.224,-2
208.249,26
208.274,27
208.299,24
208.324,22
208.349,11
208.374,-6
208.399,-16
208.424,0
208.449,35
208.474,69
208.499,80
208.524,68
208.549,50
208.574,37
208.599,23
208.624,-10
208.649,-68
208.674,-132
208.699,-158
208.724,-110
208.749,13
208.774,178
208.799,331
208.824,434
208.849,485
208.874,507
208.899,521
208.924,530
208.949,525
208.974,504
208.999,478
209.024,464
209.049,462
209.074,457
209.099,429
209.124,374
209.149,310
209.174,254
209.199,208
209.224,152
209.249,71
209.274,-25
209.299,-97
209.324,-100
209.349,-20
209.374,112
209.399,245
209.424,338
209.449,380
209.474,388
209.499,383
209.524,375
209.549,357
209.574,329
209.599,300
209.624,284
209.649,285
209.674,290
209.699,278
209.724,242
209.749,192
209.774,143
209.799,101
209.824,51
209.849,-22
209.874,-112
209.899,-180
209.924,-177
209.949,-86
209.974,65
209.999,222
210.024,335
210.049,391
210.074,408
210.099,412
210.124,411
210.149,402
210.174,381
210.199,354
210.224,336
210.249,334
210.274,337
210.299,326
210.324,290
210.349,235
210.374,180
210.399,131
210.424,79
210.449,3
210.474,-93
210.499,-174
210.524,-186
210.549,-101
210.574,52
210.599,215
210.624,332
210.649,395
210.674,426
210.699,447
210.724,460
210.749,453
210.774,427
210.799,399
210.824,385
210.849,384
210.874,381
210.899,362
210.924,326
210.949,279
210.974,222
210.999,158
211.024,93
211.049,31
211.074,-35
211.099,-120
211.124,-216
211.149,-283
211.174,-267
211.199,-146
211.224,42
211.249,220
211.274,333
211.299,380
211.324,399
211.349,420
211.374,438
211.399,436
211.424,414
211.449,395
211.474,395
211.499,408
211.524,410
211.549,389
211.574,353
211.599,315
211.624,273
211.649,218
211.674,151
211.699,87
211.724,35
211.749,-18
211.774,-94
211.799,-187
211.824,-254
211.849,-236
211.874,-111
211.899,80
211.924,268
211.949,394
211.974,451
211.999,471
212.024,482
212.049,488
212.074,481
212.099,458
212.124,438
212.149,438
212.174,454
212.199,466
212.224,454
212.249,417
212.274,372
212.299,327
212.324,277
212.349,214
212.374,140
212.399,72
212.424,13
212.449,-51
212.474,-140
212.499,-237
212.524,-291
212.549,-250
212.574,-112
212.599,69
212.624,228
212.649,327
212.674,377
212.699,401
212.724,409
212.749,395
212.774,360
212.799,324
212.824,309
212.849,317
212.874,328
212.899,327
212.924,309
212.949,280
212.974,241
212.999,192
213.024,137
213.049,86
213.074,37
213.099,-24
213.124,-111
213.149,-199
213.174,-233
213.199,-168
213.224,-12
213.249,173
213.274,323
213.299,409
213.324,446
213.349,459
213.374,456
213.399,432
213.424,394
213.449,359
213.474,345
213.499,349
213.524,354
213.549,349
213.574,328
213.599,293
213.624,243
213.649,185
213.674,126
213.699,69
213.724,1
213.749,-87
213.774,-180
213.799,-227
213.824,-176
213.849,-25
213.874,167
213.899,327
213.924,416
213.949,451
213.974,468
213.999,478
214.024,472
214.049,442
214.074,404
214.099,382
214.124,380
214.149,383
214.174,374
214.199,349
214.224,315
214.249,271
214.274,213
214.299,145
214.324,80
214.349,22
214.374,-45
214.399,-139
214.424,-240
214.449,-289
214.474,-230
214.499,-64
214.524,140
214.549,306
214.574,398
214.599,436
214.624,452
214.649,456
214.674,439
214.699,401
214.724,363
214.749,346
214.774,350
214.799,355
214.824,347
214.849,326
214.874,299
214.899,262
214.924,211
214.949,150
214.974,89
214.999,32
215.024,-39
215.049,-134
215.074,-225
215.099,-251
215.124,-167
215.149,10
215.174,211
215.199,363
215.224,443
215.249,474
215.274,485
215.299,484
215.324,463
215.349,428
215.374,400
215.399,391
215.424,398
215.449,401
215.474,393
215.499,373
215.524,344
215.549,300
215.574,239
215.599,171
215.624,110
215.649,54
215.674,-18
215.699,-117
215.724,-211
215.749,-240
215.774,-164
215.799,0
215.824,188
215.849,332
215.874,408
215.899,432
215.924,431
215.949,416
215.974,388
215.999,350
216.024,316
216.049,299
216.074,300
216.099,306
216.124,301
216.149,277
216.174,235
216.199,187
216.224,140
216.249,91
216.274,30
216.299,-51
216.324,-140
216.349,-197
216.374,-177
216.399,-64
216.424,108
216.449,278
216.474,392
216.499,438
216.524,439
216.549,424
216.574,407
216.599,383
216.624,350
216.649,319
216.674,305
216.699,309
216.724,314
216.749,298
216.774,253
216.799,196
216.824,145
216.849,101
216.874,45
216.899,-40
216.924,-139
216.949,-200
216.974,-172
216.999,-47
217.024,129
217.049,291
217.074,396
217.099,444
217.124,457
217.149,455
217.174,440
217.199,412
217.224,377
217.249,351
217.274,341
217.299,340
217.324,334
217.349,309
217.374,265
217.399,208
217.424,149
217.449,95
217.474,37
217.499,-36
217.524,-130
217.549,-216
217.574,-243
217.599,-170
217.624,-5
217.649,190
217.674,344
217.699,425
217.724,453
217.749,466
217.774,478
217.799,477
217.824,453
217.849,417
217.874,397
217.899,401
217.924,409
217.949,398
217.974,365
217.999,323
218.024,280
218.049,229
218.074,161
218.099,86
218.124,21
218.149,-32
218.174,-97
218.199,-190
218.224,-285
218.249,-318
218.274,-239
218.299,-59
218.324,148
218.349,308
218.374,390
218.399,420
218.424,438
218.449,454
218.474,458
218.499,440
218.524,414
218.549,404
218.574,416
218.599,433
218.624,432
218.649,408
218.674,372
218.699,335
218.724,295
218.749,240
218.774,173
218.799,108
218.824,53
218.849,1
218.874,-70
218.899,-163
218.924,-242
218.949,-253
218.974,-162
218.999,10
219.024,200
219.049,345
219.074,420
219.099,446
219.124,454
219.149,457
219.174,450
219.199,427
219.224,400
219.249,386
219.274,393
219.299,407
219.324,406
219.349,382
219.374,344
219.399,304
219.424,263
219.449,212
219.474,146
219.499,77
219.524,18
219.549,-32
219.574,-95
219.599,-180
219.624,-257
219.649,-272
219.674,-187
219.699,-17
219.724,173
219.749,315
219.774,386
219.799,408
219.824,414
219.849,415
219.874,404
219.899,377
219.924,347
219.949,334
219.974,340
219.999,351
220.024,350
220.049,331
220.074,298
220.099,254
220.124,200
220.149,142
220.174,87
220.199,34
220.224,-33
220.249,-122
220.274,-207
220.299,-232
220.324,-154
220.349,14
220.374,207
220.399,352
220.424,424
220.449,450
220.474,463
220.499,473
220.524,463
220.549,432
220.574,399
220.599,388
220.624,400
220.649,408
220.674,391
220.699,355
220.724,315
220.749,276
220.774,226
220.799,159
220.824,83
220.849,16
220.874,-43
220.899,-117
220.924,-212
220.949,-295
220.974,-305
220.999,-204
221.024,-16
221.049,184
221.074,332
221.099,409
221.124,441
221.149,460
221.174,473
221.199,471
221.224,449
221.249,423
221.274,414
221.299,425
221.324,437
221.349,432
221.374,403
221.399,363
221.424,320
221.449,274
221.474,215
221.499,143
221.524,70
221.549,6
221.574,-54
221.599,-131
221.624,-227
221.649,-312
221.674,-332
221.699,-248
221.724,-73
221.749,132
221.774,301
221.799,400
221.824,441
221.849,457
221.874,467
221.899,467
221.924,450
221.949,426
221.974,415
221.999,425
222.024,446
222.049,454
222.074,436
222.099,398
222.124,355
222.149,312
222.174,261
222.199,196
222.224,127
222.249,65
222.274,10
222.299,-54
222.324,-140
222.349,-227
222.374,-267
222.399,-216
222.424,-68
222.449,124
222.474,295
222.499,399
222.524,441
222.549,453
222.574,458
222.599,457
222.624,439
222.649,408
222.674,386
222.699,386
222.724,403
222.749,412
222.774,396
222.799,360
222.824,320
222.849,281
222.874,231
222.899,163
222.924,89
222.949,26
222.974,-24
222.999,-85
223.024,-171
223.049,-259
223.074,-286
223.099,-204
223.124,-28
223.149,170
223.174,319
223.199,392
223.224,415
223.249,424
223.274,427
223.299,412
223.324,376
223.349,339
223.374,324
223.399,333
223.424,348
223.449,347
223.474,327
223.499,292
223.524,246
223.549,191
223.574,131
223.599,73
223.624,13
223.649,-62
223.674,-156
223.699,-234
223.724,-238
223.749,-134
223.774,51
223.799,243
223.824,376
223.849,436
223.874,458
223.899,471
223.924,476
223.949,458
223.974,419
223.999,384
224.024,374
224.049,384
224.074,389
224.099,372
224.124,340
224.149,305
224.174,264
224.199,206
224.224,134
224.249,61
224.274,-1
224.299,-64
224.324,-148
224.349,-246
224.374,-306
224.399,-271
224.424,-124
224.449,83
224.474,274
224.499,394
224.524,446
224.549,464
224.574,475
224.599,480
224.624,468
224.649,440
224.674,415
224.699,411
224.724,424
224.749,437
224.774,432
224.799,405
224.824,366
224.849,324
224.874,274
224.899,211
224.924,135
224.949,62
224.974,3
224.999,-51
225.024,-122
225.049,-217
225.074,-307
225.099,-335
225.124,-256
225.149,-81
225.174,129
225.199,304
225.224,408
225.249,453
225.274,468
225.299,475
225.324,471
225.349,454
225.374,431
225.399,418
225.424,425
225.449,443
225.474,452
225.499,442
225.524,417
225.549,385
225.574,349
225.599,305
225.624,244
225.649,172
225.674,100
225.699,39
225.724,-16
225.749,-84
225.774,-175
225.799,-269
225.824,-318
225.849,-275
225.874,-130
225.899,71
225.924,260
225.949,384
225.974,440
225.999,454
226.024,456
226.049,451
226.074,430
226.099,395
226.124,364
226.149,358
226.174,375
226.199,393
226.224,390
226.249,363
226.274,325
226.299,287
226.324,245
226.349,190
226.374,124
226.399,60
226.424,5
226.449,-53
226.474,-133
226.499,-225
226.524,-283
226.549,-251
226.574,-111
226.599,90
226.624,280
226.649,405
226.674,463
226.699,483
226.724,490
226.749,480
226.774,446
226.799,399
226.824,365
226.849,358
226.874,369
226.899,375
226.924,363
226.949,336
226.974,301
226.999,256
227.024,195
227.049,125
227.074,57
227.099,-7
227.124,-85
227.149,-183
227.174,-273
227.199,-293
227.224,-199
227.249,-5
227.274,212
227.299,378
227.324,463
227.349,493
227.374,503
227.399,504
227.424,485
227.449,444
227.474,402
227.499,385
227.524,391
227.549,398
227.574,386
227.599,355
227.624,318
227.649,276
227.674,220
227.699,145
227.724,64
227.749,-5
227.774,-66
227.799,-143
227.824,-247
227.849,-348
227.874,-377
227.899,-284
227.924,-83
227.949,151
227.974,338
227.999,444
228.024,488
228.049,505
228.074,510
228.099,498
228.124,466
228.149,431
228.174,414
228.199,423
228.224,438
228.249,437
228.274,413
228.299,376
228.324,334
228.349,281
228.374,213
228.399,135
228.424,61
228.449,-4
228.474,-78
228.499,-176
228.524,-284
228.549,-348
228.574,-309
228.599,-150
228.624,77
228.649,293
228.674,435
228.699,498
228.724,516
228.749,520
228.774,516
228.799,491
228.824,449
228.849,412
228.874,402
228.899,418
228.924,434
228.949,428
228.974,397
228.999,352
229.024,304
229.049,246
229.074,173
229.099,91
229.124,15
229.149,-48
229.174,-119
229.199,-217
229.224,-328
229.249,-398
229.274,-366
229.299,-213
229.324,13
229.349,233
229.374,383
229.399,454
229.424,474
229.449,472
229.474,460
229.499,432
229.524,394
229.549,360
229.574,347
229.599,355
229.624,367
229.649,369
229.674,358
229.699,346
229.724,343
229.749,342
229.774,330
229.799,296
229.824,245
229.849,184
229.874,113
229.899,16
229.924,-111
229.949,-242
229.974,-316
229.999,-274
230.024,-110
230.049,116
230.074,322
230.099,453
230.124,516
230.149,543
230.174,556
230.199,545
230.224,499
230.249,435
230.274,387
230.299,375
230.324,384
230.349,381
230.374,351
230.399,303
230.424,255
230.449,206
230.474,146
230.499,75
230.524,5
230.549,-57
230.574,-129
230.599,-222
230.624,-313
230.649,-339
230.674,-248
230.699,-50
230.724,177
230.749,354
230.774,444
230.799,475
230.824,482
230.849,476
230.874,447
230.899,396
230.924,348
230.949,327
230.974,335
230.999,348
231.024,345
231.049,323
231.074,289
231.099,244
231.124,186
231.149,118
231.174,50
231.199,-17
231.224,-102
231.249,-208
231.274,-302
231.299,-315
231.324,-205
231.349,5
231.374,232
231.399,396
231.424,474
231.449,499
231.474,507
231.499,505
231.524,479
231.549,433
231.574,393
231.599,379
231.624,386
231.649,390
231.674,374
231.699,343
231.724,306
231.749,261
231.774,198
231.799,119
231.824,42
231.849,-26
231.874,-101
231.899,-199
231.924,-299
231.949,-337
231.974,-255
231.999,-58
232.024,177
232.049,363
232.074,459
232.099,491
232.124,502
232.149,508
232.174,494
232.199,456
232.224,411
232.249,388
232.274,394
232.299,407
232.324,404
232.349,379
232.374,344
232.399,304
232.424,251
232.449,178
232.474,97
232.499,27
232.524,-35
232.549,-111
232.574,-215
232.599,-317
232.624,-354
232.649,-270
232.674,-75
232.699,161
232.724,356
232.749,469
232.774,514
232.799,526
232.824,529
232.849,519
232.874,491
232.899,456
232.924,437
232.949,443
232.974,463
232.999,470
233.024,451
233.049,414
233.074,369
233.099,318
233.124,251
233.149,168
233.174,85
233.199,16
233.224,-45
233.249,-124
233.274,-231
233.299,-327
233.324,-341
233.349,-230
233.374,-21
233.399,201
233.424,358
233.449,430
233.474,449
233.499,452
233.524,445
233.549,418
233.574,370
233.599,330
233.624,320
233.649,338
233.674,355
233.699,350
233.724,325
233.749,291
233.774,250
233.799,195
233.824,128
233.849,61
233.874,2
233.899,-64
233.924,-155
233.949,-252
233.974,-295
233.999,-226
234.024,-46
234.049,173
234.074,347
234.099,436
234.124,461
234.149,464
234.174,462
234.199,443
234.224,403
234.249,360
234.274,339
234.299,343
234.324,355
234.349,353
234.374,332
234.399,296
234.424,248
234.449,187
234.474,117
234.499,49
234.524,-17
234.549,-97
234.574,-196
234.599,-280
234.624,-287
234.649,-174
234.674,32
234.699,251
234.724,402
234.749,467
234.774,482
234.799,489
234.824,494
234.849,477
234.874,438
234.899,399
234.924,387
234.949,400
234.974,411
234.999,398
235.024,365
235.049,324
235.074,280
235.099,223
235.124,149
235.149,74
235.174,11
235.199,-51
235.224,-136
235.249,-243
235.274,-326
235.299,-319
235.324,-190
235.349,21
235.374,236
235.399,385
235.424,456
235.449,479
235.474,488
235.499,490
235.524,476
235.549,445
235.574,414
235.599,404
235.624,416
235.649,433
235.674,430
235.699,400
235.724,355
235.749,312
235.774,271
235.799,220
235.824,152
235.849,73
235.874,2
235.899,-57
235.924,-122
235.949,-212
235.974,-310
235.999,-366
236.024,-319
236.049,-159
236.074,62
236.099,269
236.124,404
236.149,466
236.174,487
236.199,492
236.224,487
236.249,468
236.274,439
236.299,420
236.324,422
236.349,442
236.374,461
236.399,462
236.424,441
236.449,407
236.474,366
236.499,323
236.524,274
236.549,214
236.574,145
236.599,73
236.624,7
236.649,-50
236.674,-114
236.699,-196
236.724,-285
236.749,-338
236.774,-303
236.799,-161
236.824,52
236.849,264
236.874,412
236.899,481
236.924,500
236.949,501
236.974,494
236.999,471
237.024,432
237.049,395
237.074,383
237.099,399
237.124,420
237.149,421
237.174,395
237.199,355
237.224,315
237.249,274
237.274,218
237.299,145
237.324,72
237.349,9
237.374,-48
237.399,-123
237.424,-219
237.449,-298
237.474,-298
237.499,-187
237.524,7
237.549,211
237.574,360
237.599,435
237.624,461
237.649,463
237.674,445
237.699,404
237.724,351
237.749,313
237.774,304
237.799,317
237.824,328
237.849,323
237.874,304
237.899,277
237.924,238
237.949,184
237.974,121
237.999,59
238.024,-3
238.049,-83
238.074,-181
238.099,-262
238.124,-263
238.149,-146
238.174,56
238.199,265
238.224,411
238.249,478
238.274,496
238.299,495
238.324,480
238.349,444
238.374,394
238.399,354
238.424,341
238.449,349
238.474,354
238.499,341
238.524,308
238.549,260
238.574,201
238.599,138
238.624,73
238.649,4
238.674,-80
238.699,-181
238.724,-267
238.749,-278
238.774,-172
238.799,30
238.824,249
238.849,406
238.874,477
238.899,495
238.924,502
238.949,507
238.974,490
238.999,448
239.024,404
239.049,387
239.074,397
239.099,408
239.124,396
239.149,362
239.174,319
239.199,273
239.224,212
239.249,135
239.274,55
239.299,-10
239.324,-70
239.349,-151
239.374,-255
239.399,-338
239.424,-332
239.449,-200
239.474,18
239.499,237
239.524,383
239.549,445
239.574,459
239.599,466
239.624,473
239.649,463
239.674,434
239.699,401
239.724,391
239.749,406
239.774,426
239.799,426
239.824,399
239.849,357
239.874,315
239.899,271
239.924,215
239.949,144
239.974,72
239.999,13
240.024,-35
240.049,-98
240.074,-185
240.099,-272
240.124,-301
240.149,-222
240.174,-43
240.199,173
240.224,353
240.249,457
240.274,497
240.299,508
240.324,511
240.349,503
240.374,476
240.399,439
240.424,414
240.449,416
240.474,434
240.499,442
240.524,425
240.549,386
240.574,341
240.599,301
240.624,256
240.649,197
240.674,128
240.699,61
240.724,6
240.749,-49
240.774,-123
240.799,-213
240.824,-277
240.849,-260
240.874,-138
240.899,49
240.924,233
240.949,352
240.974,399
240.999,407
241.024,405
241.049,396
241.074,370
241.099,331
241.124,299
241.149,293
241.174,305
241.199,315
241.224,306
241.249,281
241.274,251
241.299,216
241.324,169
241.349,109
241.374,49
241.399,-5
241.424,-66
241.449,-146
241.474,-232
241.499,-270
241.524,-210
241.549,-49
241.574,156
241.599,328
241.624,431
241.649,476
241.674,495
241.699,504
241.724,495
241.749,465
241.774,433
241.799,419
241.824,425
241.849,432
241.874,423
241.899,396
241.924,365
241.949,331
241.974,282
241.999,214
242.024,136
242.049,68
242.074,7
242.099,-63
242.124,-157
242.149,-244
242.174,-264
242.199,-175
242.224,2
242.249,198
242.274,341
242.299,410
242.324,434
242.349,446
242.374,456
242.399,451
242.424,426
242.449,397
242.474,388
242.499,401
242.524,416
242.549,411
242.574,382
242.599,342
242.624,301
242.649,253
242.674,189
242.699,111
242.724,37
242.749,-26
242.774,-91
242.799,-176
242.824,-272
242.849,-333
242.874,-302
242.899,-164
242.924,37
242.949,229
242.974,356
242.999,415
243.024,439
243.049,452
243.074,454
243.099,435
243.124,396
243.149,363
243.174,354
243.199,369
243.224,380
243.249,366
243.274,330
243.299,286
243.324,244
243.349,197
243.374,136
243.399,64
243.424,1
243.449,-45
243.474,-89
243.499,-154
243.524,-239
243.549,-300
243.574,-279
243.599,-148
243.624,57
243.649,265
243.674,413
243.699,486
243.724,510
243.749,518
243.774,517
243.799,502
243.824,471
243.849,443
243.874,438
243.899,455
243.924,472
243.949,467
243.974,437
243.999,398
244.024,360
244.049,318
244.074,257
244.099,178
244.124,100
244.149,37
244.174,-19
244.199,-94
244.224,-192
244.249,-278
244.274,-293
244.299,-199
244.324,-14
244.349,194
244.374,357
244.399,447
244.424,481
244.449,488
244.474,485
244.499,470
244.524,442
244.549,412
244.574,398
244.599,406
244.624,424
244.649,430
244.674,412
244.699,376
244.724,333
244.749,285
244.774,226
244.799,155
244.824,81
244.849,20
244.874,-28
244.899,-85
244.924,-168
244.949,-261
244.974,-311
244.999,-263
245.024,-108
245.049,97
245.074,277
245.099,381
245.124,419
245.149,426
245.174,425
245.199,413
245.224,380
245.249,339
245.274,317
245.299,325
245.324,348
245.349,357
245.374,343
245.399,315
245.424,283
245.449,244
245.474,191
245.499,129
245.524,72
245.549,22
245.574,-36
245.599,-118
245.624,-198
245.649,-217
245.674,-135
245.699,33
245.724,219
245.749,356
245.774,424
245.799,447
245.824,454
245.849,447
245.874,421
245.899,378
245.924,342
245.949,329
245.974,336
245.999,342
246.024,334
246.049,310
246.074,273
246.099,225
246.124,170
246.149,113
246.174,58
246.199,-6
246.224,-90
246.249,-181
246.274,-230
246.299,-188
246.324,-49
246.349,133
246.374,286
246.399,369
246.424,394
246.449,400
246.474,404
246.499,398
246.524,371
246.549,333
246.574,308
246.599,307
246.624,319
246.649,324
246.674,317
246.699,301
246.724,280
246.749,249
246.774,205
246.799,155
246.824,107
246.849,55
246.874,-18
246.899,-110
246.924,-181
246.949,-171
246.974,-55
246.999,129
247.024,303
247.049,407
247.074,436
247.099,431
247.124,430
247.149,434
247.174,425
247.199,394
247.224,361
247.249,351
247.274,366
247.299,380
247.324,373
247.349,341
247.374,299
247.399,257
247.424,210
247.449,149
247.474,83
247.499,28
247.524,-16
247.549,-70
247.574,-150
247.599,-236
247.624,-273
247.649,-216
247.674,-66
247.699,118
247.724,271
247.749,363
247.774,406
247.799,428
247.824,443
247.849,445
247.874,434
247.899,420
247.924,417
247.949,428
247.974,443
247.999,450
248.024,442
248.049,418
248.074,381
248.099,336
248.124,289
248.149,240
248.174,188
248.199,129
248.224,67
248.249,9
248.274,-40
248.299,-96
248.324,-169
248.349,-246
248.374,-280
248.399,-227
248.424,-85
248.449,97
248.474,252
248.499,343
248.524,380
248.549,396
248.574,408
248.599,414
248.624,408
248.649,396
248.674,393
248.699,402
248.724,417
248.749,425
248.774,419
248.799,398
248.824,366
248.849,324
248.874,274
248.899,222
248.924,168
248.949,113
248.974,60
248.999,12
249.024,-35
249.049,-92
249.074,-166
249.099,-237
249.124,-259
249.149,-193
249.174,-42
249.199,139
249.224,287
249.249,371
249.274,407
249.299,425
249.324,439
249.349,441
249.374,428
249.399,412
249.424,411
249.449,428
249.474,448
249.499,454
249.524,441
249.549,417
249.574,387
249.599,350
249.624,307
249.649,256
249.674,202
249.699,145
249.724,89
249.749,38
249.774,-5
249.799,-54
249.824,-119
249.849,-196
249.874,-247
249.899,-224
249.924,-108
249.949,66
249.974,234
249.999,346
250.024,397
250.049,414
250.074,420
250.099,418
250.124,403
250.149,381
250.174,370
250.199,379
250.224,401
250.249,418
250.274,416
250.299,394
250.324,360
250.349,321
250.374,280
250.399,233
250.424,178
250.449,117
250.474,57
250.499,0
250.524,-54
250.549,-120
250.574,-197
250.599,-260
250.624,-262
250.649,-171
250.674,-2
250.699,181
250.724,314
250.749,377
250.774,395
250.799,403
250.824,408
250.849,398
250.874,369
250.899,343
250.924,345
250.949,375
250.974,403
250.999,403
251.024,374
251.049,337
251.074,302
251.099,260
251.124,202
251.149,134
251.174,73
251.199,19
251.224,-45
251.249,-132
251.274,-215
251.299,-236
251.324,-156
251.349,11
251.374,199
251.399,343
251.424,418
251.449,446
251.474,459
251.499,469
251.524,466
251.549,443
251.574,413
251.599,397
251.624,404
251.649,419
251.674,419
251.699,393
251.724,351
251.749,309
251.774,269
251.799,220
251.824,156
251.849,84
251.874,19
251.899,-35
251.924,-97
251.949,-182
251.974,-272
251.999,-320
252.024,-275
252.049,-131
252.074,63
252.099,241
252.124,358
252.149,414
252.174,439
252.199,453
252.224,457
252.249,446
252.274,424
252.299,406
252.324,405
252.349,419
252.374,432
252.399,427
252.424,404
252.449,370
252.474,333
252.499,293
252.524,242
252.549,176
252.574,105
252.599,41
252.624,-7
252.649,-53
252.674,-118
252.699,-204
252.724,-281
252.749,-296
252.774,-212
252.799,-43
252.824,153
252.849,316
252.874,415
252.899,459
252.924,473
252.949,474
252.974,465
252.999,447
253.024,432
253.049,432
253.074,447
253.099,468
253.124,481
253.149,476
253.174,452
253.199,414
253.224,367
253.249,316
253.274,260
253.299,200
253.324,136
253.349,71
253.374,4
253.399,-67
253.424,-152
253.449,-238
253.474,-286
253.499,-252
253.524,-122
253.549,64
253.574,238
253.599,347
253.624,389
253.649,398
253.674,403
253.699,402
253.724,380
253.749,344
253.774,321
253.799,328
253.824,355
253.849,371
253.874,359
253.899,329
253.924,298
253.949,265
253.974,219
253.999,157
254.024,95
254.049,42
254.074,-15
254.099,-97
254.124,-191
254.149,-243
254.174,-197
254.199,-49
254.224,140
254.249,296
254.274,382
254.299,414
254.324,425
254.349,427
254.374,411
254.399,374
254.424,335
254.449,315
254.474,318
254.499,328
254.524,332
254.549,322
254.574,299
254.599,261
254.624,206
254.649,143
254.674,82
254.699,24
254.724,-48
254.749,-138
254.774,-210
254.799,-210
254.824,-106
254.849,72
254.874,253
254.899,377
254.924,437
254.949,464
254.974,479
254.999,479
255.024,453
255.049,410
255.074,376
255.099,366
255.124,372
255.149,371
255.174,352
255.199,319
255.224,277
255.249,223
255.274,156
255.299,85
255.324,18
255.349,-49
255.374,-134
255.399,-228
255.424,-288
255.449,-256
255.474,-117
255.499,77
255.524,251
255.549,354
255.574,399
255.599,422
255.624,443
255.649,452
255.674,435
255.699,405
255.724,386
255.749,389
255.774,399
255.799,396
255.824,375
255.849,344
255.874,308
255.899,261
255.924,197
255.949,128
255.974,68
255.999,13
256.024,-56
256.049,-148
256.074,-227
256.099,-234
256.124,-134
256.149,47
256.174,239
256.199,378
256.224,448
256.249,475
256.274,492
256.299,506
256.324,508
256.349,493
256.374,475
256.399,471
256.424,482
256.449,494
256.474,487
256.499,456
256.524,410
256.549,359
256.574,303
256.599,238
256.624,166
256.649,93
256.674,26
256.699,-39
256.724,-119
256.749,-216
256.774,-304
256.799,-334
256.824,-270
256.849,-120
256.874,55
256.899,191
256.924,259
256.949,275
256.974,278
256.999,283
257.024,280
257.049,259
257.074,236
257.099,238
257.124,274
257.149,318
257.174,335
257.199,315
257.224,282
257.249,260
257.274,245
257.299,213
257.324,155
257.349,89
257.374,41
257.399,11
257.424,-29
257.449,-98
257.474,-167
257.499,-179
257.524,-98
257.549,55
257.574,216
257.599,330
257.624,383
257.649,400
257.674,403
257.699,397
257.724,378
257.749,348
257.774,320
257.799,306
257.824,305
257.849,304
257.874,289
257.899,256
257.924,208
257.949,153
257.974,99
257.999,48
258.024,-5
258.049,-67
258.074,-133
258.099,-189
258.124,-231
258.149,-273
258.174,-333
258.199,-406
258.224,-450
258.249,-414
258.274,-284
258.299,-97
258.324,80
258.349,207
258.374,288
258.399,355
258.424,426
258.449,499
258.474,564
258.499,623
258.524,686
258.549,755
258.574,820
258.599,879
258.624,935
258.649,995
258.674,1049
258.699,1080
258.724,1079
258.749,1055
258.774,1021
258.799,970
258.824,882
258.849,750
258.874,594
258.899,438
258.924,288
258.949,130
258.974,-38
258.999,-184
259.024,-252
259.049,-222
259.074,-133
259.099,-58
259.124,-44
259.149,-83
259.174,-137
259.199,-177
259.224,-195
259.249,-193
259.274,-162
259.299,-97
259.324,-5
259.349,83
259.374,145
259.399,177
259.424,193
259.449,202
259.474,201
259.499,183
259.524,149
259.549,114
259.574,97
259.599,105
259.624,138
259.649,182
259.674,215
259.699,221
259.724,199
259.749,178
259.774,196
259.799,272
259.824,381
259.849,479
259.874,529
259.899,525
259.924,482
259.949,410
259.974,311
259.999,196
260.024,95
260.049,42
260.074,41
260.099,59
260.124,45
260.149,-30
260.174,-156
260.199,-286
260.224,-374
260.249,-408
260.274,-413
260.299,-437
260.324,-509
260.349,-610
260.374,-678
260.399,-657
260.424,-541
260.449,-385
260.474,-248
260.499,-145
260.524,-36
260.549,129
260.574,367
260.599,652
260.624,949
260.649,1228
260.674,1452
260.699,1574
260.724,1558
260.749,1421
260.774,1242
260.799,1102
260.824,1024
260.849,967
260.874,878
260.899,742
260.924,586
260.949,431
260.974,277
260.999,122
261.024,-2
261.049,-47
261.074,8
261.099,123
261.124,221
261.149,254
261.174,227
261.199,177
261.224,127
261.249,82
261.274,36
261.299,-1
261.324,-26
261.349,-44
261.374,-68
261.399,-90
261.424,-85
261.449,-30
261.474,65
261.499,163
