df_hash,22ZHK4.TDZQKW
device,HZ2X61
project_hash,29R7
project_name,istanbul_aydin_university
person_hash,29R7.V4ET
person_label,V31
date_time_start,2025-08-06_11-37-14.169000_+03
date_time_start_unix,1754462234.169
date_time_end,2025-08-06_11-46-34.046000_+03
length_difference_noticed,no

time,ppg_ir,ppg_ambient,ppg_red
4.852,143235,643,119910
4.857,143231,517,119911
4.862,143229,636,119892
4.867,143215,522,119899
4.872,143225,630,119893
4.877,143217,529,119893
4.882,143220,622,119891
4.887,143209,535,119893
4.892,143210,616,119875
4.897,143194,543,119887
4.902,143208,608,119879
4.907,143204,550,119886
4.911,143201,602,119869
4.916,143188,556,119866
4.921,143196,598,119867
4.926,143190,560,119868
4.931,143175,588,119859
4.936,143185,568,119860
4.941,143167,580,119847
4.946,143181,575,119855
4.951,143175,576,119861
4.956,143183,581,119852
4.961,143182,568,119844
4.966,143177,587,119857
4.971,143172,561,119851
4.976,143176,598,119853
4.981,143187,551,119859
4.986,143194,606,119862
4.991,143173,547,119866
4.996,143206,607,119855
5.001,143199,542,119855
5.006,143187,614,119845
5.011,143179,538,119840
5.016,143178,626,119838
5.021,143199,525,119834
5.026,143194,630,119835
5.031,143184,524,119840
5.036,143180,635,119847
5.041,143176,513,119835
5.045,143184,642,119838
5.050,143181,507,119845
5.055,143186,646,119829
5.060,143181,503,119831
5.065,143179,652,119843
5.070,143183,495,119832
5.075,143171,654,119833
5.080,143178,488,119828
5.085,143173,660,119822
5.090,143173,479,119820
5.095,143166,665,119820
5.100,143172,476,119828
5.105,143173,670,119828
5.110,143168,471,119818
5.115,143166,674,119811
5.120,143154,467,119808
5.125,143169,679,119806
5.130,143168,463,119813
5.135,143167,685,119812
5.140,143178,454,119817
5.145,143180,686,119806
5.150,143163,450,119803
5.155,143161,690,119787
5.160,143174,445,119808
5.165,143172,699,119812
5.170,143180,443,119804
5.175,143179,703,119798
5.180,143166,440,119801
5.184,143167,705,119811
5.189,143173,435,119791
5.194,143179,707,119793
5.199,143175,434,119797
5.204,143181,711,119789
5.209,143184,433,119807
5.214,143190,711,119801
5.219,143195,429,119817
5.224,143189,716,119794
5.229,143193,428,119812
5.234,143189,721,119816
5.239,143196,427,119798
5.244,143180,721,119799
5.249,143197,425,119807
5.254,143192,727,119801
5.259,143198,424,119809
5.264,143207,727,119805
5.269,143190,421,119810
5.274,143200,728,119801
5.279,143182,419,119811
5.284,143201,733,119799
5.289,143205,419,119806
5.294,143199,735,119805
5.299,143220,418,119802
5.304,143210,737,119810
5.309,143217,419,119811
5.314,143234,738,119812
5.318,143227,414,119821
5.323,143220,740,119811
5.328,143227,413,119817
5.333,143239,749,119844
5.338,143242,411,119815
5.343,143237,741,119810
5.348,143246,413,119813
5.353,143254,745,119811
5.358,143254,413,119828
5.363,143250,747,119820
5.368,143248,413,119828
5.373,143250,748,119820
5.378,143258,412,119838
5.383,143264,748,119820
5.388,143262,411,119831
5.393,143262,750,119836
5.398,143267,411,119834
5.403,143259,753,119829
5.408,143264,412,119835
5.413,143267,754,119834
5.418,143260,413,119837
5.423,143278,754,119838
5.428,143278,411,119845
5.433,143283,755,119838
5.438,143273,414,119856
5.443,143288,759,119836
5.448,143287,414,119843
5.453,143294,756,119828
5.457,143277,417,119843
5.462,143276,754,119827
5.467,143283,414,119836
5.472,143280,754,119829
5.477,143279,417,119842
5.482,143264,754,119838
5.487,143264,419,119847
5.492,143255,752,119835
5.497,143252,419,119841
5.502,143228,748,119831
5.507,143235,421,119829
5.512,143229,748,119821
5.517,143229,426,119817
5.522,143205,745,119813
5.527,143219,430,119808
5.532,143208,742,119798
5.537,143207,431,119809
5.542,143189,739,119781
5.547,143200,435,119805
5.552,143190,737,119798
5.557,143186,435,119801
5.562,143175,732,119790
5.567,143174,439,119783
5.572,143171,728,119781
5.577,143165,446,119783
5.582,143166,725,119789
5.587,143167,448,119794
5.591,143166,722,119770
5.596,143168,451,119783
5.601,143160,716,119776
5.606,143152,456,119784
5.611,143159,712,119769
5.616,143160,458,119781
5.621,143158,706,119785
5.626,143200,464,119777
5.631,143170,704,119783
5.636,143156,469,119779
5.641,143147,696,119777
5.646,143152,474,119779
5.651,143153,689,119779
5.656,143151,480,119779
5.661,143150,685,119769
5.666,143150,481,119781
5.671,143154,680,119776
5.676,143154,487,119792
5.681,143156,675,119782
5.686,143145,494,119791
5.691,143159,672,119782
5.696,143156,495,119786
5.701,143169,666,119782
5.706,143168,500,119795
5.711,143171,659,119794
5.716,143180,506,119800
5.721,143164,651,119785
5.726,143184,508,119788
5.730,143173,646,119788
5.735,143188,517,119793
5.740,143172,641,119808
5.745,143171,522,119806
5.750,143176,633,119796
5.755,143178,530,119793
5.760,143181,627,119793
5.765,143177,536,119788
5.770,143189,618,119793
5.775,143174,543,119792
5.780,143173,616,119788
5.785,143165,544,119790
5.790,143182,611,119794
5.795,143180,551,119799
5.800,143172,601,119786
5.805,143171,560,119779
5.810,143165,597,119785
5.815,143175,565,119782
5.820,143177,589,119775
5.825,143166,568,119763
5.830,143166,584,119778
5.835,143169,574,119779
5.840,143165,577,119778
5.845,143155,577,119768
5.850,143147,572,119782
5.855,143161,583,119775
5.860,143162,566,119759
5.864,143166,589,119757
5.869,143173,563,119771
5.874,143159,591,119772
5.879,143161,554,119758
5.884,143157,598,119772
5.889,143158,552,119763
5.894,143147,603,119776
5.899,143160,543,119769
5.904,143152,606,119763
5.909,143158,540,119760
5.914,143160,612,119766
5.919,143172,534,119756
5.924,143172,592,119775
5.929,143149,528,119774
5.934,143155,622,119768
5.939,143172,523,119772
5.944,143160,623,119768
5.949,143161,519,119760
5.954,143159,630,119760
5.959,143160,513,119756
5.964,143159,636,119767
5.969,143133,511,119746
5.974,143173,634,119761
5.979,143178,508,119764
5.984,143168,641,119762
5.989,143179,500,119766
5.994,143175,647,119764
5.999,143173,496,119765
6.003,143182,651,119776
6.008,143170,491,119764
6.013,143172,647,119763
6.018,143162,486,119765
6.023,143184,659,119766
6.028,143188,482,119764
6.033,143179,662,119771
6.038,143190,477,119772
6.043,143186,667,119762
6.048,143183,473,119770
6.053,143201,672,119776
6.058,143181,469,119768
6.063,143197,673,119773
6.068,143183,466,119775
6.073,143195,681,119767
6.078,143197,459,119776
6.083,143191,681,119774
6.088,143190,457,119781
6.093,143181,685,119768
6.098,143184,451,119769
6.103,143200,691,119775
6.108,143193,449,119783
6.113,143195,674,119791
6.118,143203,445,119776
6.123,143213,697,119767
6.128,143204,444,119778
6.133,143210,703,119772
6.137,143201,441,119775
6.142,143208,705,119775
6.147,143206,439,119781
6.152,143211,711,119784
6.157,143233,435,119790
6.162,143217,710,119784
6.167,143219,434,119785
6.172,143217,712,119786
6.177,143222,433,119798
6.182,143241,718,119781
6.187,143235,432,119801
6.192,143227,719,119787
6.197,143232,427,119789
6.202,143228,721,119792
6.207,143223,427,119811
6.212,143235,723,119792
6.217,143225,426,119792
6.222,143216,728,119795
6.227,143211,425,119802
6.232,143196,728,119797
6.237,143199,422,119789
6.242,143196,731,119781
6.247,143173,421,119783
6.252,143186,735,119767
6.257,143171,421,119781
6.262,143161,735,119768
6.267,143165,420,119776
6.272,143160,740,119750
6.276,143148,416,119767
6.281,143150,738,119759
6.286,143152,417,119766
6.291,143158,741,119765
6.296,143154,416,119763
6.301,143148,744,119758
6.306,143142,415,119767
6.311,143137,744,119756
6.316,143144,415,119755
6.321,143141,746,119740
6.326,143142,415,119758
6.331,143135,750,119757
6.336,143125,413,119752
6.341,143128,750,119751
6.346,143121,413,119757
6.351,143124,751,119750
6.356,143123,420,119757
6.361,143113,751,119758
6.366,143117,412,119751
6.371,143134,753,119740
6.376,143118,414,119749
6.381,143126,755,119740
6.386,143113,412,119733
6.391,143116,757,119742
6.396,143112,413,119744
6.401,143126,759,119741
6.406,143112,414,119772
6.410,143119,759,119739
6.415,143113,412,119750
6.420,143121,756,119746
6.425,143146,413,119756
6.430,143137,758,119749
6.435,143138,415,119748
6.440,143136,756,119753
6.445,143134,418,119754
6.450,143120,757,119740
6.455,143138,418,119759
6.460,143132,758,119734
6.465,143129,421,119754
6.470,143124,755,119746
6.475,143131,419,119749
6.480,143117,753,119747
6.485,143125,422,119732
6.490,143127,749,119752
6.495,143127,424,119737
6.500,143139,747,119738
6.505,143128,425,119756
6.510,143129,748,119745
6.515,143141,429,119750
6.520,143131,741,119743
6.525,143142,430,119754
6.530,143129,738,119729
6.535,143133,433,119741
6.540,143159,734,119730
6.545,143124,434,119741
6.549,143122,730,119734
6.554,143119,441,119727
6.559,143128,729,119728
6.564,143122,442,119732
6.569,143123,724,119739
6.574,143132,446,119738
6.579,143136,719,119735
6.584,143130,450,119728
6.589,143133,715,119734
6.594,143139,452,119733
6.599,143143,708,119721
6.604,143127,457,119735
6.609,143132,709,119730
6.614,143143,463,119736
6.619,143143,701,119727
6.624,143146,463,119727
6.629,143141,694,119733
6.634,143150,469,119736
6.639,143142,690,119732
6.644,143160,475,119740
6.649,143163,686,119742
6.654,143173,477,119747
6.659,143164,682,119724
6.664,143162,481,119743
6.669,143169,676,119746
6.674,143167,489,119751
6.679,143175,670,119737
6.683,143159,495,119751
6.688,143155,666,119740
6.693,143175,495,119763
6.698,143177,659,119757
6.703,143175,498,119753
6.708,143169,653,119755
6.713,143182,506,119761
6.718,143186,648,119757
6.723,143174,512,119768
6.728,143170,643,119769
6.733,143183,517,119760
6.738,143196,639,119779
6.743,143186,518,119768
6.748,143182,634,119765
6.753,143191,528,119773
6.758,143207,627,119769
6.763,143201,527,119780
6.768,143202,622,119772
6.773,143200,535,119781
6.778,143211,615,119771
6.783,143211,542,119777
6.788,143222,610,119784
6.793,143217,544,119803
6.798,143222,603,119793
6.803,143221,550,119791
6.808,143218,599,119803
6.813,143223,552,119799
6.818,143231,590,119790
6.822,143230,558,119802
6.827,143243,585,119805
6.832,143240,564,119799
6.837,143233,580,119808
6.842,143250,576,119803
6.847,143260,576,119819
6.852,143237,572,119812
6.857,143252,568,119813
6.862,143254,574,119819
6.867,143247,564,119819
6.872,143256,579,119834
6.877,143259,555,119829
6.882,143241,584,119815
6.887,143241,552,119828
6.892,143252,587,119823
6.897,143250,546,119820
6.902,143256,592,119825
6.907,143241,541,119823
6.912,143255,597,119806
6.917,143250,534,119808
6.922,143247,603,119760
6.927,143239,533,119806
6.932,143252,605,119789
6.937,143240,526,119790
6.942,143249,612,119783
6.947,143235,524,119790
6.952,143216,615,119774
6.957,143240,515,119785
6.961,143218,619,119786
6.966,143223,512,119774
6.971,143212,623,119791
6.976,143204,507,119765
6.981,143201,627,119780
6.986,143192,502,119779
6.991,143195,623,119764
6.996,143176,500,119764
7.001,143186,635,119755
7.006,143159,495,119749
7.011,143163,638,119739
7.016,143149,491,119739
7.021,143154,642,119736
7.026,143135,485,119724
7.031,143139,648,119725
7.036,143138,481,119726
7.041,143146,650,119721
7.046,143145,477,119721
7.051,143139,654,119728
7.056,143131,473,119725
7.061,143130,657,119726
7.066,143125,467,119733
7.071,143137,663,119736
7.076,143125,465,119735
7.081,143147,667,119726
7.086,143144,460,119713
7.091,143143,670,119727
7.095,143147,456,119728
7.100,143143,674,119734
7.105,143132,451,119737
7.110,143160,676,119730
7.115,143145,448,119734
7.120,143148,678,119735
7.125,143149,442,119739
7.130,143149,686,119743
7.135,143158,441,119732
7.140,143128,688,119736
7.145,143145,439,119733
7.150,143132,691,119716
7.155,143126,435,119741
7.160,143127,693,119716
7.165,143130,435,119720
7.170,143134,698,119714
7.175,143125,432,119729
7.180,143138,699,119727
7.185,143137,429,119727
7.190,143129,704,119725
7.195,143131,430,119720
7.200,143123,707,119712
7.205,143141,426,119723
7.210,143142,710,119709
7.215,143137,425,119711
7.220,143141,713,119712
7.225,143133,424,119712
7.230,143138,716,119700
7.234,143133,423,119719
7.239,143138,718,119697
7.244,143138,420,119701
7.249,143137,720,119693
7.254,143116,420,119700
7.259,143130,724,119693
7.264,143108,419,119699
7.269,143119,725,119689
7.274,143122,415,119697
7.279,143109,727,119693
7.284,143107,416,119692
7.289,143109,729,119686
7.294,143117,412,119687
7.299,143108,728,119674
7.304,143097,413,119680
7.309,143111,733,119660
7.314,143107,413,119663
7.319,143106,735,119673
7.324,143101,411,119674
7.329,143104,736,119679
7.334,143099,412,119678
7.339,143089,737,119657
7.344,143101,408,119674
7.349,143105,738,119672
7.354,143091,409,119667
7.359,143094,741,119681
7.364,143097,410,119660
7.368,143084,740,119658
7.373,143101,406,119670
7.378,143093,744,119663
7.383,143086,407,119675
7.388,143099,744,119661
7.393,143106,408,119668
7.398,143109,746,119671
7.403,143110,407,119683
7.408,143101,748,119682
7.413,143114,408,119681
7.418,143116,747,119675
7.423,143113,410,119682
7.428,143111,748,119711
7.433,143112,407,119684
7.438,143103,748,119673
7.443,143115,409,119683
7.448,143115,746,119676
7.453,143096,411,119680
7.458,143114,746,119678
7.463,143115,410,119683
7.468,143114,749,119676
7.473,143116,413,119685
7.478,143111,748,119686
7.483,143112,413,119692
7.488,143106,748,119671
7.493,143116,415,119687
7.498,143116,748,119687
7.503,143107,418,119697
7.507,143102,744,119690
7.512,143110,417,119689
7.517,143111,743,119679
7.522,143125,421,119679
7.527,143108,739,119664
7.532,143106,421,119675
7.537,143108,737,119663
7.542,143108,426,119669
7.547,143110,735,119669
7.552,143099,426,119654
7.557,143107,732,119666
7.562,143111,429,119675
7.567,143106,729,119671
7.572,143119,436,119671
7.577,143100,727,119672
7.582,143110,436,119681
7.587,143125,722,119661
7.592,143113,441,119670
7.597,143114,718,119676
7.602,143111,441,119673
7.607,143107,714,119689
7.612,143116,447,119679
7.617,143107,711,119684
7.622,143146,455,119689
7.627,143111,709,119678
7.632,143120,455,119688
7.637,143116,705,119679
7.641,143104,460,119668
7.646,143121,699,119683
7.651,143122,466,119679
7.656,143134,694,119682
7.661,143120,468,119692
7.666,143128,691,119679
7.671,143139,476,119697
7.676,143137,690,119676
7.681,143138,477,119682
7.686,143141,683,119677
7.691,143144,483,119694
7.696,143140,678,119688
7.701,143135,491,119693
7.706,143151,676,119683
7.711,143143,493,119700
7.716,143137,673,119670
7.721,143150,494,119686
7.726,143139,669,119686
7.731,143137,503,119688
7.736,143138,664,119678
7.741,143135,510,119684
7.746,143135,659,119672
7.751,143123,511,119692
7.756,143120,655,119682
7.761,143119,519,119683
7.766,143098,648,119681
7.771,143099,523,119680
7.776,143086,647,119664
7.780,143084,529,119680
7.785,143075,644,119663
7.790,143065,538,119657
7.795,143060,640,119658
7.800,143061,541,119659
7.805,143063,633,119657
7.810,143044,549,119673
7.815,143054,632,119672
7.820,143046,554,119652
7.825,143042,629,119653
7.830,143043,557,119654
7.835,143027,623,119645
7.840,143034,566,119650
7.845,143041,618,119658
7.850,143048,570,119649
7.855,143031,616,119647
7.860,143019,577,119653
7.865,143029,610,119667
7.870,143022,581,119658
7.875,143021,610,119662
7.880,143033,591,119652
7.885,143018,603,119655
7.890,143023,597,119654
7.895,143023,598,119648
7.900,143013,601,119660
7.905,143013,593,119656
7.910,143019,611,119644
7.914,143006,592,119650
7.919,143012,617,119660
7.924,143011,587,119656
7.929,143006,624,119647
7.934,143008,581,119652
7.939,143011,627,119653
7.944,143017,580,119662
7.949,143013,638,119672
7.954,143016,576,119663
7.959,143016,643,119664
7.964,143028,573,119680
7.969,143021,651,119672
7.974,143023,570,119663
7.979,143035,655,119674
7.984,143022,564,119670
7.989,143032,663,119670
7.994,143034,560,119683
7.999,143016,669,119686
8.004,143040,558,119687
8.009,143026,675,119681
8.014,143023,557,119683
8.019,143021,678,119689
8.024,143032,551,119692
8.029,143030,688,119689
8.034,143022,547,119691
8.039,143025,695,119702
8.044,143007,539,119699
8.049,143012,697,119665
8.053,143014,536,119691
8.058,143012,702,119690
8.063,143022,532,119697
8.068,143007,707,119707
8.073,143011,528,119690
8.078,143011,714,119688
8.083,143018,524,119684
8.088,143011,715,119690
8.093,143009,522,119683
8.098,143011,722,119680
8.103,143013,516,119673
8.108,142997,724,119681
8.113,142994,512,119680
8.118,142995,730,119678
8.123,143000,505,119683
8.128,143014,731,119667
8.133,142997,501,119670
8.138,142989,738,119666
8.143,142988,499,119666
8.148,143012,741,119669
8.153,142993,492,119666
8.158,143001,742,119659
8.163,142995,490,119666
8.168,142999,748,119661
8.173,142988,487,119658
8.178,142985,754,119651
8.183,142992,482,119670
8.187,143008,757,119661
8.192,143003,478,119662
8.197,142993,762,119664
8.202,143004,476,119664
8.207,142997,760,119657
8.212,143000,475,119661
8.217,142979,767,119664
8.222,143002,472,119661
8.227,143000,774,119661
8.232,143002,471,119663
8.237,143008,773,119661
8.242,143009,467,119665
8.247,143004,778,119660
8.252,143018,463,119653
8.257,143013,782,119664
8.262,143021,466,119667
8.267,143003,784,119659
8.272,143013,464,119660
8.277,143012,786,119661
8.282,143020,462,119665
8.287,143015,790,119665
8.292,143022,461,119668
8.297,143026,793,119657
8.302,143021,459,119671
8.307,143010,796,119662
8.312,143017,457,119656
8.317,143030,798,119670
8.322,143027,455,119685
8.326,143026,803,119665
8.331,143007,455,119668
8.336,143038,805,119663
8.341,143015,455,119672
8.346,143032,808,119664
8.351,143047,452,119674
8.356,143047,804,119668
8.361,143034,452,119679
8.366,143029,807,119661
8.371,143038,451,119680
8.376,143042,814,119675
8.381,143043,449,119675
8.386,143052,811,119672
8.391,143047,449,119675
8.396,143056,815,119676
8.401,143056,448,119681
8.406,143067,817,119676
8.411,143063,450,119682
8.416,143076,821,119678
8.421,143070,446,119689
8.426,143076,820,119674
8.431,143060,448,119690
8.436,143063,824,119676
8.441,143064,449,119684
8.446,143069,826,119672
8.451,143046,448,119670
8.456,143063,827,119657
8.460,143049,449,119677
8.465,143043,828,119659
8.470,143039,446,119652
8.475,143039,829,119650
8.480,143019,449,119663
8.485,143017,828,119644
8.490,143020,446,119657
8.495,143008,821,119642
8.500,142994,447,119635
8.505,142990,831,119640
8.510,142989,449,119641
8.515,142992,832,119628
8.520,142973,448,119640
8.525,142978,832,119621
8.530,142970,451,119626
8.535,142990,829,119627
8.540,142965,453,119629
8.545,142966,828,119617
8.550,142966,453,119632
8.555,142971,827,119625
8.560,142975,453,119632
8.565,142953,826,119623
8.570,142970,458,119630
8.575,142977,823,119625
8.580,142965,460,119628
8.585,142961,822,119629
8.590,142958,459,119623
8.595,142970,802,119616
8.599,142956,459,119645
8.604,142957,815,119628
8.609,142968,464,119641
8.614,142949,811,119627
8.619,142952,468,119642
8.624,142963,805,119638
8.629,142957,469,119632
8.634,142964,805,119637
8.639,142961,475,119629
8.644,142972,799,119647
8.649,142974,476,119644
8.654,142981,798,119637
8.659,142965,481,119658
8.664,142966,793,119642
8.669,142974,484,119654
8.674,142981,791,119651
8.679,142971,491,119658
8.684,142967,784,119643
8.689,142993,491,119656
8.694,142990,783,119654
8.699,142996,498,119644
8.704,142988,777,119653
8.709,142979,500,119657
8.714,142987,770,119655
8.719,142966,507,119667
8.724,142986,766,119656
8.729,142987,508,119658
8.733,142985,763,119651
8.738,142990,516,119664
8.743,142990,760,119646
8.748,142976,519,119666
8.753,142990,753,119658
8.758,142986,526,119666
8.763,142994,752,119667
8.768,142988,527,119666
8.773,142988,746,119673
8.778,142982,534,119670
8.783,142992,735,119664
8.788,142990,537,119663
8.793,142985,733,119650
8.798,142962,543,119660
8.803,142992,730,119651
8.808,142990,546,119657
8.813,142986,723,119656
8.818,142973,552,119654
8.823,142984,716,119659
8.828,142986,559,119657
8.833,142993,708,119671
8.838,143000,552,119662
8.843,142987,705,119654
8.848,142993,564,119660
8.853,142994,700,119658
8.858,142994,572,119656
8.863,143001,690,119654
8.868,142988,581,119666
8.872,142988,688,119651
8.877,143005,580,119665
8.882,143004,680,119665
8.887,143011,591,119670
8.892,143005,674,119654
8.897,143011,594,119664
8.902,142993,668,119662
8.907,142997,597,119672
8.912,142993,665,119673
8.917,143016,603,119664
8.922,143018,657,119665
8.927,143017,607,119671
8.932,143020,652,119658
8.937,143023,592,119651
8.942,143009,649,119668
8.947,143026,616,119662
8.952,143015,639,119666
8.957,143040,619,119667
8.962,143030,633,119670
8.967,143033,627,119665
8.972,143024,627,119660
8.977,143028,635,119670
8.982,143033,632,119677
8.987,143039,638,119683
8.992,143041,618,119677
8.997,143041,639,119677
9.002,143038,612,119678
9.007,143038,647,119675
9.011,143040,604,119689
9.016,143046,648,119684
9.021,143037,600,119685
9.026,143046,653,119688
9.031,143043,591,119688
9.036,143056,657,119686
9.041,143066,589,119703
9.046,143073,666,119693
9.051,143054,582,119704
9.056,143065,666,119696
9.061,143070,574,119699
9.066,143064,669,119709
9.071,143086,575,119697
9.076,143096,675,119705
9.081,143097,546,119719
9.086,143083,680,119717
9.091,143095,564,119713
9.096,143091,681,119721
9.101,143105,558,119715
9.106,143120,688,119717
9.111,143107,554,119733
9.116,143116,691,119722
9.121,143111,546,119733
9.126,143133,696,119734
9.131,143117,543,119742
9.136,143128,698,119734
9.141,143117,536,119738
9.145,143117,699,119733
9.150,143117,532,119733
9.155,143104,701,119741
9.160,143098,528,119750
9.165,143106,709,119741
9.170,143094,523,119731
9.175,143087,712,119746
9.180,143075,541,119720
9.185,143078,710,119730
9.190,143076,517,119728
9.195,143066,716,119736
9.200,143052,511,119727
9.205,143027,716,119713
9.210,143042,506,119716
9.215,143022,719,119712
9.220,143026,501,119706
9.225,143014,717,119701
9.230,143011,497,119698
9.235,143010,726,119704
9.240,143012,492,119689
9.245,143021,735,119695
9.250,143001,490,119700
9.255,142998,733,119691
9.260,142988,485,119691
9.265,143001,740,119676
9.270,142993,481,119676
9.275,142980,741,119678
9.280,142989,479,119676
9.284,142982,745,119670
9.289,142980,475,119669
9.294,142987,748,119673
9.299,142961,472,119671
9.304,142968,751,119665
9.309,142961,471,119663
9.314,142961,756,119655
9.319,142964,467,119669
9.324,142971,756,119644
9.329,142950,465,119656
9.334,142952,759,119655
9.339,142948,465,119659
9.344,142960,759,119647
9.349,142946,462,119643
9.354,142954,766,119648
9.359,142952,460,119642
9.364,142965,769,119653
9.369,142954,458,119648
9.374,142971,773,119647
9.379,142971,455,119648
9.384,142958,774,119641
9.389,142955,455,119640
9.394,142952,779,119641
9.399,142956,454,119632
9.404,142955,780,119623
9.409,142949,451,119618
9.414,142950,784,119622
9.418,142949,451,119628
9.423,142951,785,119626
9.428,142942,451,119630
9.433,142952,787,119627
9.438,142938,449,119624
9.443,142953,793,119627
9.448,142947,448,119630
9.453,142961,794,119638
9.458,142946,449,119625
9.463,142942,797,119629
9.468,142930,439,119618
9.473,142950,799,119620
9.478,142942,445,119621
9.483,142940,800,119622
9.488,142936,445,119609
9.493,142925,802,119593
9.498,142930,443,119612
9.503,142927,802,119595
9.508,142920,444,119603
9.513,142930,804,119596
9.518,142933,440,119611
9.523,142923,806,119597
9.528,142920,440,119603
9.533,142940,807,119594
9.538,142940,442,119600
9.543,142947,807,119611
9.548,142936,441,119621
9.553,142931,808,119619
9.557,142932,439,119613
9.562,142937,807,119612
9.567,142954,437,119616
9.572,142939,807,119620
9.577,142932,441,119613
9.582,142940,810,119599
9.587,142933,437,119622
9.592,142928,809,119610
9.597,142932,439,119610
9.602,142935,811,119598
9.607,142942,438,119611
9.612,142935,814,119602
9.617,142945,439,119620
9.622,142945,813,119608
9.627,142943,440,119615
9.632,142938,813,119598
9.637,142939,441,119616
9.642,142942,812,119606
9.647,142940,441,119614
9.652,142950,811,119589
9.657,142941,443,119607
9.662,142949,813,119611
9.667,142945,444,119610
9.672,142949,808,119609
9.677,142945,441,119613
9.682,142949,808,119594
9.687,142951,447,119615
9.691,142943,810,119613
9.696,142952,450,119614
9.701,142934,808,119615
9.706,142952,448,119623
9.711,142963,802,119618
9.716,142955,448,119630
9.721,142965,802,119624
9.726,142961,455,119631
9.731,142976,800,119624
9.736,142968,455,119634
9.741,142971,798,119619
9.746,142971,459,119639
9.751,142967,793,119629
9.756,142964,464,119637
9.761,142974,789,119634
9.766,142976,465,119640
9.771,142981,786,119629
9.776,142979,465,119633
9.781,142978,784,119635
9.786,142992,472,119636
9.791,142985,781,119656
9.796,142991,473,119640
9.801,142991,778,119639
9.806,142997,481,119640
9.811,143002,775,119632
9.816,142998,484,119647
9.821,143003,772,119655
9.826,142989,484,119652
9.830,142999,766,119646
9.835,142993,491,119641
9.840,143009,758,119643
9.845,142992,492,119647
9.850,142983,757,119648
9.855,142995,498,119645
9.860,143005,754,119641
9.865,142981,501,119637
9.870,142976,751,119640
9.875,142962,507,119638
9.880,142969,743,119634
9.885,142961,508,119630
9.890,142958,738,119629
9.895,142948,516,119625
9.900,142934,729,119602
9.905,142938,522,119608
9.910,142912,726,119609
9.915,142913,526,119609
9.920,142902,720,119600
9.925,142907,531,119600
9.930,142897,711,119594
9.935,142903,538,119600
9.940,142897,708,119596
9.945,142891,541,119588
9.950,142890,702,119589
9.955,142892,541,119586
9.960,142894,694,119580
9.964,142879,550,119576
9.969,142879,692,119578
9.974,142889,557,119577
9.979,142866,685,119573
9.984,142876,565,119564
9.989,142881,677,119581
9.994,142860,567,119570
9.999,142874,670,119576
10.004,142866,575,119582
10.009,142862,669,119572
10.014,142860,578,119569
10.019,142856,662,119556
10.024,142858,582,119560
10.029,142856,658,119559
10.034,142849,592,119558
10.039,142855,651,119555
10.044,142843,592,119563
10.049,142853,646,119557
10.054,142871,595,119551
10.059,142857,641,119566
10.064,142847,603,119557
10.069,142859,632,119570
10.074,142871,606,119564
10.079,142860,629,119567
10.084,142869,613,119577
10.089,142870,622,119572
10.094,142855,621,119568
10.099,142863,617,119569
10.103,142863,625,119575
10.108,142852,610,119564
10.113,142861,626,119562
10.118,142866,604,119570
10.123,142869,634,119560
10.128,142874,597,119568
10.133,142862,638,119564
10.138,142861,593,119565
10.143,142861,647,119566
10.148,142864,588,119568
10.153,142870,649,119564
10.158,142858,584,119558
10.163,142862,651,119573
10.168,142870,579,119569
10.173,142863,658,119564
10.178,142861,573,119568
10.183,142863,667,119569
10.188,142864,568,119559
10.193,142871,667,119566
10.198,142847,564,119558
10.203,142853,671,119557
10.208,142865,558,119556
10.213,142845,678,119536
10.218,142866,551,119555
10.223,142859,684,119561
10.228,142845,547,119554
10.233,142859,685,119546
10.237,142856,542,119556
10.242,142846,690,119557
10.247,142854,536,119552
10.252,142862,697,119561
10.257,142865,531,119567
10.262,142860,699,119554
10.267,142860,521,119547
10.272,142855,702,119564
10.277,142863,516,119544
10.282,142863,710,119551
10.287,142852,515,119558
10.292,142868,713,119544
10.297,142854,524,119546
10.302,142850,714,119550
10.307,142859,505,119556
10.312,142858,720,119544
10.317,142878,501,119553
10.322,142849,722,119546
10.327,142858,495,119549
10.332,142873,729,119551
10.337,142872,490,119539
10.342,142853,733,119539
10.347,142876,487,119549
10.352,142858,736,119541
10.357,142859,484,119543
10.362,142861,742,119551
10.367,142862,480,119548
10.372,142877,744,119544
10.376,142863,474,119543
10.381,142868,749,119540
10.386,142869,473,119535
10.391,142865,752,119537
10.396,142878,460,119545
10.401,142868,756,119539
10.406,142872,469,119558
10.411,142876,760,119534
10.416,142866,463,119548
10.421,142883,762,119547
10.426,142886,460,119554
10.431,142889,765,119551
10.436,142872,460,119555
10.441,142879,771,119538
10.446,142873,459,119547
10.451,142867,776,119555
10.456,142890,455,119559
10.461,142877,776,119559
10.466,142884,454,119555
10.471,142895,780,119550
10.476,142891,452,119556
10.481,142896,784,119550
10.486,142914,453,119565
10.491,142901,788,119545
10.496,142900,450,119561
10.501,142899,790,119554
10.506,142900,449,119558
10.510,142900,793,119560
10.515,142894,447,119568
10.520,142907,794,119554
10.525,142912,446,119544
10.530,142902,795,119555
10.535,142908,446,119563
10.540,142908,795,119553
10.545,142905,442,119558
10.550,142890,799,119548
10.555,142900,443,119547
10.560,142902,804,119530
10.565,142895,444,119549
10.570,142896,806,119545
10.575,142897,442,119548
10.580,142880,805,119535
10.585,142887,440,119542
10.590,142892,809,119538
10.595,142867,441,119529
10.600,142864,812,119519
10.605,142855,441,119533
10.610,142848,809,119510
10.615,142824,441,119504
10.620,142825,809,119498
10.625,142818,439,119508
10.630,142816,810,119486
10.635,142807,440,119482
10.640,142801,811,119491
10.645,142787,440,119487
10.649,142807,814,119474
10.654,142801,439,119474
10.659,142782,812,119473
10.664,142767,441,119474
10.669,142776,812,119462
10.674,142762,443,119468
10.679,142765,811,119463
10.684,142770,441,119462
10.689,142753,811,119449
10.694,142757,445,119447
10.699,142752,809,119444
10.704,142733,443,119451
10.709,142743,809,119447
10.714,142729,447,119449
10.719,142739,806,119434
10.724,142741,447,119442
10.729,142745,805,119429
10.734,142725,452,119439
10.739,142741,805,119434
10.744,142718,452,119441
10.749,142728,801,119437
10.754,142720,456,119434
10.759,142711,796,119425
10.764,142720,460,119426
10.769,142724,793,119435
10.774,142711,464,119423
10.779,142719,791,119443
10.783,142715,468,119460
10.788,142719,786,119443
10.793,142736,470,119459
10.798,142730,781,119440
10.803,142736,476,119437
10.808,142725,777,119436
10.813,142728,477,119451
10.818,142733,772,119444
10.823,142737,482,119460
10.828,142720,769,119439
10.833,142738,486,119451
10.838,142727,767,119445
10.843,142720,492,119460
10.848,142724,760,119440
10.853,142715,499,119464
10.858,142714,757,119453
10.863,142723,499,119448
10.868,142714,749,119447
10.873,142717,506,119451
10.878,142716,744,119449
10.883,142717,512,119469
10.888,142709,741,119449
10.893,142716,515,119455
10.898,142712,731,119457
10.903,142711,521,119445
10.908,142714,728,119454
10.913,142710,528,119441
10.918,142705,720,119440
10.922,142720,533,119458
10.927,142722,712,119452
10.932,142714,536,119458
10.937,142716,709,119451
10.942,142708,543,119442
10.947,142719,701,119443
10.952,142714,551,119447
10.957,142713,695,119445
10.962,142719,550,119457
10.967,142706,689,119456
10.972,142710,560,119458
10.977,142716,682,119436
10.982,142735,562,119451
10.987,142735,679,119449
10.992,142713,569,119440
10.997,142727,668,119440
11.002,142729,577,119441
11.007,142744,663,119444
11.012,142732,585,119453
11.017,142739,653,119440
11.022,142725,591,119454
11.027,142721,652,119497
11.032,142736,595,119450
11.037,142734,641,119452
11.042,142746,601,119451
11.047,142736,634,119460
11.052,142747,608,119450
11.056,142744,625,119458
11.061,142751,615,119461
11.066,142753,617,119453
11.071,142749,619,119468
11.076,142716,610,119459
11.081,142738,623,119466
11.086,142760,606,119457
11.091,142754,631,119460
11.096,142768,599,119457
11.101,142765,636,119466
11.106,142768,593,119473
11.111,142760,642,119459
11.116,142756,583,119461
11.121,142768,651,119480
11.126,142768,577,119467
11.131,142775,656,119458
11.136,142774,569,119477
11.141,142783,663,119470
11.146,142779,563,119473
11.151,142779,666,119461
11.156,142785,560,119468
11.161,142791,674,119473
11.166,142777,553,119474
11.171,142795,680,119479
11.176,142791,548,119481
11.181,142806,682,119491
11.186,142812,539,119480
11.191,142819,687,119485
11.195,142808,536,119488
11.200,142796,695,119497
11.205,142811,530,119493
11.210,142823,696,119484
11.215,142812,526,119484
11.220,142824,702,119499
11.225,142826,519,119497
11.230,142819,708,119483
11.235,142824,516,119498
11.240,142825,711,119490
11.245,142836,509,119497
11.250,142836,718,119487
11.255,142839,505,119507
11.260,142837,724,119492
11.265,142832,501,119510
11.270,142850,727,119498
11.275,142850,499,119505
11.280,142857,731,119499
11.285,142831,491,119494
11.290,142845,733,119495
11.295,142845,488,119503
11.300,142842,736,119485
11.305,142828,484,119493
11.310,142822,743,119478
11.315,142817,480,119486
11.320,142831,746,119494
11.325,142806,479,119479
11.330,142804,749,119475
11.334,142792,473,119482
11.339,142787,751,119471
11.344,142770,469,119471
11.349,142766,756,119455
11.354,142764,468,119450
11.359,142750,762,119449
11.364,142735,465,119443
11.369,142753,761,119428
11.374,142755,464,119451
11.379,142738,764,119446
11.384,142734,462,119433
11.389,142744,768,119434
11.394,142740,457,119447
11.399,142740,770,119441
11.404,142719,455,119428
11.409,142738,774,119430
11.414,142734,454,119434
11.419,142727,777,119430
11.424,142718,450,119425
11.429,142712,781,119424
11.434,142727,449,119423
11.439,142725,783,119428
11.444,142716,447,119435
11.449,142711,788,119410
11.454,142718,447,119418
11.459,142708,790,119412
11.464,142711,442,119430
11.468,142702,794,119423
11.473,142707,443,119423
11.478,142701,798,119406
11.483,142692,444,119415
11.488,142700,799,119417
11.493,142693,441,119412
11.498,142693,801,119415
11.503,142682,441,119420
11.508,142704,802,119410
11.513,142702,438,119417
11.518,142717,804,119421
11.523,142708,439,119417
11.528,142699,805,119398
11.533,142706,438,119407
11.538,142697,809,119401
11.543,142724,437,119413
11.548,142714,809,119412
11.553,142723,437,119406
11.558,142715,809,119393
11.563,142707,464,119407
11.568,142716,811,119402
11.573,142710,437,119394
11.578,142710,813,119404
11.583,142709,443,119391
11.588,142710,812,119398
11.593,142698,441,119403
11.598,142713,810,119390
11.603,142709,443,119396
11.607,142704,807,119388
11.612,142712,443,119395
11.617,142706,808,119398
11.622,142707,444,119404
11.627,142704,802,119398
11.632,142694,450,119398
11.637,142689,801,119396
11.642,142697,452,119387
11.647,142685,797,119383
11.652,142702,456,119402
11.657,142699,790,119400
11.662,142700,460,119394
11.667,142718,786,119399
11.672,142697,463,119394
11.677,142707,782,119383
11.682,142694,467,119398
11.687,142703,776,119395
11.692,142714,473,119387
11.697,142689,771,119394
11.702,142707,477,119393
11.707,142702,768,119378
11.712,142689,478,119401
11.717,142705,763,119391
11.722,142712,483,119407
11.727,142708,756,119403
11.732,142712,490,119394
11.737,142708,753,119389
11.741,142720,495,119400
11.746,142717,746,119379
11.751,142719,500,119403
11.756,142730,735,119403
11.761,142717,507,119403
11.766,142724,732,119394
11.771,142727,513,119409
11.776,142726,726,119405
11.781,142728,520,119408
11.786,142730,720,119413
11.791,142731,525,119417
11.796,142752,710,119416
11.801,142742,533,119420
11.806,142744,708,119440
11.811,142746,541,119419
11.816,142750,703,119420
11.821,142754,545,119415
11.826,142751,692,119420
11.831,142748,554,119421
11.836,142747,685,119427
11.841,142753,561,119430
11.846,142765,679,119419
11.851,142767,569,119428
11.856,142771,674,119429
11.861,142771,572,119435
11.866,142771,669,119431
11.871,142774,580,119440
11.876,142778,660,119440
11.880,142773,591,119447
11.885,142770,650,119444
11.890,142763,598,119437
11.895,142774,646,119444
11.900,142767,604,119450
11.905,142790,626,119431
11.910,142775,608,119450
11.915,142788,633,119443
11.920,142793,613,119451
11.925,142786,623,119459
11.930,142801,621,119458
11.935,142786,613,119467
11.940,142786,629,119449
11.945,142790,609,119454
11.950,142803,638,119466
11.955,142811,603,119449
11.960,142822,644,119464
11.965,142802,600,119462
11.970,142798,647,119457
11.975,142808,590,119461
11.980,142808,656,119457
11.985,142807,582,119459
11.990,142824,663,119465
11.995,142817,576,119459
12.000,142820,670,119465
12.005,142826,571,119475
12.010,142822,676,119475
12.014,142832,564,119480
12.019,142826,684,119461
12.024,142823,556,119466
12.029,142822,690,119466
12.034,142825,551,119459
12.039,142820,697,119452
12.044,142818,543,119469
12.049,142821,701,119472
12.054,142809,538,119454
12.059,142804,706,119458
12.064,142796,529,119468
12.069,142788,714,119447
12.074,142777,522,119461
12.079,142754,720,119435
12.084,142768,517,119441
12.089,142756,723,119445
12.094,142747,510,119431
12.099,142759,730,119438
12.104,142747,506,119422
12.109,142748,735,119410
12.114,142740,498,119414
12.119,142751,740,119425
12.124,142738,494,119408
12.129,142735,746,119410
12.134,142737,487,119408
12.139,142727,750,119409
12.144,142733,481,119414
12.149,142740,756,119396
12.153,142739,478,119396
12.158,142747,761,119398
12.163,142724,475,119398
12.168,142726,765,119398
12.173,142730,471,119401
12.178,142729,769,119401
12.183,142711,466,119394
12.188,142733,774,119405
12.193,142710,465,119392
12.198,142717,776,119386
12.203,142721,462,119388
12.208,142719,782,119385
12.213,142716,458,119405
12.218,142712,788,119391
12.223,142722,459,119391
12.228,142726,793,119388
12.233,142727,456,119382
12.238,142720,795,119371
12.243,142724,455,119387
12.248,142705,796,119380
12.253,142721,454,119387
12.258,142723,800,119376
12.263,142738,452,119382
12.268,142722,803,119375
12.273,142723,451,119379
12.278,142725,806,119364
12.283,142720,451,119376
12.287,142726,810,119374
12.292,142730,449,119369
12.297,142729,813,119371
12.302,142724,447,119370
12.307,142739,816,119361
12.312,142729,447,119372
12.317,142729,817,119359
12.322,142719,446,119371
12.327,142725,819,119365
12.332,142730,447,119370
12.337,142723,823,119358
12.342,142724,446,119375
12.347,142721,822,119366
12.352,142723,445,119376
12.357,142720,825,119349
12.362,142715,447,119355
12.367,142719,825,119346
12.372,142726,447,119363
12.377,142720,828,119355
12.382,142723,448,119347
12.387,142720,828,119348
12.392,142719,447,119360
12.397,142722,826,119349
12.402,142727,450,119364
12.407,142728,828,119348
12.412,142711,451,119348
12.417,142734,825,119361
12.422,142735,453,119364
12.426,142730,824,119353
12.431,142720,455,119355
12.436,142747,822,119355
12.441,142732,457,119363
12.446,142733,818,119357
12.451,142725,462,119352
12.456,142739,813,119350
12.461,142733,465,119360
12.466,142739,808,119341
12.471,142738,469,119357
12.476,142742,804,119349
12.481,142741,474,119360
12.486,142762,800,119345
12.491,142752,475,119357
12.496,142739,798,119358
12.501,142743,478,119360
12.506,142745,793,119363
12.511,142751,483,119367
12.516,142769,786,119361
12.521,142771,489,119374
12.526,142765,782,119364
12.531,142760,494,119365
12.536,142771,775,119364
12.541,142757,496,119371
12.546,142760,771,119370
12.551,142765,502,119386
12.556,142774,765,119370
12.560,142769,508,119390
12.565,142780,759,119375
12.570,142785,514,119385
12.575,142791,750,119382
12.580,142799,520,119382
12.585,142801,745,119349
12.590,142790,527,119389
12.595,142810,736,119381
12.600,142802,533,119390
12.605,142804,730,119385
12.610,142802,539,119392
12.615,142807,724,119388
12.620,142812,545,119416
12.625,142830,717,119386
12.630,142828,553,119394
12.635,142867,709,119404
12.640,142827,560,119401
12.645,142833,701,119389
12.650,142815,567,119396
12.655,142828,693,119386
12.660,142828,573,119389
12.665,142831,687,119378
12.670,142830,581,119396
12.675,142839,677,119384
12.680,142840,588,119389
12.685,142842,673,119395
12.690,142845,592,119389
12.695,142840,666,119397
12.699,142841,599,119404
12.704,142845,659,119398
12.709,142859,606,119401
12.714,142848,649,119387
12.719,142863,612,119401
12.724,142864,644,119394
12.729,142863,618,119407
12.734,142863,637,119409
12.739,142855,625,119409
12.744,142839,626,119413
12.749,142849,633,119387
12.754,142851,618,119396
12.759,142853,639,119395
12.764,142855,608,119385
12.769,142855,644,119388
12.774,142854,602,119395
12.779,142854,644,119387
12.784,142862,589,119372
12.789,142808,656,119381
12.794,142830,591,119376
12.799,142807,661,119369
12.804,142813,581,119368
12.809,142810,667,119371
12.814,142804,576,119367
12.819,142801,676,119363
12.824,142814,565,119359
12.829,142795,681,119363
12.833,142794,562,119360
12.838,142793,685,119348
12.843,142801,554,119359
12.848,142802,691,119357
12.853,142790,543,119356
12.858,142781,698,119349
12.863,142792,539,119359
12.868,142786,705,119353
12.873,142796,531,119356
12.878,142791,735,119354
12.883,142786,526,119361
12.888,142795,710,119355
12.893,142792,522,119354
12.898,142789,721,119357
12.903,142784,513,119357
12.908,142793,724,119366
12.913,142788,508,119384
12.918,142792,731,119355
12.923,142793,500,119360
12.928,142796,733,119359
12.933,142795,498,119369
12.938,142805,741,119372
12.943,142794,491,119378
12.948,142802,745,119366
12.953,142805,488,119376
12.958,142809,750,119377
12.963,142810,482,119385
12.968,142817,757,119386
12.972,142808,480,119389
12.977,142803,763,119382
12.982,142827,475,119386
12.987,142813,764,119369
12.992,142823,472,119392
12.997,142833,771,119372
13.002,142819,471,119392
13.007,142820,777,119384
13.012,142825,466,119387
13.017,142816,781,119396
13.022,142828,466,119374
13.027,142823,781,119379
13.032,142820,462,119407
13.037,142837,786,119394
13.042,142825,461,119393
13.047,142828,791,119391
13.052,142835,460,119397
13.057,142822,797,119376
13.062,142824,457,119387
13.067,142829,799,119388
13.072,142830,456,119385
13.077,142826,799,119398
13.082,142821,454,119395
13.087,142819,805,119389
13.092,142815,451,119398
13.097,142823,806,119389
13.102,142828,450,119399
13.106,142833,808,119402
13.111,142837,449,119396
13.116,142828,810,119394
13.121,142841,451,119407
13.126,142838,812,119387
13.131,142834,445,119391
13.136,142818,811,119384
13.141,142843,444,119404
13.146,142833,814,119385
13.151,142836,444,119401
13.156,142842,817,119385
13.161,142842,445,119387
13.166,142844,820,119390
13.171,142855,445,119396
13.176,142841,820,119386
13.181,142832,445,119399
13.186,142842,817,119382
13.191,142849,442,119390
13.196,142834,820,119385
13.201,142854,443,119397
13.206,142860,824,119392
13.211,142854,445,119394
13.216,142852,822,119383
13.221,142873,449,119400
13.226,142861,822,119385
13.231,142866,446,119398
13.236,142856,822,119406
13.241,142868,446,119401
13.245,142874,822,119397
13.250,142863,448,119406
13.255,142870,819,119395
13.260,142869,450,119398
13.265,142873,816,119401
13.270,142864,453,119419
13.275,142874,816,119406
13.280,142880,456,119405
13.285,142880,811,119398
13.290,142882,458,119414
13.295,142866,809,119397
13.300,142880,462,119400
13.305,142880,804,119405
13.310,142882,467,119414
13.315,142892,799,119413
13.320,142880,473,119411
13.325,142885,794,119414
13.330,142890,477,119403
13.335,142880,789,119412
13.340,142897,481,119425
13.345,142906,786,119407
13.350,142909,487,119424
13.355,142898,778,119404
13.360,142913,492,119420
13.365,142918,774,119430
13.370,142912,490,119421
13.375,142916,772,119424
13.380,142920,496,119420
13.384,142911,765,119421
13.389,142924,502,119432
13.394,142933,761,119414
13.399,142924,515,119423
13.404,142919,757,119423
13.409,142930,515,119423
13.414,142908,748,119433
13.419,142940,523,119424
13.424,142950,742,119427
13.429,142930,529,119419
13.434,142939,734,119416
13.439,142924,534,119429
13.444,142940,728,119421
13.449,142924,540,119418
13.454,142932,720,119416
13.459,142924,549,119418
13.464,142920,715,119396
13.469,142917,550,119405
13.474,142912,711,119405
13.479,142896,557,119403
13.484,142908,702,119402
13.489,142905,567,119407
13.494,142894,689,119380
13.499,142883,574,119398
13.504,142871,680,119396
13.509,142878,581,119394
13.514,142859,671,119389
13.518,142878,585,119386
13.523,142861,673,119372
13.528,142868,595,119378
13.533,142862,661,119381
13.538,142860,602,119362
13.543,142849,651,119364
13.548,142852,608,119365
13.553,142863,644,119370
13.558,142855,617,119373
13.563,142855,637,119374
13.568,142852,618,119374
13.573,142855,630,119373
13.578,142855,626,119377
13.583,142853,620,119375
13.588,142841,632,119376
13.593,142833,612,119371
13.598,142837,639,119375
13.603,142840,606,119369
13.608,142839,647,119367
13.613,142846,604,119364
13.618,142838,650,119365
13.623,142845,593,119374
13.628,142840,659,119374
13.633,142840,584,119380
13.638,142836,667,119366
13.643,142832,578,119368
13.648,142846,675,119378
13.653,142839,571,119372
13.657,142848,676,119368
13.662,142843,562,119382
13.667,142846,686,119382
13.672,142863,556,119390
13.677,142842,692,119388
13.682,142852,550,119379
13.687,142863,700,119373
13.692,142861,542,119397
13.697,142853,706,119385
13.702,142849,538,119384
13.707,142863,710,119385
13.712,142867,529,119375
13.717,142852,715,119375
13.722,142853,525,119381
13.727,142854,723,119381
13.732,142861,517,119388
13.737,142872,728,119395
13.742,142855,506,119398
13.747,142848,733,119382
13.752,142856,505,119386
13.757,142864,740,119383
13.762,142863,498,119393
13.767,142855,744,119396
13.772,142861,492,119397
13.777,142861,751,119386
13.782,142863,488,119390
13.787,142860,755,119383
13.791,142865,482,119391
13.796,142854,763,119384
13.801,142853,478,119389
13.806,142866,765,119384
13.811,142861,474,119387
13.816,142870,769,119378
13.821,142854,473,119380
13.826,142876,777,119389
13.831,142865,469,119379
13.836,142853,780,119382
13.841,142860,465,119373
13.846,142868,785,119378
13.851,142878,465,119383
13.856,142865,786,119382
13.861,142874,461,119388
13.866,142863,788,119377
13.871,142865,458,119371
13.876,142870,793,119381
13.881,142873,455,119387
13.886,142869,796,119390
13.891,142880,455,119390
13.896,142877,800,119378
13.901,142884,453,119349
13.906,142886,801,119381
13.911,142895,453,119379
13.916,142890,801,119381
13.921,142891,450,119386
13.926,142912,805,119384
13.930,142885,450,119388
13.935,142874,808,119383
13.940,142875,448,119376
13.945,142893,810,119388
13.950,142889,448,119400
13.955,142910,809,119395
13.960,142912,448,119394
13.965,142897,811,119385
13.970,142903,445,119398
13.975,142903,814,119387
13.980,142903,445,119389
13.985,142917,817,119383
13.990,142896,446,119387
13.995,142919,819,119391
14.000,142916,443,119391
14.005,142919,819,119392
14.010,142911,442,119383
14.015,142919,819,119389
14.020,142906,445,119389
14.025,142933,822,119388
14.030,142939,443,119393
14.035,142934,822,119384
14.040,142938,445,119401
14.045,142927,822,119393
14.050,142938,443,119401
14.055,142961,820,119394
14.060,142943,446,119404
14.064,142948,821,119400
14.069,142934,447,119397
14.074,142966,819,119402
14.079,142945,449,119397
14.084,142965,820,119404
14.089,142944,452,119399
14.094,142945,817,119400
14.099,142948,452,119405
14.104,142966,815,119407
14.109,142959,456,119426
14.114,142971,814,119409
14.119,142966,456,119428
14.124,142972,811,119405
14.129,142983,458,119406
14.134,142975,807,119419
14.139,142982,463,119419
14.144,142983,803,119410
14.149,142983,470,119418
14.154,142991,800,119405
14.159,142978,473,119430
14.164,142988,799,119421
14.169,142983,474,119418
14.174,142964,794,119415
14.179,142970,479,119414
14.184,142968,786,119415
14.189,142962,484,119422
14.194,142953,784,119417
14.199,142942,486,119410
14.203,142949,777,119401
14.208,142942,492,119417
14.213,142925,768,119401
14.218,142922,499,119405
14.223,142931,765,119394
14.228,142913,505,119386
14.233,142899,758,119391
14.238,142907,511,119406
14.243,142906,755,119378
14.248,142903,514,119400
14.253,142896,748,119386
14.258,142902,519,119394
14.263,142891,741,119395
14.268,142905,526,119380
14.273,142888,733,119372
14.278,142896,532,119383
14.283,142878,727,119379
14.288,142879,539,119384
14.293,142867,722,119363
14.298,142880,541,119389
14.303,142882,714,119384
14.308,142878,548,119385
14.313,142884,709,119382
14.318,142881,555,119390
14.323,142873,698,119389
14.328,142874,563,119386
14.333,142881,690,119380
14.337,142880,573,119380
14.342,142861,689,119371
14.347,142878,573,119373
14.352,142862,683,119375
14.357,142868,581,119378
14.362,142866,675,119376
14.367,142862,591,119369
14.372,142867,669,119373
14.377,142859,592,119382
14.382,142855,661,119380
14.387,142870,599,119375
14.392,142854,655,119378
14.397,142866,608,119391
14.402,142876,647,119401
14.407,142877,615,119384
14.412,142883,640,119386
14.417,142874,623,119392
14.422,142879,628,119395
14.427,142872,630,119372
14.432,142877,623,119379
14.437,142889,638,119367
14.442,142880,616,119378
14.447,142875,641,119376
14.452,142877,608,119375
14.457,142881,649,119377
14.462,142889,602,119375
14.467,142866,654,119388
14.472,142876,593,119357
14.476,142876,664,119375
14.481,142880,588,119380
14.486,142880,666,119375
14.491,142868,583,119375
14.496,142872,670,119380
14.501,142867,574,119377
14.506,142875,677,119379
14.511,142874,566,119375
14.516,142867,684,119378
14.521,142869,558,119369
14.526,142865,690,119367
14.531,142870,553,119359
14.536,142867,696,119368
14.541,142858,546,119359
14.546,142861,701,119366
14.551,142863,539,119363
14.556,142874,708,119356
14.561,142874,531,119376
14.566,142878,712,119376
14.571,142876,525,119379
14.576,142870,720,119370
14.581,142880,517,119370
14.586,142882,722,119367
14.591,142873,513,119366
14.596,142884,730,119365
14.601,142884,504,119361
14.606,142878,732,119367
14.610,142877,500,119373
14.615,142875,738,119361
14.620,142872,494,119373
14.625,142881,742,119361
14.630,142869,488,119366
14.635,142892,749,119365
14.640,142891,481,119377
14.645,142876,752,119360
14.650,142883,477,119369
14.655,142896,760,119372
14.660,142894,471,119379
14.665,142884,764,119373
14.670,142900,470,119376
14.675,142906,769,119369
14.680,142895,466,119370
14.685,142893,770,119373
14.690,142899,463,119373
14.695,142902,777,119378
14.700,142916,463,119372
14.705,142906,783,119376
14.710,142909,461,119376
14.715,142913,790,119374
14.720,142906,459,119390
14.725,142902,790,119382
14.730,142940,456,119392
14.735,142909,794,119372
14.740,142908,454,119385
14.745,142922,800,119380
14.749,142919,452,119385
14.754,142915,800,119381
14.759,142917,449,119386
14.764,142933,804,119389
14.769,142936,448,119393
14.774,142929,806,119387
14.779,142937,447,119393
14.784,142943,809,119380
14.789,142939,447,119399
14.794,142931,813,119389
14.799,142955,446,119409
14.804,142936,814,119395
14.809,142942,444,119403
14.814,142948,815,119408
14.819,142948,443,119408
14.824,142968,818,119407
14.829,142951,444,119405
14.834,142968,820,119413
14.839,142965,443,119409
14.844,142958,822,119408
14.849,142960,444,119408
14.854,142961,824,119403
14.859,142962,445,119410
14.864,142980,824,119413
14.869,142972,444,119429
14.874,142976,815,119416
14.879,142955,436,119429
14.883,142981,822,119419
14.888,142972,445,119430
14.893,142980,826,119409
14.898,142992,446,119431
14.903,142977,822,119427
14.908,142976,448,119422
14.913,142993,820,119419
14.918,142985,454,119429
14.923,142998,818,119416
14.928,142997,454,119423
14.933,142984,814,119424
14.938,142972,460,119426
14.943,142979,810,119413
14.948,142967,463,119417
14.953,142979,805,119417
14.958,142945,466,119421
14.963,142955,799,119406
14.968,142943,471,119409
14.973,142942,793,119406
14.978,142928,474,119406
14.983,142934,788,119394
14.988,142925,479,119398
14.993,142920,781,119394
14.998,142911,485,119408
15.003,142903,779,119388
15.008,142904,490,119386
15.013,142912,770,119383
15.018,142881,497,119390
15.022,142900,768,119383
15.027,142902,502,119390
15.032,142884,758,119368
15.037,142895,508,119381
15.042,142895,750,119371
15.047,142887,519,119374
15.052,142891,742,119366
15.057,142879,524,119363
15.062,142884,735,119365
15.067,142886,530,119374
15.072,142872,727,119357
15.077,142886,536,119372
15.082,142867,721,119368
15.087,142874,542,119364
15.092,142872,712,119360
15.097,142862,549,119366
15.102,142865,703,119358
15.107,142877,560,119347
15.112,142877,695,119357
15.117,142884,567,119376
15.122,142883,686,119338
15.127,142886,575,119360
15.132,142866,676,119366
15.137,142874,583,119358
15.142,142871,672,119359
15.147,142871,589,119365
15.152,142873,659,119369
15.156,142871,601,119360
15.161,142880,648,119366
15.166,142873,609,119360
15.171,142873,645,119360
15.176,142881,612,119358
15.181,142879,636,119351
15.186,142875,622,119362
15.191,142870,629,119344
15.196,142889,630,119349
15.201,142876,619,119346
15.206,142876,637,119331
15.211,142872,610,119352
15.216,142884,642,119318
15.221,142883,601,119354
15.226,142884,650,119352
15.231,142888,592,119355
15.236,142882,659,119350
15.241,142873,584,119353
15.246,142889,668,119348
15.251,142873,574,119353
15.256,142875,673,119351
15.261,142884,569,119339
15.266,142888,678,119335
15.271,142867,559,119342
15.276,142881,686,119345
15.281,142880,553,119340
15.286,142878,692,119345
15.291,142888,543,119335
15.295,142875,699,119336
15.300,142877,535,119348
15.305,142871,705,119334
15.310,142862,528,119337
15.315,142885,712,119333
15.320,142884,522,119345
15.325,142879,717,119341
15.330,142877,516,119329
15.335,142883,722,119335
15.340,142876,508,119343
15.345,142880,732,119344
15.350,142878,500,119351
15.355,142886,735,119347
15.360,142884,493,119337
15.365,142886,740,119346
15.370,142895,488,119353
15.375,142910,746,119342
15.380,142885,480,119342
15.385,142899,750,119341
15.390,142901,475,119346
15.395,142906,760,119340
15.400,142889,473,119345
15.405,142886,763,119337
15.410,142913,467,119353
15.415,142898,769,119340
15.420,142897,467,119345
15.425,142911,773,119338
15.429,142907,462,119359
15.434,142921,778,119360
15.439,142904,459,119346
15.444,142918,781,119334
15.449,142907,458,119354
15.454,142898,785,119352
15.459,142916,455,119346
15.464,142941,790,119353
15.469,142927,456,119364
15.474,142919,794,119348
15.479,142917,453,119359
15.484,142924,798,119360
15.489,142921,451,119349
15.494,142931,800,119356
15.499,142920,450,119366
15.504,142930,804,119357
15.509,142936,448,119373
15.514,142930,805,119356
15.519,142929,447,119367
15.524,142943,808,119349
15.529,142952,446,119363
15.534,142949,812,119367
15.539,142948,444,119357
15.544,142953,813,119357
15.549,142942,442,119365
15.554,142953,816,119362
15.559,142960,443,119361
15.564,142956,815,119357
15.568,142959,442,119368
15.573,142966,818,119365
15.578,142965,443,119363
15.583,142954,822,119356
15.588,142974,442,119372
15.593,142972,822,119373
15.598,142990,443,119372
15.603,142967,822,119368
15.608,142971,443,119370
15.613,142965,822,119385
15.618,142970,445,119378
15.623,142979,822,119374
15.628,142986,448,119388
15.633,142995,820,119381
15.638,142990,449,119380
15.643,142992,817,119373
15.648,142979,453,119372
15.653,142998,817,119363
15.658,142985,453,119383
15.663,142996,811,119385
15.668,142991,456,119385
15.673,142994,808,119375
15.678,143006,464,119399
15.683,142997,802,119381
15.688,143006,469,119383
15.693,143012,798,119391
15.698,143018,472,119391
15.703,143015,793,119392
15.707,143017,476,119394
15.712,143027,789,119396
15.717,143016,481,119402
15.722,143017,783,119378
15.727,143018,486,119391
15.732,143010,775,119385
15.737,143009,490,119383
15.742,143012,769,119373
15.747,143021,496,119382
15.752,143000,760,119375
15.757,143003,503,119387
15.762,142985,755,119384
15.767,142986,510,119375
15.772,142985,747,119369
15.777,142981,516,119374
15.782,142971,745,119369
15.787,142948,521,119369
15.792,142951,735,119352
15.797,142937,528,119361
15.802,142933,721,119340
15.807,142939,535,119343
15.812,142930,721,119340
15.817,142924,541,119338
15.822,142920,714,119333
15.827,142927,545,119352
15.832,142928,707,119329
15.837,142908,555,119328
15.841,142917,699,119318
15.846,142914,562,119333
15.851,142918,693,119336
15.856,142909,569,119325
15.861,142913,682,119330
15.866,142928,574,119333
15.871,142898,672,119329
15.876,142903,584,119327
15.881,142904,667,119329
15.886,142895,591,119330
15.891,142896,659,119325
15.896,142899,597,119330
15.901,142903,649,119323
15.906,142894,605,119330
15.911,142898,640,119318
15.916,142878,612,119324
15.921,142896,630,119324
15.926,142886,625,119328
15.931,142891,622,119328
15.936,142899,630,119313
15.941,142894,614,119317
15.946,142886,640,119327
15.951,142903,609,119327
15.956,142902,643,119331
15.961,142898,601,119340
15.966,142899,647,119343
15.971,142901,592,119329
15.976,142905,660,119339
15.980,142916,586,119337
15.985,142903,666,119327
15.990,142906,577,119320
15.995,142902,674,119324
16.000,142908,568,119315
16.005,142903,679,119329
16.010,142906,562,119334
16.015,142910,692,119326
16.020,142898,553,119322
16.025,142898,692,119320
16.030,142914,546,119320
16.035,142907,698,119312
16.040,142908,540,119333
16.045,142917,706,119331
16.050,142908,530,119331
16.055,142914,707,119318
16.060,142908,524,119327
16.065,142901,714,119318
16.070,142893,519,119330
16.075,142893,720,119323
16.080,142914,510,119319
16.085,142910,722,119319
16.090,142895,506,119316
16.095,142910,731,119318
16.100,142909,500,119323
16.105,142917,734,119333
16.110,142907,494,119325
16.114,142908,739,119318
16.119,142921,486,119325
16.124,142917,743,119314
16.129,142913,483,119327
16.134,142920,747,119313
16.139,142903,478,119326
16.144,142927,756,119317
16.149,142923,474,119319
16.154,142923,757,119320
16.159,142920,469,119327
16.164,142933,762,119320
16.169,142916,466,119326
16.174,142919,767,119320
16.179,142919,463,119322
16.184,142942,771,119319
16.189,142932,462,119321
16.194,142922,777,119318
16.199,142942,459,119320
16.204,142926,779,119314
16.209,142934,455,119324
16.214,142945,784,119334
16.219,142941,453,119336
16.224,142939,791,119329
16.229,142935,452,119336
16.234,142944,793,119325
16.239,142940,451,119327
16.244,142935,798,119332
16.249,142950,449,119337
16.253,142949,799,119329
16.258,142953,446,119338
16.263,142951,801,119336
16.268,142964,444,119348
16.273,142957,802,119347
16.278,142957,441,119339
16.283,142961,806,119340
16.288,142963,445,119348
16.293,142964,807,119343
16.298,142973,442,119338
16.303,142969,810,119339
16.308,142979,442,119346
16.313,142972,814,119334
16.318,142972,440,119346
16.323,142980,814,119352
16.328,142970,441,119345
16.333,142988,815,119338
16.338,142961,438,119339
16.343,142992,817,119359
16.348,142983,442,119357
16.353,142980,817,119338
16.358,142991,443,119354
16.363,142998,818,119348
16.368,142991,443,119355
16.373,143008,820,119358
16.378,142995,445,119355
16.383,143018,817,119359
16.387,143010,447,119360
16.392,143008,817,119367
16.397,143010,447,119367
16.402,143009,812,119366
16.407,143015,451,119376
16.412,143022,814,119362
16.417,143011,452,119368
16.422,143029,807,119363
16.427,143031,456,119359
16.432,143017,807,119368
16.437,143036,440,119368
16.442,143034,802,119369
16.447,143030,462,119388
16.452,143040,799,119374
16.457,143043,469,119389
16.462,143060,791,119372
16.467,143048,473,119386
16.472,143056,785,119378
16.477,143058,478,119386
16.482,143067,779,119368
16.487,143056,484,119385
16.492,143049,774,119382
16.497,143055,488,119371
16.502,143050,769,119371
16.507,143057,493,119376
16.512,143053,762,119377
16.517,143051,499,119380
16.522,143057,756,119376
16.526,143034,504,119382
16.531,143042,748,119366
16.536,143023,511,119363
16.541,143021,742,119374
16.546,143018,517,119374
16.551,143008,733,119358
16.556,143014,524,119361
16.561,143003,728,119361
16.566,142991,533,119367
16.571,142996,716,119348
16.576,142995,540,119347
16.581,142979,718,119345
16.586,142965,546,119346
16.591,142980,699,119350
16.596,142975,552,119337
16.601,142986,692,119334
16.606,142965,560,119348
16.611,142977,685,119347
16.616,142972,567,119334
16.621,142985,674,119332
16.626,142969,578,119341
16.631,142969,669,119345
16.636,142968,586,119336
16.641,142967,660,119344
16.646,142959,592,119340
16.651,142947,652,119328
16.656,142950,599,119323
16.660,142957,638,119338
16.665,142949,606,119317
16.670,142945,632,119327
16.675,142953,614,119333
16.680,142950,626,119327
16.685,142943,620,119332
16.690,142929,619,119322
16.695,142943,627,119321
16.700,142943,608,119321
16.705,142939,636,119320
16.710,142954,598,119319
16.715,142948,648,119319
16.720,142943,590,119311
16.725,142948,653,119329
16.730,142948,582,119329
16.735,142954,662,119327
16.740,142939,577,119318
16.745,142948,667,119323
16.750,142949,567,119308
16.755,142945,674,119320
16.760,142949,560,119316
16.765,142945,680,119307
16.770,142947,552,119306
16.775,142937,691,119318
16.780,142938,549,119320
16.785,142944,697,119315
16.790,142948,538,119307
16.795,142953,701,119295
16.799,142948,531,119313
16.804,142947,706,119312
16.809,142934,522,119298
16.814,142944,712,119294
16.819,142938,519,119307
16.824,142950,718,119294
16.829,142938,512,119302
16.834,142949,724,119289
16.839,142944,503,119294
16.844,142953,728,119288
16.849,142945,499,119294
16.854,142940,735,119291
16.859,142942,493,119292
16.864,142937,739,119301
16.869,142950,486,119290
16.874,142958,740,119278
16.879,142937,483,119284
16.884,142948,748,119285
16.889,142964,477,119290
16.894,142936,750,119279
16.899,142960,472,119286
16.904,142951,759,119287
16.909,142952,469,119282
16.914,142947,761,119297
16.919,142948,467,119286
16.924,142945,767,119293
16.929,142952,462,119283
16.933,142958,772,119283
16.938,142961,460,119279
16.943,142962,775,119279
16.948,142960,457,119275
16.953,142963,780,119275
16.958,142959,456,119279
16.963,142965,783,119279
16.968,142953,455,119287
16.973,142969,787,119288
16.978,142949,451,119290
16.983,142975,792,119281
16.988,142964,450,119299
16.993,142958,795,119288
16.998,142972,448,119293
17.003,142980,797,119289
17.008,142968,445,119287
17.013,142971,801,119289
17.018,142968,446,119294
17.023,142972,806,119284
17.028,142983,443,119291
17.033,142979,806,119276
17.038,142986,442,119300
17.043,142981,806,119283
17.048,142983,441,119300
17.053,142973,812,119287
17.058,142983,442,119305
17.063,142982,816,119304
17.068,142997,443,119296
17.072,143010,814,119298
17.077,142976,443,119300
17.082,142988,816,119295
17.087,142994,441,119300
17.092,142991,821,119299
17.097,142991,443,119301
17.102,143012,820,119304
17.107,142997,443,119312
17.112,143001,818,119305
17.117,143003,445,119299
17.122,143011,819,119298
17.127,143003,444,119295
17.132,143018,819,119311
17.137,143002,446,119312
17.142,143023,819,119296
17.147,143011,447,119307
17.152,143021,818,119305
17.157,143038,451,119317
17.162,143035,817,119317
17.167,143050,455,119330
17.172,143043,812,119312
17.177,143043,456,119324
17.182,143041,806,119314
17.187,143034,459,119328
17.192,143039,804,119317
17.197,143051,464,119331
17.202,143042,798,119310
17.206,143043,468,119323
17.211,143050,795,119315
17.216,143060,472,119326
17.221,143053,788,119335
17.226,143053,476,119324
17.231,143070,783,119330
17.236,143059,483,119326
17.241,143064,776,119331
17.246,143067,491,119332
17.251,143069,771,119331
17.256,143071,496,119334
17.261,143064,765,119329
17.266,143092,496,119349
17.271,143067,765,119325
17.276,143076,506,119337
17.281,143080,758,119335
17.286,143066,511,119340
17.291,143060,748,119322
17.296,143051,516,119328
17.301,143056,743,119324
17.306,143044,523,119339
17.311,143046,736,119338
17.316,143042,526,119319
17.321,143031,732,119314
17.326,143020,532,119314
17.331,143019,723,119304
17.336,143004,539,119310
17.341,143001,715,119295
17.345,142998,546,119296
17.350,142987,709,119282
17.355,142990,553,119293
17.360,142987,703,119305
17.365,142972,560,119281
17.370,142993,696,119277
17.375,142979,567,119284
17.380,142978,691,119283
17.385,142968,571,119288
17.390,142968,681,119279
17.395,142977,577,119266
17.400,142966,674,119268
17.405,142967,583,119277
17.410,142946,662,119272
17.415,142956,592,119273
17.420,142967,658,119266
17.425,142970,599,119269
17.430,142957,653,119259
17.435,142953,606,119261
17.440,142954,647,119263
17.445,142964,609,119262
17.450,142966,640,119253
17.455,142958,618,119260
17.460,142949,632,119254
17.465,142942,626,119259
17.470,142949,622,119259
17.475,142960,631,119263
17.479,142961,616,119250
17.484,142961,638,119261
17.489,142945,612,119257
17.494,142953,644,119263
17.499,142951,604,119266
17.504,142967,653,119269
17.509,142965,593,119255
17.514,142962,655,119262
17.519,142964,588,119263
17.524,142971,667,119254
17.529,142967,584,119255
17.534,142974,676,119260
17.539,142973,574,119263
17.544,142965,681,119247
17.549,142964,567,119245
17.554,142969,698,119265
17.559,142979,566,119247
17.564,142971,691,119256
17.569,142962,557,119265
17.574,142979,698,119250
17.579,142972,549,119256
17.584,142966,706,119260
17.589,142968,541,119263
17.594,142967,713,119254
17.599,142981,536,119259
17.604,142972,717,119265
17.609,142970,532,119266
17.614,142965,721,119251
17.618,142965,526,119239
17.623,142971,730,119256
17.628,142971,514,119259
17.633,142973,733,119248
17.638,142963,512,119240
17.643,142967,742,119250
17.648,142969,503,119244
17.653,142977,739,119241
17.658,142989,501,119249
17.663,142982,747,119243
17.668,142969,493,119247
17.673,142974,752,119252
17.678,142975,489,119263
17.683,142977,758,119262
17.688,142972,484,119262
17.693,142988,764,119256
17.698,142977,479,119253
17.703,142985,768,119254
17.708,142986,477,119261
17.713,142980,772,119260
17.718,142991,474,119265
17.723,143000,777,119258
17.728,142991,471,119259
17.733,143007,782,119265
17.738,143001,469,119258
17.743,143007,785,119264
17.748,143018,466,119261
17.753,143019,788,119264
17.757,143029,465,119274
17.762,143020,792,119274
17.767,143017,464,119278
17.772,143014,797,119285
17.777,143031,460,119284
17.782,143026,800,119279
17.787,143025,458,119279
17.792,143029,804,119273
17.797,143033,457,119298
17.802,143048,807,119284
17.807,143043,455,119281
17.812,143046,809,119290
17.817,143032,455,119281
17.822,143038,812,119282
17.827,143030,452,119301
17.832,143046,815,119280
17.837,143035,452,119298
17.842,143036,819,119289
17.847,143040,448,119292
17.852,143041,819,119291
17.857,143047,452,119301
17.862,143060,823,119289
17.867,143049,450,119289
17.872,143055,824,119287
17.877,143061,450,119298
17.882,143056,827,119285
17.887,143059,448,119301
17.891,143068,828,119286
17.896,143067,448,119332
17.901,143067,828,119294
17.906,143058,445,119305
17.911,143064,829,119312
17.916,143073,449,119300
17.921,143068,830,119305
17.926,143092,450,119305
17.931,143085,830,119292
17.936,143090,450,119303
17.941,143098,831,119294
17.946,143090,465,119317
17.951,143095,831,119293
17.956,143097,453,119302
17.961,143103,828,119303
17.966,143109,454,119311
17.971,143107,828,119303
17.976,143107,458,119315
17.981,143106,828,119316
17.986,143118,462,119319
17.991,143111,822,119315
17.996,143128,461,119309
18.001,143124,822,119315
18.006,143123,464,119316
18.011,143115,815,119303
18.016,143114,467,119309
18.021,143131,811,119305
18.026,143121,472,119312
18.030,143134,809,119299
18.035,143109,481,119301
18.040,143123,801,119303
18.045,143102,481,119296
18.050,143111,796,119304
18.055,143093,486,119292
18.060,143088,791,119296
18.065,143077,491,119296
18.070,143087,786,119286
18.075,143075,502,119300
18.080,143062,778,119282
18.085,143069,507,119276
18.090,143057,770,119276
18.095,143047,508,119264
18.100,143043,765,119255
18.105,143032,513,119264
18.110,143036,756,119240
18.115,143034,524,119252
18.120,143038,751,119242
18.125,143023,530,119231
18.130,143033,740,119231
18.135,143039,538,119243
18.140,143023,735,119237
18.145,143013,545,119235
18.150,143023,726,119231
18.155,143024,551,119238
18.160,143026,719,119231
18.164,143012,557,119228
18.169,143016,711,119229
18.174,143020,564,119231
18.179,143023,704,119231
18.184,143018,570,119227
18.189,143012,688,119224
18.194,143005,579,119230
18.199,143010,690,119225
18.204,143007,586,119233
18.209,143004,683,119229
18.214,143006,593,119231
18.219,143004,671,119232
18.224,143004,599,119224
18.229,143013,663,119226
18.234,143023,611,119229
18.239,143002,678,119237
18.244,143022,615,119233
18.249,143026,647,119237
18.254,143026,623,119240
18.259,143025,639,119217
18.264,143012,632,119218
18.269,143027,632,119220
18.274,143035,637,119225
18.279,143033,624,119233
18.284,143037,644,119221
18.289,143030,616,119216
18.294,143033,654,119223
18.299,143037,607,119233
18.303,143038,659,119219
18.308,143043,599,119214
18.313,143024,669,119231
18.318,143040,590,119219
18.323,143027,678,119225
18.328,143038,582,119224
18.333,143034,684,119211
18.338,143041,575,119206
18.343,143041,690,119209
18.348,143040,566,119200
18.353,143040,694,119207
18.358,143041,557,119202
18.363,143044,700,119209
18.368,143042,552,119205
18.373,143048,707,119193
18.378,143054,541,119190
18.383,143055,715,119195
18.388,143039,537,119195
18.393,143045,720,119191
18.398,143045,528,119187
18.403,143053,726,119184
18.408,143051,520,119190
18.413,143055,731,119185
18.418,143053,511,119195
18.423,143056,736,119194
18.428,143054,507,119186
18.433,143073,743,119212
18.437,143070,499,119193
18.442,143067,748,119183
18.447,143072,494,119189
18.452,143070,753,119181
18.457,143077,484,119188
18.462,143067,756,119182
18.467,143068,479,119194
18.472,143065,764,119177
18.477,143066,477,119187
18.482,143114,773,119180
18.487,143064,476,119178
18.492,143065,772,119175
18.497,143067,470,119180
18.502,143073,776,119188
18.507,143059,469,119183
18.512,143077,780,119176
18.517,143068,465,119179
18.522,143060,788,119177
18.527,143079,464,119180
18.532,143063,790,119170
18.537,143063,463,119181
18.542,143073,794,119176
18.547,143063,460,119174
18.552,143063,800,119162
18.557,143072,457,119160
18.562,143072,801,119169
18.567,143079,453,119167
18.572,143066,805,119168
18.576,143054,454,119169
18.581,143074,808,119171
18.586,143080,451,119174
18.591,143068,809,119173
18.596,143082,451,119182
18.601,143086,815,119179
18.606,143084,447,119189
18.611,143086,816,119185
18.616,143090,448,119188
18.621,143094,819,119195
18.626,143102,444,119196
18.631,143100,821,119198
18.636,143109,447,119194
18.641,143101,822,119186
18.646,143115,446,119182
18.651,143113,824,119188
18.656,143099,446,119198
18.661,143109,828,119195
18.666,143106,448,119197
18.671,143129,829,119192
18.676,143116,448,119201
18.681,143126,832,119195
18.686,143134,449,119212
18.691,143133,832,119201
18.696,143127,450,119210
18.701,143148,828,119209
18.706,143130,452,119204
18.710,143142,832,119204
18.715,143145,454,119209
18.720,143138,827,119219
18.725,143143,455,119203
18.730,143143,825,119187
18.735,143130,459,119194
18.740,143135,823,119206
18.745,143112,465,119207
18.750,143128,819,119201
18.755,143112,467,119203
18.760,143106,815,119185
18.765,143092,470,119184
18.770,143092,811,119182
18.775,143092,475,119191
18.780,143084,808,119174
18.785,143075,478,119181
18.790,143070,803,119179
18.795,143066,480,119161
18.800,143059,796,119170
18.805,143061,486,119162
18.810,143049,787,119152
18.815,143062,495,119162
18.820,143051,782,119158
18.825,143049,502,119163
18.830,143045,775,119154
18.835,143036,506,119153
18.840,143029,769,119156
18.845,143035,512,119173
18.849,143038,761,119154
18.854,143023,519,119160
18.859,143031,755,119157
18.864,143030,525,119157
18.869,143023,747,119171
18.874,143028,530,119159
18.879,143017,743,119151
18.884,143027,539,119159
18.889,143012,732,119151
18.894,143027,547,119147
18.899,143019,723,119140
18.904,143025,553,119156
18.909,143003,715,119144
18.914,143024,560,119152
18.919,143000,704,119151
18.924,143028,568,119160
18.929,143036,699,119151
18.934,143009,576,119154
18.939,143015,691,119159
18.944,143022,583,119164
18.949,143020,686,119157
18.954,143028,591,119165
18.959,143036,675,119165
18.964,143035,603,119166
18.969,143030,666,119142
18.974,143023,612,119157
18.979,143040,659,119169
18.983,143035,617,119163
18.988,143034,653,119151
18.993,143029,624,119154
18.998,143041,640,119163
19.003,143029,637,119163
19.008,143031,636,119162
19.013,143045,645,119153
19.018,143027,611,119157
19.023,143045,650,119170
19.028,143029,617,119174
19.033,143022,659,119164
19.038,143039,609,119162
19.043,143037,667,119169
19.048,143024,599,119167
19.053,143030,681,119155
19.058,143029,590,119159
19.063,143028,687,119157
19.068,143024,585,119162
19.073,143031,694,119158
19.078,143023,578,119159
19.083,143033,703,119150
19.088,143018,572,119156
19.093,143020,708,119150
19.098,143020,562,119153
19.103,143013,718,119135
19.108,143008,556,119148
19.113,143029,725,119148
19.118,143027,551,119142
19.122,143035,733,119147
19.127,143033,545,119155
19.132,143033,739,119156
19.137,143034,533,119144
19.142,143023,749,119145
19.147,143013,529,119154
19.152,143037,756,119152
19.157,143027,519,119159
19.162,143028,763,119149
19.167,143031,514,119149
19.172,143029,769,119154
19.177,143019,510,119150
19.182,143021,775,119144
19.187,143026,506,119167
19.192,143047,784,119155
19.197,143048,500,119148
19.202,143041,790,119145
19.207,143050,497,119153
19.212,143050,798,119141
19.217,143064,486,119152
19.222,143055,798,119146
19.227,143051,490,119156
19.232,143042,805,119158
19.237,143050,487,119160
19.242,143034,810,119155
19.247,143050,484,119145
19.252,143052,817,119147
19.256,143047,481,119155
19.261,143052,824,119161
19.266,143041,480,119152
19.271,143063,824,119144
19.276,143054,477,119164
19.281,143047,831,119151
19.286,143070,475,119158
19.291,143057,835,119145
19.296,143064,473,119149
19.301,143082,837,119159
19.306,143057,471,119144
19.311,143063,842,119153
19.316,143079,470,119158
19.321,143080,846,119158
19.326,143070,469,119159
19.331,143084,848,119161
19.336,143086,466,119160
19.341,143076,853,119167
19.346,143081,465,119160
19.351,143092,853,119160
19.356,143095,465,119151
19.361,143111,858,119165
19.366,143099,463,119158
19.371,143096,856,119151
19.376,143110,463,119156
19.381,143091,859,119150
19.386,143099,463,119151
19.391,143109,863,119142
19.395,143114,462,119152
19.400,143121,861,119148
19.405,143102,461,119158
19.410,143116,861,119155
19.415,143104,463,119155
19.420,143126,860,119154
19.425,143111,466,119155
19.430,143106,859,119145
19.435,143110,466,119147
19.440,143116,853,119142
19.445,143104,464,119162
19.450,143103,851,119140
19.455,143097,470,119155
19.460,143093,846,119133
19.465,143089,469,119137
19.470,143084,841,119130
19.475,143069,471,119120
19.480,143077,834,119123
19.485,143055,475,119111
19.490,143048,825,119114
19.495,143050,477,119096
19.500,143040,819,119103
19.505,143036,480,119093
19.510,143033,812,119082
19.515,143014,483,119082
19.520,143017,802,119067
19.525,143008,485,119067
19.529,143005,790,119059
19.534,143008,494,119058
19.539,143000,781,119053
19.544,143012,497,119057
19.549,142994,773,119053
19.554,143000,492,119049
19.559,142989,764,119041
19.564,142980,503,119034
19.569,142977,755,119039
19.574,142978,506,119035
19.579,142981,739,119027
19.584,142975,514,119033
19.589,142977,729,119012
19.594,142973,517,119011
19.599,142971,717,119017
19.604,142973,523,119008
19.609,142971,710,119004
19.614,142970,522,119006
19.619,142968,694,118998
19.624,142955,529,118995
19.629,142968,685,118990
19.634,142954,533,118983
19.639,142962,674,118978
19.644,142951,537,118978
19.649,142961,661,118980
19.654,142958,542,118986
19.659,142968,651,118963
19.664,142973,545,118977
19.668,142964,640,118963
19.673,142961,552,118971
19.678,142982,630,118963
19.683,142956,556,118969
19.688,142969,618,118960
19.693,142962,559,118964
19.698,142969,606,118945
19.703,142975,563,118945
19.708,142956,594,118945
19.713,142972,572,118957
19.718,142979,581,118947
19.723,142979,574,118939
19.728,142971,576,118947
19.733,142965,578,118931
19.738,142965,560,118929
19.743,142976,580,118932
19.748,142966,550,118923
19.753,142972,585,118930
19.758,142964,543,118923
19.763,142969,589,118923
19.768,142960,531,118925
19.773,142946,596,118925
19.778,142970,522,118916
19.783,142961,597,118908
19.788,142963,515,118910
19.793,142955,601,118904
19.798,142954,507,118912
19.803,142963,606,118902
19.807,142964,500,118895
19.812,142950,606,118904
19.817,142966,487,118896
19.822,142963,607,118899
19.827,142953,480,118892
19.832,142963,614,118899
19.837,142969,472,118899
19.842,142966,618,118892
19.847,143004,467,118896
19.852,142956,621,118900
19.857,142973,456,118901
19.862,142975,621,118898
19.867,142963,451,118884
19.872,142970,624,118897
19.877,142971,444,118892
19.882,142981,628,118894
19.887,142978,436,118880
19.892,142982,630,118901
19.897,142996,431,118897
19.902,142986,632,118889
19.907,142982,426,118902
19.912,142991,636,118893
19.917,142990,421,118909
19.922,142986,638,118906
19.927,142979,415,118904
19.932,142997,640,118897
19.937,143011,412,118903
19.941,143010,644,118904
19.946,143002,408,118907
19.951,142999,647,118901
19.956,142996,406,118905
19.961,143017,649,118894
19.966,143001,400,118907
19.971,143008,652,118904
19.976,143010,397,118912
19.981,143009,653,118894
19.986,143017,397,118907
19.991,143007,660,118903
19.996,143023,392,118919
20.001,143025,658,118904
20.006,143008,390,118914
20.011,143012,659,118903
20.016,143007,388,118897
20.021,143013,662,118905
20.026,143001,389,118908
20.031,143019,667,118903
20.036,142983,387,118917
20.041,142999,667,118913
20.046,142985,382,118905
20.051,142989,668,118909
20.056,142969,382,118907
20.061,142988,668,118892
20.066,142972,381,118896
20.071,142960,668,118898
20.076,142966,379,118902
20.080,142957,671,118885
20.085,142940,377,118889
20.090,142958,677,118875
20.095,142929,376,118885
20.100,142952,669,118882
20.105,142925,375,118878
20.110,142925,672,118878
20.115,142933,374,118883
20.120,142922,671,118867
20.125,142914,377,118884
20.130,142924,670,118872
20.135,142909,373,118878
20.140,142896,671,118866
20.145,142910,376,118868
20.150,142888,671,118866
20.155,142873,376,118875
20.160,142879,669,118869
20.165,142859,376,118867
20.170,142852,670,118867
20.175,142846,377,118865
20.180,142824,668,118861
20.185,142819,377,118862
20.190,142811,666,118848
20.195,142784,377,118846
20.200,142796,661,118842
20.205,142779,383,118847
20.210,142762,661,118825
20.214,142766,386,118823
20.219,142747,656,118833
20.224,142723,387,118824
20.229,142733,651,118811
20.234,142720,389,118822
20.239,142733,645,118813
20.244,142708,389,118815
20.249,142707,644,118801
20.254,142700,396,118814
20.259,142696,639,118805
20.264,142688,399,118805
20.269,142688,634,118801
20.274,142677,399,118813
20.279,142679,629,118793
20.284,142659,410,118795
20.289,142667,623,118785
20.294,142651,410,118785
20.299,142671,617,118788
20.304,142654,419,118794
20.309,142642,611,118792
20.314,142652,422,118792
20.319,142639,608,118786
20.324,142646,427,118795
20.329,142637,598,118777
20.334,142635,432,118753
20.339,142617,596,118781
20.344,142625,435,118786
20.349,142629,587,118774
20.353,142613,441,118788
20.358,142617,581,118779
20.363,142626,450,118786
20.368,142620,571,118780
20.373,142622,454,118782
20.378,142615,565,118780
20.383,142633,458,118782
20.388,142612,560,118775
20.393,142609,464,118777
20.398,142614,551,118776
20.403,142616,469,118775
20.408,142616,544,118757
20.413,142619,471,118773
20.418,142606,537,118768
20.423,142616,477,118762
20.428,142621,530,118766
20.433,142608,482,118773
20.438,142603,523,118757
20.443,142606,488,118760
20.448,142611,516,118739
20.453,142608,492,118757
20.458,142609,511,118746
20.463,142602,494,118753
20.468,142595,500,118748
20.473,142591,499,118740
20.478,142590,494,118738
20.483,142596,503,118741
20.487,142598,484,118733
20.492,142583,507,118743
20.497,142589,475,118736
20.502,142593,513,118733
20.507,142597,469,118736
20.512,142589,518,118722
20.517,142603,462,118733
20.522,142585,521,118710
20.527,142590,460,118723
20.532,142572,525,118717
20.537,142579,448,118708
20.542,142571,524,118711
20.547,142579,439,118711
20.552,142601,528,118713
20.557,142580,433,118702
20.562,142579,535,118702
20.567,142591,427,118704
20.572,142577,535,118696
20.577,142577,420,118688
20.582,142582,537,118688
20.587,142584,416,118691
20.592,142587,538,118690
20.597,142579,407,118691
20.602,142586,544,118677
20.607,142586,402,118693
20.612,142596,543,118676
20.617,142562,392,118676
20.622,142583,546,118677
20.626,142576,389,118672
20.631,142590,550,118674
20.636,142597,383,118680
20.641,142593,552,118688
20.646,142590,380,118682
20.651,142594,558,118668
20.656,142596,375,118678
20.661,142600,560,118679
20.666,142594,370,118663
20.671,142596,562,118666
20.676,142605,368,118662
20.681,142601,565,118669
20.686,142601,367,118665
20.691,142612,564,118666
20.696,142608,363,118662
20.701,142618,566,118674
20.706,142616,359,118664
20.711,142614,567,118669
20.716,142623,356,118679
20.721,142618,569,118671
20.726,142632,357,118686
20.731,142622,568,118696
20.736,142631,353,118682
20.741,142635,570,118693
20.746,142624,350,118700
20.751,142635,569,118695
20.756,142635,347,118691
20.760,142652,572,118688
20.765,142648,344,118689
20.770,142647,571,118700
20.775,142653,343,118700
20.780,142659,572,118698
20.785,142664,342,118708
20.790,142663,573,118698
20.795,142665,339,118708
20.800,142676,572,118701
20.805,142665,337,118713
20.810,142688,573,118704
20.815,142683,336,118699
20.820,142687,573,118685
20.825,142688,338,118696
20.830,142687,574,118699
20.835,142687,335,118701
20.840,142700,575,118685
20.845,142687,334,118687
20.850,142707,575,118679
20.855,142698,333,118687
20.860,142706,575,118675
20.865,142701,332,118685
20.870,142697,577,118653
20.875,142715,332,118682
20.880,142718,577,118665
20.885,142704,336,118675
20.890,142701,577,118663
20.895,142708,337,118658
20.899,142705,578,118664
20.904,142701,336,118656
20.909,142703,577,118654
20.914,142684,337,118638
20.919,142701,573,118647
20.924,142671,333,118647
20.929,142681,576,118627
20.934,142656,339,118638
20.939,142650,572,118631
20.944,142636,339,118617
20.949,142641,570,118609
20.954,142632,340,118604
20.959,142632,567,118598
20.964,142621,342,118585
20.969,142619,566,118586
20.974,142623,347,118575
20.979,142614,564,118560
20.984,142616,347,118580
20.989,142613,560,118568
20.994,142597,348,118560
20.999,142601,555,118552
21.004,142596,351,118553
21.009,142606,552,118547
21.014,142572,358,118547
21.019,142586,549,118558
21.024,142588,359,118552
21.029,142591,545,118549
21.033,142592,361,118542
21.038,142588,541,118545
21.043,142601,370,118541
21.048,142594,536,118536
21.053,142576,371,118541
21.058,142585,529,118532
21.063,142585,379,118536
21.068,142582,528,118526
21.073,142577,380,118527
21.078,142576,521,118516
21.083,142584,384,118520
21.088,142569,518,118517
21.093,142576,389,118516
21.098,142573,514,118514
21.103,142586,390,118509
21.108,142592,508,118526
21.113,142572,394,118519
21.118,142573,507,118524
21.123,142582,396,118521
21.128,142577,503,118515
21.133,142583,401,118507
21.138,142596,499,118502
21.143,142581,406,118500
21.148,142593,495,118498
21.153,142590,412,118501
21.158,142592,490,118500
21.163,142603,420,118506
21.168,142583,487,118502
21.172,142591,420,118502
21.177,142583,483,118491
21.182,142582,425,118495
21.187,142577,479,118485
21.192,142581,430,118484
21.197,142588,472,118488
21.202,142579,438,118493
21.207,142572,471,118483
21.212,142591,437,118490
21.217,142585,463,118494
21.222,142586,444,118490
21.227,142589,461,118481
21.232,142582,448,118477
21.237,142587,454,118479
21.242,142577,450,118488
21.247,142592,451,118487
21.252,142569,454,118490
21.257,142582,446,118478
21.262,142580,461,118470
21.267,142583,442,118473
21.272,142579,467,118464
21.277,142584,437,118471
21.282,142583,473,118467
21.287,142586,433,118470
21.292,142579,473,118458
21.297,142582,429,118459
21.302,142585,476,118462
21.306,142593,423,118458
21.311,142582,484,118457
21.316,142596,418,118473
21.321,142579,487,118467
21.326,142591,415,118463
21.331,142592,487,118466
21.336,142589,411,118465
21.341,142593,492,118466
21.346,142594,406,118461
21.351,142603,497,118460
21.356,142605,404,118460
21.361,142604,502,118460
21.366,142599,399,118446
21.371,142607,507,118455
21.376,142603,392,118462
21.381,142596,508,118467
21.386,142620,390,118465
21.391,142613,509,118461
21.396,142629,384,118466
21.401,142608,513,118459
21.406,142630,385,118451
21.411,142614,515,118458
21.416,142620,380,118472
21.421,142635,520,118441
21.426,142631,375,118461
21.431,142630,524,118452
21.436,142632,373,118455
21.441,142628,529,118459
21.445,142625,370,118461
21.450,142642,531,118453
21.455,142649,384,118467
21.460,142643,533,118457
21.465,142646,363,118461
21.470,142651,537,118442
21.475,142643,361,118458
21.480,142646,539,118446
21.485,142650,359,118454
21.490,142660,539,118454
21.495,142663,354,118451
21.500,142674,544,118444
21.505,142673,356,118453
21.510,142662,545,118444
21.515,142677,350,118451
21.520,142664,548,118452
21.525,142674,348,118458
21.530,142670,551,118450
21.535,142672,349,118454
21.540,142682,554,118438
21.545,142686,345,118450
21.550,142689,557,118437
21.555,142680,347,118459
21.560,142679,560,118431
21.565,142695,346,118441
21.570,142690,563,118444
21.575,142692,345,118438
21.579,142691,566,118446
21.584,142704,344,118443
21.589,142693,566,118437
21.594,142702,339,118441
21.599,142730,566,118440
21.604,142719,339,118425
21.609,142702,569,118428
21.614,142706,340,118434
21.619,142711,570,118434
21.624,142704,338,118430
21.629,142729,571,118420
21.634,142728,337,118430
21.639,142724,572,118418
21.644,142702,337,118414
21.649,142705,573,118384
21.654,142703,338,118401
21.659,142685,577,118397
21.664,142700,338,118395
21.669,142695,577,118378
21.674,142690,338,118384
21.679,142672,576,118378
21.684,142658,333,118377
21.689,142671,575,118371
21.694,142654,334,118362
21.699,142661,568,118355
21.704,142651,332,118360
21.709,142638,577,118346
21.714,142621,335,118347
21.718,142648,578,118342
21.723,142633,336,118340
21.728,142638,579,118333
21.733,142636,337,118332
21.738,142629,578,118320
21.743,142626,338,118328
21.748,142633,577,118340
21.753,142621,336,118326
21.758,142622,576,118329
21.763,142612,338,118334
21.768,142608,577,118300
21.773,142602,336,118314
21.778,142605,575,118308
21.783,142592,338,118309
21.788,142597,573,118303
21.793,142604,341,118312
21.798,142604,572,118303
21.803,142601,340,118306
21.808,142602,570,118301
21.813,142610,342,118295
21.818,142601,568,118304
21.823,142599,345,118297
21.828,142611,566,118292
21.833,142593,348,118293
21.838,142604,565,118290
21.843,142598,351,118303
21.848,142589,562,118292
21.852,142602,351,118297
21.857,142600,561,118301
21.862,142604,356,118294
21.867,142604,558,118300
21.872,142607,362,118291
21.877,142599,556,118288
21.882,142600,366,118293
21.887,142608,552,118289
21.892,142601,371,118293
21.897,142593,551,118285
21.902,142596,372,118295
21.907,142606,542,118287
21.912,142606,376,118307
21.917,142605,544,118294
21.922,142593,381,118295
21.927,142589,541,118292
21.932,142602,380,118293
21.937,142598,537,118296
21.942,142595,387,118314
21.947,142604,534,118303
21.952,142607,392,118304
21.957,142607,530,118306
21.962,142615,392,118311
21.967,142595,526,118308
21.972,142614,398,118319
21.977,142611,523,118310
21.982,142597,403,118318
21.987,142600,517,118308
21.991,142608,406,118327
21.996,142617,515,118312
22.001,142614,412,118309
22.006,142615,512,118326
22.011,142601,417,118309
22.016,142597,509,118300
22.021,142601,417,118315
22.026,142607,500,118320
22.031,142610,422,118315
22.036,142605,497,118318
22.041,142603,430,118322
22.046,142609,492,118313
22.051,142612,434,118325
22.056,142624,488,118323
22.061,142623,434,118315
22.066,142623,480,118326
22.071,142619,440,118336
22.076,142630,474,118330
22.081,142628,443,118336
22.086,142629,471,118324
22.091,142640,451,118329
22.096,142625,466,118335
22.101,142631,451,118335
22.106,142630,462,118323
22.111,142639,458,118329
22.116,142627,457,118325
22.121,142631,463,118319
22.126,142637,451,118328
22.130,142639,467,118322
22.135,142650,446,118331
22.140,142664,470,118348
22.145,142638,443,118329
22.150,142655,473,118325
22.155,142644,437,118326
22.160,142650,477,118327
22.165,142668,432,118334
22.170,142653,485,118329
22.175,142652,427,118336
22.180,142652,489,118336
22.185,142654,429,118331
22.190,142663,489,118333
22.195,142671,421,118325
22.200,142669,494,118330
22.205,142675,414,118341
22.210,142667,499,118344
22.215,142670,412,118326
22.220,142670,502,118313
22.225,142663,405,118329
22.230,142666,508,118327
22.235,142677,401,118339
22.240,142666,509,118327
22.245,142675,403,118343
22.250,142671,517,118333
22.255,142672,395,118330
22.260,142672,520,118331
22.264,142685,391,118344
22.269,142680,524,118343
22.274,142690,390,118347
22.279,142697,529,118334
22.284,142689,384,118343
22.289,142697,531,118337
22.294,142698,381,118331
22.299,142718,535,118332
22.304,142687,378,118337
22.309,142706,538,118336
22.314,142704,376,118341
22.319,142708,539,118335
22.324,142710,372,118347
22.329,142712,547,118340
22.334,142725,368,118337
22.339,142708,547,118338
22.344,142728,366,118344
22.349,142723,552,118354
22.354,142721,362,118353
22.359,142728,552,118359
22.364,142733,358,118351
22.369,142721,557,118351
22.374,142725,359,118340
22.379,142728,564,118348
22.384,142725,357,118339
22.389,142710,565,118334
22.394,142725,353,118350
22.399,142707,569,118329
22.403,142690,354,118328
22.408,142694,572,118334
22.413,142681,350,118326
22.418,142660,574,118318
22.423,142683,348,118327
22.428,142667,578,118325
22.433,142672,349,118302
22.438,142656,578,118307
22.443,142647,348,118301
22.448,142647,582,118298
22.453,142648,346,118306
22.458,142640,582,118286
22.463,142629,345,118304
22.468,142634,583,118296
22.473,142638,343,118298
22.478,142613,587,118288
22.483,142622,344,118291
22.488,142632,588,118302
22.493,142624,343,118300
22.498,142631,588,118311
22.503,142615,341,118295
22.508,142624,594,118285
22.513,142623,344,118298
22.518,142618,595,118282
22.523,142623,344,118285
22.528,142624,595,118291
22.533,142620,343,118290
22.537,142609,598,118279
22.542,142625,343,118291
22.547,142614,600,118276
22.552,142620,344,118282
22.557,142615,602,118281
22.562,142615,344,118285
22.567,142622,605,118284
22.572,142617,350,118288
22.577,142621,602,118281
22.582,142603,348,118290
22.587,142618,606,118278
22.592,142619,350,118292
22.597,142630,605,118280
22.602,142626,355,118295
22.607,142636,604,118292
22.612,142626,356,118286
22.617,142628,605,118280
22.622,142641,358,118275
22.627,142628,603,118275
22.632,142634,363,118268
22.637,142637,600,118268
22.642,142618,365,118266
22.647,142616,598,118257
22.652,142629,367,118265
22.657,142619,596,118262
22.662,142622,370,118254
22.667,142632,592,118229
22.672,142622,373,118251
22.676,142608,589,118235
22.681,142622,378,118243
22.686,142607,585,118237
22.691,142615,380,118241
22.696,142622,582,118227
22.701,142618,383,118232
22.706,142614,576,118224
22.711,142610,393,118219
22.716,142609,572,118217
22.721,142617,386,118209
22.726,142605,564,118212
22.731,142608,400,118214
22.736,142594,561,118193
22.741,142591,404,118208
22.746,142596,553,118188
22.751,142606,408,118202
22.756,142607,550,118187
22.761,142580,415,118189
22.766,142596,540,118179
22.771,142591,415,118165
22.776,142599,533,118175
22.781,142595,425,118183
22.786,142606,531,118160
22.791,142611,428,118169
22.796,142598,521,118166
22.801,142614,432,118166
22.806,142604,515,118166
22.810,142601,435,118170
22.815,142601,508,118168
22.820,142618,441,118160
22.825,142608,503,118175
22.830,142609,446,118167
22.835,142608,498,118158
22.840,142609,452,118170
22.845,142616,491,118154
22.850,142612,461,118151
22.855,142616,485,118152
22.860,142621,465,118162
22.865,142606,478,118147
22.870,142627,470,118152
22.875,142617,474,118158
22.880,142623,475,118157
22.885,142637,468,118155
22.890,142623,478,118149
22.895,142621,460,118152
22.900,142619,484,118149
22.905,142626,455,118150
22.910,142628,487,118154
22.915,142631,445,118153
22.920,142644,493,118139
22.925,142639,442,118151
22.930,142628,497,118145
22.935,142654,437,118147
22.940,142634,502,118140
22.945,142625,433,118144
22.949,142624,509,118142
22.954,142638,425,118149
22.959,142639,513,118143
22.964,142638,424,118188
22.969,142661,515,118149
22.974,142637,417,118148
22.979,142651,518,118147
22.984,142639,413,118155
22.989,142642,524,118143
22.994,142645,406,118150
22.999,142651,529,118147
23.004,142658,401,118139
23.009,142655,534,118144
23.014,142636,393,118144
23.019,142658,537,118146
23.024,142670,393,118145
23.029,142674,540,118158
23.034,142659,390,118156
23.039,142680,544,118153
23.044,142688,385,118164
23.049,142679,549,118153
23.054,142684,377,118167
23.059,142688,551,118157
23.064,142694,377,118156
23.069,142684,554,118163
23.074,142683,372,118163
23.079,142685,559,118174
23.083,142682,370,118169
23.088,142699,562,118165
23.093,142699,368,118165
23.098,142689,568,118158
23.103,142696,367,118162
23.108,142693,572,118169
23.113,142699,362,118163
23.118,142712,571,118170
23.123,142692,360,118157
23.128,142703,576,118148
23.133,142690,358,118152
23.138,142700,579,118153
23.143,142689,357,118160
23.148,142672,581,118153
23.153,142685,356,118156
23.158,142679,585,118137
23.163,142676,357,118142
23.168,142650,589,118128
23.173,142661,355,118137
23.178,142650,591,118117
23.183,142643,354,118126
23.188,142630,593,118114
23.193,142616,352,118118
23.198,142621,597,118097
23.203,142602,352,118100
23.208,142603,599,118108
23.213,142612,352,118103
23.218,142604,601,118089
23.222,142609,351,118103
23.227,142597,603,118086
23.232,142595,351,118102
23.237,142609,606,118093
23.242,142586,350,118088
23.247,142600,607,118090
23.252,142586,350,118088
23.257,142596,579,118097
23.262,142595,351,118089
23.267,142593,611,118086
23.272,142580,351,118096
23.277,142590,612,118087
23.282,142586,350,118089
23.287,142583,614,118085
23.292,142584,350,118098
23.297,142591,615,118091
23.302,142600,351,118100
23.307,142579,615,118083
23.312,142576,353,118081
23.317,142591,616,118076
23.322,142586,352,118098
23.327,142598,615,118092
23.332,142577,351,118105
23.337,142585,616,118088
23.342,142585,353,118089
23.347,142594,616,118091
23.352,142579,355,118088
23.356,142594,613,118098
23.361,142599,357,118098
23.366,142605,612,118093
23.371,142603,360,118114
23.376,142599,610,118099
23.381,142613,361,118103
23.386,142614,610,118100
23.391,142610,368,118092
23.396,142608,606,118100
23.401,142610,370,118107
23.406,142614,601,118093
23.411,142613,370,118103
23.416,142596,599,118098
23.421,142596,378,118103
23.426,142602,595,118097
23.431,142605,382,118101
23.436,142595,593,118090
23.441,142607,384,118100
23.446,142617,587,118101
23.451,142603,388,118110
23.456,142608,581,118103
23.461,142612,393,118118
23.466,142602,578,118090
23.471,142610,395,118119
23.476,142605,573,118094
23.481,142609,400,118106
23.486,142604,567,118092
23.491,142604,406,118098
23.495,142605,562,118091
23.500,142602,409,118116
23.505,142600,559,118088
23.510,142608,412,118098
23.515,142608,556,118090
23.520,142613,416,118102
23.525,142592,550,118100
23.530,142596,420,118102
23.535,142610,542,118094
23.540,142603,430,118105
23.545,142633,538,118106
23.550,142624,428,118105
23.555,142623,531,118090
23.560,142632,439,118109
23.565,142640,522,118105
23.570,142628,444,118108
23.575,142625,519,118108
23.580,142627,448,118115
23.585,142637,509,118108
23.590,142649,453,118107
23.595,142638,503,118112
23.600,142637,459,118122
23.605,142642,500,118119
23.610,142648,464,118114
23.615,142657,493,118117
23.620,142659,468,118120
23.625,142656,487,118114
23.629,142671,472,118119
23.634,142651,481,118120
23.639,142652,477,118124
23.644,142653,475,118118
23.649,142667,478,118130
23.654,142663,471,118109
23.659,142669,483,118127
23.664,142669,466,118107
23.669,142680,492,118117
23.674,142665,459,118121
23.679,142661,499,118124
23.684,142669,455,118115
23.689,142677,504,118122
23.694,142677,446,118115
23.699,142664,506,118117
23.704,142676,441,118117
23.709,142672,509,118125
23.714,142682,438,118131
23.719,142675,520,118117
23.724,142675,434,118114
23.729,142684,525,118124
23.734,142673,429,118112
23.739,142678,529,118112
23.744,142687,424,118117
23.749,142708,529,118124
23.754,142703,421,118116
23.759,142685,539,118116
23.764,142683,417,118116
23.768,142687,544,118122
23.773,142690,412,118131
23.778,142695,548,118121
23.783,142708,408,118131
23.788,142703,553,118145
23.793,142716,408,118111
23.798,142703,557,118136
23.803,142708,403,118131
23.808,142709,563,118143
23.813,142696,396,118138
23.818,142707,566,118146
23.823,142707,396,118147
23.828,142701,572,118140
23.833,142720,389,118148
23.838,142707,576,118147
23.843,142716,388,118151
23.848,142714,578,118147
23.853,142715,382,118143
23.858,142728,582,118146
23.863,142713,380,118155
23.868,142718,588,118152
23.873,142715,379,118154
23.878,142717,592,118146
23.883,142721,377,118151
23.888,142712,593,118146
23.893,142710,376,118140
23.898,142709,598,118147
23.902,142695,372,118137
23.907,142687,602,118132
23.912,142675,370,118126
23.917,142684,605,118125
23.922,142682,369,118117
23.927,142661,606,118123
23.932,142664,368,118126
23.937,142676,608,118107
23.942,142639,367,118103
23.947,142656,610,118114
23.952,142656,365,118102
23.957,142624,614,118106
23.962,142636,361,118096
23.967,142638,612,118088
23.972,142635,365,118095
23.977,142636,618,118087
23.982,142624,361,118092
23.987,142623,619,118078
23.992,142624,358,118088
23.997,142618,621,118077
24.002,142619,360,118073
24.007,142626,623,118067
24.012,142621,359,118070
24.017,142624,623,118078
24.022,142615,359,118065
24.027,142627,624,118066
24.032,142612,358,118084
24.037,142616,636,118075
24.041,142623,354,118074
24.046,142619,626,118064
24.051,142622,354,118073
24.056,142616,627,118075
24.061,142613,359,118069
24.066,142614,629,118072
24.071,142616,359,118071
24.076,142623,628,118067
24.081,142620,358,118076
24.086,142625,631,118065
24.091,142624,356,118067
24.096,142612,630,118062
24.101,142631,358,118078
24.106,142634,632,118076
24.111,142643,358,118083
24.116,142646,629,118088
24.121,142630,360,118080
24.126,142646,627,118085
24.131,142645,365,118085
24.136,142640,626,118080
24.141,142641,364,118073
24.146,142649,625,118077
24.151,142646,366,118083
24.156,142638,623,118062
24.161,142646,368,118084
24.166,142657,617,118084
24.171,142661,371,118081
24.176,142657,616,118068
24.180,142646,374,118085
24.185,142644,615,118070
24.190,142642,375,118088
24.195,142655,612,118084
24.200,142651,377,118086
24.205,142662,608,118077
24.210,142652,381,118080
24.215,142655,603,118083
24.220,142664,384,118071
24.225,142651,598,118077
24.230,142666,392,118074
24.235,142659,593,118061
24.240,142664,392,118069
24.245,142659,591,118079
24.250,142665,396,118071
24.255,142662,584,118069
24.260,142651,403,118075
24.265,142660,578,118072
24.270,142654,406,118076
24.275,142662,573,118063
24.280,142647,410,118064
24.285,142655,568,118063
24.290,142658,416,118074
24.295,142651,561,118052
24.300,142649,419,118056
24.305,142645,555,118063
24.310,142637,424,118059
24.314,142645,552,118061
24.319,142653,429,118040
24.324,142664,546,118042
24.329,142637,420,118053
24.334,142650,541,118050
24.339,142659,440,118050
24.344,142654,534,118040
24.349,142653,444,118043
24.354,142664,529,118042
24.359,142655,450,118048
24.364,142666,525,118052
24.369,142647,455,118030
24.374,142675,517,118033
24.379,142665,461,118040
24.384,142668,514,118038
24.389,142668,465,118040
24.394,142673,502,118042
24.399,142669,471,118037
24.404,142679,499,118039
24.409,142680,475,118046
24.414,142678,490,118039
24.419,142680,482,118031
24.424,142685,485,118042
24.429,142679,486,118035
24.434,142688,480,118035
24.439,142693,491,118034
24.444,142688,472,118039
24.449,142700,496,118042
24.453,142688,467,118040
24.458,142703,500,118040
24.463,142692,461,118042
24.468,142709,505,118039
24.473,142714,462,118042
24.478,142706,508,118048
24.483,142698,451,118036
24.488,142716,512,118035
24.493,142730,447,118035
24.498,142718,515,118035
24.503,142713,441,118033
24.508,142731,521,118035
24.513,142729,438,118026
24.518,142719,529,118035
24.523,142733,431,118050
24.528,142724,529,118040
24.533,142733,424,118041
24.538,142731,536,118035
24.543,142728,422,118020
24.548,142731,540,118031
24.553,142733,413,118027
24.558,142739,545,118027
24.563,142735,409,118045
24.568,142745,548,118039
24.573,142741,397,118030
24.578,142762,553,118037
24.583,142751,399,118031
24.587,142758,558,118033
24.592,142755,396,118029
24.597,142756,565,118024
24.602,142767,391,118031
24.607,142768,568,118025
24.612,142757,388,118037
24.617,142757,572,118028
24.622,142757,385,118033
24.627,142758,577,118041
24.632,142742,381,118037
24.637,142754,579,118029
24.642,142745,376,118033
24.647,142737,583,118033
24.652,142749,375,118036
24.657,142742,586,118041
24.662,142743,372,118034
24.667,142731,591,118020
24.672,142719,372,118024
24.677,142707,594,118028
24.682,142694,368,118018
24.687,142716,595,118006
24.692,142697,366,118013
24.697,142698,599,118003
24.702,142683,364,117996
24.707,142676,601,117994
24.712,142665,366,117999
24.717,142673,606,117988
24.722,142672,360,118005
24.726,142673,605,117988
24.731,142666,362,117989
24.736,142658,609,117981
24.741,142674,360,117980
24.746,142673,610,117978
24.751,142646,358,117968
24.756,142650,611,117976
24.761,142657,357,117978
24.766,142661,615,117970
24.771,142648,360,117973
24.776,142664,616,117969
24.781,142654,358,117965
24.786,142661,618,117974
24.791,142649,357,117970
24.796,142658,621,117963
24.801,142667,355,117961
24.806,142649,620,117965
24.811,142647,355,117970
24.816,142649,625,117944
24.821,142651,357,117968
24.826,142654,624,117972
24.831,142646,356,117967
24.836,142663,624,117960
24.841,142642,355,117956
24.846,142655,627,117955
24.851,142660,356,117960
24.856,142665,627,117963
24.860,142667,356,117958
24.865,142684,626,117965
24.870,142675,359,117949
24.875,142667,627,117949
24.880,142666,359,117954
24.885,142669,627,117949
24.890,142671,360,117954
24.895,142668,626,117941
24.900,142662,361,117952
24.905,142668,620,117947
24.910,142676,361,117956
24.915,142685,620,117954
24.920,142669,369,117945
24.925,142659,621,117935
24.930,142676,367,117941
24.935,142669,618,117937
24.940,142666,371,117948
24.945,142668,615,117943
24.950,142663,372,117949
24.955,142666,609,117935
24.960,142669,376,117955
24.965,142669,607,117942
24.970,142667,381,117939
24.975,142661,601,117951
24.980,142678,384,117942
24.985,142676,599,117939
24.990,142664,386,117947
24.995,142657,595,117939
24.999,142667,389,117958
25.004,142667,588,117948
25.009,142674,397,117936
25.014,142669,585,117931
25.019,142671,399,117948
25.024,142679,580,117933
25.029,142667,403,117952
25.034,142673,575,117948
25.039,142672,408,117952
25.044,142665,569,117940
25.049,142674,416,117946
25.054,142687,562,117955
25.059,142669,422,117945
25.064,142662,561,117953
25.069,142679,423,117957
25.074,142688,553,117956
25.079,142688,432,117956
25.084,142691,548,117959
25.089,142689,436,117960
25.094,142695,542,117957
25.099,142695,441,117969
25.104,142705,535,117962
25.109,142709,441,117950
25.114,142702,531,117966
25.119,142698,453,117963
25.124,142705,523,117943
25.129,142724,458,117957
25.133,142713,518,117958
25.138,142707,462,117965
25.143,142701,512,117958
25.148,142702,469,117954
25.153,142721,505,117948
25.158,142714,468,117946
25.163,142716,502,117952
25.168,142710,475,117950
25.173,142726,495,117955
25.178,142724,479,117960
25.183,142719,489,117962
25.188,142728,488,117961
25.193,142721,481,117951
25.198,142725,494,117951
25.203,142726,474,117962
25.208,142730,499,117959
25.213,142736,473,117950
25.218,142741,503,117955
25.223,142739,463,117965
25.228,142733,510,117956
25.233,142747,457,117969
25.238,142726,512,117966
25.243,142753,453,117965
25.248,142761,517,117978
25.253,142761,445,117979
25.258,142753,523,117953
25.263,142763,441,117962
25.268,142755,528,117971
25.272,142766,436,117962
25.277,142770,532,117968
25.282,142756,432,117964
25.287,142768,540,117963
25.292,142777,426,117967
25.297,142765,544,117963
25.302,142775,421,117956
25.307,142780,546,117972
25.312,142771,417,117955
25.317,142780,549,117961
25.322,142777,411,117962
25.327,142790,555,117966
25.332,142772,409,117963
25.337,142794,558,117973
25.342,142791,404,117965
25.347,142791,563,117955
25.352,142786,398,117929
25.357,142791,566,117955
25.362,142779,393,117950
25.367,142784,569,117943
25.372,142779,389,117933
25.377,142770,573,117934
25.382,142762,384,117926
25.387,142769,580,117919
25.392,142753,382,117920
25.397,142747,581,117900
25.402,142762,378,117908
25.406,142744,584,117897
25.411,142735,376,117898
25.416,142732,585,117890
25.421,142729,375,117888
25.426,142729,591,117870
25.431,142715,371,117878
25.436,142727,593,117875
25.441,142718,370,117871
25.446,142729,597,117858
25.451,142730,370,117864
25.456,142716,597,117865
25.461,142707,366,117854
25.466,142715,600,117848
25.471,142722,364,117851
25.476,142720,603,117848
25.481,142700,363,117846
25.486,142700,607,117843
25.491,142694,362,117851
25.496,142702,610,117849
25.501,142687,361,117845
25.506,142689,614,117842
25.511,142705,360,117859
25.516,142689,616,117848
25.521,142687,359,117858
25.526,142696,621,117859
25.531,142677,360,117861
25.536,142684,623,117852
25.541,142681,360,117854
25.545,142689,634,117848
25.550,142684,360,117855
25.555,142701,625,117850
25.560,142685,360,117857
25.565,142697,629,117848
25.570,142701,360,117854
25.575,142707,631,117855
25.580,142685,360,117874
25.585,142698,633,117866
25.590,142705,360,117872
25.595,142705,634,117860
25.600,142697,357,117866
25.605,142703,634,117865
25.610,142695,362,117879
25.615,142699,635,117862
25.620,142698,362,117870
25.625,142699,637,117854
25.630,142694,362,117858
25.635,142693,636,117853
25.640,142700,364,117856
25.645,142699,630,117850
25.650,142691,361,117858
25.655,142682,633,117845
25.660,142683,366,117849
25.665,142686,630,117840
25.670,142695,366,117842
25.675,142697,627,117851
25.679,142683,368,117854
25.684,142696,625,117842
25.689,142700,370,117848
25.694,142685,621,117835
25.699,142674,374,117834
25.704,142687,618,117829
25.709,142685,376,117831
25.714,142699,614,117832
25.719,142681,379,117834
25.724,142694,610,117834
25.729,142683,381,117830
25.734,142683,605,117827
25.739,142674,384,117844
25.744,142682,601,117828
25.749,142682,390,117838
25.754,142678,596,117831
25.759,142693,394,117835
25.764,142699,589,117830
25.769,142686,397,117835
25.774,142688,587,117823
25.779,142673,400,117841
25.784,142707,582,117833
25.789,142700,406,117842
25.794,142695,575,117826
25.799,142687,413,117840
25.804,142695,572,117829
25.809,142697,416,117831
25.814,142698,565,117820
25.818,142697,420,117835
25.823,142703,560,117827
25.828,142700,424,117833
25.833,142707,552,117839
25.838,142720,430,117840
25.843,142704,549,117833
25.848,142711,432,117839
25.853,142703,545,117828
25.858,142708,438,117819
25.863,142706,539,117823
25.868,142711,447,117827
25.873,142709,533,117838
25.878,142716,452,117846
25.883,142720,525,117842
25.888,142732,457,117803
25.893,142716,523,117837
25.898,142736,462,117840
25.903,142713,517,117834
25.908,142733,468,117845
25.913,142728,507,117833
25.918,142732,472,117845
25.923,142714,503,117832
25.928,142748,476,117844
25.933,142732,494,117848
25.938,142765,482,117856
25.943,142743,491,117853
25.948,142745,487,117845
25.952,142738,481,117849
25.957,142743,491,117853
25.962,142744,475,117851
25.967,142758,496,117859
25.972,142761,470,117847
25.977,142736,505,117854
25.982,142759,464,117855
25.987,142781,507,117842
25.992,142754,459,117860
25.997,142763,514,117855
26.002,142755,455,117853
26.007,142770,517,117864
26.012,142769,449,117868
26.017,142766,527,117863
26.022,142771,444,117856
26.027,142786,532,117869
26.032,142767,437,117848
26.037,142765,537,117856
26.042,142774,434,117858
26.047,142781,540,117849
26.052,142760,431,117846
26.057,142775,545,117851
26.062,142765,427,117853
26.067,142754,551,117852
26.072,142747,419,117843
26.077,142743,554,117836
26.082,142730,421,117837
26.087,142728,557,117833
26.091,142714,407,117830
26.096,142712,563,117830
26.101,142704,406,117826
26.106,142707,565,117826
26.111,142705,396,117826
26.116,142688,575,117813
26.121,142693,395,117819
26.126,142698,576,117818
26.131,142700,390,117820
26.136,142692,579,117811
26.141,142689,388,117809
26.146,142691,584,117808
26.151,142691,382,117804
26.156,142688,585,117806
26.161,142682,379,117809
26.166,142694,590,117797
26.171,142687,381,117809
26.176,142681,595,117795
26.181,142689,373,117767
26.186,142690,596,117800
26.191,142679,376,117799
26.196,142675,599,117800
26.201,142673,374,117795
26.206,142691,604,117802
26.211,142689,372,117806
26.216,142689,607,117804
26.221,142685,369,117818
26.225,142674,611,117798
26.230,142674,369,117806
26.235,142678,611,117805
26.240,142675,368,117812
26.245,142670,614,117815
26.250,142687,367,117812
26.255,142689,618,117831
26.260,142691,367,117819
26.265,142697,620,117822
26.270,142694,363,117817
26.275,142692,621,117815
26.280,142709,361,117817
26.285,142695,622,117812
26.290,142693,361,117826
26.295,142695,626,117813
26.300,142702,362,117817
26.305,142702,628,117824
26.310,142713,360,117815
26.315,142695,628,117815
26.320,142709,359,117805
26.325,142706,629,117830
26.330,142703,360,117815
26.335,142706,631,117806
26.340,142690,359,117816
26.345,142707,632,117812
26.350,142694,358,117814
26.355,142689,633,117814
26.360,142698,357,117811
26.364,142698,635,117808
26.369,142683,358,117809
26.374,142673,635,117803
26.379,142690,359,117813
26.384,142698,634,117797
26.389,142703,358,117817
26.394,142689,633,117799
26.399,142695,359,117815
26.404,142703,633,117810
26.409,142697,361,117810
26.414,142696,632,117806
26.419,142700,367,117808
26.424,142700,628,117788
26.429,142705,367,117810
26.434,142705,628,117806
26.439,142693,370,117815
26.444,142703,624,117798
26.449,142695,371,117816
26.454,142709,622,117816
26.459,142698,372,117809
26.464,142709,619,117801
26.469,142722,375,117811
26.474,142766,615,117814
26.479,142709,379,117821
26.484,142708,610,117814
26.489,142704,383,117824
26.494,142715,607,117816
26.499,142692,386,117816
26.503,142716,602,117810
26.508,142714,389,117822
26.513,142714,598,117817
26.518,142721,393,117821
26.523,142731,595,117822
26.528,142727,398,117824
26.533,142730,593,117827
26.538,142722,403,117827
26.543,142721,586,117825
26.548,142716,407,117823
26.553,142741,582,117825
26.558,142734,410,117822
26.563,142748,577,117817
26.568,142732,415,117829
26.573,142742,572,117833
26.578,142747,421,117834
26.583,142744,565,117837
26.588,142742,426,117838
26.593,142759,560,117832
26.598,142748,435,117837
26.603,142748,553,117850
26.608,142749,439,117850
26.613,142758,547,117837
26.618,142762,438,117847
26.623,142760,542,117852
26.628,142782,450,117853
26.633,142768,536,117858
26.637,142781,456,117860
26.642,142777,530,117863
26.647,142787,460,117861
26.652,142775,524,117860
26.657,142795,470,117874
26.662,142790,518,117871
26.667,142798,477,117882
26.672,142804,513,117884
26.677,142799,479,117867
26.682,142802,507,117887
26.687,142808,485,117878
26.692,142804,505,117874
26.697,142800,492,117892
26.702,142821,498,117877
26.707,142802,498,117889
26.712,142811,492,117890
26.717,142813,510,117888
26.722,142822,489,117886
26.727,142821,511,117881
26.732,142800,483,117884
26.737,142791,517,117872
26.742,142787,479,117876
26.747,142776,523,117866
26.752,142773,470,117869
26.757,142743,533,117871
26.762,142740,465,117868
26.767,142735,535,117857
26.772,142728,463,117870
26.776,142705,543,117863
26.781,142719,458,117861
26.786,142686,548,117852
26.791,142678,456,117845
26.796,142676,557,117852
26.801,142661,449,117840
26.806,142665,563,117837
26.811,142646,445,117842
26.816,142649,567,117842
26.821,142653,443,117835
26.826,142645,573,117842
26.831,142631,438,117839
26.836,142637,578,117833
26.841,142635,434,117842
26.846,142642,585,117830
26.851,142629,430,117837
26.856,142636,590,117839
26.861,142616,425,117848
26.866,142624,597,117835
26.871,142632,421,117843
26.876,142619,601,117833
26.881,142620,417,117831
26.886,142611,610,117831
26.891,142618,412,117838
26.896,142607,612,117827
26.901,142609,410,117829
26.906,142616,622,117834
26.910,142609,405,117835
26.915,142606,622,117831
26.920,142612,405,117830
26.925,142623,631,117834
26.930,142634,401,117839
26.935,142621,635,117832
26.940,142630,398,117831
26.945,142634,638,117856
26.950,142623,395,117858
26.955,142654,642,117861
26.960,142649,394,117860
26.965,142660,645,117866
26.970,142668,394,117867
26.975,142669,652,117867
26.980,142689,391,117861
26.985,142683,654,117867
26.990,142683,389,117863
26.995,142685,658,117867
27.000,142691,388,117871
27.005,142695,660,117867
27.010,142724,385,117868
27.015,142692,666,117858
27.020,142708,385,117873
27.025,142694,666,117856
27.030,142682,384,117867
27.035,142684,668,117864
27.040,142695,382,117874
27.045,142683,672,117869
27.049,142701,381,117885
27.054,142702,673,117877
27.059,142695,380,117880
27.064,142702,674,117885
27.069,142692,382,117900
27.074,142712,677,117887
27.079,142716,381,117898
27.084,142711,677,117897
27.089,142705,379,117893
27.094,142715,676,117895
27.099,142723,380,117907
27.104,142728,679,117896
27.109,142741,379,117904
27.114,142741,678,117900
27.119,142715,379,117902
27.124,142716,679,117889
27.129,142728,378,117889
27.134,142727,679,117880
27.139,142736,378,117877
27.144,142745,677,117880
27.149,142739,382,117880
27.154,142741,672,117866
27.159,142729,382,117897
27.164,142734,676,117866
27.169,142748,385,117883
27.174,142735,672,117871
27.179,142742,386,117875
27.183,142750,669,117882
27.188,142748,388,117890
27.193,142754,666,117886
27.198,142758,391,117897
27.203,142764,662,117893
27.208,142753,393,117896
27.213,142781,659,117900
27.218,142778,397,117913
27.223,142780,654,117893
27.228,142792,399,117921
27.233,142802,649,117916
27.238,142803,408,117942
27.243,142802,644,117941
27.248,142812,409,117956
27.253,142830,629,117927
27.258,142834,411,117998
27.263,142833,634,118000
27.268,142845,416,118005
27.273,142867,627,118017
27.278,142869,420,118029
27.283,142874,622,118028
27.288,142882,429,118048
27.293,142895,614,118054
27.298,142915,432,118061
27.303,142919,610,118077
27.308,142915,439,118100
27.313,142924,605,118101
27.318,142951,444,118125
27.322,142949,600,118150
27.327,142977,449,118163
27.332,142986,592,118179
27.337,142983,455,118219
27.342,142987,587,118241
27.347,143011,461,118252
27.352,143005,582,118257
27.357,143007,467,118287
27.362,143026,577,118308
27.367,143025,475,118309
27.372,143047,573,118332
27.377,143044,481,118344
27.382,143044,566,118337
27.387,143052,492,118339
27.392,143073,561,118350
27.397,143057,496,118376
27.402,143053,571,118385
27.407,143071,500,118372
27.412,143064,549,118366
27.417,143071,505,118378
27.422,143079,543,118374
27.427,143059,510,118381
27.432,143070,532,118373
27.437,143078,513,118396
27.442,143064,521,118391
27.447,143062,520,118402
27.452,143067,515,118416
27.456,143071,525,118435
27.461,143082,503,118439
27.466,143091,524,118450
27.471,143100,489,118449
27.476,143107,525,118444
27.481,143113,480,118442
27.486,143124,531,118443
27.491,143118,468,118453
27.496,143146,532,118439
27.501,143134,460,118459
27.506,143131,534,118445
27.511,143129,452,118445
27.516,143124,536,118428
27.521,143119,445,118426
27.526,143104,539,118422
27.531,143105,437,118422
27.536,143106,544,118425
27.541,143093,430,118413
27.546,143097,543,118422
27.551,143094,423,118424
27.556,143084,547,118433
27.561,143075,417,118436
27.566,143082,552,118419
27.571,143078,411,118423
27.576,143071,554,118420
27.581,143075,406,118405
27.586,143062,563,118413
27.591,143047,400,118400
27.595,143049,565,118398
27.600,143045,396,118404
27.605,143049,568,118406
27.610,143047,391,118402
27.615,143041,571,118407
27.620,143032,384,118412
27.625,143038,575,118412
27.630,143044,381,118431
27.635,143043,579,118431
27.640,143039,382,118417
27.645,143038,586,118437
27.650,143058,376,118458
27.655,143055,590,118473
27.660,143060,376,118479
27.665,143062,597,118478
27.670,143075,374,118504
27.675,143072,599,118495
27.680,143076,372,118502
27.685,143083,605,118506
27.690,143086,372,118495
27.695,143085,608,118481
27.700,143080,369,118489
27.705,143074,609,118488
27.710,143091,370,118485
27.715,143082,616,118503
27.720,143090,368,118495
27.725,143085,619,118498
27.729,143081,365,118517
27.734,143078,625,118515
27.739,143094,365,118530
27.744,143110,624,118537
27.749,143106,366,118543
27.754,143112,628,118553
27.759,143113,365,118560
27.764,143114,630,118572
27.769,143106,361,118577
27.774,143127,632,118573
27.779,143121,359,118577
27.784,143127,634,118555
27.789,143109,358,118578
27.794,143119,636,118568
27.799,143129,361,118564
27.804,143146,638,118565
27.809,143131,364,118570
27.814,143127,643,118560
27.819,143144,363,118555
27.824,143138,645,118562
27.829,143130,362,118583
27.834,143131,644,118572
27.839,143144,363,118578
27.844,143145,648,118583
27.849,143126,364,118580
27.854,143134,648,118588
27.859,143122,363,118577
27.864,143136,647,118573
27.868,143143,364,118576
27.873,143125,648,118554
27.878,143128,365,118551
27.883,143115,649,118553
27.888,143116,369,118550
27.893,143120,647,118541
27.898,143111,370,118539
27.903,143135,645,118538
27.908,143136,377,118536
27.913,143120,644,118541
27.918,143130,377,118542
27.923,143132,643,118538
27.928,143121,382,118547
27.933,143135,640,118526
27.938,143140,372,118546
27.943,143136,639,118531
27.948,143133,388,118538
27.953,143129,638,118526
27.958,143137,397,118540
27.963,143125,635,118531
27.968,143138,399,118538
27.973,143138,628,118545
27.978,143139,403,118559
27.983,143145,624,118570
27.988,143143,409,118573
27.993,143137,623,118568
27.998,143149,414,118586
28.002,143149,617,118598
28.007,143151,418,118612
28.012,143153,613,118614
28.017,143167,425,118616
28.022,143154,605,118621
28.027,143166,434,118636
28.032,143165,604,118639
28.037,143164,436,118644
28.042,143157,598,118629
28.047,143157,446,118638
28.052,143157,594,118624
28.057,143161,453,118622
28.062,143148,588,118636
28.067,143144,459,118608
28.072,143141,586,118612
28.077,143124,465,118604
28.082,143100,577,118591
28.087,143120,471,118582
28.092,143104,573,118561
28.097,143098,479,118571
28.102,143102,566,118556
28.107,143087,490,118560
28.112,143096,558,118554
28.117,143077,495,118555
28.122,143070,552,118556
28.127,143073,503,118562
28.132,143067,546,118560
28.137,143067,508,118562
28.141,143054,539,118546
28.146,143052,513,118544
28.151,143029,535,118530
28.156,143028,518,118526
28.161,143008,527,118520
28.166,143003,524,118520
28.171,142997,518,118502
28.176,142968,530,118484
28.181,142981,513,118470
28.186,142967,535,118474
28.191,142962,505,118456
28.196,142951,543,118451
28.201,142939,500,118453
28.206,142947,549,118441
28.211,142944,490,118445
28.216,142936,556,118436
28.221,142936,482,118433
28.226,142935,561,118413
28.231,142920,481,118433
28.236,142933,563,118422
28.241,142938,472,118427
28.246,142927,569,118420
28.251,142924,469,118406
28.256,142928,575,118409
28.261,142908,461,118396
28.266,142907,583,118395
28.271,142881,457,118384
28.275,142895,588,118385
28.280,142896,454,118374
28.285,142890,592,118374
28.290,142897,447,118368
28.295,142880,595,118359
28.300,142886,443,118363
28.305,142883,600,118357
28.310,142869,436,118364
28.315,142878,609,118354
28.320,142879,432,118349
28.325,142861,610,118357
28.330,142873,449,118336
28.335,142872,614,118331
28.340,142871,427,118331
28.345,142882,618,118323
28.350,142880,421,118324
28.355,142871,623,118322
28.360,142881,418,118325
28.365,142885,633,118318
28.370,142875,412,118315
28.375,142890,632,118306
28.380,142878,409,118315
28.385,142882,639,118310
28.390,142890,408,118315
28.395,142886,644,118316
28.400,142883,405,118305
28.405,142871,652,118300
28.410,142874,402,118291
28.414,142885,655,118284
28.419,142882,403,118292
28.424,142857,660,118288
28.429,142872,399,118292
28.434,142867,664,118287
28.439,142873,399,118286
28.444,142858,669,118277
28.449,142863,396,118263
28.454,142871,672,118267
28.459,142860,398,118272
28.464,142852,679,118263
28.469,142859,395,118267
28.474,142850,685,118263
28.479,142853,396,118278
28.484,142851,687,118263
28.489,142856,394,118268
28.494,142854,690,118257
28.499,142857,391,118269
28.504,142855,692,118260
28.509,142851,391,118247
28.514,142854,695,118252
28.519,142861,390,118253
28.524,142844,695,118252
28.529,142844,389,118252
28.534,142844,700,118243
28.539,142831,392,118241
28.544,142854,705,118238
28.548,142845,393,118243
28.553,142856,710,118229
28.558,142835,392,118231
28.563,142847,708,118227
28.568,142845,392,118240
28.573,142856,710,118230
28.578,142845,392,118250
28.583,142855,714,118243
28.588,142861,392,118252
28.593,142856,713,118234
28.598,142845,393,118243
28.603,142857,715,118230
28.608,142848,394,118245
28.613,142860,717,118242
28.618,142869,374,118250
28.623,142869,716,118237
28.628,142867,398,118252
28.633,142869,716,118235
28.638,142860,400,118237
28.643,142874,717,118248
28.648,142872,400,118260
28.653,142875,714,118243
28.658,142888,407,118257
28.663,142887,709,118254
28.668,142905,407,118269
28.673,142907,709,118262
28.678,142911,410,118267
28.683,142908,703,118264
28.687,142925,412,118270
28.692,142937,698,118273
28.697,142949,417,118279
28.702,142963,695,118273
28.707,142951,420,118281
28.712,142973,689,118286
28.717,142981,421,118281
28.722,142986,688,118290
28.727,142978,430,118312
28.732,143003,680,118292
28.737,143005,435,118309
28.742,142997,676,118313
28.747,143027,439,118319
28.752,143010,668,118322
28.757,143025,445,118309
28.762,143024,674,118321
28.767,143019,452,118302
28.772,143034,663,118312
28.777,143038,458,118313
28.782,143040,656,118316
28.787,143027,462,118312
28.792,143029,649,118305
28.797,143016,468,118305
28.802,143013,638,118306
28.807,143010,478,118311
28.812,143012,634,118303
