df_hash,22ZHK4.TDZQKW
device,HZ2X61
project_hash,29R7
project_name,istanbul_aydin_university
person_hash,29R7.V4ET
person_label,V31
date_time_start,2025-08-06_11-37-14.169000_+03
date_time_start_unix,1754462234.169
date_time_end,2025-08-06_11-46-34.046000_+03
length_difference_noticed,no

time,ppg_med
5.155,405
5.180,465
5.205,561
5.230,613
5.255,593
5.280,572
5.305,627
5.330,729
5.355,768
5.380,705
5.405,639
5.430,674
5.455,768
5.480,774
5.505,640
5.530,497
5.555,490
5.580,560
5.605,509
5.630,270
5.655,20
5.680,-51
5.705,-18
5.730,-145
5.755,-517
5.780,-900
5.805,-1046
5.830,-1051
5.855,-1258
5.880,-1777
5.905,-2302
5.930,-2510
5.955,-2530
5.980,-2797
6.005,-3450
6.030,-4097
6.055,-4328
6.080,-4303
6.105,-4577
6.130,-5322
6.155,-6041
6.180,-6216
6.205,-6052
6.230,-6242
6.255,-7004
6.280,-7713
6.305,-7720
6.330,-7283
6.355,-7270
6.380,-7950
6.405,-8544
6.430,-8245
6.455,-7376
6.480,-7018
6.505,-7510
6.530,-7882
6.555,-7128
6.580,-5650
6.605,-4804
6.630,-5020
6.655,-5084
6.680,-3731
6.705,-1470
6.730,-12
6.755,89
6.780,367
6.805,2434
6.830,5650
6.855,7809
6.880,8179
6.905,8738
6.930,11605
6.955,15961
6.980,18870
7.005,19307
7.030,19925
7.055,23669
7.080,29465
7.105,32767
7.130,32767
7.155,32767
7.180,32767
7.205,32767
7.230,32767
7.255,32767
7.280,32767
7.305,32767
7.330,32767
7.355,32767
7.380,32767
7.405,10765
7.430,-32768
7.455,-32768
7.480,-32768
7.505,-32768
7.530,-32768
7.555,-32768
7.580,-32768
7.605,-32768
7.630,-32768
7.655,-32768
7.680,-32657
7.705,-32768
7.730,-31219
7.755,-25780
7.780,-20823
7.805,-19149
7.830,-19101
7.855,-17294
7.880,-13194
7.905,-9458
7.930,-8119
7.955,-8018
7.980,-6666
8.005,-3630
8.030,-881
8.055,33
8.080,-20
8.105,860
8.130,3015
8.155,4913
8.180,5344
8.205,4991
8.230,5362
8.255,6737
8.280,7908
8.305,7916
8.330,7306
8.355,7285
8.380,8079
8.405,8722
8.430,8439
8.455,7663
8.480,7365
8.505,7730
8.530,7986
8.555,7512
8.580,6657
8.605,6203
8.630,6299
8.655,6329
8.680,5791
8.705,4961
8.730,4462
8.755,4422
8.780,4356
8.805,3873
8.830,3182
8.855,2765
8.880,2709
8.905,2628
8.930,2217
8.955,1648
8.980,1303
9.005,1251
9.030,1190
9.055,885
9.080,470
9.105,237
9.130,236
9.155,230
9.180,33
9.205,-250
9.230,-395
9.255,-360
9.280,-325
9.305,-429
9.330,-599
9.355,-671
9.380,-614
9.405,-555
9.430,-595
9.455,-679
9.480,-687
9.505,-595
9.530,-496
9.555,-465
9.580,-465
9.605,-421
9.630,-326
9.655,-250
9.680,-235
9.705,-245
9.730,-211
9.755,-131
9.780,-60
9.805,-38
9.830,-34
9.855,3
9.880,81
9.905,151
9.930,174
9.955,171
9.980,173
10.005,165
10.030,158
10.055,155
10.080,154
10.105,152
10.130,148
10.155,143
10.180,137
10.205,131
10.230,121
10.255,106
10.280,93
10.305,90
10.330,105
10.355,133
10.380,159
10.405,176
10.430,184
10.455,188
10.480,193
10.505,195
10.530,191
10.555,180
10.580,171
10.605,169
10.630,174
10.655,181
10.680,185
10.705,185
10.730,186
10.755,188
10.780,187
10.805,181
10.830,171
10.855,161
10.880,156
10.905,153
10.930,146
10.955,132
10.980,114
11.005,103
11.030,108
11.055,129
11.080,158
11.105,183
11.130,198
11.155,203
11.180,205
11.205,204
11.230,201
11.255,194
11.280,185
11.305,179
11.330,178
11.355,180
11.380,182
11.405,179
11.430,174
11.455,168
11.480,163
11.505,155
11.530,145
11.555,134
11.580,126
11.605,119
11.630,108
11.655,89
11.680,63
11.705,43
11.730,39
11.755,56
11.780,86
11.805,118
11.830,142
11.855,159
11.880,171
11.905,181
11.930,188
11.955,190
11.980,187
12.005,184
12.030,187
12.055,193
12.080,199
12.105,200
12.130,195
12.155,188
12.180,183
12.205,180
12.230,176
12.255,169
12.280,159
12.305,150
12.330,140
12.355,127
12.380,110
12.405,95
12.430,88
12.455,98
12.480,120
12.505,148
12.530,171
12.555,185
12.580,192
12.605,196
12.630,199
12.655,197
12.680,191
12.705,181
12.730,174
12.755,171
12.780,172
12.805,172
12.830,169
12.855,163
12.880,156
12.905,152
12.930,147
12.955,141
12.980,132
13.005,123
13.030,115
13.055,106
13.080,94
13.105,80
13.130,69
13.155,69
13.180,84
13.205,111
13.230,141
13.255,168
13.280,191
13.305,207
13.330,217
13.355,222
13.380,220
13.405,215
13.430,211
13.455,211
13.480,214
13.505,217
13.530,217
13.555,211
13.580,201
13.605,191
13.630,183
13.655,176
13.680,168
13.705,155
13.730,140
13.755,125
13.780,113
13.805,100
13.830,83
13.855,65
13.880,56
13.905,64
13.930,91
13.955,123
13.980,149
14.005,164
14.030,172
14.055,180
14.080,190
14.105,195
14.130,192
14.155,184
14.180,180
14.205,183
14.230,190
14.255,195
14.280,196
14.305,191
14.330,185
14.355,178
14.380,169
14.405,158
14.430,146
14.455,134
14.480,126
14.505,120
14.530,114
14.555,104
14.580,91
14.605,78
14.630,75
14.655,88
14.680,113
14.705,142
14.730,163
14.755,175
14.780,180
14.805,185
14.830,191
14.855,194
14.880,192
14.905,189
14.930,189
14.955,194
14.980,201
15.005,204
15.030,201
15.055,195
15.080,189
15.105,186
15.130,182
15.155,173
15.180,159
15.205,143
15.230,130
15.255,122
15.280,115
15.305,109
15.330,102
15.355,100
15.380,108
15.405,128
15.430,152
15.455,172
15.480,182
15.505,184
15.530,183
15.555,179
15.580,174
15.605,168
15.630,162
15.655,161
15.680,165
15.705,168
15.730,169
15.755,166
15.780,161
15.805,157
15.830,153
15.855,148
15.880,141
15.905,136
15.930,133
15.955,127
15.980,117
16.005,102
16.030,91
16.055,91
16.080,105
16.105,127
16.130,150
16.155,168
16.180,181
16.205,191
16.230,196
16.255,198
16.280,195
16.305,191
16.330,187
16.355,185
16.380,184
16.405,186
16.430,187
16.455,186
16.480,182
16.505,175
16.530,168
16.555,163
16.580,157
16.605,148
16.630,137
16.655,126
16.680,116
16.705,107
16.730,95
16.755,82
16.780,76
16.805,86
16.830,110
16.855,139
16.880,161
16.905,171
16.930,177
16.955,184
16.980,192
17.005,196
17.030,191
17.055,183
17.080,180
17.105,184
17.130,190
17.155,194
17.180,192
17.205,188
17.230,185
17.255,181
17.280,176
17.305,168
17.330,159
17.355,151
17.380,142
17.405,133
17.430,122
17.455,112
17.480,102
17.505,91
17.530,82
17.555,81
17.580,94
17.605,119
17.630,149
17.655,171
17.680,183
17.705,187
17.730,190
17.755,195
17.780,197
17.805,196
17.830,191
17.855,188
17.880,190
17.905,195
17.930,197
17.955,195
17.980,191
18.005,186
18.030,180
18.055,173
18.080,165
18.105,159
18.130,154
18.155,146
18.180,135
18.205,122
18.230,113
18.255,108
18.280,103
18.305,92
18.330,77
18.355,69
18.380,78
18.405,104
18.430,136
18.455,163
18.480,178
18.505,188
18.530,196
18.555,204
18.580,206
18.605,202
18.630,196
18.655,194
18.680,197
18.705,201
18.730,201
18.755,196
18.780,191
18.805,187
18.830,183
18.855,177
18.880,169
18.905,161
18.930,154
18.955,146
18.980,136
19.005,126
19.030,116
19.055,105
19.080,91
19.105,75
19.130,66
19.155,72
19.180,94
19.205,121
19.230,143
19.255,155
19.280,164
19.305,174
19.330,184
19.355,189
19.380,188
19.405,185
19.430,186
19.455,190
19.480,193
19.505,192
19.530,187
19.555,185
19.580,184
19.605,182
19.630,176
19.655,168
19.680,163
19.705,160
19.730,155
19.755,145
19.780,131
19.805,120
19.830,110
19.855,100
19.880,88
19.905,79
19.930,83
19.955,103
19.980,134
20.005,163
20.030,182
20.055,193
20.080,200
20.105,205
20.130,207
20.155,204
20.180,200
20.205,196
20.230,197
20.255,199
20.280,202
20.305,202
20.330,199
20.355,193
20.380,181
20.405,167
20.430,156
20.455,149
20.480,145
20.505,142
20.530,135
20.555,125
20.580,113
20.605,99
20.630,85
20.655,75
20.680,77
20.705,95
20.730,124
20.755,153
20.780,173
20.805,184
20.830,190
20.855,195
20.880,198
20.905,195
20.930,186
20.955,177
20.980,174
21.005,176
21.030,176
21.055,170
21.080,159
21.105,150
21.130,148
21.155,151
21.180,156
21.205,156
21.230,153
21.255,146
21.280,137
21.305,123
21.330,105
21.355,92
21.380,90
21.405,104
21.430,130
21.455,158
21.480,180
21.505,195
21.530,204
21.555,210
21.580,211
21.605,207
21.630,200
21.655,194
21.680,192
21.705,195
21.730,200
21.755,203
21.780,202
21.805,197
21.830,190
21.855,183
21.880,175
21.905,168
21.930,160
21.955,151
21.980,139
22.005,124
22.030,106
22.055,91
22.080,82
22.105,84
22.130,100
22.155,125
22.180,151
22.205,171
22.230,182
22.255,186
22.280,188
22.305,187
22.330,182
22.355,171
22.380,159
22.405,151
22.430,149
22.455,148
22.480,141
22.505,126
22.530,108
22.555,92
22.580,78
22.605,61
22.630,40
22.655,21
22.680,13
22.705,19
22.730,33
22.755,45
22.780,54
22.805,68
22.830,95
22.855,135
22.880,178
22.905,212
22.930,235
22.955,250
22.980,261
23.005,270
23.030,272
23.055,268
23.080,262
23.105,258
23.130,257
23.155,257
23.180,256
23.205,253
23.230,249
23.255,243
23.280,235
23.305,225
23.330,213
23.355,199
23.380,183
23.405,165
23.430,147
23.455,128
23.480,109
23.505,88
23.530,69
23.555,61
23.580,69
23.605,93
23.630,122
23.655,148
23.680,163
23.705,170
23.730,174
23.755,177
23.780,178
23.805,176
23.830,173
23.855,171
23.880,173
23.905,177
23.930,180
23.955,181
23.980,178
24.005,174
24.030,168
24.055,161
24.080,153
24.105,143
24.130,132
24.155,122
24.180,113
24.205,105
24.230,96
24.255,84
24.280,72
24.305,68
24.330,77
24.355,99
24.380,126
24.405,151
24.430,169
24.455,180
24.480,187
24.505,191
24.530,194
24.555,195
24.580,195
24.605,195
24.630,194
24.655,194
24.680,193
24.705,191
24.730,187
24.755,180
24.780,171
24.805,162
24.830,153
24.855,146
24.880,139
24.905,132
24.930,126
24.955,119
24.980,107
25.005,91
25.030,77
25.055,74
25.080,88
25.105,115
25.130,144
25.155,164
25.180,174
25.205,177
25.230,178
25.255,178
25.280,174
25.305,169
25.330,166
25.355,169
25.380,177
25.405,186
25.430,191
25.455,193
25.480,191
25.505,187
25.530,180
25.555,172
25.580,165
25.605,160
25.630,156
25.655,150
25.680,142
25.705,132
25.730,120
25.755,106
25.780,93
25.805,87
25.830,97
25.855,121
25.880,152
25.905,178
25.930,193
25.955,200
25.980,203
26.005,203
26.030,201
26.055,195
26.080,188
26.105,183
26.130,184
26.155,187
26.180,190
26.205,190
26.230,184
26.255,173
26.280,160
26.305,148
26.330,140
26.355,135
26.380,131
26.405,126
26.430,119
26.455,113
26.480,108
26.505,101
26.530,93
26.555,89
26.580,96
26.605,116
26.630,143
26.655,168
26.680,185
26.705,194
26.730,199
26.755,199
26.780,196
26.805,189
26.830,181
26.855,175
26.880,171
26.905,169
26.930,167
26.955,169
26.980,174
27.005,179
27.030,180
27.055,176
27.080,169
27.105,160
27.130,151
27.155,140
27.180,130
27.205,121
27.230,113
27.255,104
27.280,94
27.305,85
27.330,87
27.355,102
27.380,130
27.405,158
27.430,179
27.455,191
27.480,196
27.505,198
27.530,198
27.555,195
27.580,189
27.605,185
27.630,185
27.655,189
27.680,192
27.705,194
27.730,192
27.755,187
27.780,179
27.805,170
27.830,161
27.855,153
27.880,146
27.905,140
27.930,132
27.955,121
27.980,108
28.005,95
28.030,87
28.055,86
28.080,96
28.105,114
28.130,133
28.155,151
28.180,164
28.205,173
28.230,180
28.255,182
28.280,180
28.305,175
28.330,172
28.355,174
28.380,180
28.405,185
28.430,186
28.455,183
28.480,179
28.505,175
28.530,170
28.555,162
28.580,151
28.605,141
28.630,132
28.655,124
28.680,112
28.705,97
28.730,86
28.755,87
28.780,103
28.805,129
28.830,152
28.855,164
28.880,167
28.905,167
28.930,168
28.955,168
28.980,162
29.005,151
29.030,144
29.055,146
29.080,155
29.105,159
29.130,155
29.155,146
29.180,139
29.205,139
29.230,139
29.255,134
29.280,123
29.305,113
29.330,106
29.355,99
29.380,84
29.405,67
29.430,64
29.455,90
29.480,142
29.505,199
29.530,242
29.555,269
29.580,288
29.605,305
29.630,317
29.655,312
29.680,293
29.705,272
29.730,265
29.755,271
29.780,279
29.805,278
29.830,272
29.855,270
29.880,275
29.905,278
29.930,270
29.955,249
29.980,220
30.005,188
30.030,150
30.055,108
30.080,70
30.105,48
30.130,43
30.155,45
30.180,38
30.205,21
30.230,11
30.255,23
30.280,56
30.305,94
30.330,118
30.355,122
30.380,114
30.405,105
30.430,99
30.455,92
30.480,82
30.505,70
30.530,62
30.555,59
30.580,61
30.605,66
30.630,71
30.655,72
30.680,65
30.705,53
30.730,41
30.755,36
30.780,40
30.805,55
30.830,80
30.855,113
30.880,151
30.905,189
30.930,218
30.955,238
30.980,252
31.005,266
31.030,278
31.055,284
31.080,280
31.105,272
31.130,266
31.155,269
31.180,276
31.205,282
31.230,283
31.255,282
31.280,280
31.305,277
31.330,271
31.355,259
31.380,242
31.405,214
31.430,176
31.455,133
31.480,97
31.505,80
31.530,85
31.555,102
31.580,118
31.605,127
31.630,133
31.655,140
31.680,146
31.705,145
31.730,137
31.755,129
31.780,129
31.805,137
31.830,144
31.855,144
31.880,139
31.905,135
31.930,135
31.955,134
31.980,128
32.005,118
32.030,108
32.055,101
32.080,91
32.105,78
32.130,68
32.155,73
32.180,97
32.205,130
32.230,157
32.255,173
32.280,180
32.305,186
32.330,193
32.355,197
32.380,196
32.405,192
32.430,191
32.455,195
32.480,199
32.505,200
32.530,198
32.555,194
32.580,190
32.605,183
32.630,171
32.655,157
32.680,144
32.705,133
32.730,123
32.755,108
32.780,91
32.805,80
32.830,83
32.855,102
32.880,128
32.905,155
32.930,175
32.955,189
32.980,197
33.005,201
33.030,201
33.055,199
33.080,197
33.105,196
33.130,197
33.155,197
33.180,197
33.205,198
33.230,200
33.255,199
33.280,192
33.305,179
33.330,161
33.355,145
33.380,132
33.405,120
33.430,108
33.455,97
33.480,89
33.505,85
33.530,81
33.555,74
33.580,65
33.605,63
33.630,77
33.655,105
33.680,137
33.705,163
33.730,180
33.755,190
33.780,198
33.805,204
33.830,204
33.855,197
33.880,191
33.905,190
33.930,196
33.955,203
33.980,204
34.005,201
34.030,195
34.055,191
34.080,189
34.105,185
34.130,179
34.155,173
34.180,166
34.205,159
34.230,151
34.255,142
34.280,133
34.305,122
34.330,107
34.355,91
34.380,82
34.405,89
34.430,113
34.455,143
34.480,167
34.505,180
34.530,183
34.555,184
34.580,183
34.605,181
34.630,177
34.655,174
34.680,174
34.705,178
34.730,181
34.755,181
34.780,178
34.805,175
34.830,173
34.855,171
34.880,167
34.905,161
34.930,152
34.955,144
34.980,137
35.005,130
35.030,121
35.055,110
35.080,97
35.105,90
35.130,94
35.155,110
35.180,134
35.205,157
35.230,175
35.255,185
35.280,191
35.305,193
35.330,190
35.355,182
35.380,174
35.405,171
35.430,176
35.455,183
35.480,186
35.505,182
35.530,176
35.555,171
35.580,170
35.605,170
35.630,167
35.655,160
35.680,150
35.705,141
35.730,133
35.755,125
35.780,115
35.805,101
35.830,86
35.855,78
35.880,81
35.905,98
35.930,124
35.955,149
35.980,167
36.005,177
36.030,182
36.055,187
36.080,190
36.105,189
36.130,185
36.155,180
36.180,180
36.205,184
36.230,190
36.255,193
36.280,192
36.305,189
36.330,186
36.355,181
36.380,174
36.405,163
36.430,152
36.455,143
36.480,136
36.505,128
36.530,116
36.555,100
36.580,88
36.605,85
36.630,95
36.655,117
36.680,143
36.705,165
36.730,180
36.755,187
36.780,190
36.805,192
36.830,193
36.855,193
36.880,192
36.905,190
36.930,190
36.955,194
36.980,197
37.005,197
37.030,193
37.055,186
37.080,180
37.105,175
37.130,169
37.155,159
37.180,149
37.205,141
37.230,134
37.255,126
37.280,113
37.305,97
37.330,88
37.355,93
37.380,112
37.405,139
37.430,162
37.455,178
37.480,185
37.505,187
37.530,185
37.555,180
37.580,174
37.605,169
37.630,166
37.655,166
37.680,168
37.705,170
37.730,170
37.755,168
37.780,162
37.805,153
37.830,144
37.855,134
37.880,124
37.905,115
37.930,107
37.955,102
37.980,98
38.005,96
38.030,99
38.055,110
38.080,132
38.105,159
38.130,182
38.155,195
38.180,200
38.205,201
38.230,203
38.255,204
38.280,201
38.305,196
38.330,195
38.355,201
38.380,210
38.405,212
38.430,205
38.455,193
38.480,183
38.505,176
38.530,168
38.555,156
38.580,140
38.605,126
38.630,115
38.655,104
38.680,90
38.705,77
38.730,75
38.755,91
38.780,119
38.805,148
38.830,169
38.855,181
38.880,188
38.905,193
38.930,194
38.955,191
38.980,184
39.005,179
39.030,178
39.055,179
39.080,177
39.105,173
39.130,167
39.155,161
39.180,153
39.205,144
39.230,132
39.255,122
39.280,114
39.305,106
39.330,96
39.355,80
39.380,65
39.405,58
39.430,68
39.455,94
39.480,128
39.505,159
39.530,180
39.555,192
39.580,199
39.605,204
39.630,208
39.655,210
39.680,209
39.705,207
39.730,206
39.755,208
39.780,209
39.805,208
39.830,202
39.855,195
39.880,187
39.905,180
39.930,170
39.955,158
39.980,147
40.005,136
40.030,125
40.055,111
40.080,94
40.105,82
40.130,86
40.155,107
40.180,138
40.205,165
40.230,180
40.255,184
40.280,186
40.305,187
40.330,188
40.355,185
40.380,180
40.405,178
40.430,182
40.455,189
40.480,190
40.505,184
40.530,174
40.555,166
40.580,161
40.605,156
40.630,146
40.655,133
40.680,121
40.705,112
40.730,104
40.755,95
40.780,87
40.805,89
40.830,105
40.855,132
40.880,160
40.905,178
40.930,188
40.955,193
40.980,199
41.005,202
41.030,198
41.055,187
41.080,177
41.105,174
41.130,179
41.155,182
41.180,177
41.205,166
41.230,154
41.255,148
41.280,147
41.305,144
41.330,136
41.355,125
41.380,117
41.405,111
41.430,105
41.455,95
41.480,87
41.505,89
41.530,106
41.555,132
41.580,157
41.605,174
41.630,182
41.655,188
41.680,194
41.705,198
41.730,197
41.755,192
41.780,186
41.805,183
41.830,185
41.855,187
41.880,187
41.905,183
41.930,176
41.955,170
41.980,165
42.005,160
42.030,153
42.055,144
42.080,135
42.105,126
42.130,115
42.155,102
42.180,88
42.205,78
42.230,79
42.255,96
42.280,123
42.305,150
42.330,169
42.355,181
42.380,189
42.405,195
42.430,199
42.455,199
42.480,195
42.505,192
42.530,193
42.555,195
42.580,195
42.605,193
42.630,190
42.655,187
42.680,182
42.705,172
42.730,160
42.755,150
42.780,144
42.805,140
42.830,135
42.855,126
42.880,114
42.905,101
42.930,88
42.955,75
42.980,66
43.005,68
43.030,85
43.055,112
43.080,140
43.105,161
43.130,174
43.155,183
43.180,190
43.205,194
43.230,193
43.255,190
43.280,190
43.305,192
43.330,194
43.355,193
43.380,190
43.405,188
43.430,189
43.455,189
43.480,182
43.505,172
43.530,162
43.555,156
43.580,152
43.605,147
43.630,139
43.655,127
43.680,117
43.705,107
43.730,100
43.755,98
43.780,105
43.805,124
43.830,150
43.855,174
43.880,190
43.905,197
43.930,199
43.955,197
43.980,193
44.005,185
44.030,178
44.055,176
44.080,180
44.105,185
44.130,187
44.155,182
44.180,175
44.205,170
44.230,167
44.255,165
44.280,158
44.305,149
44.330,141
44.355,136
44.380,131
44.405,122
44.430,108
44.455,96
44.480,93
44.505,105
44.530,129
44.555,156
44.580,178
44.605,193
44.630,200
44.655,201
44.680,198
44.705,193
44.730,186
44.755,181
44.780,177
44.805,174
44.830,173
44.855,173
44.880,174
44.905,172
44.930,167
44.955,160
44.980,153
45.005,147
45.030,142
45.055,135
45.080,124
45.105,112
45.130,100
45.155,86
45.180,71
45.205,59
45.230,58
45.255,72
45.280,97
45.305,122
45.330,139
45.355,147
45.380,151
45.405,152
45.430,148
45.455,139
45.480,127
45.505,120
45.530,118
45.555,118
45.580,113
45.605,104
45.630,104
45.655,128
45.680,179
45.705,238
45.730,283
45.755,298
45.780,286
45.805,263
45.830,242
45.855,229
45.880,215
45.905,198
45.930,180
45.955,169
45.980,173
46.005,190
46.030,208
46.055,217
46.080,213
46.105,201
46.130,186
46.155,173
46.180,163
46.205,155
46.230,149
46.255,147
46.280,149
46.305,152
46.330,154
46.355,152
46.380,147
46.405,139
46.430,130
46.455,122
46.480,116
46.505,111
46.530,105
46.555,97
46.580,89
46.605,81
46.630,72
46.655,63
46.680,58
46.705,61
46.730,77
46.755,104
46.780,135
46.805,161
46.830,179
46.855,188
46.880,193
46.905,195
46.930,195
46.955,195
46.980,196
47.005,200
47.030,205
47.055,209
47.080,210
47.105,208
47.130,206
47.155,202
47.180,197
47.205,191
47.230,184
47.255,177
47.280,169
47.305,161
47.330,153
47.355,145
47.380,134
47.405,121
47.430,110
47.455,109
47.480,121
47.505,145
47.530,172
47.555,192
47.580,202
47.605,204
47.630,199
47.655,190
47.680,178
47.705,166
47.730,159
47.755,158
47.780,161
47.805,163
47.830,161
47.855,155
47.880,149
47.905,143
47.930,138
47.955,135
47.980,132
48.005,126
48.030,117
48.055,107
48.080,99
48.105,93
48.130,87
48.155,79
48.180,69
48.205,68
48.230,81
48.255,109
48.280,141
48.305,166
48.330,181
48.355,189
48.380,197
48.405,203
48.430,205
48.455,202
48.480,198
48.505,198
48.530,202
48.555,207
48.580,210
48.605,209
48.630,205
48.655,198
48.680,190
48.705,183
48.730,178
48.755,173
48.780,165
48.805,152
48.830,138
48.855,126
48.880,115
48.905,102
48.930,86
48.955,74
48.980,76
49.005,96
49.030,126
49.055,154
49.080,171
49.105,180
49.130,185
49.155,190
49.180,191
49.205,187
49.230,180
49.255,176
49.280,178
49.305,184
49.330,190
49.355,193
49.380,192
49.405,186
49.430,178
49.455,170
49.480,163
49.505,157
49.530,149
49.555,139
49.580,128
49.605,118
49.630,109
49.655,97
49.680,82
49.705,70
49.730,71
49.755,91
49.780,123
49.805,155
49.830,176
49.855,187
49.880,191
49.905,195
49.930,196
49.955,193
49.980,186
50.005,182
50.030,183
50.055,188
50.080,193
50.105,194
50.130,191
50.155,186
50.180,180
50.205,172
50.230,162
50.255,153
50.280,147
50.305,142
50.330,135
50.355,122
50.380,105
50.405,89
50.430,84
50.455,93
50.480,115
50.505,144
50.530,169
50.555,185
50.580,192
50.605,192
50.630,189
50.655,188
50.680,185
50.705,181
50.730,177
50.755,174
50.780,174
50.805,177
50.830,178
50.855,176
50.880,171
50.905,164
50.930,156
50.955,148
50.980,140
51.005,133
51.030,125
51.055,117
51.080,105
51.105,88
51.130,72
51.155,66
51.180,75
51.205,99
51.230,130
51.255,159
51.280,179
51.305,190
51.330,196
51.355,199
51.380,200
51.405,199
51.430,195
51.455,191
51.480,190
51.505,193
51.530,196
51.555,198
51.580,195
51.605,188
51.630,181
51.655,175
51.680,169
51.705,160
51.730,149
51.755,137
51.780,127
51.805,119
51.830,108
51.855,94
51.880,80
51.905,77
51.930,92
51.955,120
51.980,151
52.005,172
52.030,183
52.055,188
52.080,192
52.105,194
52.130,190
52.155,180
52.180,171
52.205,171
52.230,178
52.255,187
52.280,190
52.305,185
52.330,176
52.355,169
52.380,167
52.405,164
52.430,157
52.455,148
52.480,139
52.505,133
52.530,125
52.555,113
52.580,99
52.605,91
52.630,97
52.655,119
52.680,151
52.705,179
52.730,197
52.755,205
52.780,206
52.805,205
52.830,200
52.855,193
52.880,185
52.905,183
52.930,188
52.955,194
52.980,194
53.005,186
53.030,173
53.055,162
53.080,155
53.105,149
53.130,140
53.155,129
53.180,118
53.205,109
53.230,101
53.255,89
53.280,73
53.305,58
53.330,53
53.355,64
53.380,89
53.405,117
53.430,138
53.455,149
53.480,154
53.505,157
53.530,159
53.555,157
53.580,148
53.605,138
53.630,132
53.655,134
53.680,139
53.705,141
53.730,136
53.755,129
53.780,125
53.805,127
53.830,131
53.855,133
53.880,131
53.905,126
53.930,118
53.955,108
53.980,95
54.005,82
54.030,75
54.055,81
54.080,103
54.105,140
54.130,183
54.155,224
54.180,255
54.205,279
54.230,299
54.255,319
54.280,337
54.305,346
54.330,347
54.355,344
54.380,342
54.405,339
54.430,329
54.455,307
54.480,282
54.505,261
54.530,247
54.555,235
54.580,219
54.605,200
54.630,182
54.655,163
54.680,133
54.705,86
54.730,34
54.755,0
54.780,-2
54.805,24
54.830,59
54.855,87
54.880,109
54.905,133
54.930,158
54.955,172
54.980,163
55.005,134
55.030,101
55.055,81
55.080,76
55.105,80
55.130,85
55.155,90
55.180,94
55.205,99
55.230,102
55.255,104
55.280,105
55.305,105
55.330,102
55.355,95
55.380,89
55.405,86
55.430,86
55.455,85
55.480,83
55.505,86
55.530,100
55.555,128
55.580,160
55.605,183
55.630,191
55.655,188
55.680,183
55.705,180
55.730,178
55.755,173
55.780,167
55.805,164
55.830,167
55.855,177
55.880,189
55.905,198
55.930,203
55.955,205
55.980,205
56.005,204
56.030,203
56.055,200
56.080,193
56.105,183
56.130,170
56.155,155
56.180,140
56.205,133
56.230,142
56.255,170
56.280,206
56.305,234
56.330,241
56.355,229
56.380,211
56.405,201
56.430,198
56.455,193
56.480,182
56.505,170
56.530,169
56.555,185
56.580,208
56.605,227
56.630,232
56.655,226
56.680,214
56.705,198
56.730,176
56.755,148
56.780,122
56.805,102
56.830,86
56.855,69
56.880,48
56.905,30
56.930,28
56.955,44
56.980,68
57.005,86
57.030,94
57.055,99
57.080,109
57.105,124
57.130,135
57.155,136
57.180,131
57.205,131
57.230,142
57.255,163
57.280,182
57.305,193
57.330,197
57.355,198
57.380,197
57.405,194
57.430,186
57.455,174
57.480,164
57.505,158
57.530,152
57.555,143
57.580,131
57.605,120
57.630,119
57.655,133
57.680,160
57.705,191
57.730,217
57.755,232
57.780,236
57.805,232
57.830,223
57.855,213
57.880,201
57.905,192
57.930,188
57.955,188
57.980,190
58.005,190
58.030,187
58.055,183
58.080,178
58.105,173
58.130,165
58.155,154
58.180,144
58.205,136
58.230,130
58.255,120
58.280,104
58.305,88
58.330,82
58.355,96
58.380,124
58.405,156
58.430,177
58.455,187
58.480,190
58.505,192
58.530,194
58.555,191
58.580,183
58.605,172
58.630,165
58.655,164
58.680,165
58.705,165
58.730,162
58.755,156
58.780,148
58.805,138
58.830,125
58.855,109
58.880,94
58.905,81
58.930,69
58.955,52
58.980,31
59.005,14
59.030,13
59.055,36
59.080,78
59.105,125
59.130,164
59.155,189
59.180,205
59.205,219
59.230,232
59.255,242
59.280,245
59.305,242
59.330,238
59.355,236
59.380,238
59.405,238
59.430,232
59.455,221
59.480,208
59.505,195
59.530,183
59.555,168
59.580,152
59.605,137
59.630,124
59.655,111
59.680,94
59.705,73
59.730,56
59.755,53
59.780,71
59.805,103
59.830,136
59.855,161
59.880,176
59.905,184
59.930,192
59.955,198
59.980,202
60.005,204
60.030,205
60.055,207
60.080,211
60.105,213
60.130,212
60.155,208
60.180,201
60.205,191
60.230,180
60.255,167
60.280,153
60.305,138
60.330,125
60.355,114
60.380,105
60.405,92
60.430,77
60.455,62
60.480,59
60.505,74
60.530,106
60.555,141
60.580,168
60.605,182
60.630,187
60.655,191
60.680,194
60.705,192
60.730,185
60.755,176
60.780,173
60.805,177
60.830,184
60.855,188
60.880,187
60.905,182
60.930,175
60.955,168
60.980,157
61.005,146
61.030,138
61.055,133
61.080,126
61.105,115
61.130,99
61.155,89
61.180,94
61.205,115
61.230,143
61.255,168
61.280,184
61.305,193
61.330,197
61.355,199
61.380,196
61.405,187
61.430,176
61.455,170
61.480,171
61.505,176
61.530,179
61.555,177
61.580,170
61.605,163
61.630,158
61.655,153
61.680,145
61.705,134
61.730,124
61.755,116
61.780,108
61.805,95
61.830,80
61.855,67
61.880,69
61.905,89
61.930,122
61.955,156
61.980,182
62.005,196
62.030,202
62.055,205
62.080,206
62.105,204
62.130,199
62.155,192
62.180,188
62.205,189
62.230,192
62.255,193
62.280,190
62.305,181
62.330,171
62.355,163
62.380,157
62.405,151
62.430,142
62.455,131
62.480,120
62.505,110
62.530,101
62.555,90
62.580,80
62.605,80
62.630,95
62.655,123
62.680,154
62.705,178
62.730,191
62.755,195
62.780,197
62.805,198
62.830,196
62.855,189
62.880,180
62.905,175
62.930,176
62.955,182
62.980,187
63.005,186
63.030,178
63.055,169
63.080,162
63.105,158
63.130,154
63.155,148
63.180,138
63.205,129
63.230,121
63.255,113
63.280,103
63.305,90
63.330,82
63.355,88
63.380,111
63.405,144
63.430,174
63.455,191
63.480,197
63.505,196
63.530,194
63.555,191
63.580,185
63.605,178
63.630,176
63.655,180
63.680,185
63.705,186
63.730,179
63.755,169
63.780,163
63.805,161
63.830,159
63.855,151
63.880,140
63.905,131
63.930,128
63.955,124
63.980,114
64.005,99
64.030,87
64.055,91
64.080,114
64.105,147
64.130,178
64.155,196
64.180,201
64.205,199
64.230,194
64.255,187
64.280,180
64.305,175
64.330,174
64.355,179
64.380,188
64.405,195
64.430,197
64.455,192
64.480,184
64.505,176
64.530,167
64.555,157
64.580,144
64.605,128
64.630,115
64.655,105
64.680,94
64.705,77
64.730,57
64.755,42
64.780,45
64.805,73
64.830,115
64.855,155
64.880,180
64.905,191
64.930,196
64.955,202
64.980,207
65.005,204
65.030,192
65.055,180
65.080,176
65.105,184
65.130,197
65.155,206
65.180,208
65.205,205
65.230,202
65.255,199
65.280,193
65.305,181
65.330,167
65.355,152
65.380,138
65.405,122
65.430,102
65.455,82
65.480,70
65.505,71
65.530,88
65.555,114
65.580,139
65.605,156
65.630,165
65.655,171
65.680,176
65.705,179
65.730,179
65.755,176
65.780,173
65.805,173
65.830,178
65.855,183
65.880,186
65.905,185
65.930,180
65.955,176
65.980,171
66.005,165
66.030,156
66.055,146
66.080,137
66.105,130
66.130,122
66.155,108
66.180,95
66.205,89
66.230,99
66.255,124
66.280,155
66.305,181
66.330,195
66.355,200
66.380,201
66.405,200
66.430,195
66.455,188
66.480,181
66.505,177
66.530,179
66.555,182
66.580,183
66.605,179
66.630,174
66.655,169
66.680,165
66.705,158
66.730,147
66.755,134
66.780,122
66.805,112
66.830,101
66.855,90
66.880,83
66.905,88
66.930,109
66.955,140
66.980,167
67.005,182
67.030,187
67.055,189
67.080,195
67.105,202
67.130,201
67.155,192
67.180,180
67.205,174
67.230,174
67.255,175
67.280,172
67.305,163
67.330,156
67.355,150
67.380,144
67.405,133
67.430,120
67.455,110
67.480,106
67.505,102
67.530,91
67.555,74
67.580,62
67.605,68
67.630,94
67.655,127
67.680,153
67.705,166
67.730,173
67.755,184
67.780,199
67.805,212
67.830,218
67.855,216
67.880,212
67.905,211
67.930,213
67.955,212
67.980,207
68.005,199
68.030,190
68.055,184
68.080,179
68.105,171
68.130,159
68.155,145
68.180,133
68.205,124
68.230,115
68.255,102
68.280,88
68.305,83
68.330,94
68.355,120
68.380,151
68.405,175
68.430,186
68.455,189
68.480,190
68.505,193
68.530,194
68.555,190
68.580,183
68.605,176
68.630,175
68.655,178
68.680,181
68.705,180
68.730,173
68.755,164
68.780,157
68.805,152
68.830,147
68.855,139
68.880,129
68.905,119
68.930,112
68.955,103
68.980,92
69.005,82
69.030,79
69.055,92
69.080,119
69.105,150
69.130,175
69.155,189
69.180,195
69.205,196
69.230,194
69.255,188
69.280,182
69.305,179
69.330,181
69.355,186
69.380,187
69.405,185
69.430,180
69.455,176
69.480,174
69.505,171
69.530,165
69.555,157
69.580,148
69.605,140
69.630,133
69.655,126
69.680,116
69.705,104
69.730,90
69.755,84
69.780,90
69.805,111
69.830,140
69.855,166
69.880,183
69.905,190
69.930,193
69.955,195
69.980,193
70.005,186
70.030,177
70.055,171
70.080,173
70.105,177
70.130,179
70.155,177
70.180,173
70.205,171
70.230,171
70.255,169
70.280,160
70.305,147
70.330,134
70.355,124
70.380,117
70.405,112
70.430,103
70.455,90
70.480,74
70.505,64
70.530,70
70.555,93
70.580,125
70.605,154
70.630,174
70.655,184
70.680,189
70.705,194
70.730,195
70.755,194
70.780,193
70.805,198
70.830,212
70.855,226
70.880,233
70.905,232
70.930,229
70.955,228
70.980,227
71.005,222
71.030,208
71.055,188
71.080,168
71.105,151
71.130,133
71.155,113
71.180,90
71.205,68
71.230,52
71.255,47
71.280,54
71.305,72
71.330,99
71.355,129
71.380,157
71.405,178
71.430,191
71.455,199
71.480,203
71.505,204
71.530,204
71.555,203
71.580,205
71.605,208
71.630,212
71.655,212
71.680,206
71.705,195
71.730,181
71.755,168
71.780,154
71.805,137
71.830,117
71.855,96
71.880,78
71.905,65
71.930,52
71.955,38
71.980,27
72.005,30
72.030,53
72.055,93
72.080,138
72.105,173
72.130,194
72.155,202
72.180,204
72.205,202
72.230,198
72.255,193
72.280,190
72.305,191
72.330,195
72.355,198
72.380,198
72.405,195
72.430,191
72.455,186
72.480,182
72.505,177
72.530,170
72.555,164
72.580,157
72.605,148
72.630,139
72.655,127
72.680,112
72.705,97
72.730,86
72.755,89
72.780,108
72.805,138
72.830,167
72.855,185
72.880,189
72.905,187
72.930,185
72.955,184
72.980,181
73.005,175
73.030,171
73.055,173
73.080,179
73.105,185
73.130,184
73.155,178
73.180,172
73.205,168
73.230,165
73.255,161
73.280,154
73.305,146
73.330,140
73.355,132
73.380,121
73.405,108
73.430,98
73.455,101
73.480,117
73.505,142
73.530,168
73.555,187
73.580,195
73.605,195
73.630,192
73.655,187
73.680,182
73.705,176
73.730,171
73.755,170
73.780,173
73.805,179
73.830,182
73.855,180
73.880,173
73.905,165
73.930,159
73.955,154
73.980,148
74.005,140
74.030,132
74.055,124
74.080,114
74.105,101
74.130,87
74.155,79
74.180,85
74.205,106
74.230,135
74.255,161
74.280,178
74.305,185
74.330,187
74.355,186
74.380,182
74.405,174
74.430,165
74.455,157
74.480,157
74.505,162
74.530,171
74.555,176
74.580,175
74.605,168
74.630,160
74.655,155
74.680,152
74.705,146
74.730,138
74.755,129
74.780,121
74.805,114
74.830,104
74.855,90
74.880,82
74.905,87
74.930,111
74.955,145
74.980,176
75.005,195
75.030,206
75.055,213
75.080,219
75.105,223
75.130,220
75.155,213
75.180,210
75.205,212
75.230,218
75.255,223
75.280,223
75.305,217
75.330,208
75.355,197
75.380,185
75.405,174
75.430,163
75.455,150
75.480,133
75.505,114
75.530,96
75.555,82
75.580,70
75.605,56
75.630,42
75.655,37
75.680,49
75.705,77
75.730,110
75.755,138
75.780,158
75.805,173
75.830,186
75.855,194
75.880,194
75.905,190
75.930,186
75.955,187
75.980,191
76.005,192
76.030,190
76.055,186
76.080,182
76.105,178
76.130,171
76.155,160
76.180,150
76.205,142
76.230,133
76.255,122
76.280,111
76.305,103
76.330,101
76.355,100
76.380,99
76.405,98
76.430,104
76.455,123
76.480,152
76.505,182
76.530,201
76.555,208
76.580,210
76.605,210
76.630,209
76.655,204
76.680,195
76.705,187
76.730,185
76.755,189
76.780,194
76.805,195
76.830,191
76.855,183
76.880,177
76.905,171
76.930,165
76.955,156
76.980,144
77.005,134
77.030,126
77.055,120
77.080,109
77.105,94
77.130,82
77.155,83
77.180,102
77.205,132
77.230,162
77.255,182
77.280,193
77.305,199
77.330,201
77.355,198
77.380,191
77.405,182
77.430,176
77.455,176
77.480,179
77.505,182
77.530,181
77.555,176
77.580,169
77.605,162
77.630,154
77.655,147
77.680,139
77.705,132
77.730,126
77.755,120
77.780,113
77.805,104
77.830,91
77.855,79
77.880,75
77.905,83
77.930,104
77.955,132
77.980,158
78.005,176
78.030,186
78.055,192
78.080,194
78.105,193
78.130,190
78.155,185
78.180,182
78.205,183
78.230,187
78.255,190
78.280,191
78.305,189
78.330,184
78.355,177
78.380,168
78.405,160
78.430,151
78.455,142
78.480,134
78.505,128
78.530,121
78.555,111
78.580,96
78.605,82
78.630,77
78.655,91
78.680,120
78.705,151
78.730,173
78.755,183
78.780,188
78.805,193
78.830,198
78.855,200
78.880,195
78.905,188
78.930,183
78.955,182
78.980,184
79.005,186
79.030,186
79.055,186
79.080,183
79.105,177
79.130,168
79.155,160
79.180,154
79.205,149
79.230,140
79.255,129
79.280,117
79.305,106
79.330,94
79.355,83
79.380,77
79.405,85
79.430,108
79.455,139
79.480,165
79.505,179
79.530,184
79.555,186
79.580,190
79.605,191
79.630,189
79.655,185
79.680,184
79.705,187
79.730,190
79.755,189
79.780,185
79.805,181
79.830,178
79.855,175
79.880,170
79.905,162
79.930,156
79.955,152
79.980,147
80.005,138
80.030,126
80.055,117
80.080,109
80.105,99
80.130,86
80.155,75
80.180,78
80.205,99
80.230,132
80.255,163
80.280,181
80.305,188
80.330,192
80.355,195
80.380,195
80.405,191
80.430,183
80.455,178
80.480,179
80.505,183
80.530,187
80.555,188
80.580,187
80.605,185
80.630,180
80.655,172
80.680,163
80.705,156
80.730,153
80.755,150
80.780,144
80.805,134
80.830,123
80.855,113
80.880,102
80.905,90
80.930,78
80.955,77
80.980,92
81.005,121
81.030,153
81.055,174
81.080,182
81.105,184
81.130,185
81.155,188
81.180,188
81.205,186
81.230,182
81.255,182
81.280,185
81.305,189
81.330,190
81.355,188
81.380,185
81.405,181
81.430,176
81.455,170
81.480,166
81.505,164
81.530,162
81.555,156
81.580,144
81.605,130
81.630,118
81.655,109
81.680,100
81.705,90
81.730,83
81.755,87
81.780,109
81.805,140
81.830,168
81.855,186
81.880,192
81.905,194
81.930,194
81.955,193
81.980,188
82.005,182
82.030,177
82.055,177
82.080,179
82.105,182
82.130,181
82.155,179
82.180,176
82.205,172
82.230,166
82.255,159
82.280,153
82.305,148
82.330,141
82.355,130
82.380,120
82.405,114
82.430,111
82.455,107
82.480,97
82.505,83
82.530,78
82.555,92
82.580,122
82.605,156
82.630,180
82.655,192
82.680,196
82.705,198
82.730,197
82.755,193
82.780,186
82.805,180
82.830,181
82.855,186
82.880,190
82.905,190
82.930,187
82.955,184
82.980,181
83.005,178
83.030,171
83.055,164
83.080,157
83.105,152
83.130,146
83.155,137
83.180,127
83.205,120
83.230,115
83.255,109
83.280,98
83.305,85
83.330,82
83.355,96
83.380,124
83.405,155
83.430,177
83.455,187
83.480,191
83.505,194
83.530,198
83.555,199
83.580,194
83.605,186
83.630,182
83.655,182
83.680,185
83.705,186
83.730,184
83.755,180
83.780,178
83.805,174
83.830,168
83.855,160
83.880,152
83.905,146
83.930,138
83.955,130
83.980,122
84.005,117
84.030,113
84.055,105
84.080,92
84.105,79
84.130,79
84.155,99
84.180,132
84.205,164
84.230,183
84.255,189
84.280,190
84.305,193
84.330,197
84.355,196
84.380,190
84.405,182
84.430,179
84.455,181
84.480,184
84.505,185
84.530,183
84.555,182
84.580,181
84.605,178
84.630,171
84.655,161
84.680,152
84.705,145
84.730,139
84.755,132
84.780,124
84.805,117
84.830,107
84.855,95
84.880,82
84.905,77
84.930,87
84.955,113
84.980,145
85.005,171
85.030,185
85.055,191
85.080,194
85.105,195
85.130,194
85.155,188
85.180,180
85.205,177
85.230,179
85.255,185
85.280,190
85.305,190
85.330,188
85.355,184
85.380,178
85.405,170
85.430,163
85.455,158
85.480,154
85.505,149
85.530,140
85.555,131
85.580,123
85.605,115
85.630,103
85.655,87
85.680,76
85.705,80
85.730,102
85.755,134
85.780,161
85.805,178
85.830,186
85.855,190
85.880,194
85.905,193
85.930,188
85.955,182
85.980,180
86.005,183
86.030,188
86.055,190
86.080,189
86.105,187
86.130,185
86.155,179
86.180,170
86.205,160
86.230,154
86.255,151
86.280,147
86.305,138
86.330,127
86.355,119
86.380,112
86.405,103
86.430,91
86.455,81
86.480,84
86.505,105
86.530,137
86.555,165
86.580,183
86.605,191
86.630,194
86.655,194
86.680,193
86.705,189
86.730,184
86.755,182
86.780,183
86.805,186
86.830,188
86.855,188
86.880,186
86.905,182
86.930,175
86.955,167
86.980,162
87.005,158
87.030,151
87.055,140
87.080,128
87.105,117
87.130,109
87.155,100
87.180,88
87.205,77
87.230,79
87.255,98
87.280,129
87.305,158
87.330,176
87.355,184
87.380,189
87.405,194
87.430,196
87.455,191
87.480,182
87.505,177
87.530,179
87.555,186
87.580,191
87.605,191
87.630,186
87.655,181
87.680,175
87.705,169
87.730,163
87.755,156
87.780,149
87.805,142
87.830,133
87.855,124
87.880,116
87.905,106
87.930,95
87.955,86
87.980,86
88.005,101
88.030,127
88.055,155
88.080,177
88.105,189
88.130,194
88.155,198
88.180,199
88.205,196
88.230,187
88.255,179
88.280,177
88.305,183
88.330,190
88.355,193
88.380,188
88.405,180
88.430,172
88.455,168
88.480,164
88.505,158
88.530,148
88.555,138
88.580,128
88.605,119
88.630,109
88.655,96
88.680,83
88.705,77
88.730,83
88.755,102
88.780,129
88.805,156
88.830,174
88.855,184
88.880,187
88.905,186
88.930,182
88.955,178
88.980,175
89.005,173
89.030,175
89.055,180
89.080,185
89.105,187
89.130,185
89.155,180
89.180,173
89.205,167
89.230,161
89.255,154
89.280,146
89.305,138
89.330,130
89.355,121
89.380,111
89.405,101
89.430,97
89.455,103
89.480,120
89.505,144
89.530,166
89.555,181
89.580,189
89.605,192
89.630,193
89.655,191
89.680,187
89.705,180
89.730,175
89.755,175
89.780,178
89.805,182
89.830,182
89.855,178
89.880,174
89.905,171
89.930,166
89.955,158
89.980,148
90.005,138
90.030,132
90.055,126
90.080,117
90.105,104
90.130,93
90.155,95
90.180,112
90.205,139
90.230,163
90.255,178
90.280,184
90.305,186
90.330,187
90.355,185
90.380,179
90.405,171
90.430,166
90.455,168
90.480,173
90.505,175
90.530,172
90.555,167
90.580,162
90.605,159
90.630,156
90.655,151
90.680,145
90.705,142
90.730,138
90.755,128
90.780,113
90.805,100
90.830,98
90.855,112
90.880,138
90.905,163
90.930,180
90.955,188
90.980,189
91.005,188
91.030,185
91.055,180
91.080,175
91.105,172
91.130,173
91.155,176
91.180,178
91.205,179
91.230,177
91.255,173
91.280,166
91.305,157
91.330,147
91.355,138
91.380,130
91.405,121
91.430,109
91.455,96
91.480,86
91.505,86
91.530,99
91.555,122
91.580,148
91.605,168
91.630,180
91.655,186
91.680,189
91.705,190
91.730,190
91.755,185
91.780,180
91.805,177
91.830,178
91.855,182
91.880,185
91.905,183
91.930,178
91.955,172
91.980,166
92.005,158
92.030,148
92.055,136
92.080,126
92.105,117
92.130,107
92.155,94
92.180,80
92.205,74
92.230,83
92.255,105
92.280,133
92.305,158
92.330,174
92.355,184
92.380,190
92.405,195
92.430,197
92.455,196
92.480,194
92.505,194
92.530,199
92.555,207
92.580,213
92.605,215
92.630,211
92.655,206
92.680,201
92.705,198
92.730,194
92.755,187
92.780,178
92.805,170
92.830,163
92.855,155
92.880,143
92.905,130
92.930,123
92.955,130
92.980,154
93.005,184
93.030,210
93.055,224
93.080,230
93.105,232
93.130,234
93.155,234
93.180,228
93.205,219
93.230,211
93.255,207
93.280,206
93.305,203
93.330,195
93.355,184
93.380,169
93.405,151
93.430,132
93.455,113
93.480,95
93.505,76
93.530,54
93.555,30
93.580,6
93.605,-17
93.630,-41
93.655,-69
93.680,-100
93.705,-126
93.730,-138
93.755,-129
93.780,-106
93.805,-78
93.830,-53
93.855,-29
93.880,-1
93.905,34
93.930,77
93.955,120
93.980,159
94.005,193
94.030,222
94.055,246
94.080,265
94.105,278
94.130,289
94.155,299
94.180,311
94.205,326
94.230,343
94.255,360
94.280,376
94.305,386
94.330,387
94.355,374
94.380,348
94.405,316
94.430,289
94.455,272
94.480,265
94.505,262
94.530,258
94.555,251
94.580,242
94.605,233
94.630,221
94.655,203
94.680,181
94.705,159
94.730,145
94.755,141
94.780,143
94.805,144
94.830,139
94.855,128
94.880,113
94.905,99
94.930,87
94.955,77
94.980,67
95.005,57
95.030,49
95.055,45
95.080,43
95.105,41
95.130,36
95.155,32
95.180,35
95.205,52
95.230,79
95.255,110
95.280,135
95.305,150
95.330,157
95.355,161
95.380,164
95.405,165
95.430,167
95.455,169
95.480,174
95.505,183
95.530,192
95.555,198
95.580,198
95.605,194
95.630,187
95.655,180
95.680,173
95.705,165
95.730,157
95.755,149
95.780,142
95.805,134
95.830,124
95.855,111
95.880,98
95.905,91
95.930,97
95.955,117
95.980,144
96.005,166
96.030,178
96.055,182
96.080,184
96.105,188
96.130,193
96.155,193
96.180,188
96.205,182
96.230,181
96.255,185
96.280,189
96.305,190
96.330,186
96.355,181
96.380,178
96.405,175
96.430,170
96.455,161
96.480,150
96.505,138
96.530,126
96.555,112
96.580,95
96.605,78
96.630,67
96.655,68
96.680,81
96.705,103
96.730,125
96.755,142
96.780,154
96.805,163
96.830,169
96.855,172
96.880,173
96.905,171
96.930,170
96.955,172
96.980,177
97.005,180
97.030,179
97.055,174
97.080,170
97.105,168
97.130,169
97.155,170
97.180,167
97.205,161
97.230,154
97.255,149
97.280,140
97.305,127
97.330,112
97.355,102
97.380,106
97.405,124
97.430,150
97.455,171
97.480,183
97.505,187
97.530,186
97.555,184
97.580,181
97.605,174
97.630,167
97.655,163
97.680,164
97.705,167
97.730,170
97.755,171
97.780,172
97.805,174
97.830,175
97.855,171
97.880,163
97.905,152
97.930,145
97.955,140
97.980,133
98.005,123
98.030,113
98.055,110
98.080,118
98.105,137
98.130,160
98.155,180
98.180,193
98.205,200
98.230,203
98.255,201
98.280,196
98.305,187
98.330,179
98.355,173
98.380,171
98.405,170
98.430,170
98.455,167
98.480,160
98.505,153
98.530,145
98.555,138
98.580,131
98.605,123
98.630,114
98.655,104
98.680,93
98.705,81
98.730,71
98.755,68
98.780,78
98.805,100
98.830,126
98.855,147
98.880,160
98.905,166
98.930,171
98.955,178
98.980,183
99.005,183
99.030,179
99.055,176
99.080,177
99.105,180
99.130,182
99.155,181
99.180,175
99.205,168
99.230,161
99.255,156
99.280,151
99.305,146
99.330,142
99.355,135
99.380,124
99.405,111
99.430,101
99.455,104
99.480,122
99.505,149
99.530,175
99.555,194
99.580,206
99.605,213
99.630,219
99.655,222
99.680,221
99.705,217
99.730,213
99.755,212
99.780,214
99.805,215
99.830,212
99.855,204
99.880,193
99.905,182
99.930,171
99.955,160
99.980,148
100.005,136
100.030,126
100.055,116
100.080,105
100.105,90
100.130,73
100.155,58
100.180,54
100.205,64
100.230,85
100.255,108
100.280,125
100.305,134
100.330,139
100.355,142
100.380,142
100.405,138
100.430,130
100.455,121
100.480,120
100.505,127
100.530,141
100.555,157
100.580,173
100.605,189
100.630,202
100.655,209
100.680,207
100.705,197
100.730,184
100.755,172
100.780,161
100.805,149
100.830,133
100.855,121
100.880,118
100.905,127
100.930,145
100.955,165
100.980,180
101.005,188
101.030,191
101.055,191
101.080,188
101.105,185
101.130,184
101.155,185
101.180,189
101.205,193
101.230,197
101.255,198
101.280,196
101.305,190
101.330,181
101.355,170
101.380,160
101.405,151
101.430,143
101.455,135
101.480,123
101.505,108
101.530,91
101.555,77
101.580,70
101.605,75
101.630,93
101.655,119
101.680,144
101.705,161
101.730,169
101.755,171
101.780,171
101.805,171
101.830,171
101.855,169
101.880,169
101.905,172
101.930,178
101.955,182
101.980,181
102.005,176
102.030,170
102.055,166
102.080,165
102.105,163
102.130,158
102.155,150
102.180,143
102.205,137
102.230,129
102.255,117
102.280,103
102.305,97
102.330,104
102.355,126
102.380,154
102.405,177
102.430,190
102.455,195
102.480,196
102.505,196
102.530,194
102.555,188
102.580,182
102.605,178
102.630,179
102.655,182
102.680,184
102.705,180
102.730,173
102.755,164
102.780,157
102.805,149
102.830,140
102.855,129
102.880,118
102.905,109
102.930,102
102.955,93
102.980,80
103.005,65
103.030,57
103.055,60
103.080,77
103.105,101
103.130,125
103.155,144
103.180,157
103.205,165
103.230,169
103.255,169
103.280,168
103.305,170
103.330,177
103.355,188
103.380,201
103.405,212
103.430,218
103.455,217
103.480,210
103.505,202
103.530,195
103.555,192
103.580,189
103.605,183
103.630,175
103.655,165
103.680,154
103.705,143
103.730,131
103.755,119
103.780,116
103.805,126
103.830,148
103.855,174
103.880,194
103.905,205
103.930,210
103.955,213
103.980,214
104.005,211
104.030,202
104.055,192
104.080,187
104.105,186
104.130,182
104.155,172
104.180,157
104.205,143
104.230,135
104.255,133
104.280,131
104.305,124
104.330,116
104.355,110
104.380,106
104.405,101
104.430,91
104.455,78
104.480,69
104.505,74
104.530,93
104.555,119
104.580,145
104.605,165
104.630,177
104.655,183
104.680,183
104.705,181
104.730,177
104.755,175
104.780,173
104.805,172
104.830,171
104.855,173
104.880,175
104.905,176
104.930,173
104.955,166
104.980,158
105.005,152
105.030,148
105.055,143
105.080,135
105.105,126
105.130,117
105.155,108
105.180,98
105.205,88
105.230,86
105.255,99
105.280,126
105.305,155
105.330,175
105.355,184
105.380,188
105.405,194
105.430,201
105.455,202
105.480,196
105.505,187
105.530,183
105.555,188
105.580,196
105.605,200
105.630,197
105.655,189
105.680,181
105.705,173
105.730,167
105.755,161
105.780,154
105.805,145
105.830,135
105.855,126
105.880,117
105.905,109
105.930,98
105.955,83
105.980,72
106.005,72
106.030,90
106.055,119
106.080,147
106.105,165
106.130,171
106.155,174
106.180,176
106.205,178
106.230,176
106.255,172
106.280,169
106.305,172
106.330,177
106.355,181
106.380,182
106.405,181
106.430,177
106.455,170
106.480,160
106.505,150
106.530,144
106.555,142
106.580,140
106.605,133
106.630,124
106.655,117
106.680,112
106.705,105
106.730,94
106.755,83
106.780,84
106.805,103
106.830,136
106.855,171
106.880,197
106.905,214
106.930,226
106.955,234
106.980,237
107.005,232
107.030,224
107.055,219
107.080,220
107.105,224
107.130,227
107.155,226
107.180,222
107.205,218
107.230,212
107.255,204
107.280,196
107.305,188
107.330,179
107.355,167
107.380,152
107.405,137
107.430,127
107.455,119
107.480,108
107.505,88
107.530,68
107.555,58
107.580,69
107.605,97
107.630,128
107.655,150
107.680,161
107.705,165
107.730,167
107.755,165
107.780,159
107.805,150
107.830,142
107.855,137
107.880,135
107.905,132
107.930,128
107.955,123
107.980,117
108.005,110
108.030,102
108.055,93
108.080,86
108.105,81
108.130,78
108.155,79
108.180,86
108.205,97
108.230,107
108.255,110
108.280,103
108.305,96
108.330,97
108.355,115
108.380,148
108.405,190
108.430,231
108.455,264
108.480,280
108.505,276
108.530,258
108.555,237
108.580,224
108.605,220
108.630,219
108.655,214
108.680,205
108.705,196
108.730,190
108.755,186
108.780,180
108.805,171
108.830,163
108.855,157
108.880,154
108.905,149
108.930,141
108.955,130
108.980,120
109.005,111
109.030,103
109.055,99
109.080,105
109.105,123
109.130,148
109.155,174
109.180,195
109.205,212
109.230,225
109.255,233
109.280,233
109.305,226
109.330,218
109.355,215
109.380,213
109.405,207
109.430,192
109.455,174
109.480,161
109.505,156
109.530,158
109.555,159
109.580,156
109.605,150
109.630,142
109.655,130
109.680,114
109.705,96
109.730,77
109.755,59
109.780,42
109.805,28
109.830,23
109.855,33
109.880,57
109.905,86
109.930,111
109.955,128
109.980,140
110.005,152
110.030,164
110.055,174
110.080,179
110.105,180
110.130,178
110.155,176
110.180,175
110.205,176
110.230,181
110.255,186
110.280,189
110.305,187
110.330,180
110.355,170
110.380,161
110.405,151
110.430,141
110.455,129
110.480,117
110.505,105
110.530,94
110.555,86
110.580,89
110.605,108
110.630,140
110.655,170
110.680,187
110.705,186
110.730,174
110.755,162
110.780,152
110.805,144
110.830,136
110.855,130
110.880,132
110.905,142
110.930,155
110.955,162
110.980,163
111.005,167
111.030,179
111.055,200
111.080,223
111.105,240
111.130,248
111.155,248
111.180,243
111.205,234
111.230,225
111.255,223
111.280,232
111.305,252
111.330,276
111.355,292
111.380,295
111.405,287
111.430,273
111.455,254
111.480,227
111.505,192
111.530,155
111.555,124
111.580,105
111.605,95
111.630,89
111.655,82
111.680,74
111.705,69
111.730,66
111.755,61
111.780,54
111.805,46
111.830,41
111.855,39
111.880,36
111.905,28
111.930,22
111.955,25
111.980,45
112.005,79
112.030,118
112.055,152
112.080,179
112.105,202
112.130,222
112.155,237
112.180,239
112.205,229
112.230,211
112.255,195
112.280,185
112.305,182
112.330,178
112.355,171
112.380,161
112.405,150
112.430,139
112.455,127
112.480,115
112.505,105
112.530,98
112.555,94
112.580,91
112.605,87
112.630,83
112.655,87
112.680,102
112.705,127
112.730,152
112.755,170
112.780,179
112.805,185
112.830,193
112.855,205
112.880,216
112.905,221
112.930,221
112.955,222
112.980,224
113.005,225
113.030,224
113.055,219
113.080,214
113.105,210
113.130,204
113.155,195
113.180,182
113.205,170
113.230,160
113.255,151
113.280,137
113.305,122
113.330,115
113.355,123
113.380,147
113.405,173
113.430,191
113.455,198
113.480,200
113.505,202
113.530,202
113.555,199
113.580,191
113.605,185
113.630,184
113.655,187
113.680,188
113.705,183
113.730,175
113.755,167
113.780,160
113.805,150
113.830,139
113.855,127
113.880,117
113.905,108
113.930,96
113.955,82
113.980,73
114.005,78
114.030,99
114.055,132
114.080,169
114.105,204
114.130,232
114.155,247
114.180,244
114.205,229
114.230,211
114.255,197
114.280,189
114.305,181
114.330,170
114.355,158
114.380,150
114.405,145
114.430,139
114.455,126
114.480,110
114.505,94
114.530,81
114.555,66
114.580,47
114.605,29
114.630,25
114.655,40
114.680,63
114.705,80
114.730,79
114.755,66
114.780,48
114.805,33
114.830,21
114.855,12
114.880,7
114.905,9
114.930,16
114.955,26
114.980,41
115.005,63
115.030,93
115.055,125
115.080,150
115.105,164
115.130,171
115.155,182
115.180,201
115.205,228
115.230,263
115.255,303
115.280,345
115.305,379
115.330,396
115.355,391
115.380,375
115.405,358
115.430,343
115.455,323
115.480,294
115.505,266
115.530,252
115.555,259
115.580,271
115.605,267
115.630,243
115.655,211
115.680,193
115.705,194
115.730,203
115.755,203
115.780,188
115.805,166
115.830,151
115.855,147
115.880,150
115.905,158
115.930,170
115.955,183
115.980,191
116.005,189
116.030,180
116.055,172
116.080,169
116.105,166
116.130,151
116.155,122
116.180,83
116.205,47
116.230,22
116.255,8
116.280,0
116.305,-1
116.330,0
116.355,3
116.380,7
116.405,13
116.430,25
116.455,48
116.480,80
116.505,113
116.530,137
116.555,153
116.580,164
116.605,173
116.630,177
116.655,175
116.680,168
116.705,164
116.730,166
116.755,170
116.780,169
116.805,161
116.830,151
116.855,144
116.880,139
116.905,131
116.930,116
116.955,99
116.980,90
117.005,96
117.030,118
117.055,146
117.080,172
117.105,188
117.130,195
117.155,196
117.180,196
117.205,195
117.230,192
117.255,186
117.280,177
117.305,170
117.330,170
117.355,176
117.380,182
117.405,182
117.430,175
117.455,165
117.480,156
117.505,148
117.530,136
117.555,120
117.580,107
117.605,107
117.630,121
117.655,145
117.680,168
117.705,184
117.730,194
117.755,198
117.780,199
117.805,196
117.830,189
117.855,181
117.880,178
117.905,177
117.930,175
117.955,170
117.980,161
118.005,152
118.030,145
118.055,138
118.080,129
118.105,115
118.130,97
118.155,79
118.180,66
118.205,66
118.230,81
118.255,107
118.280,136
118.305,162
118.330,180
118.355,193
118.380,204
118.405,210
118.430,210
118.455,203
118.480,193
118.505,188
118.530,188
118.555,190
118.580,189
118.605,186
118.630,182
118.655,180
118.680,177
118.705,171
118.730,160
118.755,149
118.780,138
118.805,127
118.830,114
118.855,102
118.880,96
118.905,105
118.930,126
118.955,151
118.980,172
119.005,184
119.030,191
119.055,195
119.080,196
119.105,192
119.130,185
119.155,179
119.180,177
119.205,178
119.230,178
119.255,175
119.280,169
119.305,164
119.330,158
119.355,152
119.380,144
119.405,135
119.430,125
119.455,114
119.480,101
119.505,84
119.530,71
119.555,69
119.580,81
119.605,105
119.630,133
119.655,155
119.680,171
119.705,180
119.730,186
119.755,188
119.780,188
119.805,185
119.830,182
119.855,182
119.880,183
119.905,185
119.930,185
119.955,183
119.980,176
120.005,164
120.030,146
120.055,127
120.080,111
120.105,101
120.130,94
120.155,83
120.180,67
120.205,54
120.230,53
120.255,70
120.280,98
120.305,128
120.330,149
120.355,165
120.380,177
120.405,187
120.430,191
120.455,186
120.480,174
120.505,166
120.530,169
120.555,179
120.580,189
120.605,192
120.630,190
120.655,186
120.680,182
120.705,177
120.730,170
120.755,161
120.780,150
120.805,138
120.830,121
120.855,102
120.880,89
120.905,91
120.930,109
120.955,135
120.980,158
121.005,172
121.030,181
121.055,186
121.080,190
121.105,189
121.130,183
121.155,175
121.180,172
121.205,174
121.230,177
121.255,176
121.280,173
121.305,170
121.330,167
121.355,161
121.380,151
121.405,137
121.430,126
121.455,117
121.480,107
121.505,93
121.530,80
121.555,77
121.580,90
121.605,116
121.630,145
121.655,166
121.680,178
121.705,187
121.730,192
121.755,192
121.780,184
121.805,172
121.830,163
121.855,162
121.880,167
121.905,173
121.930,175
121.955,174
121.980,172
122.005,167
122.030,160
122.055,149
122.080,140
122.105,133
122.130,126
122.155,115
122.180,98
122.205,84
122.230,81
122.255,94
122.280,120
122.305,148
122.330,169
122.355,184
122.380,194
122.405,202
122.430,204
122.455,198
122.480,188
122.505,180
122.530,180
122.555,186
122.580,192
122.605,193
122.630,186
122.655,177
122.680,168
122.705,160
122.730,150
122.755,139
122.780,126
122.805,114
122.830,102
122.855,88
122.880,75
122.905,70
122.930,78
122.955,98
122.980,125
123.005,149
123.030,165
123.055,174
123.080,179
123.105,181
123.130,179
123.155,174
123.180,168
123.205,165
123.230,167
123.255,172
123.280,175
123.305,174
123.330,169
123.355,163
123.380,158
123.405,152
123.430,145
123.455,137
123.480,129
123.505,119
123.530,107
123.555,96
123.580,91
123.605,96
123.630,114
123.655,139
123.680,163
123.705,181
123.730,190
123.755,193
123.780,192
123.805,188
123.830,182
123.855,176
123.880,174
123.905,175
123.930,178
123.955,179
123.980,177
124.005,172
124.030,167
124.055,160
124.080,153
124.105,146
124.130,138
124.155,130
124.180,119
124.205,106
124.230,92
124.255,82
124.280,84
124.305,98
124.330,122
124.355,146
124.380,164
124.405,175
124.430,180
124.455,182
124.480,181
124.505,177
124.530,170
124.555,165
124.580,166
124.605,171
124.630,176
124.655,176
124.680,171
124.705,162
124.730,155
124.755,150
124.780,145
124.805,137
124.830,127
124.855,115
124.880,103
124.905,92
124.930,83
124.955,83
124.980,94
125.005,116
125.030,145
125.055,170
125.080,187
125.105,195
125.130,197
125.155,194
125.180,188
125.205,181
125.230,176
125.255,176
125.280,180
125.305,185
125.330,185
125.355,180
125.380,173
125.405,168
125.430,163
125.455,156
125.480,146
125.505,135
125.530,127
125.555,119
125.580,110
125.605,96
125.630,84
125.655,83
125.680,97
125.705,123
125.730,152
125.755,173
125.780,186
125.805,193
125.830,199
125.855,202
125.880,200
125.905,193
125.930,185
125.955,181
125.980,181
126.005,184
126.030,184
126.055,180
126.080,174
126.105,167
126.130,160
126.155,152
126.180,143
126.205,134
126.230,125
126.255,115
126.280,103
126.305,86
126.330,67
126.355,55
126.380,56
126.405,75
126.430,106
126.455,141
126.480,167
126.505,183
126.530,190
126.555,194
126.580,196
126.605,195
126.630,187
126.655,178
126.680,173
126.705,175
126.730,181
126.755,184
126.780,180
126.805,172
126.830,165
126.855,160
126.880,156
126.905,148
126.930,137
126.955,126
126.980,116
127.005,105
127.030,92
127.055,79
127.080,73
127.105,82
127.130,105
127.155,134
127.180,159
127.205,176
127.230,186
127.255,192
127.280,194
127.305,193
127.330,186
127.355,180
127.380,178
127.405,181
127.430,186
127.455,188
127.480,185
127.505,178
127.530,172
127.555,166
127.580,161
127.605,153
127.630,142
127.655,131
127.680,121
127.705,108
127.730,94
127.755,80
127.780,72
127.805,79
127.830,100
127.855,130
127.880,159
127.905,179
127.930,191
127.955,197
127.980,198
128.005,196
128.030,190
128.055,183
128.080,180
128.105,179
128.130,181
128.155,182
128.180,180
128.205,175
128.230,170
128.255,163
128.280,154
128.305,145
128.330,137
128.355,130
128.380,122
128.405,112
128.430,98
128.455,83
128.480,75
128.505,79
128.530,96
128.555,121
128.580,148
128.605,171
128.630,186
128.655,193
128.680,194
128.705,190
128.730,184
128.755,179
128.780,177
128.805,178
128.830,180
128.855,181
128.880,178
128.905,174
128.930,169
128.955,166
128.980,162
129.005,157
129.030,148
129.055,137
129.080,125
129.105,112
129.130,98
129.155,84
129.180,74
129.205,74
129.230,87
129.255,111
129.280,139
129.305,164
129.330,180
129.355,188
129.380,190
129.405,189
129.430,186
129.455,180
129.480,174
129.505,172
129.530,174
129.555,180
129.580,184
129.605,183
129.630,175
129.655,166
129.680,159
129.705,154
129.730,148
129.755,138
129.780,127
129.805,114
129.830,102
129.855,89
129.880,77
129.905,73
129.930,82
129.955,105
129.980,136
130.005,163
130.030,181
130.055,190
130.080,193
130.105,195
130.130,194
130.155,190
130.180,184
130.205,180
130.230,182
130.255,186
130.280,188
130.305,186
130.330,180
130.355,175
130.380,172
130.405,168
130.430,163
130.455,155
130.480,144
130.505,132
130.530,119
130.555,105
130.580,92
130.605,85
130.630,90
130.655,107
130.680,133
130.705,159
130.730,178
130.755,189
130.780,193
130.805,192
130.830,189
130.855,184
130.880,178
130.905,174
130.930,173
130.955,175
130.980,178
131.005,178
131.030,176
131.055,172
131.080,167
131.105,160
131.130,149
131.155,135
131.180,121
131.205,111
131.230,102
131.255,91
131.280,76
131.305,61
131.330,55
131.355,64
131.380,87
131.405,116
131.430,141
131.455,159
131.480,171
131.505,180
131.530,185
131.555,184
131.580,179
131.605,174
131.630,172
131.655,176
131.680,182
131.705,184
131.730,182
131.755,178
131.780,175
131.805,172
131.830,169
131.855,163
131.880,154
131.905,145
131.930,136
131.955,127
131.980,116
132.005,103
132.030,93
132.055,92
132.080,104
132.105,128
132.130,155
132.155,177
132.180,190
132.205,194
132.230,195
132.255,194
132.280,192
132.305,187
132.330,180
132.355,175
132.380,175
132.405,177
132.430,177
132.455,174
132.480,167
132.505,162
132.530,158
132.555,155
132.580,149
132.605,141
132.630,131
132.655,121
132.680,110
132.705,98
132.730,89
132.755,90
132.780,105
132.805,131
132.830,159
132.855,180
132.880,192
132.905,196
132.930,196
132.955,193
132.980,187
133.005,180
133.030,176
133.055,177
133.080,179
133.105,180
133.130,176
133.155,170
133.180,164
133.205,158
133.230,150
133.255,141
133.280,133
133.305,125
133.330,117
133.355,107
133.380,94
133.405,83
133.430,82
133.455,94
133.480,115
133.505,138
133.530,156
133.555,168
133.580,177
133.605,185
133.630,190
133.655,189
133.680,182
133.705,172
133.730,165
133.755,163
133.780,164
133.805,163
133.830,158
133.855,149
133.880,137
133.905,124
133.930,112
133.955,102
133.980,92
134.005,82
134.030,71
134.055,55
134.080,35
134.105,16
134.130,7
134.155,12
134.180,30
134.205,54
134.230,76
134.255,91
134.280,102
134.305,108
134.330,109
134.355,106
134.380,100
134.405,95
134.430,95
134.455,101
134.480,107
134.505,112
134.530,115
134.555,120
134.580,128
134.605,136
134.630,142
134.655,145
134.680,147
134.705,152
134.730,160
134.755,170
134.780,179
134.805,188
134.830,198
134.855,211
134.880,227
134.905,244
134.930,262
134.955,283
134.980,305
135.005,328
135.030,351
135.055,374
135.080,397
135.105,420
135.130,438
135.155,449
135.180,451
135.205,447
135.230,439
135.255,426
135.280,408
135.305,382
135.330,352
135.355,321
135.380,289
135.405,252
135.430,204
135.455,146
135.480,88
135.505,45
135.530,26
135.555,30
135.580,45
135.605,54
135.630,49
135.655,33
135.680,16
135.705,2
135.730,-6
135.755,-13
135.780,-18
135.805,-18
135.830,-12
135.855,-3
135.880,3
135.905,5
135.930,8
135.955,14
135.980,21
136.005,26
136.030,24
136.055,19
136.080,13
136.105,8
136.130,1
136.155,-6
136.180,-9
136.205,2
136.230,29
136.255,64
136.280,95
136.305,115
136.330,124
136.355,126
136.380,123
136.405,119
136.430,120
136.455,134
136.480,161
136.505,193
136.530,220
136.555,235
136.580,237
136.605,232
136.630,224
136.655,214
136.680,205
136.705,198
136.730,192
136.755,184
136.780,174
136.805,166
136.830,169
136.855,187
136.880,218
136.905,250
136.930,275
136.955,288
136.980,290
137.005,281
137.030,264
137.055,241
137.080,218
137.105,203
137.130,198
137.155,197
137.180,196
137.205,188
137.230,177
137.255,166
137.280,157
137.305,150
137.330,141
137.355,130
137.380,119
137.405,114
137.430,121
137.455,140
137.480,164
137.505,183
137.530,193
137.555,196
137.580,201
137.605,207
137.630,212
137.655,209
137.680,197
137.705,185
137.730,182
137.755,188
137.780,195
137.805,197
137.830,188
137.855,174
137.880,159
137.905,147
137.930,136
137.955,124
137.980,108
138.005,88
138.030,67
138.055,52
138.080,51
138.105,66
138.130,93
138.155,120
138.180,139
138.205,149
138.230,155
138.255,160
138.280,163
138.305,160
138.330,153
138.355,146
138.380,146
138.405,151
138.430,156
138.455,157
138.480,156
138.505,154
138.530,151
138.555,146
138.580,136
138.605,122
138.630,108
138.655,95
138.680,80
138.705,59
138.730,38
138.755,27
138.780,39
138.805,73
138.830,120
138.855,165
138.880,200
138.905,224
138.930,241
138.955,252
138.980,256
139.005,254
139.030,248
139.055,245
139.080,245
139.105,248
139.130,247
139.155,239
139.180,223
139.205,206
139.230,193
139.255,186
139.280,183
139.305,177
139.330,169
139.355,159
139.380,152
139.405,144
139.430,132
139.455,115
139.480,101
139.505,98
139.530,110
139.555,128
139.580,144
139.605,155
139.630,165
139.655,176
139.680,187
139.705,192
139.730,188
139.755,181
139.780,179
139.805,183
139.830,189
139.855,190
139.880,185
139.905,178
139.930,171
139.955,164
139.980,156
140.005,146
140.030,136
140.055,128
140.080,121
140.105,110
140.130,96
140.155,77
140.180,59
140.205,45
140.230,41
140.255,50
140.280,73
140.305,102
140.330,130
140.355,152
140.380,167
140.405,179
140.430,188
140.455,191
140.480,188
140.505,182
140.530,180
140.555,183
140.580,188
140.605,190
140.630,187
140.655,184
140.680,183
140.705,184
140.730,183
140.755,178
140.780,171
140.805,166
140.830,160
140.855,151
140.880,138
140.905,126
140.930,115
140.955,104
140.980,90
141.005,73
141.030,65
141.055,74
141.080,98
141.105,125
141.130,144
141.155,152
141.180,157
141.205,164
141.230,169
141.255,168
141.280,163
141.305,161
141.330,167
141.355,178
141.380,186
141.405,186
141.430,185
141.455,188
141.480,195
141.505,198
141.530,193
141.555,183
141.580,174
141.605,168
141.630,164
141.655,159
141.680,152
141.705,142
141.730,129
141.755,112
141.780,102
141.805,115
141.830,159
141.855,223
141.880,281
141.905,315
141.930,324
141.955,320
141.980,312
142.005,296
142.030,270
142.055,243
142.080,231
142.105,242
142.130,264
142.155,272
142.180,253
142.205,213
142.230,169
142.255,132
142.280,106
142.305,87
142.330,73
142.355,60
142.380,44
142.405,20
142.430,-11
142.455,-44
142.480,-71
142.505,-87
142.530,-91
142.555,-84
142.580,-64
142.605,-31
142.630,8
142.655,45
142.680,72
142.705,91
142.730,106
142.755,122
142.780,138
142.805,155
142.830,174
142.855,197
142.880,220
142.905,235
142.930,240
142.955,242
142.980,246
143.005,254
143.030,260
143.055,260
143.080,254
143.105,247
143.130,240
143.155,230
143.180,209
143.205,182
143.230,157
143.255,145
143.280,147
143.305,156
143.330,166
143.355,173
143.380,181
143.405,191
143.430,200
143.455,202
143.480,196
143.505,184
143.530,174
143.555,172
143.580,176
143.605,183
143.630,188
143.655,187
143.680,181
143.705,174
143.730,167
143.755,161
143.780,155
143.805,146
143.830,134
143.855,116
143.880,95
143.905,77
143.930,68
143.955,72
143.980,85
144.005,103
144.030,119
144.055,133
144.080,148
144.105,163
144.130,175
144.155,177
144.180,169
144.205,160
144.230,157
144.255,164
144.280,174
144.305,179
144.330,172
144.355,157
144.380,143
144.405,136
144.430,134
144.455,131
144.480,121
144.505,107
144.530,93
144.555,86
144.580,84
144.605,83
144.630,83
144.655,84
144.680,93
144.705,108
144.730,129
144.755,148
144.780,163
144.805,174
144.830,183
144.855,189
144.880,193
144.905,194
144.930,195
144.955,201
144.980,212
145.005,224
145.030,233
145.055,238
145.080,241
145.105,246
145.130,252
145.155,258
145.180,260
145.205,257
145.230,251
145.255,246
145.280,241
145.305,234
145.330,223
145.355,206
145.380,188
145.405,172
145.430,162
145.455,157
145.480,157
145.505,156
145.530,156
145.555,154
145.580,152
145.605,149
145.630,145
145.655,139
145.680,131
145.705,121
145.730,111
145.755,102
145.780,96
145.805,89
145.830,82
145.855,75
145.880,70
145.905,66
145.930,60
145.955,50
145.980,35
146.005,26
146.030,34
146.055,62
146.080,101
146.105,138
146.130,160
146.155,171
146.180,178
146.205,186
146.230,193
146.255,195
146.280,194
146.305,194
146.330,200
146.355,209
146.380,215
146.405,214
146.430,210
146.455,204
146.480,200
146.505,193
146.530,184
146.555,173
146.580,162
146.605,149
146.630,133
146.655,116
146.680,107
146.705,114
146.730,135
146.755,161
146.780,183
146.805,197
146.830,206
146.855,212
146.880,214
146.905,209
146.930,196
146.955,182
146.980,172
147.005,165
147.030,159
147.055,151
147.080,140
147.105,127
147.130,110
147.155,91
147.180,70
147.205,50
147.230,30
147.255,7
147.280,-14
147.305,-28
147.330,-24
147.355,0
147.380,28
147.405,48
147.430,58
147.455,72
147.480,109
147.505,171
147.530,239
147.555,288
147.580,304
147.605,299
147.630,289
147.655,284
147.680,279
147.705,266
147.730,245
147.755,224
147.780,208
147.805,188
147.830,157
147.855,115
147.880,77
147.905,64
147.930,82
147.955,118
147.980,155
148.005,181
148.030,200
148.055,216
148.080,230
148.105,239
148.130,239
148.155,234
148.180,228
148.205,225
148.230,224
148.255,227
148.280,234
148.305,245
148.330,257
148.355,265
148.380,266
148.405,265
148.430,260
148.455,247
148.480,217
148.505,171
148.530,119
148.555,82
148.580,69
148.605,73
148.630,80
148.655,82
148.680,79
148.705,77
148.730,75
148.755,64
148.780,42
148.805,19
148.830,10
148.855,28
148.880,67
148.905,110
148.930,143
148.955,164
148.980,176
149.005,183
149.030,184
149.055,175
149.080,162
149.105,150
149.130,149
149.155,157
149.180,171
149.205,184
149.230,195
149.255,204
149.280,209
149.305,206
149.330,195
149.355,178
149.380,160
149.405,146
149.430,139
149.455,137
149.480,141
149.505,150
149.530,159
149.555,165
149.580,163
149.605,152
149.630,131
149.655,105
149.680,77
149.705,52
149.730,39
149.755,41
149.780,58
149.805,80
149.830,101
149.855,115
149.880,125
149.905,136
149.930,151
149.955,166
149.980,179
150.005,188
150.030,195
150.055,201
150.080,205
150.105,206
150.130,203
150.155,199
150.180,196
150.205,192
150.230,181
150.255,163
150.280,142
150.305,126
150.330,122
150.355,129
150.380,145
150.405,163
150.430,180
150.455,194
150.480,204
150.505,209
150.530,208
150.555,202
150.580,195
150.605,189
150.630,186
150.655,185
150.680,184
150.705,181
150.730,176
150.755,169
150.780,162
150.805,155
150.830,147
150.855,137
150.880,123
150.905,110
150.930,104
150.955,108
150.980,120
151.005,136
151.030,152
151.055,165
151.080,176
151.105,183
151.130,185
151.155,181
151.180,175
151.205,170
151.230,168
151.255,169
151.280,170
151.305,170
151.330,167
151.355,163
151.380,156
151.405,148
151.430,139
151.455,132
151.480,125
151.505,116
151.530,105
151.555,97
151.580,98
151.605,111
151.630,132
151.655,153
151.680,170
151.705,179
151.730,184
151.755,184
151.780,181
151.805,176
151.830,171
151.855,169
151.880,168
151.905,168
151.930,168
151.955,167
151.980,163
152.005,155
152.030,145
152.055,136
152.080,129
152.105,123
152.130,111
152.155,94
152.180,78
152.205,76
152.230,93
152.255,121
152.280,150
152.305,169
152.330,179
152.355,185
152.380,189
152.405,188
152.430,180
152.455,169
152.480,160
152.505,158
152.530,162
152.555,166
152.580,165
152.605,160
152.630,154
152.655,148
152.680,145
152.705,142
152.730,137
152.755,128
152.780,115
152.805,101
152.830,91
152.855,89
152.880,100
152.905,119
152.930,143
152.955,165
152.980,183
153.005,197
153.030,208
153.055,217
153.080,225
153.105,230
153.130,231
153.155,233
153.180,238
153.205,247
153.230,256
153.255,258
153.280,254
153.305,248
153.330,246
153.355,247
153.380,243
153.405,232
153.430,219
153.455,214
153.480,217
153.505,222
153.530,216
153.555,202
153.580,190
153.605,193
153.630,210
153.655,228
153.680,236
153.705,231
153.730,217
153.755,196
153.780,164
153.805,122
153.830,77
153.855,43
153.880,24
153.905,9
153.930,-9
153.955,-33
153.980,-52
154.005,-53
154.030,-39
154.055,-21
154.080,-9
154.105,-2
154.130,8
154.155,24
154.180,42
154.205,54
154.230,64
154.255,83
154.280,116
154.305,157
154.330,192
154.355,212
154.380,217
154.405,216
154.430,213
154.455,206
154.480,190
154.505,169
154.530,155
154.555,154
154.580,165
154.605,174
154.630,172
154.655,160
154.680,147
154.705,140
154.730,140
154.755,142
154.780,142
154.805,138
154.830,129
154.855,113
154.880,84
154.905,44
154.930,0
154.955,-33
154.980,-48
155.005,-41
155.030,-14
155.055,24
155.080,66
155.105,103
155.130,131
155.155,152
155.180,169
155.205,186
155.230,205
155.255,226
155.280,254
155.305,297
155.330,354
155.355,417
155.380,469
155.405,497
155.430,501
155.455,492
155.480,487
155.505,489
155.530,493
155.555,482
155.580,446
155.605,383
155.630,304
155.655,223
155.680,152
155.705,95
155.730,49
155.755,14
155.780,-3
155.805,0
155.830,19
155.855,44
155.880,63
155.905,70
155.930,70
155.955,71
155.980,74
156.005,77
156.030,76
156.055,74
156.080,75
156.105,83
156.130,94
156.155,104
156.180,110
156.205,113
156.230,114
156.255,112
156.280,106
156.305,96
156.330,87
156.355,79
156.380,72
156.405,62
156.430,47
156.455,29
156.480,13
156.505,7
156.530,16
156.555,40
156.580,72
156.605,104
156.630,130
156.655,148
156.680,162
156.705,175
156.730,188
156.755,198
156.780,205
156.805,213
156.830,223
156.855,235
156.880,244
156.905,244
156.930,235
156.955,223
156.980,212
157.005,205
157.030,202
157.055,198
157.080,195
157.105,188
157.130,177
157.155,158
157.180,136
157.205,121
157.230,123
157.255,143
157.280,170
157.305,192
157.330,203
157.355,205
157.380,207
157.405,210
157.430,213
157.455,212
157.480,207
157.505,202
157.530,198
157.555,194
157.580,187
157.605,178
157.630,170
157.655,164
157.680,159
157.705,150
157.730,134
157.755,117
157.780,105
157.805,99
157.830,91
157.855,77
157.880,55
157.905,37
157.930,34
157.955,50
157.980,78
158.005,105
158.030,122
158.055,130
158.080,133
158.105,133
158.130,131
158.155,125
158.180,116
158.205,110
158.230,113
158.255,126
158.280,144
158.305,162
158.330,176
158.355,185
158.380,189
158.405,188
158.430,182
158.455,174
158.480,166
158.505,156
158.530,143
158.555,126
158.580,111
158.605,108
158.630,119
158.655,142
158.680,167
158.705,187
158.730,200
158.755,208
158.780,213
158.805,212
158.830,205
158.855,195
158.880,191
158.905,194
158.930,201
158.955,203
158.980,199
159.005,192
159.030,186
159.055,180
159.080,171
159.105,157
159.130,142
159.155,130
159.180,122
159.205,111
159.230,96
159.255,84
159.280,87
159.305,107
159.330,137
159.355,163
159.380,176
159.405,182
159.430,188
159.455,196
159.480,202
159.505,201
159.530,196
159.555,192
159.580,192
159.605,194
159.630,192
159.655,185
159.680,177
159.705,171
159.730,164
159.755,155
159.780,143
159.805,130
159.830,118
159.855,105
159.880,89
159.905,71
159.930,61
159.955,68
159.980,90
160.005,119
160.030,145
160.055,162
160.080,174
160.105,183
160.130,190
160.155,192
160.180,188
160.205,183
160.230,181
160.255,184
160.280,187
160.305,187
160.330,183
160.355,177
160.380,172
160.405,166
160.430,158
160.455,149
160.480,141
160.505,135
160.530,126
160.555,111
160.580,93
160.605,82
160.630,88
160.655,112
160.680,144
160.705,170
160.730,184
160.755,188
160.780,190
160.805,193
160.830,194
160.855,189
160.880,182
160.905,177
160.930,179
160.955,184
160.980,185
161.005,181
161.030,174
161.055,168
161.080,163
161.105,158
161.130,149
161.155,138
161.180,127
161.205,117
161.230,107
161.255,99
161.280,99
161.305,113
161.330,137
161.355,164
161.380,185
161.405,197
161.430,202
161.455,201
161.480,197
161.505,189
161.530,182
161.555,180
161.580,181
161.605,182
161.630,179
161.655,173
161.680,166
161.705,162
161.730,159
161.755,152
161.780,139
161.805,123
161.830,107
161.855,93
161.880,82
161.905,78
161.930,84
161.955,103
161.980,128
162.005,152
162.030,169
162.055,179
162.080,184
162.105,186
162.130,185
162.155,182
162.180,176
162.205,172
162.230,171
162.255,172
162.280,174
162.305,177
162.330,178
162.355,175
162.380,165
162.405,152
162.430,140
162.455,131
162.480,120
162.505,107
162.530,92
162.555,86
162.580,94
162.605,116
162.630,140
162.655,158
162.680,168
162.705,173
162.730,175
162.755,175
162.780,170
162.805,163
162.830,159
162.855,162
162.880,170
162.905,178
162.930,182
162.955,184
162.980,182
163.005,179
163.030,174
163.055,169
163.080,163
163.105,155
163.130,143
163.155,127
163.180,116
163.205,116
163.230,129
163.255,149
163.280,167
163.305,179
163.330,187
163.355,192
163.380,195
163.405,192
163.430,187
163.455,185
163.480,188
163.505,191
163.530,191
163.555,185
163.580,178
163.605,174
163.630,170
163.655,163
163.680,150
163.705,137
163.730,128
163.755,120
163.780,110
163.805,97
163.830,92
163.855,101
163.880,124
163.905,151
163.930,173
163.955,185
163.980,191
164.005,195
164.030,195
164.055,190
164.080,183
164.105,177
164.130,176
164.155,176
164.180,175
164.205,170
164.230,164
164.255,159
164.280,151
164.305,139
164.330,122
164.355,105
164.380,89
164.405,74
164.430,60
164.455,53
164.480,58
164.505,78
164.530,106
164.555,130
164.580,145
164.605,154
164.630,158
164.655,159
164.680,156
164.705,151
164.730,152
164.755,164
164.780,183
164.805,202
164.830,211
164.855,209
164.880,201
164.905,196
164.930,195
164.955,197
164.980,197
165.005,193
165.030,184
165.055,171
165.080,157
165.105,147
165.130,143
165.155,144
165.180,147
165.205,144
165.230,136
165.255,127
165.280,118
165.305,112
165.330,104
165.355,92
165.380,82
165.405,83
165.430,102
165.455,136
165.480,173
165.505,197
165.530,204
165.555,195
165.580,182
165.605,175
165.630,174
165.655,172
165.680,161
165.705,143
165.730,123
165.755,112
165.780,117
165.805,133
165.830,152
165.855,167
165.880,177
165.905,182
165.930,185
165.955,186
165.980,183
166.005,180
166.030,178
166.055,183
166.080,191
166.105,198
166.130,200
166.155,196
166.180,190
166.205,184
166.230,176
166.255,165
166.280,151
166.305,136
166.330,124
166.355,116
166.380,116
166.405,125
166.430,146
166.455,176
166.480,209
166.505,239
166.530,259
166.555,270
166.580,269
166.605,257
166.630,230
166.655,195
166.680,158
166.705,129
166.730,112
166.755,103
166.780,98
166.805,97
166.830,97
166.855,98
166.880,97
166.905,92
166.930,84
166.955,77
166.980,71
167.005,66
167.030,59
167.055,54
167.080,56
167.105,70
167.130,94
167.155,122
167.180,147
167.205,164
167.230,175
167.255,180
167.280,180
167.305,177
167.330,175
167.355,176
167.380,182
167.405,189
167.430,194
167.455,196
167.480,196
167.505,192
167.530,186
167.555,177
167.580,169
167.605,162
167.630,156
167.655,147
167.680,135
167.705,122
167.730,118
167.755,128
167.780,148
167.805,170
167.830,186
167.855,194
167.880,198
167.905,199
167.930,197
167.955,191
167.980,181
168.005,174
168.030,173
168.055,177
168.080,180
168.105,179
168.130,176
168.155,172
168.180,169
168.205,163
168.230,150
168.255,133
168.280,117
168.305,106
168.330,98
168.355,89
168.380,81
168.405,82
168.430,96
168.455,121
168.480,147
168.505,165
168.530,175
168.555,180
168.580,183
168.605,186
168.630,184
168.655,180
168.680,177
168.705,177
168.730,179
168.755,179
168.780,175
168.805,168
168.830,163
168.855,159
168.880,154
168.905,145
168.930,133
168.955,121
168.980,111
169.005,103
169.030,98
169.055,101
169.080,113
169.105,135
169.130,158
169.155,177
169.180,189
169.205,194
169.230,196
169.255,196
169.280,194
169.305,189
169.330,184
169.355,182
169.380,181
169.405,180
169.430,177
169.455,171
169.480,165
169.505,158
169.530,151
169.555,141
169.580,131
169.605,120
169.630,108
169.655,97
169.680,89
169.705,91
169.730,104
169.755,126
169.780,149
169.805,166
169.830,178
169.855,188
169.880,197
169.905,202
169.930,198
169.955,187
169.980,177
170.005,174
170.030,177
170.055,181
170.080,179
170.105,173
170.130,166
170.155,161
170.180,157
170.205,149
170.230,140
170.255,130
170.280,121
170.305,110
170.330,98
170.355,91
170.380,99
170.405,123
170.430,153
170.455,178
170.480,193
170.505,200
170.530,205
170.555,207
170.580,203
170.605,194
170.630,186
170.655,184
170.680,188
170.705,189
170.730,183
170.755,173
170.780,164
170.805,160
170.830,155
170.855,146
170.880,134
170.905,122
170.930,112
170.955,102
170.980,93
171.005,91
171.030,101
171.055,123
171.080,148
171.105,166
171.130,175
171.155,179
171.180,182
171.205,185
171.230,184
171.255,181
171.280,178
171.305,180
171.330,182
171.355,181
171.380,174
171.405,163
171.430,153
171.455,145
171.480,138
171.505,131
171.530,122
171.555,112
171.580,99
171.605,88
171.630,82
171.655,89
171.680,108
171.705,132
171.730,152
171.755,166
171.780,177
171.805,187
171.830,195
171.855,196
171.880,191
171.905,184
171.930,181
171.955,182
171.980,185
172.005,185
172.030,180
172.055,173
172.080,165
172.105,157
172.130,148
172.155,141
172.180,132
172.205,121
172.230,109
172.255,101
172.280,106
172.305,123
172.330,148
172.355,169
172.380,182
172.405,189
172.430,194
172.455,196
172.480,195
172.505,189
172.530,181
172.555,174
172.580,172
172.605,173
172.630,173
172.655,172
172.680,167
172.705,160
172.730,149
172.755,138
172.780,126
172.805,114
172.830,102
172.855,92
172.880,90
172.905,101
172.930,123
172.955,149
172.980,170
173.005,182
173.030,187
173.055,189
173.080,190
173.105,188
173.130,183
173.155,178
173.180,176
173.205,176
173.230,177
173.255,176
173.280,174
173.305,169
173.330,163
173.355,156
173.380,147
173.405,137
173.430,125
173.455,110
173.480,96
173.505,89
173.530,96
173.555,114
173.580,139
173.605,161
173.630,176
173.655,186
173.680,192
173.705,193
173.730,188
173.755,180
173.780,175
173.805,176
173.830,180
173.855,183
173.880,181
173.905,176
173.930,171
173.955,166
173.980,159
174.005,149
174.030,139
174.055,129
174.080,120
174.105,110
174.130,105
174.155,108
174.180,122
174.205,144
174.230,166
174.255,181
174.280,189
174.305,192
174.330,192
174.355,188
174.380,181
174.405,175
174.430,173
174.455,174
174.480,175
174.505,173
174.530,166
174.555,158
174.580,152
174.605,147
174.630,141
174.655,131
174.680,117
174.705,101
174.730,90
174.755,88
174.780,99
174.805,119
174.830,143
174.855,162
174.880,175
174.905,183
174.930,187
174.955,188
174.980,185
175.005,181
175.030,175
175.055,172
175.080,169
175.105,167
175.130,165
175.155,161
175.180,158
175.205,153
175.230,148
175.255,143
175.280,137
175.305,128
175.330,115
175.355,104
175.380,102
175.405,111
175.430,129
175.455,149
175.480,164
175.505,176
175.530,186
175.555,195
175.580,197
175.605,192
175.630,182
175.655,175
175.680,172
175.705,172
175.730,170
175.755,165
175.780,159
175.805,153
175.830,147
175.855,142
175.880,137
175.905,132
175.930,123
175.955,111
175.980,98
176.005,93
176.030,102
176.055,124
176.080,149
176.105,167
176.130,178
176.155,185
176.180,191
176.205,194
176.230,193
176.255,187
176.280,182
176.305,180
176.330,181
176.355,183
176.380,183
176.405,182
176.430,180
176.455,175
176.480,169
176.505,160
176.530,153
176.555,144
176.580,133
176.605,119
176.630,111
176.655,117
176.680,137
176.705,163
176.730,184
176.755,196
176.780,202
176.805,207
176.830,209
176.855,204
176.880,195
176.905,186
176.930,183
176.955,188
176.980,195
177.005,196
177.030,193
177.055,187
177.080,182
177.105,178
177.130,175
177.155,169
177.180,160
177.205,147
177.230,133
177.255,123
177.280,124
177.305,137
177.330,158
177.355,177
177.380,191
177.405,198
177.430,199
177.455,194
177.480,184
177.505,169
177.530,154
177.555,144
177.580,139
177.605,137
177.630,134
177.655,125
177.680,109
177.705,88
177.730,66
177.755,46
177.780,30
177.805,12
177.830,-12
177.855,-40
177.880,-58
177.905,-47
177.930,-3
177.955,62
177.980,125
178.005,168
178.030,192
178.055,207
178.080,224
178.105,238
178.130,242
178.155,228
178.180,206
178.205,188
178.230,187
178.255,202
178.280,222
178.305,234
178.330,229
178.355,208
178.380,175
178.405,136
178.430,95
178.455,57
178.480,33
178.505,33
178.530,55
178.555,89
178.580,119
178.605,137
178.630,145
178.655,151
178.680,153
178.705,144
178.730,121
178.755,94
178.780,86
178.805,110
178.830,161
178.855,219
178.880,266
178.905,299
178.930,324
178.955,340
178.980,342
179.005,329
179.030,313
179.055,309
179.080,323
179.105,342
179.130,348
179.155,331
179.180,302
179.205,276
179.230,261
179.255,248
179.280,226
179.305,196
179.330,168
179.355,153
179.380,151
179.405,152
179.430,151
179.455,144
179.480,137
179.505,130
179.530,121
179.555,107
179.580,88
179.605,68
179.630,55
179.655,51
179.680,59
179.705,74
179.730,86
179.755,89
179.780,78
179.805,58
179.830,34
179.855,7
179.880,-24
179.905,-60
179.930,-95
179.955,-121
179.980,-133
180.005,-134
180.030,-124
180.055,-101
180.080,-58
180.105,0
180.130,62
180.155,113
180.180,146
180.205,165
180.230,184
180.255,211
180.280,247
180.305,280
180.330,304
180.355,317
180.380,324
180.405,331
180.430,337
180.455,336
180.480,323
180.505,302
180.530,279
180.555,264
180.580,259
180.605,256
180.630,250
180.655,239
180.680,230
180.705,228
180.730,229
180.755,224
180.780,212
180.805,205
180.830,213
180.855,233
180.880,244
180.905,229
180.930,193
180.955,161
180.980,156
181.005,173
181.030,188
181.055,178
181.080,148
181.105,119
181.130,111
181.155,122
181.180,136
181.205,139
181.230,131
181.255,117
181.280,102
181.305,85
181.330,66
181.355,53
181.380,50
181.405,57
181.430,72
181.455,96
181.480,126
181.505,159
181.530,183
181.555,192
181.580,186
181.605,172
181.630,154
181.655,131
181.680,100
181.705,65
181.730,37
181.755,19
181.780,2
181.805,-20
181.830,-42
181.855,-44
181.880,-16
181.905,27
181.930,62
181.955,78
181.980,90
182.005,122
182.030,177
182.055,237
182.080,283
182.105,316
182.130,349
182.155,388
182.180,423
182.205,443
182.230,454
182.255,474
182.280,501
182.305,511
182.330,474
182.355,389
182.380,286
182.405,201
182.430,148
182.455,118
182.480,97
182.505,77
182.530,54
182.555,23
182.580,-11
182.605,-29
182.630,-7
182.655,53
182.680,121
182.705,160
182.730,163
182.755,156
182.780,166
182.805,187
182.830,194
182.855,178
182.880,159
182.905,166
182.930,195
182.955,219
182.980,216
183.005,195
183.030,178
183.055,171
183.080,159
183.105,135
183.130,113
183.155,107
183.180,101
183.205,57
183.230,-42
183.255,-163
183.280,-243
183.305,-259
183.330,-243
183.355,-243
183.380,-267
183.405,-273
183.430,-229
183.455,-155
183.480,-99
183.505,-81
183.530,-62
183.555,10
183.580,144
183.605,286
183.630,377
183.655,406
183.680,414
183.705,443
183.730,499
183.755,555
183.780,584
183.805,584
183.830,562
183.855,524
183.880,471
183.905,409
183.930,353
183.955,313
183.980,289
184.005,271
184.030,251
184.055,233
184.080,220
184.105,210
184.130,199
184.155,185
184.180,174
184.205,165
184.230,153
184.255,134
184.280,114
184.305,105
184.330,114
184.355,134
184.380,152
184.405,159
184.430,158
184.455,156
184.480,155
184.505,150
184.530,137
184.555,121
184.580,111
184.605,111
184.630,114
184.655,112
184.680,106
184.705,102
184.730,103
184.755,105
184.780,100
184.805,86
184.830,72
184.855,67
184.880,75
184.905,92
184.930,110
184.955,123
184.980,131
185.005,134
185.030,133
185.055,127
185.080,117
185.105,108
185.130,103
185.155,103
185.180,110
185.205,120
185.230,131
185.255,142
185.280,151
185.305,160
185.330,170
185.355,177
185.380,179
185.405,178
185.430,184
185.455,206
185.480,244
185.505,283
185.530,302
185.555,292
185.580,259
185.605,221
185.630,189
185.655,165
185.680,143
185.705,120
185.730,102
185.755,96
185.780,106
185.805,121
185.830,129
185.855,121
185.880,100
185.905,76
185.930,57
185.955,46
185.980,36
186.005,18
186.030,-5
186.055,-23
186.080,-22
186.105,1
186.130,39
186.155,77
186.180,106
186.205,127
186.230,147
186.255,171
186.280,195
186.305,215
186.330,229
186.355,242
186.380,254
186.405,263
186.430,267
186.455,264
186.480,261
186.505,262
186.530,268
186.555,272
186.580,266
186.605,251
186.630,230
186.655,209
186.680,191
186.705,178
186.730,166
186.755,154
186.780,143
186.805,132
186.830,123
186.855,117
186.880,114
186.905,116
186.930,124
186.955,134
186.980,146
187.005,163
187.030,190
187.055,225
187.080,260
187.105,282
187.130,284
187.155,270
187.180,249
187.205,224
187.230,188
187.255,134
187.280,68
187.305,15
187.330,-1
187.355,22
187.380,68
187.405,107
187.430,123
187.455,121
187.480,113
187.505,110
187.530,113
187.555,121
187.580,134
187.605,151
187.630,170
187.655,185
187.680,196
187.705,206
187.730,222
187.755,244
187.780,267
187.805,288
187.830,303
187.855,313
187.880,312
187.905,299
187.930,276
187.955,254
187.980,243
188.005,245
188.030,251
188.055,253
188.080,245
188.105,227
188.130,198
188.155,153
188.180,97
188.205,40
188.230,-2
188.255,-25
188.280,-32
188.305,-35
188.330,-40
188.355,-44
188.380,-41
188.405,-34
188.430,-29
188.455,-32
188.480,-37
188.505,-33
188.530,-11
188.555,26
188.580,68
188.605,104
188.630,127
188.655,141
188.680,151
188.705,159
188.730,161
188.755,158
188.780,152
188.805,149
188.830,154
188.855,165
188.880,178
188.905,190
188.930,198
188.955,200
188.980,196
189.005,185
189.030,170
189.055,162
189.080,169
189.105,195
189.130,230
189.155,260
189.180,274
189.205,276
189.230,275
189.255,274
189.280,272
189.305,262
189.330,247
189.355,236
189.380,236
189.405,244
189.430,247
189.455,237
189.480,217
189.505,198
189.530,186
189.555,175
189.580,158
189.605,137
189.630,123
189.655,130
189.680,156
189.705,188
189.730,208
189.755,213
189.780,209
189.805,206
189.830,202
189.855,192
189.880,176
189.905,161
189.930,158
189.955,166
189.980,175
190.005,177
190.030,173
190.055,172
190.080,177
190.105,182
190.130,174
190.155,151
190.180,122
190.205,99
190.230,91
190.255,96
190.280,106
190.305,116
190.330,120
190.355,117
190.380,106
190.405,90
190.430,74
190.455,62
190.480,52
190.505,44
190.530,37
190.555,31
190.580,26
190.605,22
190.630,16
190.655,11
190.680,9
190.705,9
190.730,3
190.755,-7
190.780,-15
190.805,-3
190.830,35
190.855,89
190.880,135
190.905,161
190.930,174
190.955,192
190.980,223
191.005,260
191.030,291
191.055,316
191.080,339
191.105,363
191.130,381
191.155,384
191.180,373
191.205,356
191.230,338
191.255,313
191.280,271
191.305,216
191.330,165
191.355,140
191.380,145
191.405,171
191.430,200
191.455,224
191.480,238
191.505,242
191.530,232
191.555,207
191.580,173
191.605,141
191.630,118
191.655,105
191.680,99
191.705,96
191.730,91
191.755,81
191.780,66
191.805,53
191.830,46
191.855,46
191.880,44
191.905,34
191.930,23
191.955,24
191.980,46
192.005,83
192.030,118
192.055,139
192.080,148
192.105,155
192.130,163
192.155,170
192.180,171
192.205,166
192.230,162
192.255,163
192.280,167
192.305,173
192.330,183
192.355,196
192.380,210
192.405,220
192.430,222
192.455,219
192.480,214
192.505,206
192.530,193
192.555,180
192.580,180
192.605,201
192.630,234
192.655,257
192.680,253
192.705,222
192.730,185
192.755,158
192.780,145
192.805,140
192.830,136
192.855,134
192.880,135
192.905,137
192.930,133
192.955,124
192.980,112
193.005,101
193.030,90
193.055,77
193.080,65
193.105,57
193.130,56
193.155,55
193.180,51
193.205,46
193.230,51
193.255,68
193.280,95
193.305,121
193.330,143
193.355,161
193.380,178
193.405,189
193.430,191
193.455,186
193.480,182
193.505,186
193.530,195
193.555,201
193.580,199
193.605,191
193.630,182
193.655,173
193.680,161
193.705,145
193.730,127
193.755,113
193.780,103
193.805,94
193.830,88
193.855,90
193.880,107
193.905,137
193.930,169
193.955,193
193.980,206
194.005,211
194.030,212
194.055,207
194.080,198
194.105,187
194.130,180
194.155,178
194.180,178
194.205,176
194.230,170
194.255,162
194.280,154
194.305,144
194.330,131
194.355,117
194.380,104
194.405,91
194.430,79
194.455,69
194.480,67
194.505,78
194.530,101
194.555,129
194.580,150
194.605,163
194.630,169
194.655,173
194.680,175
194.705,173
194.730,168
194.755,164
194.780,168
194.805,179
194.830,193
194.855,205
194.880,212
194.905,215
194.930,214
194.955,208
194.980,193
195.005,172
195.030,145
195.055,115
195.080,86
195.105,63
195.130,53
195.155,58
195.180,79
195.205,109
195.230,139
195.255,163
195.280,181
195.305,192
195.330,196
195.355,193
195.380,187
195.405,180
195.430,177
195.455,180
195.480,186
195.505,189
195.530,189
195.555,184
195.580,176
195.605,167
195.630,157
195.655,147
195.680,139
195.705,132
195.730,124
195.755,115
195.780,105
195.805,97
195.830,90
195.855,82
195.880,69
195.905,53
195.930,44
195.955,50
195.980,73
196.005,107
196.030,141
196.055,167
196.080,183
196.105,193
196.130,200
196.155,204
196.180,204
196.205,199
196.230,193
196.255,190
196.280,192
196.305,197
196.330,201
196.355,201
196.380,196
196.405,188
196.430,180
196.455,173
196.480,167
196.505,158
196.530,148
196.555,136
196.580,128
196.605,122
196.630,117
196.655,109
196.680,95
196.705,76
196.730,58
196.755,50
196.780,56
196.805,77
196.830,106
196.855,136
196.880,161
196.905,179
196.930,192
196.955,199
196.980,202
197.005,200
197.030,196
197.055,194
197.080,197
197.105,203
197.130,209
197.155,211
197.180,209
197.205,204
197.230,198
197.255,191
197.280,182
197.305,171
197.330,159
197.355,147
197.380,136
197.405,127
197.430,120
197.455,111
197.480,99
197.505,82
197.530,63
197.555,49
197.580,47
197.605,63
197.630,90
197.655,121
197.680,147
197.705,166
197.730,180
197.755,191
197.780,197
197.805,198
197.830,193
197.855,187
197.880,186
197.905,190
197.930,196
197.955,199
197.980,199
198.005,195
198.030,188
198.055,179
198.080,168
198.105,158
198.130,148
198.155,140
198.180,131
198.205,121
198.230,109
198.255,98
198.280,86
198.305,72
198.330,55
198.355,45
198.380,48
198.405,70
198.430,104
198.455,138
198.480,165
198.505,183
198.530,196
198.555,205
198.580,207
198.605,203
198.630,197
198.655,193
198.680,194
198.705,196
198.730,198
198.755,198
198.780,197
198.805,194
198.830,187
198.855,176
198.880,164
198.905,153
198.930,143
198.955,133
198.980,122
199.005,109
199.030,97
199.055,84
199.080,69
199.105,54
199.130,48
199.155,59
199.180,87
199.205,121
199.230,149
199.255,169
199.280,183
199.305,196
199.330,204
199.355,205
199.380,198
199.405,192
199.430,193
199.455,199
199.480,204
199.505,204
199.530,199
199.555,195
199.580,191
199.605,184
199.630,173
199.655,158
199.680,146
199.705,138
199.730,131
199.755,121
199.780,109
199.805,95
199.830,80
199.855,63
199.880,46
199.905,39
199.930,50
199.955,80
199.980,119
200.005,151
200.030,171
200.055,183
200.080,193
200.105,203
200.130,207
200.155,203
200.180,196
200.205,195
200.230,201
200.255,210
200.280,214
200.305,212
200.330,206
200.355,200
200.380,194
200.405,185
200.430,172
200.455,160
200.480,149
200.505,140
200.530,129
200.555,117
200.580,105
200.605,95
200.630,82
200.655,67
200.680,53
200.705,50
200.730,67
200.755,98
200.780,131
200.805,154
200.830,168
200.855,177
200.880,187
200.905,194
200.930,196
200.955,191
200.980,185
201.005,183
201.030,187
201.055,191
201.080,193
201.105,191
201.130,188
201.155,182
201.180,175
201.205,165
201.230,154
201.255,143
201.280,133
201.305,125
201.330,119
201.355,113
201.380,103
201.405,88
201.430,70
201.455,58
201.480,60
201.505,80
201.530,110
201.555,139
201.580,160
201.605,174
201.630,184
201.655,191
201.680,194
201.705,190
201.730,183
201.755,179
201.780,180
201.805,184
201.830,187
201.855,188
201.880,188
201.905,187
201.930,184
201.955,177
201.980,166
202.005,156
202.030,149
202.055,143
202.080,135
202.105,126
202.130,116
202.155,104
202.180,92
202.205,80
202.230,71
202.255,72
202.280,88
202.305,114
202.330,141
202.355,162
202.380,176
202.405,186
202.430,193
202.455,197
202.480,196
202.505,189
202.530,183
202.555,181
202.580,184
202.605,190
202.630,194
202.655,195
202.680,192
202.705,187
202.730,179
202.755,169
202.780,156
202.805,146
202.830,139
202.855,134
202.880,129
202.905,122
202.930,113
202.955,103
202.980,92
203.005,80
203.030,69
203.055,67
203.080,76
203.105,99
203.130,129
203.155,156
203.180,174
203.205,183
203.230,187
203.255,189
203.280,189
203.305,187
203.330,183
203.355,182
203.380,185
203.405,191
203.430,194
203.455,194
203.480,191
203.505,186
203.530,180
203.555,172
203.580,162
203.605,153
203.630,147
203.655,144
203.680,142
203.705,136
203.730,128
203.755,117
203.780,106
203.805,92
203.830,78
203.855,69
203.880,73
203.905,93
203.930,124
203.955,152
203.980,172
204.005,182
204.030,187
204.055,192
204.080,195
204.105,194
204.130,190
204.155,187
204.180,189
204.205,194
204.230,199
204.255,200
204.280,197
204.305,193
204.330,190
204.355,185
204.380,178
204.405,168
204.430,159
204.455,149
204.480,139
204.505,129
204.530,120
204.555,112
204.580,104
204.605,92
204.630,77
204.655,67
204.680,69
204.705,87
204.730,114
204.755,139
204.780,154
204.805,162
204.830,168
204.855,172
204.880,171
204.905,162
204.930,149
204.955,139
204.980,136
205.005,139
205.030,140
205.055,134
205.080,125
205.105,113
205.130,101
205.155,88
205.180,73
205.205,59
205.230,49
205.255,39
205.280,27
205.305,13
205.330,0
205.355,-13
205.380,-26
205.405,-40
205.430,-52
205.455,-51
205.480,-32
205.505,1
205.530,38
205.555,68
205.580,90
205.605,107
205.630,125
205.655,140
205.680,151
205.705,161
205.730,174
205.755,194
205.780,221
205.805,249
205.830,276
205.855,301
205.880,325
205.905,349
205.930,372
205.955,396
205.980,424
206.005,454
206.030,481
206.055,506
206.080,527
206.105,545
206.130,555
206.155,550
206.180,529
206.205,506
206.230,495
206.255,499
206.280,504
206.305,489
206.330,447
206.355,390
206.380,334
206.405,285
206.430,234
206.455,171
206.480,98
206.505,30
206.530,-18
206.555,-47
206.580,-72
206.605,-104
206.630,-148
206.655,-191
206.680,-220
206.705,-229
206.730,-224
206.755,-218
206.780,-217
206.805,-220
206.830,-222
206.855,-220
206.880,-213
206.905,-206
206.930,-194
206.955,-169
206.980,-123
207.005,-58
207.030,12
207.055,72
207.080,112
207.105,138
207.130,160
207.155,182
207.180,202
207.205,214
207.230,219
207.255,225
207.280,236
207.305,251
207.330,262
207.355,263
207.380,256
207.405,250
207.430,249
207.455,249
207.480,246
207.505,237
207.530,225
207.555,213
207.580,199
207.605,182
207.630,163
207.655,150
207.680,152
207.705,172
207.730,201
207.755,228
207.780,244
207.805,251
207.830,254
207.855,255
207.880,253
207.905,245
207.930,234
207.955,224
207.980,219
208.005,219
208.030,219
208.055,214
208.080,204
208.105,193
208.130,184
208.155,175
208.180,162
208.205,145
208.230,129
208.255,116
208.280,106
208.305,94
208.330,76
208.355,57
208.380,50
208.405,65
208.430,98
208.455,136
208.480,165
208.505,180
208.530,186
208.555,189
208.580,194
208.605,196
208.630,194
208.655,189
208.680,185
208.705,185
208.730,186
208.755,184
208.780,176
208.805,164
208.830,153
208.855,147
208.880,143
208.905,136
208.930,124
208.955,109
208.980,97
209.005,89
209.030,81
209.055,67
209.080,50
209.105,40
209.130,48
209.155,76
209.180,112
209.205,145
209.230,165
209.255,178
209.280,190
209.305,201
209.330,208
209.355,208
209.380,202
209.405,200
209.430,205
209.455,213
209.480,219
209.505,219
209.530,217
209.555,216
209.580,218
209.605,219
209.630,218
209.655,213
209.680,209
209.705,207
209.730,206
209.755,205
209.780,203
209.805,200
209.830,198
209.855,197
209.880,197
209.905,195
209.930,191
209.955,184
209.980,177
210.005,172
210.030,170
210.055,167
210.080,163
210.105,157
210.130,153
210.155,150
210.180,146
210.205,140
210.230,133
210.255,126
210.280,121
210.305,116
210.330,110
210.355,103
210.380,97
210.405,90
210.430,82
210.455,74
210.480,67
210.505,62
210.530,55
210.555,41
210.580,25
210.605,20
210.630,40
210.655,87
210.680,143
210.705,185
210.730,204
210.755,206
210.780,206
210.805,209
210.830,211
210.855,207
210.880,200
210.905,196
210.930,201
210.955,208
210.980,211
211.005,206
211.030,199
211.055,193
211.080,190
211.105,186
211.130,176
211.155,164
211.180,154
211.205,148
211.230,141
211.255,129
211.280,113
211.305,99
211.330,99
211.355,117
211.380,148
211.405,179
211.430,200
211.455,209
211.480,211
211.505,212
211.530,212
211.555,207
211.580,198
211.605,188
211.630,185
211.655,189
211.680,192
211.705,189
211.730,182
211.755,174
211.780,169
211.805,161
211.830,147
211.855,129
211.880,113
211.905,104
211.930,96
211.955,82
211.980,62
212.005,49
212.030,57
212.055,85
212.080,123
212.105,154
212.130,171
212.155,180
212.180,188
212.205,199
212.230,207
212.255,207
212.280,201
212.305,193
212.330,191
212.355,193
212.380,197
212.405,196
212.430,189
212.455,181
212.480,173
212.505,165
212.530,155
212.555,143
212.580,131
212.605,121
212.630,110
212.655,95
212.680,76
212.705,59
212.730,56
212.755,74
212.780,107
212.805,142
212.830,168
212.855,182
212.880,192
212.905,202
212.930,211
212.955,215
212.980,214
213.005,211
213.030,210
213.055,211
213.080,211
213.105,210
213.130,204
213.155,197
213.180,188
213.205,180
213.230,171
213.255,162
213.280,151
213.305,139
213.330,127
213.355,116
213.380,104
213.405,87
213.430,64
213.455,45
213.480,42
213.505,60
213.530,96
213.555,133
213.580,160
213.605,178
213.630,191
213.655,204
213.680,214
213.705,216
213.730,210
213.755,204
213.780,203
213.805,206
213.830,207
213.855,206
213.880,203
213.905,200
213.930,195
213.955,185
213.980,171
214.005,158
214.030,149
214.055,141
214.080,130
214.105,116
214.130,102
214.155,89
214.180,76
214.205,62
214.230,54
214.255,62
214.280,89
214.305,125
214.330,157
214.355,178
214.380,190
214.405,201
214.430,212
214.455,218
214.480,214
214.505,207
214.530,204
214.555,208
214.580,213
214.605,213
214.630,205
214.655,197
214.680,189
214.705,183
214.730,173
214.755,160
214.780,148
214.805,139
214.830,130
214.855,118
214.880,103
214.905,87
214.930,71
214.955,54
214.980,40
215.005,37
215.030,52
215.055,82
215.080,117
215.105,144
215.130,163
215.155,178
215.180,197
215.205,215
215.230,223
215.255,219
215.280,210
215.305,206
215.330,210
215.355,218
215.380,220
215.405,216
215.430,211
215.455,206
215.480,201
215.505,190
215.530,174
215.555,160
215.580,151
215.605,147
215.630,140
215.655,127
215.680,110
215.705,96
215.730,85
215.755,73
215.780,58
215.805,46
215.830,48
215.855,68
215.880,102
215.905,136
215.930,160
215.955,172
215.980,182
216.005,193
216.030,204
216.055,209
216.080,207
216.105,202
216.130,200
216.155,204
216.180,208
216.205,208
216.230,205
216.255,200
216.280,196
216.305,191
216.330,183
216.355,172
216.380,162
216.405,154
216.430,147
216.455,138
216.480,125
216.505,113
216.530,105
216.555,98
216.580,87
216.605,70
216.630,57
216.655,59
216.680,81
216.705,115
216.730,148
216.755,169
216.780,181
216.805,192
216.830,204
216.855,215
216.880,216
216.905,209
216.930,199
216.955,195
216.980,198
217.005,205
217.030,208
217.055,205
217.080,198
217.105,192
217.130,185
217.155,178
217.180,170
217.205,161
217.230,152
217.255,145
217.280,139
217.305,131
217.330,123
217.355,117
217.380,113
217.405,106
217.430,93
217.455,78
217.480,69
217.505,76
217.530,99
217.555,129
217.580,154
217.605,169
217.630,176
217.655,181
217.680,187
217.705,189
217.730,185
217.755,178
217.780,175
217.805,178
217.830,185
217.855,189
217.880,189
217.905,186
217.930,182
217.955,177
217.980,170
218.005,163
218.030,158
218.055,154
218.080,151
218.105,144
218.130,136
218.155,126
218.180,117
218.205,105
218.230,93
218.255,86
218.280,92
218.305,113
218.330,142
218.355,167
218.380,181
218.405,187
218.430,192
218.455,197
218.480,200
218.505,196
218.530,189
218.555,186
218.580,189
218.605,195
218.630,197
218.655,194
218.680,189
218.705,185
218.730,181
218.755,175
218.780,164
218.805,154
218.830,147
218.855,143
218.880,139
218.905,131
218.930,119
218.955,109
218.980,101
219.005,91
219.030,78
219.055,67
219.080,67
219.105,86
219.130,117
219.155,149
219.180,170
219.205,180
219.230,187
219.255,194
219.280,202
219.305,205
219.330,202
219.355,195
219.380,193
219.405,197
219.430,202
219.455,204
219.480,201
219.505,197
219.530,193
219.555,189
219.580,182
219.605,173
219.630,164
219.655,156
219.680,148
219.705,138
219.730,129
219.755,123
219.780,120
219.805,115
219.830,101
219.855,81
219.880,67
219.905,71
219.930,96
219.955,130
219.980,159
220.005,175
220.030,180
220.055,185
220.080,194
220.105,203
220.130,206
220.155,200
220.180,190
220.205,183
220.230,185
220.255,193
220.280,198
220.305,197
220.330,190
220.355,183
220.380,178
220.405,174
220.430,168
220.455,159
220.480,150
220.505,143
220.530,136
220.555,129
220.580,119
220.605,108
220.630,97
220.655,85
220.680,72
220.705,61
220.730,61
220.755,78
220.780,109
220.805,142
220.830,165
220.855,177
220.880,183
220.905,191
220.930,200
220.955,207
220.980,207
221.005,203
221.030,200
221.055,201
221.080,204
221.105,205
221.130,202
221.155,198
221.180,194
221.205,189
221.230,183
221.255,174
221.280,165
221.305,158
221.330,150
221.355,140
221.380,129
221.405,119
221.430,110
221.455,99
221.480,84
221.505,67
221.530,59
221.555,69
221.580,98
221.605,134
221.630,164
221.655,180
221.680,188
221.705,194
221.730,200
221.755,203
221.780,198
221.805,190
221.830,187
221.855,191
221.880,199
221.905,203
221.930,200
221.955,194
221.980,188
222.005,184
222.030,179
222.055,171
222.080,162
222.105,153
222.130,147
222.155,139
222.180,130
222.205,117
222.230,102
222.255,87
222.280,75
222.305,71
222.330,82
222.355,107
222.380,139
222.405,167
222.430,183
222.455,190
222.480,194
222.505,200
222.530,204
222.555,204
222.580,199
222.605,194
222.630,194
222.655,197
222.680,197
222.705,193
222.730,187
222.755,182
222.780,178
222.805,171
222.830,161
222.855,149
222.880,138
222.905,129
222.930,121
222.955,112
222.980,103
223.005,95
223.030,84
223.055,68
223.080,53
223.105,47
223.130,60
223.155,92
223.180,131
223.205,162
223.230,180
223.255,190
223.280,198
223.305,207
223.330,212
223.355,211
223.380,206
223.405,205
223.430,209
223.455,214
223.480,215
223.505,210
223.530,203
223.555,196
223.580,190
223.605,182
223.630,172
223.655,161
223.680,150
223.705,140
223.730,130
223.755,119
223.780,108
223.805,97
223.830,84
223.855,70
223.880,60
223.905,61
223.930,78
223.955,109
223.980,143
224.005,171
224.030,189
224.055,200
224.080,209
224.105,215
224.130,217
224.155,212
224.180,204
224.205,199
224.230,199
224.255,204
224.280,207
224.305,206
224.330,201
224.355,193
224.380,182
224.405,171
224.430,159
224.455,148
224.480,141
224.505,134
224.530,125
224.555,114
224.580,103
224.605,94
224.630,84
224.655,72
224.680,59
224.705,53
224.730,63
224.755,89
224.780,120
224.805,146
224.830,162
224.855,171
224.880,179
224.905,187
224.930,190
224.955,188
224.980,182
225.005,179
225.030,181
225.055,184
225.080,185
225.105,184
225.130,182
225.155,181
225.180,180
225.205,174
225.230,165
225.255,155
225.280,149
225.305,146
225.330,141
225.355,134
225.380,126
225.405,120
225.430,116
225.455,110
225.480,100
225.505,94
225.530,102
225.555,130
225.580,169
225.605,205
225.630,230
225.655,246
225.680,258
225.705,270
225.730,278
225.755,278
225.780,271
225.805,263
225.830,257
225.855,254
225.880,249
225.905,240
225.930,230
225.955,219
225.980,209
226.005,192
226.030,165
226.055,129
226.080,90
226.105,54
226.130,24
226.155,5
226.180,0
226.205,5
226.230,19
226.255,33
226.280,42
226.305,53
226.330,74
226.355,109
226.380,148
226.405,174
226.430,174
226.455,152
226.480,122
226.505,99
226.530,89
226.555,89
226.580,95
226.605,107
226.630,125
226.655,149
226.680,175
226.705,199
226.730,220
226.755,234
226.780,243
226.805,244
226.830,239
226.855,232
226.880,224
226.905,214
226.930,198
226.955,178
226.980,156
227.005,136
227.030,119
227.055,106
227.080,102
227.105,115
227.130,143
227.155,177
227.180,203
227.205,212
227.230,208
227.255,202
227.280,200
227.305,197
227.330,187
227.355,173
227.380,162
227.405,159
227.430,161
227.455,158
227.480,150
227.505,141
227.530,136
227.555,132
227.580,122
227.605,107
227.630,100
227.655,114
227.680,149
227.705,190
227.730,211
227.755,203
227.780,171
227.805,131
227.830,102
227.855,89
227.880,96
227.905,117
227.930,142
227.955,160
227.980,162
228.005,154
228.030,145
228.055,142
228.080,146
228.105,150
228.130,153
228.155,158
228.180,170
228.205,189
228.230,206
228.255,210
228.280,200
228.305,183
228.330,169
228.355,163
228.380,163
228.405,164
228.430,162
228.455,155
228.480,146
228.505,136
228.530,123
228.555,107
228.580,89
228.605,78
228.630,81
228.655,102
228.680,136
228.705,170
228.730,197
228.755,215
228.780,227
228.805,236
228.830,239
228.855,237
228.880,231
228.905,226
228.930,222
228.955,219
228.980,210
229.005,197
229.030,183
229.055,175
229.080,175
229.105,178
229.130,181
229.155,179
229.180,173
229.205,166
229.230,158
229.255,149
229.280,138
229.305,124
229.330,110
229.355,102
229.380,104
229.405,115
229.430,129
229.455,138
229.480,141
229.505,139
229.530,137
229.555,137
229.580,134
229.605,128
229.630,122
229.655,120
229.680,125
229.705,133
229.730,139
229.755,143
229.780,146
229.805,151
229.830,155
229.855,155
229.880,152
229.905,149
229.930,148
229.955,144
229.980,131
230.005,112
230.030,92
230.055,83
230.080,90
230.105,109
230.130,133
230.155,157
230.180,176
230.205,189
230.230,197
230.255,200
230.280,201
230.305,200
230.330,197
230.355,192
230.380,188
230.405,189
230.430,192
230.455,192
230.480,186
230.505,175
230.530,169
230.555,170
230.580,174
230.605,172
230.630,161
230.655,146
230.680,135
230.705,125
230.730,109
230.755,90
230.780,79
230.805,87
230.830,114
230.855,147
230.880,170
230.905,182
230.930,191
230.955,205
230.980,218
231.005,221
231.030,213
231.055,202
231.080,197
231.105,201
231.130,204
231.155,200
231.180,192
231.205,183
231.230,180
231.255,177
231.280,171
231.305,160
231.330,147
231.355,135
231.380,125
231.405,116
231.430,105
231.455,91
231.480,76
231.505,67
231.530,70
231.555,90
231.580,123
231.605,157
231.630,183
231.655,194
231.680,197
231.705,197
231.730,197
231.755,195
231.780,191
231.805,186
231.830,186
231.855,189
231.880,193
231.905,193
231.930,188
231.955,181
231.980,175
232.005,169
232.030,163
232.055,155
232.080,146
232.105,136
232.130,128
232.155,118
232.180,107
232.205,92
232.230,80
232.255,77
232.280,89
232.305,114
232.330,145
232.355,170
232.380,184
232.405,189
232.430,194
232.455,199
232.480,201
232.505,197
232.530,188
232.555,182
232.580,183
232.605,191
232.630,196
232.655,192
232.680,180
232.705,169
232.730,161
232.755,157
232.780,151
232.805,141
232.830,130
232.855,121
232.880,111
232.905,99
232.930,83
232.955,73
232.980,78
233.005,99
233.030,130
233.055,158
233.080,177
233.105,186
233.130,192
233.155,196
233.180,198
233.205,194
233.230,187
233.255,181
233.280,182
233.305,187
233.330,193
233.355,193
233.380,187
233.405,180
233.430,175
233.455,172
233.480,167
233.505,157
233.530,145
233.555,137
233.580,132
233.605,128
233.630,116
233.655,94
233.680,74
233.705,69
233.730,85
233.755,117
233.780,148
233.805,169
233.830,180
233.855,189
233.880,199
233.905,205
233.930,203
233.955,195
233.980,189
234.005,191
234.030,197
234.055,200
234.080,197
234.105,192
234.130,188
234.155,185
234.180,180
234.205,169
234.230,158
234.255,150
234.280,147
234.305,142
234.330,133
234.355,122
234.380,110
234.405,99
234.430,86
234.455,74
234.480,71
234.505,85
234.530,114
234.555,146
234.580,168
234.605,179
234.630,184
234.655,190
234.680,196
234.705,198
234.730,192
234.755,185
234.780,182
234.805,183
234.830,185
234.855,184
234.880,183
234.905,184
234.930,183
234.955,179
234.980,169
235.005,158
235.030,151
235.055,149
235.080,147
235.105,143
235.130,135
235.155,125
235.180,113
235.205,99
235.230,86
235.255,84
235.280,99
235.305,126
235.330,156
235.355,177
235.380,187
235.405,193
235.430,197
235.455,200
235.480,199
235.505,193
235.530,189
235.555,188
235.580,189
235.605,190
235.630,191
235.655,192
235.680,192
235.705,188
235.730,176
235.755,161
235.780,149
235.805,144
235.830,143
235.855,138
235.880,129
235.905,119
235.930,110
235.955,99
235.980,85
236.005,71
236.030,70
236.055,87
236.080,117
236.105,146
236.130,164
236.155,173
236.180,180
236.205,189
236.230,196
236.255,195
236.280,187
236.305,181
236.330,182
236.355,188
236.380,193
236.405,193
236.430,192
236.455,191
236.480,189
236.505,184
236.530,175
236.555,165
236.580,158
236.605,150
236.630,142
236.655,132
236.680,124
236.705,116
236.730,106
236.755,91
236.780,81
236.805,85
236.830,106
236.855,137
236.880,165
236.905,181
236.930,190
236.955,196
236.980,202
237.005,203
237.030,198
237.055,191
237.080,188
237.105,192
237.130,196
237.155,197
237.180,194
237.205,190
237.230,188
237.255,186
237.280,181
237.305,173
237.330,164
237.355,155
237.380,148
237.405,140
237.430,132
237.455,124
237.480,114
237.505,101
237.530,86
237.555,79
237.580,85
237.605,106
237.630,134
237.655,158
237.680,173
237.705,181
237.730,184
237.755,186
237.780,186
237.805,182
237.830,178
237.855,177
237.880,178
237.905,181
237.930,181
237.955,179
237.980,176
238.005,174
238.030,173
238.055,170
238.080,163
238.105,153
238.130,143
238.155,131
238.180,118
238.205,102
238.230,85
238.255,76
238.280,80
238.305,99
238.330,128
238.355,159
238.380,183
238.405,199
238.430,207
238.455,211
238.480,212
238.505,209
238.530,203
238.555,196
238.580,190
238.605,188
238.630,188
238.655,186
238.680,178
238.705,165
238.730,150
238.755,137
238.780,128
238.805,119
238.830,106
238.855,90
238.880,76
238.905,65
238.930,54
238.955,40
238.980,30
239.005,39
239.030,79
239.055,144
239.080,214
239.105,264
239.130,284
239.155,280
239.180,271
239.205,265
239.230,262
239.255,256
239.280,246
239.305,237
239.330,232
239.355,230
239.380,226
239.405,218
239.430,206
239.455,195
239.480,184
239.505,172
239.530,156
239.555,139
239.580,123
239.605,109
239.630,92
239.655,70
239.680,47
239.705,32
239.730,34
239.755,52
239.780,77
239.805,96
239.830,106
239.855,110
239.880,114
239.905,122
239.930,133
239.955,145
239.980,156
240.005,169
240.030,184
240.055,199
240.080,211
240.105,216
240.130,216
240.155,212
240.180,205
240.205,196
240.230,183
240.255,168
240.280,151
240.305,136
240.330,124
240.355,114
240.380,101
240.405,84
240.430,67
240.455,59
240.480,70
240.505,99
240.530,137
240.555,174
240.580,201
240.605,220
240.630,232
240.655,238
240.680,239
240.705,235
240.730,230
240.755,227
240.780,231
240.805,238
240.830,246
240.855,251
240.880,249
240.905,242
240.930,232
240.955,222
240.980,212
241.005,198
241.030,173
241.055,138
241.080,99
241.105,67
241.130,45
241.155,29
241.180,16
241.205,10
241.230,20
241.255,48
241.280,88
241.305,126
241.330,153
241.355,169
241.380,181
241.405,189
241.430,191
241.455,189
241.480,184
241.505,183
241.530,186
241.555,192
241.580,193
241.605,191
241.630,185
241.655,180
241.680,174
241.705,167
241.730,157
241.755,147
241.780,137
241.805,128
241.830,119
241.855,109
241.880,96
241.905,83
241.930,77
241.955,86
241.980,109
242.005,140
242.030,167
242.055,184
242.080,194
242.105,201
242.130,207
242.155,209
242.180,203
242.205,193
242.230,188
242.255,191
242.280,199
242.305,204
242.330,200
242.355,191
242.380,181
242.405,174
242.430,167
242.455,161
242.480,154
242.505,148
242.530,144
242.555,139
242.580,132
242.605,120
242.630,104
242.655,88
242.680,78
242.705,82
242.730,102
242.755,133
242.780,162
242.805,181
242.830,189
242.855,193
242.880,196
242.905,200
242.930,199
242.955,193
242.980,188
243.005,187
243.030,191
243.055,194
243.080,191
243.105,183
243.130,174
243.155,169
243.180,166
243.205,160
243.230,149
243.255,136
243.280,124
243.305,117
243.330,110
243.355,99
243.380,85
243.405,73
243.430,71
243.455,85
243.480,112
243.505,143
243.530,170
243.555,188
243.580,198
243.605,204
243.630,208
243.655,209
243.680,207
243.705,201
243.730,195
243.755,194
243.780,196
243.805,200
243.830,201
243.855,196
243.880,189
243.905,181
243.930,174
243.955,167
243.980,158
244.005,146
244.030,135
244.055,124
244.080,113
244.105,99
244.130,83
244.155,72
244.180,74
244.205,94
244.230,126
244.255,156
244.280,177
244.305,187
244.330,191
244.355,193
244.380,193
244.405,188
244.430,180
244.455,173
244.480,173
244.505,179
244.530,185
244.555,186
244.580,181
244.605,175
244.630,170
244.655,166
244.680,160
244.705,152
244.730,143
244.755,137
244.780,129
244.805,118
244.830,103
244.855,91
244.880,92
244.905,108
244.930,134
244.955,161
244.980,181
245.005,194
245.030,201
245.055,204
245.080,201
245.105,192
245.130,183
245.155,177
245.180,180
245.205,185
245.230,187
245.255,183
245.280,174
245.305,165
245.330,159
245.355,153
245.380,146
245.405,137
245.430,127
245.455,116
245.480,104
245.505,91
245.530,77
245.555,67
245.580,67
245.605,81
245.630,108
245.655,140
245.680,167
245.705,185
245.730,193
245.755,196
245.780,200
245.805,203
245.830,203
245.855,198
245.880,195
245.905,196
245.930,203
245.955,208
245.980,208
246.005,201
246.030,193
246.055,187
246.080,181
246.105,174
246.130,166
246.155,160
246.180,155
246.205,148
246.230,136
246.255,125
246.280,126
246.305,146
246.330,180
246.355,214
246.380,240
246.405,254
246.430,264
246.455,274
246.480,284
246.505,288
246.530,288
246.555,285
246.580,284
246.605,285
246.630,285
246.655,281
246.680,275
246.705,266
246.730,255
246.755,242
246.780,227
246.805,210
246.830,191
246.855,170
246.880,147
246.905,122
246.930,96
246.955,69
246.980,44
247.005,27
247.030,26
247.055,40
247.080,58
247.105,66
247.130,54
247.155,29
247.180,2
247.205,-19
247.230,-39
247.255,-64
247.280,-91
247.305,-110
247.330,-111
247.355,-103
247.380,-100
247.405,-110
247.430,-126
247.455,-130
247.480,-117
247.505,-96
247.530,-83
247.555,-79
247.580,-69
247.605,-35
247.630,22
247.655,88
247.680,145
247.705,194
247.730,244
247.755,303
247.780,365
247.805,415
247.830,445
247.855,457
247.880,459
247.905,454
247.930,440
247.955,419
247.980,396
248.005,378
248.030,363
248.055,345
248.080,319
248.105,287
248.130,257
248.155,234
248.180,217
248.205,200
248.230,180
248.255,162
248.280,146
248.305,132
248.330,114
248.355,95
248.380,81
248.405,82
248.430,98
248.455,122
248.480,144
248.505,161
248.530,177
248.555,195
248.580,211
248.605,219
248.630,219
248.655,216
248.680,219
248.705,228
248.730,238
248.755,241
248.780,237
248.805,228
248.830,222
248.855,218
248.880,212
248.905,201
248.930,181
248.955,154
248.980,122
249.005,90
249.030,67
249.055,58
249.080,63
249.105,75
249.130,86
249.155,93
249.180,101
249.205,118
249.230,144
249.255,173
249.280,199
249.305,218
249.330,230
249.355,233
249.380,232
249.405,231
249.430,234
249.455,237
249.480,235
249.505,220
249.530,195
249.555,167
249.580,141
249.605,113
249.630,79
249.655,43
249.680,17
249.705,13
249.730,31
249.755,57
249.780,78
249.805,89
249.830,92
249.855,89
249.880,80
249.905,71
249.930,70
249.955,87
249.980,113
250.005,130
250.030,121
250.055,93
250.080,69
250.105,73
250.130,105
250.155,145
250.180,167
250.205,158
250.230,127
250.255,92
250.280,70
250.305,65
250.330,73
250.355,86
250.380,97
250.405,107
250.430,118
250.455,132
250.480,148
250.505,161
250.530,169
250.555,174
250.580,180
250.605,186
250.630,191
250.655,194
250.680,199
250.705,209
250.730,223
250.755,231
250.780,230
250.805,223
250.830,218
250.855,214
250.880,201
250.905,173
250.930,136
250.955,108
250.980,106
251.005,128
251.030,160
251.055,190
251.080,217
251.105,245
251.130,275
251.155,300
251.180,310
251.205,309
251.230,306
251.255,311
251.280,318
251.305,313
251.330,285
251.355,235
251.380,178
251.405,127
251.430,90
251.455,67
251.480,54
251.505,41
251.530,25
251.555,7
251.580,-4
251.605,0
251.630,20
251.655,53
251.680,85
251.705,109
251.730,124
251.755,136
251.780,149
251.805,159
251.830,164
251.855,163
251.880,161
251.905,164
251.930,170
251.955,176
251.980,178
252.005,176
252.030,172
252.055,167
252.080,162
252.105,154
252.130,144
252.155,133
252.180,123
252.205,110
252.230,98
252.255,91
252.280,97
252.305,120
252.330,150
252.355,178
252.380,194
252.405,200
252.430,205
252.455,211
252.480,216
252.505,215
252.530,209
252.555,202
252.580,199
252.605,201
252.630,202
252.655,198
252.680,191
252.705,185
252.730,180
252.755,174
252.780,163
252.805,149
252.830,136
252.855,124
252.880,113
252.905,100
252.930,90
252.955,90
252.980,105
253.005,130
253.030,156
253.055,174
253.080,182
253.105,186
253.130,189
253.155,192
253.180,191
253.205,184
253.230,174
253.255,167
253.280,167
253.305,169
253.330,171
253.355,168
253.380,161
253.405,152
253.430,143
253.455,134
253.480,126
253.505,118
253.530,109
253.555,98
253.580,86
253.605,77
253.630,79
253.655,95
253.680,120
253.705,145
253.730,164
253.755,175
253.780,182
253.805,187
253.830,191
253.855,189
253.880,184
253.905,180
253.930,180
253.955,184
253.980,187
254.005,189
254.030,189
254.055,188
254.080,186
254.105,180
254.130,170
254.155,162
254.180,158
254.205,156
254.230,151
254.255,141
254.280,132
254.305,133
254.330,150
254.355,178
254.380,206
254.405,224
254.430,232
254.455,234
254.480,233
254.505,229
254.530,221
254.555,207
254.580,192
254.605,179
254.630,170
254.655,163
254.680,153
254.705,142
254.730,131
254.755,125
254.780,122
254.805,120
254.830,115
254.855,108
254.880,97
254.905,85
254.930,70
254.955,58
254.980,55
255.005,67
255.030,95
255.055,129
255.080,158
255.105,174
255.130,180
255.155,185
255.180,189
255.205,190
255.230,185
255.255,178
255.280,173
255.305,175
255.330,179
255.355,179
255.380,175
255.405,168
255.430,164
255.455,159
255.480,153
255.505,144
255.530,134
255.555,127
255.580,118
255.605,104
255.630,90
255.655,86
255.680,101
255.705,132
255.730,166
255.755,189
255.780,198
255.805,201
255.830,205
255.855,210
255.880,210
255.905,204
255.930,195
255.955,191
255.980,192
256.005,195
256.030,193
256.055,188
256.080,182
256.105,178
256.130,174
256.155,166
256.180,154
256.205,143
256.230,133
256.255,123
256.280,108
256.305,92
256.330,83
256.355,90
256.380,113
256.405,142
256.430,166
256.455,181
256.480,188
256.505,193
256.530,195
256.555,191
256.580,183
256.605,176
256.630,175
256.655,179
256.680,184
256.705,185
256.730,182
256.755,177
256.780,172
256.805,164
256.830,153
256.855,141
256.880,133
256.905,128
256.930,119
256.955,106
256.980,94
257.005,96
257.030,118
257.055,150
257.080,178
257.105,191
257.130,192
257.155,189
257.180,189
257.205,188
257.230,182
257.255,174
257.280,169
257.305,169
257.330,173
257.355,173
257.380,166
257.405,156
257.430,147
257.455,138
257.480,130
257.505,124
257.530,124
257.555,125
257.580,122
257.605,109
257.630,92
257.655,84
257.680,95
257.705,123
257.730,155
257.755,178
257.780,190
257.805,197
257.830,205
257.855,211
257.880,211
257.905,204
257.930,197
257.955,194
257.980,196
258.005,198
258.030,195
258.055,189
258.080,183
258.105,178
258.130,171
258.155,161
258.180,148
258.205,138
258.230,130
258.255,121
258.280,109
258.305,94
258.330,87
258.355,93
258.380,115
258.405,142
258.430,167
258.455,182
258.480,190
258.505,193
258.530,195
258.555,194
258.580,189
258.605,182
258.630,175
258.655,173
258.680,176
258.705,179
258.730,181
258.755,177
258.780,171
258.805,164
258.830,157
258.855,150
258.880,143
258.905,136
258.930,128
258.955,117
258.980,101
259.005,84
259.030,73
259.055,80
259.080,106
259.105,141
259.130,170
259.155,187
259.180,191
259.205,192
259.230,196
259.255,199
259.280,199
259.305,193
259.330,187
259.355,184
259.380,186
259.405,187
259.430,185
259.455,180
259.480,175
259.505,169
259.530,162
259.555,153
259.580,146
259.605,141
259.630,134
259.655,121
259.680,102
259.705,86
259.730,84
259.755,102
259.780,134
259.805,166
259.830,188
259.855,199
259.880,202
259.905,202
259.930,202
259.955,199
259.980,193
260.005,186
260.030,184
260.055,188
260.080,193
260.105,193
260.130,186
260.155,175
260.180,163
260.205,154
260.230,144
260.255,131
260.280,115
260.305,100
260.330,87
260.355,76
260.380,63
260.405,51
260.430,46
260.455,58
260.480,85
260.505,119
260.530,147
260.555,164
260.580,174
260.605,179
260.630,181
260.655,179
260.680,175
260.705,174
260.730,179
260.755,189
260.780,198
260.805,202
260.830,202
260.855,203
260.880,205
260.905,206
260.930,202
260.955,194
260.980,185
261.005,177
261.030,171
261.055,165
261.080,157
261.105,146
261.130,133
261.155,123
261.180,121
261.205,134
261.230,158
261.255,186
261.280,205
261.305,211
261.330,205
261.355,196
261.380,188
261.405,182
261.430,177
261.455,172
261.480,170
261.505,174
261.530,180
261.555,184
261.580,183
261.605,175
261.630,165
261.655,155
261.680,147
261.705,141
261.730,135
261.755,128
261.780,120
261.805,113
261.830,106
261.855,97
261.880,85
261.905,74
261.930,71
261.955,84
261.980,114
262.005,150
262.030,179
262.055,194
262.080,198
262.105,199
262.130,201
262.155,202
262.180,198
262.205,189
262.230,179
262.255,175
262.280,180
262.305,188
262.330,191
262.355,186
262.380,175
262.405,164
262.430,157
262.455,152
262.480,144
262.505,132
262.530,120
262.555,109
262.580,100
262.605,89
262.630,75
262.655,64
262.680,65
262.705,82
262.730,111
262.755,143
262.780,168
262.805,184
262.830,193
262.855,195
262.880,192
262.905,186
262.930,181
262.955,177
262.980,174
263.005,170
263.030,164
263.055,159
263.080,157
263.105,157
263.130,155
263.155,153
263.180,151
263.205,151
263.230,153
263.255,152
263.280,148
263.305,143
263.330,138
263.355,133
263.380,129
263.405,131
263.430,142
263.455,166
263.480,198
263.505,226
263.530,242
263.555,248
263.580,248
263.605,244
263.630,238
263.655,228
263.680,216
263.705,204
263.730,196
263.755,192
263.780,190
263.805,188
263.830,186
263.855,181
263.880,171
263.905,159
263.930,146
263.955,136
263.980,128
264.005,120
264.030,110
264.055,100
264.080,89
264.105,79
264.130,68
264.155,61
264.180,63
264.205,81
264.230,112
264.255,144
264.280,167
264.305,178
264.330,182
264.355,186
264.380,190
264.405,192
264.430,189
264.455,183
264.480,180
264.505,182
264.530,186
264.555,189
264.580,186
264.605,178
264.630,170
264.655,162
264.680,157
264.705,151
264.730,143
264.755,134
264.780,126
264.805,119
264.830,112
264.855,102
264.880,91
264.905,86
264.930,95
264.955,118
264.980,149
265.005,176
265.030,192
265.055,198
265.080,199
265.105,197
265.130,195
265.155,191
265.180,187
265.205,185
265.230,187
265.255,187
265.280,184
265.305,178
265.330,172
265.355,170
265.380,170
265.405,167
265.430,157
265.455,145
265.480,135
265.505,128
265.530,121
265.555,111
265.580,99
265.605,97
