df_hash,22ZHK4.QK206M
device,HZ2X61
project_hash,29R7
project_name,istanbul_aydin_university
person_hash,29R7.D6JC
person_label,V12
date_time_start,2025-05-22_10-41-54.002000_+03
date_time_start_unix,1747899714.002
date_time_end,2025-05-22_10-49-07.831000_+03
length_difference_noticed,no

time,ppg_ir,ppg_ambient,ppg_red
5.085,207922,168,234749
5.090,207892,168,234748
5.095,207866,168,234724
5.100,207837,168,234698
5.105,207828,168,234676
5.110,207837,168,234652
5.115,207798,168,234654
5.120,207784,168,234619
5.125,207765,168,234597
5.130,207769,168,234590
5.135,207752,168,234581
5.140,207761,168,234570
5.145,207748,168,234552
5.150,207739,168,234550
5.155,207699,168,234501
5.160,207711,168,234488
5.165,207693,168,234462
5.170,207679,168,234452
5.175,207666,168,234443
5.180,207656,168,234430
5.185,207646,168,234404
5.190,207644,168,234401
5.195,207634,168,234381
5.200,207607,168,234374
5.205,207611,168,234384
5.209,207623,168,234360
5.214,207597,168,234346
5.219,207589,168,234348
5.224,207583,168,234324
5.229,207577,168,234312
5.234,207558,168,234321
5.239,207568,168,234288
5.244,207551,168,234290
5.249,207571,168,234280
5.254,207574,168,234296
5.259,207573,168,234276
5.264,207580,168,234268
5.269,207590,168,234275
5.274,207583,168,234234
5.279,207591,168,234232
5.284,207594,168,234215
5.289,207590,168,234191
5.294,207601,168,234165
5.299,207595,168,234191
5.304,207583,168,234173
5.309,207598,168,234155
5.314,207594,168,234142
5.319,207581,168,234144
5.324,207600,168,234143
5.329,207593,168,234143
5.333,207598,168,234133
5.338,207597,168,234131
5.343,207614,168,234117
5.348,207603,168,234130
5.353,207602,168,234128
5.358,207620,168,234113
5.363,207594,168,234108
5.368,207595,168,234084
5.373,207585,168,234089
5.378,207600,168,234077
5.383,207593,168,234077
5.388,207580,168,234066
5.393,207593,168,234078
5.398,207578,168,234050
5.403,207596,168,234031
5.408,207584,168,234034
5.413,207600,168,234019
5.418,207574,168,234013
5.423,207588,168,234006
5.428,207601,168,234001
5.433,207607,168,233994
5.438,207606,168,233976
5.443,207632,168,233992
5.448,207632,168,233969
5.453,207637,168,233992
5.457,207643,168,233965
5.462,207632,168,233941
5.467,207651,168,233955
5.472,207658,168,233949
5.477,207668,168,233939
5.482,207640,168,233916
5.487,207667,168,233916
5.492,207685,168,233910
5.497,207679,168,233909
5.502,207685,168,233902
5.507,207702,168,233901
5.512,207697,168,233875
5.517,207704,168,233871
5.522,207689,168,233890
5.527,207710,168,233888
5.532,207717,168,233903
5.537,207718,168,233892
5.542,207737,168,233874
5.547,207749,168,233888
5.552,207741,168,233881
5.557,207763,168,233887
5.562,207747,168,233912
5.567,207762,168,233907
5.572,207771,168,233894
5.577,207773,168,233880
5.581,207785,168,233874
5.586,207786,168,233865
5.591,207799,168,233870
5.596,207809,168,233859
5.601,207812,168,233814
5.606,207829,168,233801
5.611,207816,168,233792
5.616,207813,168,233775
5.621,207814,168,233731
5.626,207839,168,233728
5.631,207833,168,233715
5.636,207839,168,233690
5.641,207838,168,233681
5.646,207846,168,233666
5.651,207864,168,233665
5.656,207861,168,233659
5.661,207873,168,233676
5.666,207896,168,233644
5.671,207900,168,233678
5.676,207910,168,233652
5.681,207907,168,233686
5.686,207920,168,233699
5.691,207922,168,233696
5.696,207936,168,233735
5.701,207939,168,233721
5.705,207942,168,233738
5.710,207944,168,233744
5.715,207919,168,233770
5.720,207916,168,233767
5.725,207886,168,233784
5.730,207878,168,233773
5.735,207860,168,233757
5.740,207827,168,233750
5.745,207819,168,233731
5.750,207778,168,233729
5.755,207759,168,233695
5.760,207733,168,233701
5.765,207723,168,233679
5.770,207690,168,233649
5.775,207665,168,233641
5.780,207625,168,233628
5.785,207629,168,233609
5.790,207610,168,233582
5.795,207589,168,233572
5.800,207575,168,233566
5.805,207531,168,233541
5.810,207518,168,233552
5.815,207508,168,233522
5.820,207469,168,233538
5.825,207472,168,233510
5.829,207471,168,233488
5.834,207437,168,233489
5.839,207423,168,233481
5.844,207425,168,233474
5.849,207430,168,233459
5.854,207399,168,233425
5.859,207407,168,233441
5.864,207401,168,233418
5.869,207397,168,233383
5.874,207358,168,233404
5.879,207344,168,233370
5.884,207318,168,233368
5.889,207323,168,233371
5.894,207310,168,233362
5.899,207299,168,233347
5.904,207299,168,233342
5.909,207291,168,233319
5.914,207283,168,233305
5.919,207287,168,233271
5.924,207266,168,233254
5.929,207288,168,233240
5.934,207291,168,233221
5.939,207295,168,233196
5.944,207309,168,233175
5.949,207299,168,233189
5.953,207327,168,233151
5.958,207345,168,233167
5.963,207326,168,233142
5.968,207326,168,233126
5.973,207303,168,233119
5.978,207282,168,233086
5.983,207259,168,233100
5.988,207235,168,233074
5.993,207252,168,233102
5.998,207249,168,233092
6.003,207255,168,233095
6.008,207288,168,233093
6.013,207298,168,233077
6.018,207306,168,233074
6.023,207289,168,233075
6.028,207294,168,233059
6.033,207282,168,233051
6.038,207248,168,233041
6.043,207270,168,233051
6.048,207233,168,233041
6.053,207260,168,233039
6.058,207277,168,233050
6.063,207284,168,233031
6.068,207302,168,233043
6.073,207307,168,233033
6.077,207320,168,233038
6.082,207291,168,233033
6.087,207287,168,233030
6.092,207282,168,233046
6.097,207284,168,233032
6.102,207252,168,233022
6.107,207265,168,233020
6.112,207251,168,233014
6.117,207248,168,233021
6.122,207239,168,233033
6.127,207241,168,233013
6.132,207284,168,233031
6.137,207262,168,233033
6.142,207249,168,233028
6.147,207246,168,233045
6.152,207248,168,233058
6.157,207235,168,233095
6.162,207233,168,233065
6.167,207223,168,233092
6.172,207213,168,233100
6.177,207210,168,233131
6.182,207201,168,233123
6.187,207181,168,233126
6.192,207182,168,233146
6.196,207185,168,233157
6.201,207198,168,233185
6.206,207187,168,233197
6.211,207209,168,233196
6.216,207208,168,233243
6.221,207227,168,233235
6.226,207252,168,233250
6.231,207257,168,233259
6.236,207284,168,233252
6.241,207280,168,233257
6.246,207280,168,233251
6.251,207310,168,233260
6.256,207299,168,233278
6.261,207310,168,233257
6.266,207326,168,233269
6.271,207317,168,233270
6.276,207335,168,233275
6.281,207326,168,233251
6.286,207332,168,233245
6.291,207318,168,233241
6.296,207348,168,233250
6.301,207338,168,233260
6.306,207346,168,233240
6.311,207349,168,233257
6.316,207357,168,233239
6.320,207358,168,233263
6.325,207370,168,233244
6.330,207382,168,233262
6.335,207397,168,233276
6.340,207404,168,233278
6.345,207400,168,233268
6.350,207402,168,233259
6.355,207422,168,233249
6.360,207425,168,233238
6.365,207445,168,233262
6.370,207439,168,233254
6.375,207461,168,233252
6.380,207481,168,233245
6.385,207492,168,233243
6.390,207513,168,233245
6.395,207524,168,233235
6.400,207517,168,233225
6.405,207516,168,233250
6.410,207519,168,233241
6.415,207509,168,233238
6.420,207474,168,233238
6.425,207477,168,233213
6.430,207455,168,233215
6.435,207446,168,233203
6.440,207427,168,233173
6.444,207411,168,233173
6.449,207399,168,233166
6.454,207387,168,233128
6.459,207359,168,233083
6.464,207343,168,233094
6.469,207342,168,233051
6.474,207319,168,233041
6.479,207306,168,232995
6.484,207297,168,233000
6.489,207284,168,232960
6.494,207251,168,232936
6.499,207253,168,232919
6.504,207230,168,232893
6.509,207234,168,232858
6.514,207229,168,232856
6.519,207216,168,232814
6.524,207196,168,232805
6.529,207177,168,232812
6.534,207172,168,232781
6.539,207143,168,232765
6.544,207117,168,232733
6.549,207103,168,232734
6.554,207081,168,232716
6.559,207087,168,232715
6.564,207071,168,232695
6.568,207069,168,232682
6.573,207063,168,232655
6.578,207058,168,232645
6.583,207056,168,232631
6.588,207031,168,232611
6.593,207021,168,232590
6.598,207027,168,232559
6.603,207025,168,232552
6.608,207022,168,232545
6.613,206984,168,232516
6.618,206986,168,232472
6.623,206965,168,232459
6.628,206951,168,232453
6.633,206967,168,232446
6.638,206964,168,232444
6.643,206998,168,232425
6.648,206993,168,232406
6.653,207017,168,232379
6.658,207024,168,232362
6.663,207041,168,232353
6.668,207023,168,232341
6.673,207020,168,232324
6.678,207016,168,232288
6.683,207004,168,232280
6.688,207022,168,232252
6.692,207016,168,232233
6.697,207018,168,232198
6.702,207017,168,232170
6.707,207034,168,232130
6.712,207047,168,232125
6.717,207038,168,232086
6.722,207051,168,232065
6.727,207018,168,232022
6.732,207004,168,231990
6.737,207033,168,231963
6.742,207002,168,231935
6.747,206998,168,231906
6.752,207017,168,231865
6.757,206995,168,231829
6.762,206985,168,231787
6.767,206993,168,231729
6.772,207005,168,231690
6.777,206985,168,231634
6.782,206978,168,231584
6.787,206970,168,231538
6.792,206952,168,231509
6.797,206940,168,231451
6.802,206930,168,231419
6.807,206890,168,231373
6.812,206888,168,231331
6.816,206885,168,231263
6.821,206900,168,231229
6.826,206868,168,231184
6.831,206873,168,231117
6.836,206844,168,231053
6.841,206832,168,231002
6.846,206793,168,230927
6.851,206783,168,230856
6.856,206743,168,230785
6.861,206731,168,230706
6.866,206721,168,230653
6.871,206697,168,230588
6.876,206693,168,230524
6.881,206689,168,230451
6.886,206683,168,230419
6.891,206679,168,230373
6.896,206674,168,230338
6.901,206644,168,230282
6.906,206630,168,230229
6.911,206591,168,230184
6.916,206551,168,230152
6.921,206534,168,230103
6.926,206496,168,230064
6.931,206451,168,230027
6.936,206425,168,230002
6.940,206397,168,229986
6.945,206355,168,229929
6.950,206334,168,229893
6.955,206304,168,229882
6.960,206275,168,229838
6.965,206223,168,229797
6.970,206203,168,229750
6.975,206187,168,229750
6.980,206153,168,229714
6.985,206136,168,229712
6.990,206152,168,229695
6.995,206160,168,229659
7.000,206208,168,229659
7.005,206206,168,229664
7.010,206227,168,229628
7.015,206265,168,229615
7.020,206258,168,229594
7.025,206241,168,229569
7.030,206215,168,229550
7.035,206211,168,229518
7.040,206154,168,229502
7.045,206148,168,229501
7.050,206113,168,229501
7.055,206093,168,229525
7.060,206096,168,229531
7.064,206056,168,229586
7.069,206024,168,229615
7.074,206010,168,229637
7.079,206001,168,229695
7.084,205959,168,229746
7.089,205943,168,229804
7.094,205903,168,229847
7.099,205865,168,229910
7.104,205788,168,229983
7.109,205733,168,230083
7.114,205666,168,230189
7.119,205597,168,230300
7.124,205534,168,230427
7.129,205453,168,230546
7.134,205414,168,230664
7.139,205338,168,230758
7.144,205304,168,230837
7.149,205234,168,230912
7.154,205188,168,230990
7.159,205096,168,231034
7.164,205002,168,231076
7.169,204947,168,231092
7.174,204885,168,231115
7.179,204828,168,231146
7.184,204773,168,231156
7.188,204776,168,231179
7.193,204747,168,231162
7.198,204730,168,231182
7.203,204706,168,231178
7.208,204672,168,231184
7.213,204649,168,231205
7.218,204624,168,231212
7.223,204590,168,231230
7.228,204554,168,231244
7.233,204524,168,231260
7.238,204469,168,231288
7.243,204451,168,231317
7.248,204396,168,231363
7.253,204342,168,231396
7.258,204302,168,231408
7.263,204225,168,231451
7.268,204147,168,231459
7.273,204076,168,231486
7.278,204011,168,231489
7.283,203935,168,231498
7.288,203895,168,231535
7.293,203839,168,231540
7.298,203808,168,231591
7.303,203759,168,231610
7.308,203692,168,231636
7.312,203634,168,231648
7.317,203576,168,231662
7.322,203527,168,231703
7.327,203476,168,231717
7.332,203448,168,231750
7.337,203421,168,231791
7.342,203373,168,231815
7.347,203358,168,231842
7.352,203298,168,231883
7.357,203287,168,231915
7.362,203239,168,231929
7.367,203227,168,231957
7.372,203194,168,231980
7.377,203199,168,231988
7.382,203187,168,232000
7.387,203177,168,231998
7.392,203153,168,232017
7.397,203117,168,231990
7.402,203109,168,232000
7.407,203090,168,231983
7.412,203118,168,231987
7.417,203133,168,231997
7.422,203102,168,231974
7.427,203124,168,231958
7.432,203117,168,231955
7.436,203133,168,231921
7.441,203110,168,231916
7.446,203115,168,231883
7.451,203140,168,231868
7.456,203152,168,231856
7.461,203140,168,231857
7.466,203154,168,231867
7.471,203128,168,231859
7.476,203137,168,231862
7.481,203135,168,231893
7.486,203145,168,231889
7.491,203147,168,231904
7.496,203142,168,231876
7.501,203164,168,231955
7.506,203170,168,231966
7.511,203153,168,231957
7.516,203142,168,231964
7.521,203138,168,231983
7.526,203143,168,232000
7.531,203118,168,232011
7.536,203150,168,232049
7.541,203132,168,232053
7.546,203150,168,232066
7.551,203150,168,232100
7.556,203136,168,232117
7.560,203154,168,232131
7.565,203166,168,232136
7.570,203184,168,232141
7.575,203183,168,232166
7.580,203208,168,232182
7.585,203216,168,232199
7.590,203240,168,232207
7.595,203246,168,232219
7.600,203238,168,232224
7.605,203261,168,232228
7.610,203251,168,232236
7.615,203235,168,232258
7.620,203229,168,232302
7.625,203234,168,232292
7.630,203259,168,232327
7.635,203270,168,232350
7.640,203292,168,232345
7.645,203318,168,232345
7.650,203349,168,232351
7.655,203362,168,232355
7.660,203400,168,232342
7.665,203406,168,232359
7.670,203446,168,232336
7.675,203468,168,232365
7.680,203496,168,232346
7.684,203550,168,232360
7.689,203603,168,232368
7.694,203656,168,232358
7.699,203718,168,232330
7.704,203757,168,232322
7.709,203829,168,232321
7.714,203890,168,232298
7.719,203944,168,232288
7.724,203991,168,232255
7.729,204060,168,232251
7.734,204105,168,232210
7.739,204145,168,232204
7.744,204200,168,232182
7.749,204238,168,232176
7.754,204268,168,232154
7.759,204296,168,232133
7.764,204324,168,232103
7.769,204336,168,232089
7.774,204360,168,232051
7.779,204378,168,232019
7.784,204402,168,231978
7.789,204443,168,231963
7.794,204483,168,231910
7.799,204514,168,231866
7.804,204550,168,231853
7.808,204571,168,231786
7.813,204608,168,231770
7.818,204639,168,231745
7.823,204665,168,231695
7.828,204699,168,231665
7.833,204700,168,231636
7.838,204750,168,231609
7.843,204781,168,231569
7.848,204817,168,231542
7.853,204843,168,231530
7.858,204859,168,231543
7.863,204888,168,231551
7.868,204915,168,231552
7.873,204957,168,231569
7.878,204983,168,231607
7.883,205006,168,231642
7.888,205039,168,231698
7.893,205120,168,231733
7.898,205136,168,231709
7.903,205152,168,231677
7.908,205167,168,231632
7.913,205167,168,231601
7.918,205198,168,231574
7.923,205258,168,231573
7.928,205324,168,231573
7.932,205378,168,231560
7.937,205425,168,231559
7.942,205471,168,231550
7.947,205525,168,231541
7.952,205546,168,231542
7.957,205558,168,231558
7.962,205605,168,231569
7.967,205632,168,231560
7.972,205680,168,231576
7.977,205715,168,231588
7.982,205775,168,231592
7.987,205794,168,231600
7.992,205842,168,231585
7.997,205916,168,231616
8.002,205991,168,231622
8.007,206036,168,231618
8.012,206070,168,231626
8.017,206123,168,231647
8.022,206199,168,231658
8.027,206270,168,231690
8.032,206311,168,231687
8.037,206364,168,231713
8.042,206409,168,231747
8.047,206465,168,231724
8.052,206513,168,231756
8.056,206555,168,231760
8.061,206602,168,231779
8.066,206641,168,231797
8.071,206675,168,231831
8.076,206708,168,231835
8.081,206738,168,231851
8.086,206755,168,231842
8.091,206789,168,231895
8.096,206817,168,231882
8.101,206852,168,231929
8.106,206837,168,231909
8.111,206856,168,231921
8.116,206875,168,231939
8.121,206878,168,231954
8.126,206907,168,231992
8.131,206906,168,231968
8.136,206924,168,231996
8.141,206927,168,232016
8.146,206945,168,231995
8.151,206954,168,232017
8.156,206959,168,232023
8.161,206999,168,232022
8.166,207001,168,232053
8.171,207030,168,232053
8.176,207030,168,232053
8.180,207052,168,232046
8.185,207078,168,232062
8.190,207094,168,232060
8.195,207130,168,232047
8.200,207087,168,232037
8.205,207127,168,232029
8.210,207115,168,232026
8.215,207114,168,232031
8.220,207136,168,232027
8.225,207137,168,232004
8.230,207140,168,231995
8.235,207164,168,232003
8.240,207205,168,231982
8.245,207199,168,231991
8.250,207229,168,231970
8.255,207281,168,231941
8.260,207308,168,231946
8.265,207332,168,231933
8.270,207338,168,231921
8.275,207371,168,231909
8.280,207391,168,231890
8.285,207404,168,231880
8.290,207412,168,231860
8.295,207443,168,231865
8.300,207444,168,231865
8.304,207454,168,231861
8.309,207449,168,231837
8.314,207463,168,231825
8.319,207485,168,231849
8.324,207493,168,231835
8.329,207501,168,231825
8.334,207513,168,231812
8.339,207504,168,231821
8.344,207546,168,231820
8.349,207562,168,231823
8.354,207574,168,231813
8.359,207585,168,231820
8.364,207633,168,231803
8.369,207623,168,231817
8.374,207656,168,231827
8.379,207688,168,231815
8.384,207702,168,231810
8.389,207714,168,231802
8.394,207751,168,231806
8.399,207753,168,231813
8.404,207784,168,231809
8.409,207790,168,231802
8.414,207820,168,231789
8.419,207823,168,231786
8.424,207827,168,231796
8.428,207846,168,231785
8.433,207838,168,231810
8.438,207808,168,231824
8.443,207792,168,231823
8.448,207786,168,231809
8.453,207761,168,231815
8.458,207757,168,231809
8.463,207741,168,231800
8.468,207709,168,231792
8.473,207669,168,231775
8.478,207650,168,231785
8.483,207610,168,231743
8.488,207623,168,231726
8.493,207603,168,231725
8.498,207554,168,231693
8.503,207533,168,231686
8.508,207527,168,231649
8.513,207530,168,231647
8.518,207486,168,231624
8.523,207478,168,231626
8.528,207460,168,231618
8.533,207452,168,231616
8.538,207447,168,231596
8.543,207440,168,231589
8.548,207427,168,231583
8.552,207432,168,231585
8.557,207410,168,231587
8.562,207409,168,231599
8.567,207390,168,231578
8.572,207384,168,231575
8.577,207355,168,231564
8.582,207359,168,231546
8.587,207340,168,231541
8.592,207343,168,231531
8.597,207319,168,231507
8.602,207310,168,231494
8.607,207285,168,231479
8.612,207267,168,231462
8.617,207267,168,231470
8.622,207259,168,231450
8.627,207236,168,231437
8.632,207218,168,231432
8.637,207222,168,231419
8.642,207206,168,231380
8.647,207209,168,231406
8.652,207203,168,231363
8.657,207212,168,231359
8.662,207226,168,231365
8.667,207218,168,231320
8.672,207227,168,231329
8.676,207218,168,231320
8.681,207225,168,231305
8.686,207211,168,231314
8.691,207223,168,231329
8.696,207227,168,231315
8.701,207225,168,231305
8.706,207227,168,231330
8.711,207216,168,231297
8.716,207214,168,231302
8.721,207218,168,231299
8.726,207215,168,231308
8.731,207240,168,231303
8.736,207201,168,231275
8.741,207214,168,231288
8.746,207195,168,231304
8.751,207200,168,231265
8.756,207193,168,231270
8.761,207185,168,231265
8.766,207199,168,231273
8.771,207203,168,231260
8.776,207195,168,231277
8.781,207189,168,231251
8.786,207187,168,231272
8.791,207208,168,231274
8.796,207225,168,231275
8.800,207250,168,231279
8.805,207257,168,231272
8.810,207244,168,231275
8.815,207274,168,231278
8.820,207263,168,231264
8.825,207296,168,231262
8.830,207304,168,231279
8.835,207306,168,231255
8.840,207324,168,231283
8.845,207332,168,231282
8.850,207341,168,231281
8.855,207355,168,231293
8.860,207373,168,231279
8.865,207363,168,231308
8.870,207360,168,231294
8.875,207389,168,231288
8.880,207416,168,231319
8.885,207400,168,231310
8.890,207431,168,231319
8.895,207436,168,231317
8.900,207450,168,231329
8.905,207460,168,231348
8.910,207449,168,231347
8.915,207469,168,231313
8.920,207473,168,231341
8.924,207486,168,231342
8.929,207487,168,231346
8.934,207511,168,231344
8.939,207517,168,231358
8.944,207557,168,231373
8.949,207566,168,231379
8.954,207570,168,231366
8.959,207575,168,231382
8.964,207581,168,231385
8.969,207601,168,231381
8.974,207617,168,231380
8.979,207612,168,231384
8.984,207626,168,231393
8.989,207615,168,231370
8.994,207658,168,231373
8.999,207642,168,231369
9.004,207658,168,231388
9.009,207659,168,231376
9.014,207648,168,231387
9.019,207672,168,231383
9.024,207692,168,231408
9.029,207706,168,231412
9.034,207704,168,231422
9.039,207718,168,231448
9.044,207722,168,231454
9.048,207721,168,231453
9.053,207762,168,231479
9.058,207758,168,231467
9.063,207748,168,231463
9.068,207770,168,231464
9.073,207800,168,231484
9.078,207810,168,231474
9.083,207827,168,231499
9.088,207841,168,231507
9.093,207847,168,231518
9.098,207873,168,231520
9.103,207887,168,231513
9.108,207895,168,231535
9.113,207943,168,231543
9.118,207923,168,231529
9.123,207950,168,231550
9.128,207955,168,231554
9.133,207976,168,231567
9.138,207987,168,231583
9.143,207992,168,231571
9.148,208009,168,231601
9.153,208028,168,231586
9.158,208029,168,231606
9.163,208062,168,231619
9.168,208068,168,231615
9.172,208076,168,231624
9.177,208076,168,231624
9.182,208059,168,231661
9.187,208041,168,231653
9.192,208044,168,231675
9.197,208038,168,231672
9.202,208011,168,231681
9.207,207993,168,231688
9.212,207952,168,231674
9.217,207946,168,231686
9.222,207920,168,231680
9.227,207905,168,231683
9.232,207884,168,231668
9.237,207844,168,231635
9.242,207837,168,231643
9.247,207829,168,231636
9.252,207782,168,231615
9.257,207770,168,231616
9.262,207743,168,231586
9.267,207714,168,231607
9.272,207718,168,231577
9.277,207710,168,231588
9.282,207701,168,231577
9.287,207681,168,231556
9.292,207677,168,231576
9.296,207674,168,231548
9.301,207656,168,231563
9.306,207656,168,231551
9.311,207656,168,231548
9.316,207617,168,231538
9.321,207611,168,231546
9.326,207615,168,231545
9.331,207598,168,231577
9.336,207586,168,231538
9.341,207580,168,231539
9.346,207585,168,231551
9.351,207541,168,231549
9.356,207560,168,231541
9.361,207540,168,231554
9.366,207548,168,231559
9.371,207530,168,231572
9.376,207534,168,231577
9.381,207523,168,231568
9.386,207505,168,231569
9.391,207506,168,231553
9.396,207520,168,231576
9.401,207514,168,231579
9.406,207526,168,231581
9.411,207529,168,231576
9.416,207542,168,231588
9.420,207561,168,231583
9.425,207558,168,231587
9.430,207562,168,231594
9.435,207567,168,231580
9.440,207567,168,231584
9.445,207554,168,231591
9.450,207572,168,231608
9.455,207563,168,231601
9.460,207563,168,231601
9.465,207551,168,231614
9.470,207568,168,231611
9.475,207541,168,231640
9.480,207544,168,231645
9.485,207525,168,231641
9.490,207537,168,231653
9.495,207544,168,231669
9.500,207552,168,231673
9.505,207555,168,231676
9.510,207577,168,231663
9.515,207570,168,231696
9.520,207576,168,231705
9.525,207580,168,231704
9.530,207604,168,231707
9.535,207576,168,231715
9.540,207586,168,231734
9.544,207589,168,231729
9.549,207603,168,231742
9.554,207593,168,231746
9.559,207599,168,231740
9.564,207587,168,231751
9.569,207609,168,231746
9.574,207637,168,231755
9.579,207645,168,231783
9.584,207644,168,231764
9.589,207640,168,231774
9.594,207660,168,231787
9.599,207673,168,231796
9.604,207669,168,231796
9.609,207670,168,231801
9.614,207706,168,231791
9.619,207708,168,231785
9.624,207722,168,231812
9.629,207711,168,231813
9.634,207704,168,231803
9.639,207705,168,231822
9.644,207712,168,231815
9.649,207705,168,231813
9.654,207698,168,231828
9.659,207716,168,231837
9.664,207728,168,231843
9.668,207755,168,231856
9.673,207768,168,231860
9.678,207792,168,231853
9.683,207782,168,231855
9.688,207802,168,231851
9.693,207813,168,231868
9.698,207826,168,231862
9.703,207804,168,231863
9.708,207814,168,231855
9.713,207791,168,231845
9.718,207797,168,231826
9.723,207776,168,231843
9.728,207778,168,231861
9.733,207758,168,231839
9.738,207757,168,231852
9.743,207765,168,231847
9.748,207766,168,231854
9.753,207777,168,231831
9.758,207793,168,231856
9.763,207782,168,231845
9.768,207801,168,231833
9.773,207794,168,231838
9.778,207772,168,231825
9.783,207780,168,231826
9.788,207801,168,231826
9.792,207779,168,231809
9.797,207796,168,231811
9.802,207810,168,231796
9.807,207797,168,231804
9.812,207802,168,231810
9.817,207796,168,231803
9.822,207795,168,231790
9.827,207805,168,231787
9.832,207809,168,231802
9.837,207798,168,231777
9.842,207818,168,231783
9.847,207813,168,231772
9.852,207820,168,231784
9.857,207834,168,231791
9.862,207822,168,231778
9.867,207814,168,231803
9.872,207831,168,231816
9.877,207821,168,231808
9.882,207821,168,231838
9.887,207829,168,231861
9.892,207845,168,231874
9.897,207848,168,231868
9.902,207863,168,231859
9.907,207837,168,231889
9.912,207833,168,231889
9.916,207813,168,231919
9.921,207832,168,231921
9.926,207824,168,231956
9.931,207817,168,231955
9.936,207810,168,231945
9.941,207794,168,231946
9.946,207825,168,231941
9.951,207812,168,231951
9.956,207812,168,231965
9.961,207800,168,231964
9.966,207790,168,231988
9.971,207770,168,231997
9.976,207751,168,232009
9.981,207724,168,232033
9.986,207672,168,232051
9.991,207636,168,232042
9.996,207616,168,232021
10.001,207567,168,232042
10.006,207543,168,232053
10.011,207506,168,232057
10.016,207464,168,232048
10.021,207434,168,232052
10.026,207406,168,232060
10.031,207383,168,232055
10.036,207341,168,232037
10.040,207318,168,232043
10.045,207322,168,232047
10.050,207268,168,232040
10.055,207247,168,232040
10.060,207237,168,232055
10.065,207222,168,232044
10.070,207222,168,232084
10.075,207247,168,232097
10.080,207224,168,232099
10.085,207215,168,232110
10.090,207216,168,232137
10.095,207187,168,232151
10.100,207173,168,232174
10.105,207172,168,232207
10.110,207151,168,232243
10.115,207147,168,232255
10.120,207121,168,232292
10.125,207111,168,232314
10.130,207085,168,232345
10.135,207077,168,232370
10.140,207044,168,232398
10.145,207004,168,232445
10.150,206984,168,232464
10.155,206924,168,232493
10.160,206866,168,232511
10.164,206813,168,232549
10.169,206761,168,232588
10.174,206709,168,232619
10.179,206646,168,232655
10.184,206626,168,232640
10.189,206558,168,232700
10.194,206551,168,232715
10.199,206491,168,232739
10.204,206421,168,232787
10.209,206428,168,232829
10.214,206387,168,232863
10.219,206362,168,232878
10.224,206339,168,232894
10.229,206279,168,232918
10.234,206231,168,232965
10.239,206221,168,232982
10.244,206175,168,233010
10.249,206142,168,233041
10.254,206090,168,233051
10.259,206045,168,233058
10.264,205997,168,233093
10.269,205931,168,233086
10.274,205906,168,233093
10.279,205858,168,233127
10.284,205853,168,233122
10.288,205844,168,233172
10.293,205814,168,233182
10.298,205809,168,233217
10.303,205812,168,233230
10.308,205796,168,233273
10.313,205757,168,233316
10.318,205748,168,233356
10.323,205711,168,233406
10.328,205685,168,233457
10.333,205641,168,233517
10.338,205584,168,233596
10.343,205538,168,233645
10.348,205493,168,233734
10.353,205426,168,233784
10.358,205386,168,233863
10.363,205324,168,233943
10.368,205275,168,234020
10.373,205209,168,234097
10.378,205168,168,234158
10.383,205107,168,234202
10.388,205088,168,234278
10.393,205026,168,234324
10.398,204956,168,234391
10.403,204916,168,234441
10.408,204854,168,234496
10.412,204805,168,234543
10.417,204762,168,234587
10.422,204741,168,234643
10.427,204687,168,234661
10.432,204658,168,234750
10.437,204605,168,234805
10.442,204574,168,234846
10.447,204530,168,234869
10.452,204518,168,234932
10.457,204508,168,234971
10.462,204508,168,234984
10.467,204507,168,235029
10.472,204485,168,235070
10.477,204496,168,235080
10.482,204493,168,235096
10.487,204486,168,235114
10.492,204490,168,235131
10.497,204477,168,235146
10.502,204453,168,235143
10.507,204446,168,235152
10.512,204422,168,235170
10.517,204420,168,235163
10.522,204388,168,235195
10.527,204381,168,235162
10.532,204361,168,235162
10.536,204351,168,235173
10.541,204356,168,235214
10.546,204366,168,235188
10.551,204357,168,235209
10.556,204356,168,235209
10.561,204361,168,235201
10.566,204346,168,235226
10.571,204328,168,235226
10.576,204312,168,235245
10.581,204296,168,235289
10.586,204242,168,235314
10.591,204222,168,235302
10.596,204201,168,235350
10.601,204221,168,235384
10.606,204239,168,235388
10.611,204242,168,235413
10.616,204239,168,235406
10.621,204244,168,235429
10.626,204231,168,235433
10.631,204235,168,235444
10.636,204225,168,235467
10.641,204186,168,235445
10.646,204200,168,235467
10.651,204179,168,235465
10.656,204162,168,235457
10.660,204143,168,235446
10.665,204152,168,235466
10.670,204129,168,235430
10.675,204132,168,235444
10.680,204122,168,235430
10.685,204115,168,235403
10.690,204080,168,235379
10.695,204064,168,235353
10.700,204047,168,235336
10.705,204029,168,235303
10.710,204006,168,235300
10.715,203990,168,235252
10.720,203982,168,235258
10.725,203976,168,235236
10.730,203968,168,235239
10.735,203969,168,235223
10.740,203960,168,235214
10.745,203945,168,235207
10.750,203946,168,235196
10.755,203952,168,235182
10.760,203936,168,235170
10.765,203930,168,235162
10.770,203916,168,235159
10.775,203913,168,235153
10.780,203903,168,235155
10.784,203881,168,235145
10.789,203882,168,235167
10.794,203865,168,235159
10.799,203846,168,235159
10.804,203834,168,235158
10.809,203820,168,235152
10.814,203775,168,235155
10.819,203770,168,235183
10.824,203790,168,235161
10.829,203759,168,235151
10.834,203735,168,235156
10.839,203753,168,235158
10.844,203734,168,235132
10.849,203731,168,235134
10.854,203741,168,235119
10.859,203748,168,235105
10.864,203745,168,235113
10.869,203756,168,235087
10.874,203772,168,235104
10.879,203771,168,235095
10.884,203766,168,235089
10.889,203767,168,235055
10.894,203779,168,235068
10.899,203781,168,235026
10.904,203761,168,235032
10.908,203759,168,234996
10.913,203748,168,234988
10.918,203743,168,234979
10.923,203734,168,234973
10.928,203707,168,234962
10.933,203705,168,234959
10.938,203716,168,234940
10.943,203716,168,234964
10.948,203683,168,234943
10.953,203688,168,234983
10.958,203691,168,234947
10.963,203689,168,234977
10.968,203694,168,234991
10.973,203680,168,234997
10.978,203681,168,234997
10.983,203713,168,235029
10.988,203677,168,235025
10.993,203689,168,235036
10.998,203707,168,235039
11.003,203681,168,235043
11.008,203707,168,235062
11.013,203692,168,235028
11.018,203693,168,235058
11.023,203706,168,235067
11.028,203691,168,235069
11.032,203711,168,235061
11.037,203705,168,235079
11.042,203713,168,235071
11.047,203707,168,235080
11.052,203713,168,235076
11.057,203712,168,235077
11.062,203719,168,235061
11.067,203728,168,235074
11.072,203718,168,235082
11.077,203724,168,235088
11.082,203720,168,235076
11.087,203724,168,235083
11.092,203734,168,235092
11.097,203733,168,235068
11.102,203746,168,235099
11.107,203783,168,235075
11.112,203772,168,235078
11.117,203757,168,235060
11.122,203786,168,235092
11.127,203786,168,235074
11.132,203785,168,235085
11.137,203808,168,235083
11.142,203812,168,235093
11.147,203804,168,235105
11.152,203806,168,235120
11.156,203810,168,235100
11.161,203817,168,235127
11.166,203839,168,235113
11.171,203828,168,235139
11.176,203846,168,235126
11.181,203852,168,235127
11.186,203873,168,235122
11.191,203892,168,235125
11.196,203878,168,235129
11.201,203881,168,235123
11.206,203913,168,235116
11.211,203920,168,235102
11.216,203934,168,235098
11.221,203922,168,235103
11.226,203929,168,235092
11.231,203925,168,235089
11.236,203947,168,235096
11.241,203927,168,235102
11.246,203958,168,235099
11.251,203961,168,235095
11.256,203953,168,235069
11.261,203985,168,235053
11.266,204004,168,235090
11.271,204004,168,235053
11.276,204006,168,235052
11.280,204005,168,235061
11.285,204048,168,235044
11.290,204025,168,235049
11.295,204053,168,235021
11.300,204057,168,235048
11.305,204085,168,235066
11.310,204057,168,235067
11.315,204057,168,235087
11.320,204044,168,235077
11.325,204024,168,235074
11.330,204011,168,235085
11.335,204003,168,235083
11.340,203993,168,235084
11.345,203991,168,235094
11.350,203938,168,235075
11.355,203932,168,235068
11.360,203904,168,235051
11.365,203896,168,235041
11.370,203888,168,235047
11.375,203864,168,235015
11.380,203842,168,235036
11.385,203816,168,235038
11.390,203799,168,235038
11.395,203798,168,235032
11.400,203791,168,235010
11.404,203779,168,235017
11.409,203760,168,235036
11.414,203745,168,235030
11.419,203734,168,235022
11.424,203719,168,235014
11.429,203717,168,235009
11.434,203703,168,235006
11.439,203710,168,235002
11.444,203699,168,234995
11.449,203714,168,235001
11.454,203678,168,234998
11.459,203685,168,235002
11.464,203670,168,234982
11.469,203661,168,235004
11.474,203655,168,235005
11.479,203635,168,234978
11.484,203625,168,234982
11.489,203631,168,234974
11.494,203619,168,234961
11.499,203602,168,234957
11.504,203592,168,234970
11.509,203590,168,234963
11.514,203591,168,234947
11.519,203575,168,234958
11.524,203564,168,234949
11.528,203554,168,234940
11.533,203571,168,234947
11.538,203557,168,234960
11.543,203577,168,234951
11.548,203570,168,234944
11.553,203574,168,234943
11.558,203571,168,234948
11.563,203553,168,234964
11.568,203556,168,234949
11.573,203552,168,234965
11.578,203548,168,234983
11.583,203548,168,234971
11.588,203565,168,234980
11.593,203573,168,235017
11.598,203549,168,235024
11.603,203562,168,235040
11.608,203560,168,235041
11.613,203550,168,235025
11.618,203562,168,235033
11.623,203578,168,235045
11.628,203565,168,235065
11.633,203548,168,235028
11.638,203559,168,235035
11.643,203550,168,235019
11.648,203536,168,235028
11.652,203571,168,235024
11.657,203547,168,235036
11.662,203542,168,235009
11.667,203570,168,235022
11.672,203556,168,235003
11.677,203551,168,235014
11.682,203550,168,234989
11.687,203550,168,234996
11.692,203554,168,234979
11.697,203556,168,234981
11.702,203575,168,234965
11.707,203570,168,234957
11.712,203580,168,234952
11.717,203580,168,234944
11.722,203586,168,234957
11.727,203595,168,234946
11.732,203595,168,234954
11.737,203609,168,234956
11.742,203594,168,234965
11.747,203609,168,234964
11.752,203607,168,234960
11.757,203598,168,234961
11.762,203616,168,234956
11.767,203617,168,234964
11.772,203609,168,234964
11.776,203643,168,234956
11.781,203633,168,234955
11.786,203645,168,234957
11.791,203635,168,234966
11.796,203641,168,234968
11.801,203651,168,234958
11.806,203615,168,234972
11.811,203639,168,234966
11.816,203645,168,234951
11.821,203650,168,234962
11.826,203644,168,234973
11.831,203661,168,234982
11.836,203653,168,234984
11.841,203660,168,234987
11.846,203661,168,234997
11.851,203684,168,234988
11.856,203679,168,234985
11.861,203692,168,234999
11.866,203691,168,234992
11.871,203685,168,234984
11.876,203683,168,234982
11.881,203684,168,234993
11.886,203694,168,234990
11.891,203666,168,234992
11.896,203690,168,234984
11.900,203696,168,234994
11.905,203713,168,234997
11.910,203705,168,235013
11.915,203732,168,235029
11.920,203737,168,235020
11.925,203738,168,235025
11.930,203722,168,235009
11.935,203759,168,235036
11.940,203724,168,235035
11.945,203742,168,235038
11.950,203757,168,235025
11.955,203752,168,235038
11.960,203772,168,235034
11.965,203786,168,235031
11.970,203802,168,235057
11.975,203800,168,235063
11.980,203804,168,235042
11.985,203800,168,235076
11.990,203791,168,235083
11.995,203779,168,235083
12.000,203762,168,235076
12.005,203712,168,235059
12.010,203714,168,235083
12.015,203689,168,235045
12.020,203661,168,235062
12.024,203655,168,235025
12.029,203636,168,235018
12.034,203589,168,234985
12.039,203580,168,234948
12.044,203528,168,234939
12.049,203517,168,234928
12.054,203505,168,234908
12.059,203488,168,234888
12.064,203475,168,234870
12.069,203442,168,234853
12.074,203448,168,234844
12.079,203435,168,234825
12.084,203390,168,234845
12.089,203388,168,234819
12.094,203356,168,234823
12.099,203369,168,234807
12.104,203347,168,234837
12.109,203341,168,234832
12.114,203339,168,234826
12.119,203320,168,234819
12.124,203314,168,234820
12.129,203305,168,234828
12.134,203293,168,234822
12.139,203293,168,234824
12.144,203278,168,234832
12.148,203264,168,234839
12.153,203253,168,234845
12.158,203224,168,234835
12.163,203225,168,234836
12.168,203224,168,234827
12.173,203217,168,234838
12.178,203207,168,234841
12.183,203183,168,234848
12.188,203177,168,234848
12.193,203175,168,234844
12.198,203171,168,234847
12.203,203175,168,234844
12.208,203168,168,234856
12.213,203185,168,234848
12.218,203195,168,234838
12.223,203196,168,234841
12.228,203200,168,234842
12.233,203199,168,234850
12.238,203232,168,234857
12.243,203213,168,234865
12.248,203203,168,234869
12.253,203216,168,234856
12.258,203194,168,234872
12.263,203203,168,234883
12.268,203202,168,234879
12.272,203205,168,234888
12.277,203202,168,234901
12.282,203206,168,234902
12.287,203200,168,234918
12.292,203224,168,234913
12.297,203212,168,234919
12.302,203224,168,234919
12.307,203213,168,234918
12.312,203217,168,234916
12.317,203212,168,234925
12.322,203212,168,234922
12.327,203199,168,234921
12.332,203216,168,234924
12.337,203216,168,234912
12.342,203209,168,234910
12.347,203214,168,234911
12.352,203216,168,234931
12.357,203233,168,234938
12.362,203205,168,234949
12.367,203215,168,234947
12.372,203233,168,234950
12.377,203227,168,234937
12.382,203230,168,234921
12.387,203239,168,234933
12.392,203242,168,234913
12.396,203245,168,234936
12.401,203252,168,234926
12.406,203262,168,234936
12.411,203259,168,234931
12.416,203252,168,234928
12.421,203268,168,234936
12.426,203272,168,234937
12.431,203272,168,234936
12.436,203274,168,234935
12.441,203282,168,234940
12.446,203277,168,234937
12.451,203301,168,234960
12.456,203294,168,234929
12.461,203300,168,234946
12.466,203284,168,234958
12.471,203305,168,234938
12.476,203312,168,234948
12.481,203316,168,234917
12.486,203309,168,234933
12.491,203328,168,234948
12.496,203327,168,234930
12.501,203323,168,234946
12.506,203341,168,234924
12.511,203348,168,234931
12.516,203337,168,234922
12.520,203339,168,234919
12.525,203363,168,234922
12.530,203374,168,234918
12.535,203382,168,234933
12.540,203399,168,234954
12.545,203378,168,234969
12.550,203421,168,234952
12.555,203421,168,234958
12.560,203414,168,234942
12.565,203449,168,234961
12.570,203439,168,234955
12.575,203440,168,234953
12.580,203451,168,234963
12.585,203480,168,234975
12.590,203475,168,234979
12.595,203473,168,234989
12.600,203484,168,234977
12.605,203496,168,234978
12.610,203491,168,234985
12.615,203517,168,234985
12.620,203523,168,234992
12.625,203527,168,235002
12.630,203536,168,235003
12.635,203524,168,235024
12.640,203525,168,235032
12.644,203505,168,235028
12.649,203507,168,235044
12.654,203481,168,235022
12.659,203471,168,235005
12.664,203456,168,235018
12.669,203420,168,234998
12.674,203402,168,234966
12.679,203382,168,234962
12.684,203355,168,234951
12.689,203319,168,234918
12.694,203293,168,234900
12.699,203263,168,234883
12.704,203263,168,234869
12.709,203233,168,234842
12.714,203202,168,234829
12.719,203196,168,234814
12.724,203180,168,234811
12.729,203164,168,234808
12.734,203129,168,234781
12.739,203139,168,234767
12.744,203116,168,234764
12.749,203120,168,234760
12.754,203092,168,234744
12.759,203082,168,234746
12.764,203056,168,234737
12.768,203076,168,234730
12.773,203054,168,234739
12.778,203035,168,234722
12.783,203018,168,234713
12.788,203020,168,234721
12.793,203017,168,234714
12.798,202998,168,234705
12.803,202980,168,234683
12.808,203000,168,234685
12.813,202964,168,234675
12.818,202966,168,234678
12.823,202984,168,234659
12.828,202948,168,234660
12.833,202917,168,234627
12.838,202920,168,234618
12.843,202909,168,234621
12.848,202903,168,234628
12.853,202929,168,234611
12.858,202904,168,234614
12.863,202910,168,234599
12.868,202926,168,234598
12.873,202929,168,234600
12.878,202914,168,234604
12.883,202917,168,234630
12.888,202914,168,234619
12.892,202905,168,234609
12.897,202929,168,234604
12.902,202932,168,234618
12.907,202933,168,234605
12.912,202924,168,234602
12.917,202935,168,234605
12.922,202921,168,234606
12.927,202902,168,234583
12.932,202907,168,234579
12.937,202895,168,234583
12.942,202909,168,234580
12.947,202892,168,234581
12.952,202901,168,234580
12.957,202894,168,234568
12.962,202898,168,234577
12.967,202903,168,234564
12.972,202906,168,234579
12.977,202888,168,234575
12.982,202912,168,234560
12.987,202913,168,234551
12.992,202908,168,234555
12.997,202916,168,234558
13.002,202917,168,234573
13.007,202934,168,234561
13.012,202920,168,234558
13.016,202934,168,234556
13.021,202922,168,234564
13.026,202919,168,234573
13.031,202922,168,234578
13.036,202957,168,234578
13.041,202943,168,234570
13.046,202952,168,234569
13.051,202965,168,234565
13.056,202978,168,234559
13.061,202972,168,234558
13.066,202969,168,234586
13.071,202992,168,234595
13.076,203009,168,234576
13.081,202998,168,234597
13.086,203018,168,234603
13.091,203022,168,234585
13.096,203020,168,234585
13.101,203039,168,234611
13.106,203050,168,234619
13.111,203055,168,234598
13.116,203060,168,234596
13.121,203058,168,234597
13.126,203070,168,234602
13.131,203082,168,234591
13.136,203074,168,234588
13.140,203099,168,234596
13.145,203089,168,234589
13.150,203092,168,234585
13.155,203098,168,234571
13.160,203121,168,234601
13.165,203135,168,234599
13.170,203124,168,234599
13.175,203147,168,234590
13.180,203160,168,234606
13.185,203154,168,234590
13.190,203188,168,234586
13.195,203189,168,234592
13.200,203187,168,234574
13.205,203221,168,234583
13.210,203207,168,234570
13.215,203239,168,234562
13.220,203221,168,234562
13.225,203218,168,234562
13.230,203262,168,234560
13.235,203254,168,234548
13.240,203251,168,234548
13.245,203284,168,234555
13.250,203261,168,234563
13.255,203288,168,234572
13.260,203301,168,234569
13.264,203304,168,234578
13.269,203301,168,234569
13.274,203276,168,234572
13.279,203280,168,234582
13.284,203255,168,234560
13.289,203243,168,234567
13.294,203223,168,234552
13.299,203190,168,234568
13.304,203185,168,234567
13.309,203141,168,234517
13.314,203114,168,234535
13.319,203115,168,234497
13.324,203071,168,234473
13.329,203049,168,234471
13.334,203021,168,234440
13.339,203011,168,234424
13.344,202994,168,234405
13.349,202965,168,234379
13.354,202941,168,234369
13.359,202921,168,234351
13.364,202930,168,234348
13.369,202892,168,234326
13.374,202895,168,234349
13.379,202867,168,234321
13.384,202862,168,234316
13.388,202860,168,234310
13.393,202847,168,234288
13.398,202824,168,234274
13.403,202829,168,234267
13.408,202803,168,234255
13.413,202791,168,234256
13.418,202764,168,234254
13.423,202758,168,234254
13.428,202748,168,234240
13.433,202729,168,234225
13.438,202722,168,234226
13.443,202713,168,234219
13.448,202710,168,234179
13.453,202703,168,234177
13.458,202686,168,234186
13.463,202664,168,234164
13.468,202645,168,234183
13.473,202649,168,234183
13.478,202640,168,234160
13.483,202642,168,234168
13.488,202628,168,234169
13.493,202628,168,234169
13.498,202624,168,234171
13.503,202625,168,234166
13.508,202623,168,234146
13.512,202638,168,234166
13.517,202629,168,234163
13.522,202647,168,234131
13.527,202645,168,234134
13.532,202639,168,234136
13.537,202642,168,234140
13.542,202638,168,234137
13.547,202640,168,234139
13.552,202640,168,234124
13.557,202637,168,234132
13.562,202642,168,234137
13.567,202647,168,234121
13.572,202649,168,234134
13.577,202628,168,234149
13.582,202634,168,234166
13.587,202646,168,234153
13.592,202642,168,234170
13.597,202637,168,234132
13.602,202634,168,234151
13.607,202655,168,234142
13.612,202647,168,234144
13.617,202668,168,234163
13.622,202649,168,234163
13.627,202653,168,234164
13.632,202642,168,234158
13.636,202663,168,234147
13.641,202688,168,234167
13.646,202685,168,234145
13.651,202693,168,234167
13.656,202692,168,234163
13.661,202709,168,234170
13.666,202707,168,234177
13.671,202721,168,234176
13.676,202719,168,234178
13.681,202734,168,234170
13.686,202725,168,234181
13.691,202741,168,234195
13.696,202759,168,234206
13.701,202771,168,234217
13.706,202769,168,234243
13.711,202779,168,234236
13.716,202788,168,234246
13.721,202789,168,234267
13.726,202801,168,234276
13.731,202808,168,234262
13.736,202830,168,234288
13.741,202820,168,234305
13.746,202837,168,234293
13.751,202857,168,234320
13.756,202855,168,234326
13.760,202861,168,234330
13.765,202854,168,234340
13.770,202879,168,234344
13.775,202882,168,234347
13.780,202906,168,234357
13.785,202909,168,234335
13.790,202927,168,234364
13.795,202927,168,234360
13.800,202948,168,234378
13.805,202955,168,234393
13.810,202968,168,234399
13.815,202979,168,234414
13.820,202979,168,234422
13.825,203007,168,234417
13.830,203022,168,234461
13.835,203025,168,234480
13.840,203055,168,234480
13.845,203059,168,234506
13.850,203094,168,234559
13.855,203131,168,234580
13.860,203115,168,234621
13.865,203143,168,234649
13.870,203151,168,234693
13.875,203164,168,234721
13.880,203183,168,234746
13.884,203196,168,234796
13.889,203188,168,234814
13.894,203176,168,234886
13.899,203209,168,234893
13.904,203189,168,234948
13.909,203225,168,234977
13.914,203247,168,234995
13.919,203245,168,235045
13.924,203277,168,235084
13.929,203293,168,235105
13.934,203315,168,235150
13.939,203317,168,235211
13.944,203332,168,235268
13.949,203334,168,235327
13.954,203361,168,235385
13.959,203346,168,235432
13.964,203362,168,235457
13.969,203353,168,235504
13.974,203343,168,235519
13.979,203350,168,235566
13.984,203349,168,235549
13.989,203337,168,235589
13.994,203335,168,235620
13.999,203316,168,235619
14.004,203333,168,235604
14.008,203333,168,235580
14.013,203333,168,235615
14.018,203338,168,235627
14.023,203341,168,235642
14.028,203350,168,235665
14.033,203352,168,235667
14.038,203339,168,235700
14.043,203342,168,235718
14.048,203349,168,235696
14.053,203356,168,235700
14.058,203369,168,235716
14.063,203391,168,235721
14.068,203408,168,235723
14.073,203410,168,235729
14.078,203435,168,235735
14.083,203443,168,235765
14.088,203460,168,235724
14.093,203495,168,235737
14.098,203515,168,235732
14.103,203551,168,235749
14.108,203593,168,235754
14.113,203613,168,235713
14.118,203633,168,235730
14.123,203659,168,235720
14.128,203695,168,235729
14.132,203727,168,235732
14.137,203739,168,235745
14.142,203774,168,235757
14.147,203793,168,235794
14.152,203841,168,235816
14.157,203909,168,235862
14.162,203944,168,235889
14.167,203996,168,235906
14.172,204044,168,235956
14.177,204067,168,235951
14.182,204106,168,235989
14.187,204171,168,235984
14.192,204206,168,236027
14.197,204239,168,236028
14.202,204268,168,236041
14.207,204336,168,236073
14.212,204388,168,236087
14.217,204439,168,236107
14.222,204511,168,236134
14.227,204555,168,236155
14.232,204632,168,236153
14.237,204737,168,236166
14.242,204780,168,236163
14.247,204841,168,236168
14.252,204872,168,236143
14.256,204915,168,236134
14.261,204946,168,236110
14.266,204966,168,236096
14.271,205003,168,236104
14.276,205065,168,236080
14.281,205114,168,236067
14.286,205223,168,236051
14.291,205294,168,235995
14.296,205348,168,235940
14.301,205425,168,235909
14.306,205477,168,235897
14.311,205542,168,235862
14.316,205570,168,235881
14.321,205627,168,235889
14.326,205685,168,235919
14.331,205745,168,235946
14.336,205797,168,235974
14.341,205801,168,235989
14.346,205832,168,236007
14.351,205848,168,236017
14.356,205868,168,235996
14.361,205901,168,236016
14.366,205943,168,236037
14.371,205980,168,236038
14.376,206015,168,236071
14.380,206042,168,236098
14.385,206059,168,236102
14.390,206076,168,236105
14.395,206103,168,236091
14.400,206108,168,236116
14.405,206127,168,236111
14.410,206139,168,236109
14.415,206171,168,236151
14.420,206208,168,236139
14.425,206224,168,236154
14.430,206259,168,236137
14.435,206269,168,236149
14.440,206281,168,236189
14.445,206319,168,236195
14.450,206344,168,236219
14.455,206366,168,236285
14.460,206409,168,236315
14.465,206452,168,236329
14.470,206473,168,236339
14.475,206459,168,236352
14.480,206452,168,236349
14.485,206448,168,236336
14.490,206446,168,236293
14.495,206433,168,236238
14.500,206404,168,236218
14.504,206384,168,236200
14.509,206353,168,236164
14.514,206362,168,236180
14.519,206348,168,236177
14.524,206362,168,236187
14.529,206384,168,236170
14.534,206355,168,236193
14.539,206349,168,236186
14.544,206338,168,236210
14.549,206315,168,236205
14.554,206304,168,236245
14.559,206316,168,236232
14.564,206303,168,236262
14.569,206316,168,236259
14.574,206311,168,236275
14.579,206331,168,236310
14.584,206297,168,236326
14.589,206287,168,236329
14.594,206266,168,236355
14.599,206261,168,236398
14.604,206237,168,236419
14.609,206212,168,236431
14.614,206181,168,236483
14.619,206164,168,236510
14.624,206143,168,236557
14.628,206144,168,236596
14.633,206131,168,236632
14.638,206113,168,236648
14.643,206114,168,236685
14.648,206065,168,236749
14.653,206034,168,236792
14.658,205989,168,236825
14.663,205919,168,236859
14.668,205887,168,236900
14.673,205884,168,236950
14.678,205911,168,236990
14.683,205908,168,237024
14.688,205913,168,237065
14.693,205911,168,237082
14.698,205913,168,237067
14.703,205904,168,237097
14.708,205900,168,237100
14.713,205911,168,237100
14.718,205936,168,237128
14.723,205952,168,237154
14.728,205980,168,237221
14.733,205970,168,237244
14.738,205971,168,237285
14.743,205954,168,237329
14.748,205925,168,237369
14.752,205881,168,237423
14.757,205820,168,237497
14.762,205714,168,237576
14.767,205651,168,237514
14.772,205588,168,237537
14.777,205544,168,237622
14.782,205505,168,237698
14.787,205490,168,237756
14.792,205451,168,237812
14.797,205394,168,237825
14.802,205353,168,237841
14.807,205306,168,237870
14.812,205272,168,237883
14.817,205249,168,237859
14.822,205194,168,237863
14.827,205195,168,237847
14.832,205190,168,237841
14.837,205198,168,237821
14.842,205213,168,237804
14.847,205206,168,237802
14.852,205218,168,237810
14.857,205193,168,237761
14.862,205212,168,237736
14.867,205216,168,237735
14.872,205210,168,237731
14.876,205190,168,237724
14.881,205185,168,237700
14.886,205156,168,237673
14.891,205142,168,237688
14.896,205139,168,237704
14.901,205126,168,237705
14.906,205120,168,237692
14.911,205116,168,237710
14.916,205080,168,237724
14.921,205079,168,237748
14.926,205069,168,237778
14.931,205025,168,237788
14.936,205000,168,237822
14.941,204975,168,237865
14.946,204905,168,237899
14.951,204874,168,237936
14.956,204862,168,237961
14.961,204849,168,237974
14.966,204831,168,237999
14.971,204866,168,238050
14.976,204892,168,238025
14.981,204909,168,238023
14.986,204953,168,238034
14.991,205007,168,238048
14.996,205030,168,238029
15.000,205058,168,238024
15.005,205075,168,238011
15.010,205092,168,238015
15.015,205100,168,237996
15.020,205140,168,238010
15.025,205153,168,238040
15.030,205155,168,238017
15.035,205184,168,238061
15.040,205187,168,238054
15.045,205215,168,238073
15.050,205217,168,238102
15.055,205249,168,238117
15.060,205261,168,238118
15.065,205313,168,238173
15.070,205339,168,238167
15.075,205373,168,238187
15.080,205388,168,238194
15.085,205434,168,238207
15.090,205447,168,238202
15.095,205486,168,238220
15.100,205521,168,238217
15.105,205561,168,238220
15.110,205607,168,238237
15.115,205639,168,238230
15.120,205664,168,238233
15.124,205713,168,238228
15.129,205754,168,238218
15.134,205821,168,238234
15.139,205889,168,238235
15.144,205943,168,238242
15.149,206011,168,238238
15.154,206102,168,238224
15.159,206155,168,238191
15.164,206208,168,238222
15.169,206244,168,238192
15.174,206288,168,238187
15.179,206362,168,238188
15.184,206378,168,238173
15.189,206417,168,238183
15.194,206453,168,238200
15.199,206486,168,238209
15.204,206526,168,238219
15.209,206574,168,238242
15.214,206579,168,238256
15.219,206653,168,238273
15.224,206674,168,238266
15.229,206681,168,238306
15.234,206713,168,238306
15.239,206701,168,238346
15.244,206724,168,238398
15.248,206721,168,238407
15.253,206733,168,238437
15.258,206750,168,238457
15.263,206736,168,238486
15.268,206737,168,238503
15.273,206729,168,238537
15.278,206698,168,238577
15.283,206686,168,238614
15.288,206681,168,238640
15.293,206661,168,238674
15.298,206641,168,238723
15.303,206593,168,238792
15.308,206560,168,238843
15.313,206512,168,238921
15.318,206472,168,238964
15.323,206404,168,239039
15.328,206351,168,239080
15.333,206301,168,239146
15.338,206232,168,239213
15.343,206193,168,239286
15.348,206137,168,239359
15.353,206098,168,239408
15.358,206027,168,239472
15.363,205971,168,239531
15.368,205925,168,239629
15.372,205847,168,239716
15.377,205827,168,239784
15.382,205804,168,239871
15.387,205806,168,239941
15.392,205766,168,240034
15.397,205750,168,240091
15.402,205734,168,240183
15.407,205749,168,240309
15.412,205712,168,240368
15.417,205732,168,240439
15.422,205701,168,240523
15.427,205700,168,240598
15.432,205718,168,240682
15.437,205715,168,240737
15.442,205724,168,240843
15.447,205712,168,240934
15.452,205716,168,241027
15.457,205709,168,241102
15.462,205714,168,241183
15.467,205698,168,241230
15.472,205682,168,241303
15.477,205693,168,241348
15.482,205679,168,241397
15.487,205672,168,241441
15.492,205682,168,241457
15.496,205683,168,241484
15.501,205684,168,241475
15.506,205682,168,241461
15.511,205658,168,241445
15.516,205658,168,241461
15.521,205634,168,241451
15.526,205615,168,241450
15.531,205593,168,241460
15.536,205575,168,241477
15.541,205550,168,241472
15.546,205511,168,241483
15.551,205501,168,241499
15.556,205479,168,241523
15.561,205446,168,241535
15.566,205432,168,241531
15.571,205405,168,241549
15.576,205366,168,241563
15.581,205373,168,241569
15.586,205343,168,241615
15.591,205321,168,241613
15.596,205330,168,241622
15.601,205270,168,241622
15.606,205278,168,241654
15.611,205259,168,241655
15.616,205259,168,241668
15.620,205253,168,241651
15.625,205231,168,241654
15.630,205217,168,241614
15.635,205190,168,241608
15.640,205183,168,241570
15.645,205139,168,241526
15.650,205134,168,241498
15.655,205080,168,241453
15.660,205043,168,241410
15.665,205043,168,241393
15.670,205001,168,241367
15.675,204984,168,241357
15.680,204942,168,241363
15.685,204931,168,241375
15.690,204924,168,241382
15.695,204881,168,241380
15.700,204863,168,241396
15.705,204823,168,241422
15.710,204795,168,241415
15.715,204752,168,241435
15.720,204730,168,241444
15.725,204688,168,241448
15.730,204653,168,241470
15.735,204621,168,241478
15.740,204596,168,241495
15.744,204584,168,241472
15.749,204590,168,241470
15.754,204571,168,241490
15.759,204574,168,241478
15.764,204573,168,241469
15.769,204567,168,241469
15.774,204568,168,241447
15.779,204587,168,241439
15.784,204580,168,241465
15.789,204602,168,241459
15.794,204617,168,241452
15.799,204612,168,241450
15.804,204627,168,241446
15.809,204640,168,241451
15.814,204655,168,241459
15.819,204673,168,241460
15.824,204669,168,241486
15.829,204693,168,241480
15.834,204730,168,241488
15.839,204761,168,241468
15.844,204757,168,241472
15.849,204790,168,241486
15.854,204809,168,241494
15.859,204815,168,241481
15.864,204842,168,241504
15.868,204863,168,241530
15.873,204879,168,241543
15.878,204880,168,241563
15.883,204893,168,241568
15.888,204908,168,241609
15.893,204915,168,241629
15.898,204928,168,241651
15.903,204933,168,241681
15.908,204937,168,241686
15.913,204938,168,241733
15.918,204958,168,241779
15.923,204954,168,241800
15.928,204977,168,241800
15.933,204993,168,241804
15.938,204983,168,241835
15.943,205009,168,241842
15.948,205017,168,241869
15.953,205037,168,241884
15.958,205042,168,241904
15.963,205068,168,241935
15.968,205054,168,241960
15.973,205096,168,241969
15.978,205092,168,241993
15.983,205093,168,242017
15.988,205109,168,242040
15.992,205129,168,242082
15.997,205120,168,242120
16.002,205132,168,242169
16.007,205143,168,242187
16.012,205166,168,242234
16.017,205173,168,242240
16.022,205198,168,242276
16.027,205231,168,242297
16.032,205247,168,242327
16.037,205274,168,242336
16.042,205289,168,242340
16.047,205318,168,242346
16.052,205353,168,242359
16.057,205372,168,242360
16.062,205389,168,242374
16.067,205402,168,242404
16.072,205428,168,242405
16.077,205449,168,242417
16.082,205461,168,242417
16.087,205431,168,242445
16.092,205450,168,242457
16.097,205448,168,242433
16.102,205437,168,242424
16.107,205416,168,242403
16.112,205399,168,242380
16.116,205387,168,242381
16.121,205358,168,242353
16.126,205346,168,242317
16.131,205322,168,242310
16.136,205293,168,242278
16.141,205261,168,242258
16.146,205254,168,242237
16.151,205249,168,242231
16.156,205214,168,242204
16.161,205218,168,242188
16.166,205203,168,242187
16.171,205166,168,242188
16.176,205162,168,242175
16.181,205169,168,242176
16.186,205182,168,242166
16.191,205143,168,242160
16.196,205130,168,242178
16.201,205113,168,242159
16.206,205111,168,242179
16.211,205115,168,242202
16.216,205082,168,242193
16.221,205098,168,242227
16.226,205057,168,242250
16.231,205056,168,242225
16.236,205035,168,242266
16.240,205046,168,242299
16.245,205043,168,242310
16.250,205037,168,242317
16.255,205021,168,242320
16.260,205039,168,242338
16.265,205033,168,242370
16.270,205019,168,242357
16.275,205015,168,242369
16.280,205033,168,242374
16.285,205030,168,242393
16.290,205047,168,242393
16.295,205036,168,242401
16.300,205023,168,242382
16.305,205046,168,242403
16.310,205054,168,242382
16.315,205070,168,242407
16.320,205098,168,242390
16.325,205089,168,242377
16.330,205106,168,242380
16.335,205122,168,242373
16.340,205152,168,242402
16.345,205189,168,242420
16.350,205182,168,242422
16.355,205186,168,242404
16.360,205201,168,242446
16.364,205194,168,242409
16.369,205199,168,242411
16.374,205186,168,242422
16.379,205193,168,242424
16.384,205195,168,242451
16.389,205187,168,242447
16.394,205195,168,242462
16.399,205203,168,242461
16.404,205212,168,242496
16.409,205195,168,242501
16.414,205201,168,242518
16.419,205219,168,242523
16.424,205232,168,242529
16.429,205230,168,242519
16.434,205240,168,242530
16.439,205269,168,242539
16.444,205267,168,242536
16.449,205270,168,242519
16.454,205259,168,242513
16.459,205263,168,242521
16.464,205286,168,242535
16.469,205285,168,242568
16.474,205348,168,242572
16.479,205348,168,242593
16.484,205367,168,242588
16.488,205361,168,242589
16.493,205382,168,242594
16.498,205375,168,242604
16.503,205408,168,242574
16.508,205409,168,242562
16.513,205422,168,242579
16.518,205427,168,242577
16.523,205430,168,242571
16.528,205464,168,242549
16.533,205474,168,242569
16.538,205469,168,242572
16.543,205457,168,242593
16.548,205492,168,242606
16.553,205506,168,242608
16.558,205517,168,242614
16.563,205516,168,242621
16.568,205522,168,242635
16.573,205543,168,242640
16.578,205548,168,242660
16.583,205570,168,242636
16.588,205613,168,242639
16.593,205638,168,242647
16.598,205635,168,242644
16.603,205654,168,242652
16.608,205671,168,242672
16.612,205682,168,242667
16.617,205706,168,242657
16.622,205728,168,242680
16.627,205737,168,242667
16.632,205746,168,242676
16.637,205767,168,242668
16.642,205777,168,242683
16.647,205802,168,242683
16.652,205804,168,242684
16.657,205824,168,242686
16.662,205845,168,242699
16.667,205843,168,242693
16.672,205861,168,242706
16.677,205855,168,242750
16.682,205841,168,242717
16.687,205830,168,242738
16.692,205813,168,242729
16.697,205789,168,242733
16.702,205771,168,242726
16.707,205746,168,242740
16.712,205703,168,242732
16.717,205712,168,242739
16.722,205644,168,242715
16.727,205647,168,242729
16.732,205640,168,242719
16.736,205640,168,242726
16.741,205624,168,242718
16.746,205603,168,242719
16.751,205607,168,242734
16.756,205601,168,242710
16.761,205574,168,242707
16.766,205551,168,242675
16.771,205554,168,242675
16.776,205539,168,242684
16.781,205542,168,242681
16.786,205535,168,242673
16.791,205547,168,242666
16.796,205543,168,242653
16.801,205539,168,242628
16.806,205534,168,242610
16.811,205543,168,242613
16.816,205544,168,242604
16.821,205556,168,242605
16.826,205525,168,242582
16.831,205512,168,242570
16.836,205510,168,242581
16.841,205499,168,242565
16.846,205502,168,242570
16.851,205492,168,242552
16.856,205481,168,242566
16.860,205476,168,242581
16.865,205477,168,242549
16.870,205464,168,242578
16.875,205457,168,242544
16.880,205449,168,242574
16.885,205444,168,242563
16.890,205451,168,242559
16.895,205465,168,242550
16.900,205459,168,242557
16.905,205458,168,242559
16.910,205464,168,242570
16.915,205473,168,242582
16.920,205455,168,242567
16.925,205481,168,242559
16.930,205507,168,242565
16.935,205490,168,242578
16.940,205493,168,242586
16.945,205497,168,242610
16.950,205508,168,242605
16.955,205492,168,242636
16.960,205497,168,242610
16.965,205517,168,242628
16.970,205527,168,242624
16.975,205513,168,242613
16.980,205525,168,242644
16.984,205514,168,242646
16.989,205489,168,242654
16.994,205503,168,242649
16.999,205507,168,242644
17.004,205521,168,242666
17.009,205518,168,242683
17.014,205551,168,242694
17.019,205513,168,242680
17.024,205532,168,242698
17.029,205537,168,242700
17.034,205530,168,242712
17.039,205520,168,242702
17.044,205521,168,242707
17.049,205534,168,242711
17.054,205536,168,242719
17.059,205558,168,242745
17.064,205550,168,242728
17.069,205567,168,242739
17.074,205550,168,242752
17.079,205563,168,242773
17.084,205586,168,242759
17.089,205582,168,242766
17.094,205586,168,242760
17.099,205589,168,242758
17.104,205614,168,242792
17.108,205614,168,242784
17.113,205611,168,242798
17.118,205634,168,242791
17.123,205616,168,242792
17.128,205641,168,242793
17.133,205653,168,242802
17.138,205657,168,242832
17.143,205681,168,242826
17.148,205697,168,242828
17.153,205694,168,242837
17.158,205699,168,242809
17.163,205721,168,242823
17.168,205739,168,242831
17.173,205758,168,242823
17.178,205763,168,242846
17.183,205763,168,242846
17.188,205779,168,242858
17.193,205784,168,242852
17.198,205780,168,242872
17.203,205803,168,242880
17.208,205790,168,242892
17.213,205817,168,242894
17.218,205828,168,242885
17.223,205834,168,242909
17.228,205847,168,242913
17.232,205853,168,242913
17.237,205860,168,242945
17.242,205863,168,242954
17.247,205874,168,242965
17.252,205879,168,242976
17.257,205870,168,243030
17.262,205839,168,243003
17.267,205822,168,243037
17.272,205821,168,243033
17.277,205793,168,243035
17.282,205784,168,243040
17.287,205773,168,243028
17.292,205750,168,243038
17.297,205717,168,243040
17.302,205701,168,243028
17.307,205679,168,243001
17.312,205688,168,242998
17.317,205679,168,242995
17.322,205652,168,242996
17.327,205647,168,242980
17.332,205639,168,242987
17.337,205636,168,242989
17.342,205602,168,242989
17.347,205594,168,242981
17.352,205590,168,242966
17.356,205544,168,242951
17.361,205577,168,242971
17.366,205567,168,242954
17.371,205556,168,242959
17.376,205541,168,242956
17.381,205551,168,242949
17.386,205527,168,242963
17.391,205528,168,242944
17.396,205519,168,242960
17.401,205512,168,242968
17.406,205502,168,242959
17.411,205495,168,242946
17.416,205474,168,242950
17.421,205480,168,242956
17.426,205461,168,242946
17.431,205475,168,242942
17.436,205457,168,242949
17.441,205449,168,242933
17.446,205458,168,242937
17.451,205441,168,242954
17.456,205442,168,242945
17.461,205448,168,242938
17.466,205434,168,242935
17.471,205435,168,242945
17.476,205450,168,242942
17.480,205459,168,242968
17.485,205465,168,242928
17.490,205491,168,242954
17.495,205490,168,242957
17.500,205494,168,242975
17.505,205480,168,242968
17.510,205483,168,242993
17.515,205491,168,243013
17.520,205487,168,243022
17.525,205487,168,243024
17.530,205496,168,243024
17.535,205494,168,243063
17.540,205498,168,243056
17.545,205495,168,243048
17.550,205501,168,243029
17.555,205521,168,243070
17.560,205520,168,243078
17.565,205524,168,243087
17.570,205539,168,243079
17.575,205538,168,243115
17.580,205515,168,243126
17.585,205543,168,243112
17.590,205527,168,243118
17.595,205546,168,243126
17.600,205513,168,243143
17.604,205545,168,243145
17.609,205548,168,243168
17.614,205550,168,243151
17.619,205553,168,243146
17.624,205572,168,243165
17.629,205574,168,243162
17.634,205595,168,243172
17.639,205603,168,243197
17.644,205591,168,243174
17.649,205628,168,243191
17.654,205617,168,243167
17.659,205627,168,243181
17.664,205635,168,243195
17.669,205655,168,243202
17.674,205661,168,243208
17.679,205658,168,243214
17.684,205678,168,243214
17.689,205685,168,243237
17.694,205677,168,243219
17.699,205677,168,243222
17.704,205700,168,243209
17.709,205700,168,243236
17.714,205714,168,243234
17.719,205719,168,243247
17.724,205718,168,243259
17.728,205762,168,243272
17.733,205756,168,243269
17.738,205751,168,243269
17.743,205762,168,243280
17.748,205769,168,243273
17.753,205783,168,243305
17.758,205787,168,243300
17.763,205783,168,243320
17.768,205776,168,243312
17.773,205792,168,243321
17.778,205793,168,243326
17.783,205816,168,243334
17.788,205827,168,243348
17.793,205822,168,243346
17.798,205851,168,243349
17.803,205846,168,243384
17.808,205866,168,243380
17.813,205874,168,243382
17.818,205872,168,243376
17.823,205883,168,243394
17.828,205897,168,243382
17.833,205889,168,243394
17.838,205912,168,243412
17.843,205903,168,243393
17.848,205923,168,243416
17.852,205933,168,243412
17.857,205943,168,243433
17.862,205944,168,243441
17.867,205960,168,243452
17.872,205959,168,243460
17.877,205968,168,243476
17.882,205992,168,243506
17.887,205991,168,243516
17.892,205961,168,243519
17.897,205965,168,243525
17.902,205951,168,243538
17.907,205927,168,243532
17.912,205901,168,243538
17.917,205896,168,243545
17.922,205874,168,243561
17.927,205844,168,243547
17.932,205836,168,243554
17.937,205819,168,243528
17.942,205790,168,243523
17.947,205769,168,243497
17.952,205777,168,243510
17.957,205758,168,243494
17.962,205734,168,243481
17.967,205715,168,243478
17.972,205698,168,243470
17.976,205677,168,243455
17.981,205663,168,243466
17.986,205664,168,243455
17.991,205638,168,243455
17.996,205623,168,243460
18.001,205611,168,243429
18.006,205624,168,243444
18.011,205615,168,243447
18.016,205609,168,243455
18.021,205591,168,243456
18.026,205602,168,243459
18.031,205569,168,243447
18.036,205570,168,243443
18.041,205564,168,243449
18.046,205536,168,243433
18.051,205530,168,243433
18.056,205531,168,243450
18.061,205521,168,243452
18.066,205508,168,243441
18.071,205513,168,243460
18.076,205496,168,243443
18.081,205487,168,243414
18.086,205479,168,243442
18.091,205478,168,243440
18.096,205476,168,243456
18.100,205467,168,243431
18.105,205468,168,243457
18.110,205452,168,243443
18.115,205463,168,243459
18.120,205473,168,243459
18.125,205489,168,243455
18.130,205496,168,243470
18.135,205498,168,243468
18.140,205517,168,243485
18.145,205511,168,243485
18.150,205509,168,243497
18.155,205509,168,243502
18.160,205499,168,243531
18.165,205498,168,243546
18.170,205516,168,243523
18.175,205513,168,243558
18.180,205507,168,243561
18.185,205531,168,243573
18.190,205502,168,243565
18.195,205506,168,243592
18.200,205511,168,243590
18.205,205508,168,243618
18.210,205515,168,243608
18.215,205510,168,243607
18.220,205523,168,243609
18.224,205526,168,243597
18.229,205531,168,243598
18.234,205528,168,243615
18.239,205537,168,243618
18.244,205547,168,243622
18.249,205536,168,243636
18.254,205556,168,243639
18.259,205556,168,243647
18.264,205554,168,243659
18.269,205549,168,243649
18.274,205560,168,243646
18.279,205558,168,243684
18.284,205557,168,243664
18.289,205579,168,243682
18.294,205562,168,243679
18.299,205606,168,243699
18.304,205584,168,243703
18.309,205608,168,243707
18.314,205611,168,243704
18.319,205610,168,243709
18.324,205633,168,243706
18.329,205636,168,243750
18.334,205632,168,243732
18.339,205658,168,243754
18.344,205665,168,243757
18.348,205673,168,243751
18.353,205659,168,243743
18.358,205688,168,243770
18.363,205690,168,243770
18.368,205703,168,243776
18.373,205711,168,243782
18.378,205719,168,243786
18.383,205726,168,243787
18.388,205738,168,243783
18.393,205729,168,243802
18.398,205763,168,243809
18.403,205778,168,243805
18.408,205785,168,243818
18.413,205782,168,243825
18.418,205776,168,243819
18.423,205791,168,243843
18.428,205801,168,243811
18.433,205803,168,243854
18.438,205818,168,243864
18.443,205837,168,243874
18.448,205836,168,243871
18.453,205855,168,243870
18.458,205857,168,243882
18.463,205825,168,243864
18.468,205864,168,243894
18.472,205871,168,243880
18.477,205871,168,243893
18.482,205875,168,243904
18.487,205890,168,243896
18.492,205895,168,243920
18.497,205902,168,243928
18.502,205925,168,243918
18.507,205891,168,243936
18.512,205929,168,243942
18.517,205917,168,243924
18.522,205940,168,243953
18.527,205946,168,243944
18.532,205962,168,243932
18.537,205966,168,243940
18.542,205970,168,243942
18.547,205998,168,243941
18.552,205998,168,243986
18.557,206008,168,243977
18.562,206002,168,243979
18.567,206025,168,243969
18.572,206057,168,243971
18.577,206054,168,243976
18.582,206067,168,243986
18.587,206077,168,243967
18.592,206099,168,244008
18.596,206089,168,243978
18.601,206099,168,243998
18.606,206120,168,244014
18.611,206120,168,244023
18.616,206123,168,244034
18.621,206132,168,244027
18.626,206136,168,244051
18.631,206144,168,244094
18.636,206137,168,244098
18.641,206131,168,244097
18.646,206124,168,244100
18.651,206102,168,244116
18.656,206093,168,244136
18.661,206074,168,244120
18.666,206043,168,244104
18.671,206038,168,244112
18.676,206014,168,244088
18.681,205970,168,244071
18.686,205967,168,244050
18.691,205948,168,244053
18.696,205931,168,244018
18.701,205924,168,244019
18.706,205898,168,244005
18.711,205882,168,243997
18.716,205841,168,243986
18.720,205842,168,243981
18.725,205815,168,243968
18.730,205803,168,243972
18.735,205808,168,243962
18.740,205794,168,243965
18.745,205785,168,243942
18.750,205781,168,243958
18.755,205763,168,243959
18.760,205756,168,243949
18.765,205734,168,243928
18.770,205765,168,243939
18.775,205712,168,243919
18.780,205727,168,243932
18.785,205701,168,243924
18.790,205702,168,243933
18.795,205680,168,243914
18.800,205673,168,243912
18.805,205659,168,243930
18.810,205663,168,243914
18.815,205654,168,243893
18.820,205652,168,243913
18.825,205634,168,243916
18.830,205634,168,243928
18.835,205615,168,243907
18.840,205618,168,243900
18.844,205624,168,243894
18.849,205597,168,243917
18.854,205604,168,243869
18.859,205600,168,243879
18.864,205600,168,243851
18.869,205605,168,243845
18.874,205594,168,243840
18.879,205582,168,243806
18.884,205579,168,243821
18.889,205582,168,243789
18.894,205570,168,243788
18.899,205538,168,243769
18.904,205568,168,243762
18.909,205579,168,243750
18.914,205555,168,243746
18.919,205558,168,243737
18.924,205539,168,243721
18.929,205546,168,243713
18.934,205538,168,243695
18.939,205526,168,243694
18.944,205527,168,243670
18.949,205522,168,243660
18.954,205526,168,243641
18.959,205516,168,243648
18.964,205495,168,243625
18.968,205486,168,243603
18.973,205502,168,243609
18.978,205493,168,243586
18.983,205481,168,243595
18.988,205490,168,243594
18.993,205480,168,243560
18.998,205492,168,243539
19.003,205479,168,243534
19.008,205476,168,243537
19.013,205459,168,243521
19.018,205477,168,243541
19.023,205496,168,243528
19.028,205480,168,243507
19.033,205517,168,243538
19.038,205502,168,243515
19.043,205505,168,243518
19.048,205517,168,243518
19.053,205521,168,243523
19.058,205514,168,243514
19.063,205538,168,243517
19.068,205537,168,243522
19.073,205559,168,243541
19.078,205548,168,243550
19.083,205548,168,243548
19.088,205544,168,243577
19.092,205545,168,243562
19.097,205572,168,243575
19.102,205572,168,243593
19.107,205590,168,243602
19.112,205587,168,243611
19.117,205600,168,243606
19.122,205613,168,243625
19.127,205617,168,243622
19.132,205618,168,243633
19.137,205622,168,243637
19.142,205642,168,243644
19.147,205653,168,243641
19.152,205668,168,243654
19.157,205683,168,243662
19.162,205700,168,243676
19.167,205688,168,243666
19.172,205685,168,243686
19.177,205695,168,243711
19.182,205714,168,243698
19.187,205712,168,243725
19.192,205716,168,243719
19.197,205732,168,243722
19.202,205740,168,243753
19.207,205752,168,243744
19.212,205750,168,243770
19.216,205760,168,243754
19.221,205760,168,243786
19.226,205756,168,243775
19.231,205784,168,243793
19.236,205801,168,243813
19.241,205814,168,243808
19.246,205812,168,243802
19.251,205823,168,243828
19.256,205828,168,243812
19.261,205844,168,243833
19.266,205856,168,243844
19.271,205852,168,243845
19.276,205871,168,243865
19.281,205898,168,243846
19.286,205882,168,243872
19.291,205912,168,243881
19.296,205933,168,243880
19.301,205925,168,243890
19.306,205967,168,243881
19.311,205954,168,243882
19.316,205966,168,243894
19.321,205968,168,243906
19.326,205998,168,243884
19.331,206014,168,243916
19.336,206000,168,243929
19.340,206026,168,243940
19.345,206023,168,243948
19.350,206017,168,243957
19.355,206000,168,243973
19.360,206001,168,243990
19.365,205982,168,243973
19.370,205985,168,243986
19.375,205941,168,243987
19.380,205952,168,243985
19.385,205922,168,244000
19.390,205910,168,243983
19.395,205885,168,243993
19.400,205871,168,243952
19.405,205856,168,243946
19.410,205833,168,243945
19.415,205810,168,243946
19.420,205805,168,243931
19.425,205800,168,243917
19.430,205779,168,243908
19.435,205759,168,243925
19.440,205752,168,243897
19.445,205733,168,243896
19.450,205738,168,243896
19.455,205720,168,243876
19.460,205693,168,243872
19.464,205719,168,243883
19.469,205695,168,243857
19.474,205686,168,243860
19.479,205674,168,243856
19.484,205668,168,243848
19.489,205660,168,243849
19.494,205662,168,243824
19.499,205652,168,243833
19.504,205621,168,243802
19.509,205609,168,243795
19.514,205596,168,243777
19.519,205604,168,243759
19.524,205572,168,243749
19.529,205549,168,243757
19.534,205549,168,243692
19.539,205549,168,243689
19.544,205522,168,243687
19.549,205507,168,243620
19.554,205504,168,243626
19.559,205478,168,243624
19.564,205486,168,243591
19.569,205450,168,243561
19.574,205454,168,243563
19.579,205453,168,243526
19.584,205459,168,243529
19.588,205458,168,243491
19.593,205451,168,243485
19.598,205450,168,243463
19.603,205450,168,243460
19.608,205448,168,243427
19.613,205418,168,243415
19.618,205430,168,243405
19.623,205435,168,243414
19.628,205423,168,243397
19.633,205420,168,243390
19.638,205441,168,243377
19.643,205410,168,243368
19.648,205413,168,243374
19.653,205400,168,243358
19.658,205415,168,243325
19.663,205413,168,243358
19.668,205392,168,243338
19.673,205387,168,243332
19.678,205375,168,243316
19.683,205388,168,243302
19.688,205381,168,243324
19.693,205398,168,243302
19.698,205399,168,243300
19.703,205377,168,243291
19.708,205388,168,243288
19.712,205388,168,243271
19.717,205388,168,243276
19.722,205391,168,243259
19.727,205379,168,243278
19.732,205363,168,243270
19.737,205405,168,243272
19.742,205386,168,243262
19.747,205401,168,243280
19.752,205404,168,243265
19.757,205416,168,243270
19.762,205394,168,243292
19.767,205440,168,243293
19.772,205439,168,243293
19.777,205451,168,243290
19.782,205448,168,243289
19.787,205471,168,243283
19.792,205464,168,243302
19.797,205472,168,243317
19.802,205486,168,243304
19.807,205506,168,243304
19.812,205493,168,243313
19.817,205500,168,243322
19.822,205509,168,243307
19.827,205525,168,243310
19.832,205533,168,243347
19.836,205531,168,243316
19.841,205544,168,243342
19.846,205539,168,243353
19.851,205556,168,243346
19.856,205563,168,243359
19.861,205574,168,243348
19.866,205581,168,243357
19.871,205609,168,243366
19.876,205599,168,243367
19.881,205622,168,243371
19.886,205603,168,243365
19.891,205635,168,243392
19.896,205641,168,243379
19.901,205658,168,243373
19.906,205649,168,243404
19.911,205646,168,243428
19.916,205651,168,243399
19.921,205660,168,243418
19.926,205677,168,243424
19.931,205694,168,243436
19.936,205707,168,243436
19.941,205708,168,243448
19.946,205704,168,243456
19.951,205745,168,243464
19.956,205732,168,243468
19.960,205750,168,243488
19.965,205773,168,243476
19.970,205779,168,243520
19.975,205772,168,243511
19.980,205800,168,243529
19.985,205795,168,243536
19.990,205812,168,243533
19.995,205816,168,243554
20.000,205826,168,243547
20.005,205837,168,243543
20.010,205849,168,243572
20.015,205858,168,243592
20.020,205883,168,243581
20.025,205881,168,243598
20.030,205906,168,243599
20.035,205909,168,243604
20.040,205923,168,243590
20.045,205942,168,243612
20.050,205945,168,243619
20.055,205947,168,243585
20.060,205971,168,243638
20.065,205972,168,243638
20.070,205992,168,243652
20.075,206001,168,243652
20.080,206012,168,243655
20.084,206019,168,243647
20.089,206044,168,243666
20.094,206044,168,243665
20.099,206068,168,243663
20.104,206056,168,243686
20.109,206093,168,243714
20.114,206093,168,243711
20.119,206106,168,243733
20.124,206112,168,243737
20.129,206118,168,243754
20.134,206102,168,243759
20.139,206109,168,243762
20.144,206095,168,243783
20.149,206085,168,243787
20.154,206078,168,243798
20.159,206055,168,243810
20.164,206041,168,243820
20.169,206015,168,243797
20.174,205993,168,243808
20.179,205992,168,243780
20.184,205976,168,243779
20.189,205955,168,243766
20.194,205926,168,243771
20.199,205911,168,243752
20.203,205906,168,243741
20.208,205879,168,243722
20.213,205880,168,243738
20.218,205862,168,243722
20.223,205857,168,243741
20.228,205828,168,243720
20.233,205840,168,243677
20.238,205829,168,243698
20.243,205806,168,243701
20.248,205801,168,243702
20.253,205796,168,243711
20.258,205774,168,243700
20.263,205790,168,243684
20.268,205771,168,243684
20.273,205752,168,243712
20.278,205763,168,243692
20.283,205741,168,243702
20.288,205745,168,243678
20.293,205728,168,243687
20.298,205749,168,243691
20.303,205721,168,243674
20.308,205695,168,243672
20.313,205675,168,243680
20.318,205692,168,243664
20.323,205678,168,243678
20.327,205671,168,243648
20.332,205676,168,243667
20.337,205670,168,243676
20.342,205643,168,243667
20.347,205656,168,243654
20.352,205639,168,243683
20.357,205649,168,243648
20.362,205637,168,243677
20.367,205674,168,243667
20.372,205673,168,243669
20.377,205656,168,243682
20.382,205668,168,243682
20.387,205666,168,243696
20.392,205678,168,243679
20.397,205668,168,243698
20.402,205659,168,243699
20.407,205676,168,243728
20.412,205671,168,243715
20.417,205670,168,243724
20.422,205676,168,243744
20.427,205684,168,243734
20.432,205689,168,243762
20.437,205692,168,243741
20.442,205674,168,243741
20.447,205688,168,243753
20.451,205677,168,243758
20.456,205694,168,243767
20.461,205690,168,243759
20.466,205697,168,243768
20.471,205662,168,243752
20.476,205691,168,243776
20.481,205706,168,243763
20.486,205708,168,243771
20.491,205684,168,243784
20.496,205689,168,243789
20.501,205703,168,243778
20.506,205710,168,243794
20.511,205701,168,243786
20.516,205713,168,243787
20.521,205714,168,243802
20.526,205706,168,243776
20.531,205719,168,243786
20.536,205725,168,243794
20.541,205701,168,243817
20.546,205737,168,243811
20.551,205740,168,243802
20.556,205746,168,243834
20.561,205758,168,243824
20.566,205762,168,243840
20.571,205756,168,243830
20.575,205761,168,243835
20.580,205771,168,243842
20.585,205770,168,243851
20.590,205774,168,243848
20.595,205794,168,243857
20.600,205776,168,243871
20.605,205783,168,243856
20.610,205797,168,243872
20.615,205799,168,243875
20.620,205814,168,243883
20.625,205818,168,243892
20.630,205813,168,243905
20.635,205816,168,243908
20.640,205833,168,243904
20.645,205835,168,243911
20.650,205855,168,243922
20.655,205862,168,243925
20.660,205850,168,243911
20.665,205868,168,243922
20.670,205863,168,243923
20.675,205878,168,243931
20.680,205897,168,243963
20.685,205894,168,243954
20.690,205907,168,243966
20.695,205892,168,243972
20.699,205912,168,243954
20.704,205904,168,243974
20.709,205907,168,243984
20.714,205934,168,243994
20.719,205925,168,244013
20.724,205944,168,244006
20.729,205959,168,244028
20.734,205969,168,244033
20.739,205956,168,244022
20.744,205964,168,244014
20.749,205985,168,244035
20.754,205988,168,244021
20.759,205991,168,244026
20.764,206014,168,244019
20.769,205994,168,244028
20.774,206006,168,244049
20.779,206039,168,244035
20.784,206038,168,244042
20.789,206019,168,244048
20.794,206034,168,244049
20.799,206041,168,244054
20.804,206057,168,244085
20.809,206056,168,244079
20.814,206072,168,244101
20.819,206087,168,244086
20.823,206090,168,244079
20.828,206094,168,244079
20.833,206092,168,244080
20.838,206122,168,244099
20.843,206104,168,244098
20.848,206119,168,244102
20.853,206132,168,244117
20.858,206147,168,244117
20.863,206170,168,244112
20.868,206170,168,244111
20.873,206162,168,244121
20.878,206194,168,244104
20.883,206188,168,244124
20.888,206210,168,244115
20.893,206202,168,244138
20.898,206222,168,244113
20.903,206215,168,244118
20.908,206229,168,244115
20.913,206242,168,244135
20.918,206258,168,244104
20.923,206256,168,244133
20.928,206245,168,244129
20.933,206277,168,244114
20.938,206268,168,244133
20.943,206287,168,244135
20.947,206295,168,244151
20.952,206323,168,244163
20.957,206314,168,244157
20.962,206327,168,244157
20.967,206332,168,244184
20.972,206314,168,244199
20.977,206297,168,244188
20.982,206293,168,244198
20.987,206275,168,244214
20.992,206252,168,244213
20.997,206236,168,244194
21.002,206204,168,244183
21.007,206167,168,244172
21.012,206214,168,244159
21.017,206141,168,244142
21.022,206126,168,244138
21.027,206105,168,244135
21.032,206078,168,244110
21.037,206073,168,244099
21.042,206050,168,244103
21.047,206053,168,244105
21.052,206050,168,244089
21.057,206025,168,244073
21.062,206011,168,244070
21.067,205995,168,244096
21.071,205995,168,244093
21.076,205989,168,244087
21.081,205963,168,244070
21.086,205962,168,244092
21.091,205963,168,244078
21.096,205956,168,244059
21.101,205939,168,244082
21.106,205958,168,244058
21.111,205938,168,244076
21.116,205947,168,244079
21.121,205929,168,244062
21.126,205926,168,244064
21.131,205916,168,244055
21.136,205906,168,244072
21.141,205888,168,244055
21.146,205889,168,244046
21.151,205893,168,244074
21.156,205882,168,244072
21.161,205859,168,244061
21.166,205855,168,244052
21.171,205862,168,244055
21.176,205859,168,244058
21.181,205850,168,244062
21.186,205858,168,244058
21.191,205850,168,244054
21.195,205852,168,244050
21.200,205852,168,244048
21.205,205861,168,244063
21.210,205867,168,244078
21.215,205868,168,244060
21.220,205856,168,244068
21.225,205854,168,244067
21.230,205880,168,244085
21.235,205872,168,244118
21.240,205882,168,244125
21.245,205871,168,244129
21.250,205862,168,244132
21.255,205882,168,244168
21.260,205868,168,244128
21.265,205896,168,244162
21.270,205873,168,244145
21.275,205866,168,244167
21.280,205886,168,244150
21.285,205894,168,244164
21.290,205865,168,244163
21.295,205868,168,244175
21.300,205883,168,244176
21.305,205882,168,244166
21.310,205894,168,244181
21.315,205889,168,244168
21.319,205889,168,244168
21.324,205894,168,244165
21.329,205885,168,244172
21.334,205891,168,244182
21.339,205904,168,244165
21.344,205908,168,244176
21.349,205925,168,244171
21.354,205903,168,244183
21.359,205926,168,244171
21.364,205905,168,244184
21.369,205926,168,244187
21.374,205930,168,244179
21.379,205939,168,244200
21.384,205940,168,244194
21.389,205947,168,244193
21.394,205931,168,244197
21.399,205948,168,244180
21.404,205970,168,244202
21.409,205965,168,244210
21.414,205967,168,244210
21.419,205966,168,244212
21.424,205970,168,244200
21.429,205979,168,244212
21.434,205989,168,244224
21.439,206000,168,244224
21.443,206016,168,244216
21.448,206010,168,244230
21.453,206016,168,244217
21.458,206020,168,244251
21.463,206026,168,244237
21.468,206031,168,244236
21.473,206041,168,244244
21.478,206043,168,244240
21.483,206058,168,244263
21.488,206054,168,244261
21.493,206049,168,244240
21.498,206068,168,244260
21.503,206080,168,244270
21.508,206075,168,244256
21.513,206105,168,244261
21.518,206095,168,244271
21.523,206096,168,244272
21.528,206107,168,244289
21.533,206102,168,244275
21.538,206126,168,244287
21.543,206118,168,244264
21.548,206131,168,244267
21.553,206127,168,244276
21.558,206146,168,244291
21.563,206149,168,244305
21.567,206150,168,244279
21.572,206163,168,244291
21.577,206163,168,244284
21.582,206174,168,244292
21.587,206184,168,244289
21.592,206195,168,244286
21.597,206213,168,244285
21.602,206206,168,244264
21.607,206218,168,244282
21.612,206237,168,244276
21.617,206245,168,244264
21.622,206248,168,244249
21.627,206234,168,244279
21.632,206259,168,244265
21.637,206273,168,244274
21.642,206280,168,244239
21.647,206304,168,244252
21.652,206305,168,244240
21.657,206328,168,244264
21.662,206316,168,244244
21.667,206341,168,244248
21.672,206328,168,244250
21.677,206359,168,244261
21.682,206362,168,244258
21.687,206362,168,244273
21.691,206370,168,244265
21.696,206386,168,244284
21.701,206390,168,244295
21.706,206403,168,244321
21.711,206392,168,244317
21.716,206392,168,244326
21.721,206369,168,244346
21.726,206354,168,244353
21.731,206341,168,244327
21.736,206329,168,244335
21.741,206325,168,244317
21.746,206303,168,244325
21.751,206279,168,244288
21.756,206256,168,244271
21.761,206241,168,244278
21.766,206205,168,244236
21.771,206212,168,244249
21.776,206168,168,244215
21.781,206151,168,244209
21.786,206140,168,244199
21.791,206112,168,244185
21.796,206116,168,244165
21.801,206093,168,244156
21.806,206080,168,244138
21.811,206081,168,244134
21.815,206044,168,244128
21.820,206044,168,244111
21.825,206027,168,244122
21.830,206014,168,244110
21.835,206017,168,244097
21.840,206023,168,244096
21.845,206001,168,244092
21.850,205992,168,244084
21.855,205972,168,244063
21.860,205962,168,244048
21.865,205971,168,244056
21.870,205959,168,244031
21.875,205965,168,244055
21.880,205939,168,244024
21.885,205926,168,244052
21.890,205921,168,244041
21.895,205900,168,244019
21.900,205898,168,244012
21.905,205881,168,244007
21.910,205888,168,243996
21.915,205877,168,244001
21.920,205863,168,243982
21.925,205863,168,243982
21.930,205882,168,243968
21.935,205872,168,243987
21.939,205887,168,243972
21.944,205873,168,243951
21.949,205881,168,243967
21.954,205890,168,243980
21.959,205890,168,243964
21.964,205865,168,243960
21.969,205873,168,243980
21.974,205876,168,243993
21.979,205902,168,243980
21.984,205890,168,243999
21.989,205906,168,243995
21.994,205887,168,243991
21.999,205891,168,243982
22.004,205899,168,243988
22.009,205883,168,243999
22.014,205878,168,243998
22.019,205888,168,244002
22.024,205891,168,244003
22.029,205909,168,243998
22.034,205877,168,243996
22.039,205898,168,243996
22.044,205886,168,243998
22.049,205875,168,243997
22.054,205894,168,244007
22.059,205884,168,243988
22.063,205892,168,244009
22.068,205890,168,243994
22.073,205885,168,243994
22.078,205898,168,243996
22.083,205898,168,243991
22.088,205889,168,243986
22.093,205901,168,243986
22.098,205904,168,244002
22.103,205914,168,243986
22.108,205924,168,243984
22.113,205927,168,243999
22.118,205942,168,243992
22.123,205930,168,243992
22.128,205937,168,243976
22.133,205957,168,243973
22.138,205954,168,243983
22.143,205939,168,243987
22.148,205949,168,244011
22.153,205966,168,243991
22.158,205956,168,243970
22.163,205961,168,243953
22.168,205977,168,243968
22.173,205986,168,243961
22.178,205965,168,243983
22.183,205996,168,243963
22.187,206012,168,243995
22.192,206010,168,244001
22.197,206018,168,244006
22.202,206012,168,243963
22.207,206043,168,243965
22.212,206026,168,243986
22.217,206045,168,243988
22.222,206046,168,243995
22.227,206052,168,243973
22.232,206047,168,243981
22.237,206082,168,244013
22.242,206079,168,243988
22.247,206072,168,243989
22.252,206095,168,243994
22.257,206114,168,243986
22.262,206119,168,243985
22.267,206122,168,243995
22.272,206120,168,243992
22.277,206148,168,243998
22.282,206149,168,244001
22.287,206134,168,244004
22.292,206156,168,244013
22.297,206161,168,244001
22.302,206168,168,244018
22.307,206175,168,244015
22.311,206171,168,244028
22.316,206185,168,244021
22.321,206187,168,244024
22.326,206185,168,244016
22.331,206218,168,244014
22.336,206205,168,244037
22.341,206219,168,244023
22.346,206204,168,244029
22.351,206225,168,244044
22.356,206243,168,244034
22.361,206243,168,244034
22.366,206251,168,244022
22.371,206274,168,244047
22.376,206302,168,244041
22.381,206291,168,244021
22.386,206300,168,244037
22.391,206317,168,244033
22.396,206307,168,244033
22.401,206314,168,244055
22.406,206327,168,244042
22.411,206355,168,244042
22.416,206358,168,244039
22.421,206384,168,244019
22.426,206394,168,244042
22.431,206385,168,244037
22.435,206392,168,244048
22.440,206406,168,244048
22.445,206422,168,244046
22.450,206425,168,244061
22.455,206433,168,244071
22.460,206427,168,244085
22.465,206436,168,244091
22.470,206432,168,244105
22.475,206428,168,244130
22.480,206424,168,244136
22.485,206392,168,244143
22.490,206380,168,244139
22.495,206348,168,244133
22.500,206318,168,244112
22.505,206313,168,244099
22.510,206279,168,244089
22.515,206263,168,244046
22.520,206236,168,244053
22.525,206227,168,244021
22.530,206197,168,244027
22.535,206168,168,243992
22.540,206133,168,243990
22.545,206110,168,243964
22.550,206117,168,243957
22.555,206094,168,243938
22.559,206042,168,243914
22.564,206054,168,243932
22.569,206040,168,243914
22.574,206030,168,243887
22.579,205998,168,243894
22.584,206014,168,243883
22.589,206000,168,243864
22.594,205967,168,243846
22.599,205967,168,243848
22.604,205961,168,243838
22.609,205932,168,243851
22.614,205928,168,243833
22.619,205894,168,243838
22.624,205889,168,243828
22.629,205866,168,243803
22.634,205869,168,243813
22.639,205845,168,243793
22.644,205827,168,243806
22.649,205821,168,243783
22.654,205819,168,243778
22.659,205812,168,243766
22.664,205782,168,243758
22.669,205786,168,243733
22.674,205773,168,243740
22.679,205781,168,243737
22.683,205759,168,243733
22.688,205731,168,243727
22.693,205747,168,243706
22.698,205728,168,243687
22.703,205749,168,243707
22.708,205761,168,243733
22.713,205739,168,243719
22.718,205715,168,243697
22.723,205739,168,243713
22.728,205751,168,243715
22.733,205742,168,243713
22.738,205746,168,243739
22.743,205729,168,243735
22.748,205746,168,243726
22.753,205749,168,243728
22.758,205747,168,243731
22.763,205752,168,243709
22.768,205752,168,243746
22.773,205736,168,243727
22.778,205726,168,243745
22.783,205730,168,243734
22.788,205740,168,243717
22.793,205738,168,243735
22.798,205735,168,243721
22.803,205715,168,243746
22.807,205723,168,243740
22.812,205737,168,243731
22.817,205725,168,243731
22.822,205727,168,243749
22.827,205731,168,243731
22.832,205712,168,243744
22.837,205715,168,243722
22.842,205740,168,243730
22.847,205735,168,243728
22.852,205733,168,243716
22.857,205755,168,243715
22.862,205750,168,243712
22.867,205750,168,243738
22.872,205752,168,243727
22.877,205750,168,243727
22.882,205756,168,243722
22.887,205770,168,243723
22.892,205774,168,243734
22.897,205770,168,243728
22.902,205771,168,243750
22.907,205782,168,243739
22.912,205787,168,243744
22.917,205778,168,243736
22.922,205776,168,243755
22.927,205805,168,243739
22.931,205803,168,243756
22.936,205795,168,243751
22.941,205797,168,243754
22.946,205828,168,243770
22.951,205824,168,243750
22.956,205832,168,243745
22.961,205839,168,243759
22.966,205841,168,243762
22.971,205841,168,243771
22.976,205855,168,243778
22.981,205869,168,243788
22.986,205886,168,243792
22.991,205885,168,243797
22.996,205895,168,243795
23.001,205906,168,243791
23.006,205915,168,243815
23.011,205937,168,243804
23.016,205914,168,243821
23.021,205928,168,243830
23.026,205942,168,243822
23.031,205948,168,243844
23.036,205952,168,243841
23.041,205971,168,243843
23.046,205966,168,243856
23.051,205967,168,243847
23.055,205987,168,243877
23.060,205977,168,243880
23.065,205997,168,243875
23.070,206011,168,243907
23.075,206012,168,243876
23.080,206029,168,243900
23.085,206040,168,243924
23.090,206027,168,243910
23.095,206060,168,243904
23.100,206066,168,243935
23.105,206081,168,243927
23.110,206091,168,243939
23.115,206105,168,243940
23.120,206102,168,243967
23.125,206106,168,243961
23.130,206144,168,243965
23.135,206109,168,243971
23.140,206120,168,243972
23.145,206142,168,243992
23.150,206155,168,243979
23.155,206155,168,244006
23.160,206166,168,244026
23.165,206177,168,244024
23.170,206197,168,244023
23.175,206202,168,244021
23.179,206206,168,244043
23.184,206218,168,244032
23.189,206233,168,244057
23.194,206243,168,244054
23.199,206243,168,244070
23.204,206269,168,244068
23.209,206271,168,244070
23.214,206277,168,244065
23.219,206292,168,244100
23.224,206297,168,244100
23.229,206306,168,244114
23.234,206320,168,244132
23.239,206326,168,244126
23.244,206328,168,244136
23.249,206351,168,244120
23.254,206358,168,244167
23.259,206376,168,244160
23.264,206378,168,244150
23.269,206388,168,244177
23.274,206403,168,244193
23.279,206418,168,244209
23.284,206405,168,244227
23.289,206406,168,244233
23.294,206390,168,244243
23.299,206395,168,244279
23.303,206411,168,244282
23.308,206344,168,244257
23.313,206330,168,244272
23.318,206299,168,244253
23.323,206288,168,244252
23.328,206255,168,244246
23.333,206219,168,244241
23.338,206216,168,244216
23.343,206171,168,244205
23.348,206151,168,244182
23.353,206121,168,244154
23.358,206131,168,244165
23.363,206090,168,244148
23.368,206071,168,244125
23.373,206062,168,244128
23.378,206038,168,244095
23.383,206038,168,244097
23.388,206015,168,244088
23.393,206010,168,244079
23.398,205979,168,244064
23.403,205972,168,244081
23.408,205955,168,244074
23.413,205948,168,244067
23.418,205921,168,244047
23.423,205935,168,244050
23.427,205929,168,244034
23.432,205894,168,244061
23.437,205889,168,244046
23.442,205882,168,244043
23.447,205880,168,244049
23.452,205867,168,244033
23.457,205821,168,244023
23.462,205817,168,244034
23.467,205810,168,244018
23.472,205802,168,244017
23.477,205792,168,244021
23.482,205787,168,244008
23.487,205768,168,244001
23.492,205758,168,243995
23.497,205762,168,243998
23.502,205744,168,243998
23.507,205742,168,244007
23.512,205747,168,244005
23.517,205726,168,243997
23.522,205745,168,243974
23.527,205741,168,244017
23.532,205749,168,243984
23.537,205740,168,244003
23.542,205764,168,243979
23.547,205751,168,243977
23.551,205744,168,244018
23.556,205742,168,244013
23.561,205733,168,244014
23.566,205751,168,244041
23.571,205743,168,244025
23.576,205748,168,244036
23.581,205744,168,244054
23.586,205743,168,244035
23.591,205754,168,244071
23.596,205724,168,244050
23.601,205752,168,244073
23.606,205757,168,244053
23.611,205747,168,244076
23.616,205762,168,244090
23.621,205761,168,244076
23.626,205748,168,244088
23.631,205750,168,244111
23.636,205758,168,244108
23.641,205744,168,244090
23.646,205750,168,244096
23.651,205740,168,244085
23.656,205747,168,244078
23.661,205750,168,244082
23.666,205758,168,244096
23.671,205754,168,244095
23.675,205753,168,244102
23.680,205764,168,244101
23.685,205763,168,244091
23.690,205772,168,244118
23.695,205755,168,244121
23.700,205764,168,244126
23.705,205785,168,244144
23.710,205782,168,244129
23.715,205778,168,244144
23.720,205793,168,244163
23.725,205806,168,244151
23.730,205801,168,244180
23.735,205808,168,244175
23.740,205804,168,244171
23.745,205820,168,244170
23.750,205823,168,244165
23.755,205833,168,244181
23.760,205828,168,244196
23.765,205850,168,244189
23.770,205866,168,244186
23.775,205873,168,244188
23.780,205885,168,244220
23.785,205882,168,244223
23.790,205900,168,244208
23.795,205893,168,244227
23.799,205907,168,244242
23.804,205892,168,244231
23.809,205911,168,244247
23.814,205931,168,244251
23.819,205943,168,244253
23.824,205944,168,244262
23.829,205969,168,244272
23.834,205976,168,244274
23.839,205981,168,244242
23.844,205990,168,244280
23.849,205988,168,244271
23.854,205993,168,244289
23.859,206011,168,244256
23.864,206011,168,244290
23.869,206025,168,244291
23.874,206008,168,244286
23.879,206045,168,244305
23.884,206043,168,244307
23.889,206060,168,244332
23.894,206058,168,244308
23.899,206053,168,244336
23.904,206068,168,244322
23.909,206086,168,244340
23.914,206088,168,244340
23.919,206082,168,244347
23.923,206102,168,244365
23.928,206118,168,244360
23.933,206128,168,244357
23.938,206137,168,244361
23.943,206147,168,244359
23.948,206164,168,244352
23.953,206171,168,244377
23.958,206174,168,244372
23.963,206195,168,244375
23.968,206182,168,244375
23.973,206221,168,244347
23.978,206217,168,244378
23.983,206214,168,244388
23.988,206239,168,244395
23.993,206244,168,244407
23.998,206260,168,244416
24.003,206261,168,244394
24.008,206274,168,244421
24.013,206269,168,244420
24.018,206279,168,244414
24.023,206311,168,244437
24.028,206324,168,244429
24.033,206321,168,244444
24.038,206342,168,244480
24.043,206346,168,244501
24.047,206341,168,244526
24.052,206342,168,244552
24.057,206324,168,244543
24.062,206333,168,244566
24.067,206327,168,244573
24.072,206304,168,244584
24.077,206280,168,244577
24.082,206258,168,244593
24.087,206227,168,244579
24.092,206211,168,244583
24.097,206203,168,244555
24.102,206175,168,244541
24.107,206151,168,244536
24.112,206130,168,244517
24.117,206115,168,244524
24.122,206091,168,244506
24.127,206072,168,244518
24.132,206065,168,244494
24.137,206052,168,244529
24.142,206044,168,244491
24.147,206034,168,244489
24.152,206017,168,244506
24.157,206023,168,244489
24.162,206010,168,244503
24.167,205986,168,244480
24.171,205981,168,244485
24.176,205967,168,244498
24.181,205981,168,244498
24.186,205955,168,244501
24.191,205934,168,244508
24.196,205926,168,244497
24.201,205922,168,244517
24.206,205913,168,244506
24.211,205918,168,244520
24.216,205909,168,244510
24.221,205898,168,244509
24.226,205895,168,244513
24.231,205884,168,244508
24.236,205883,168,244507
24.241,205871,168,244516
24.246,205879,168,244519
24.251,205880,168,244513
24.256,205864,168,244532
24.261,205840,168,244514
24.266,205867,168,244513
24.271,205861,168,244525
24.276,205868,168,244539
24.281,205883,168,244529
24.286,205849,168,244525
24.291,205888,168,244534
24.295,205882,168,244552
24.300,205882,168,244555
24.305,205879,168,244571
24.310,205872,168,244585
24.315,205887,168,244572
24.320,205896,168,244593
24.325,205901,168,244576
24.330,205889,168,244590
24.335,205924,168,244625
24.340,205897,168,244589
24.345,205886,168,244618
24.350,205928,168,244588
24.355,205917,168,244609
24.360,205917,168,244619
24.365,205904,168,244621
24.370,205901,168,244636
24.375,205918,168,244634
24.380,205923,168,244620
24.385,205911,168,244653
24.390,205928,168,244619
24.395,205900,168,244638
24.400,205920,168,244656
24.405,205915,168,244645
24.410,205924,168,244667
24.415,205917,168,244659
24.419,205923,168,244660
24.424,205942,168,244674
24.429,205944,168,244665
24.434,205954,168,244684
24.439,205948,168,244671
24.444,205947,168,244671
24.449,205970,168,244678
24.454,205958,168,244685
24.459,205982,168,244685
24.464,205987,168,244694
24.469,205981,168,244699
24.474,206003,168,244702
24.479,205991,168,244736
24.484,205990,168,244720
24.489,206002,168,244733
24.494,206016,168,244725
24.499,206002,168,244749
24.504,206034,168,244738
24.509,206019,168,244742
24.514,206027,168,244740
24.519,206051,168,244757
24.524,206065,168,244744
24.529,206061,168,244766
24.534,206066,168,244783
24.539,206083,168,244786
24.543,206071,168,244773
24.548,206094,168,244791
24.553,206094,168,244803
24.558,206126,168,244783
24.563,206127,168,244808
24.568,206137,168,244792
24.573,206137,168,244801
24.578,206145,168,244813
24.583,206153,168,244819
24.588,206164,168,244834
24.593,206166,168,244848
24.598,206169,168,244846
24.603,206186,168,244863
24.608,206178,168,244882
24.613,206182,168,244862
24.618,206212,168,244891
24.623,206209,168,244885
24.628,206229,168,244877
24.633,206234,168,244916
24.638,206215,168,244906
24.643,206243,168,244922
24.648,206245,168,244941
24.653,206258,168,244940
24.658,206268,168,244952
24.663,206259,168,244971
24.667,206279,168,244976
24.672,206277,168,244982
24.677,206288,168,244992
24.682,206316,168,244996
24.687,206322,168,245013
24.692,206332,168,245016
24.697,206338,168,245007
24.702,206361,168,245042
24.707,206348,168,245016
24.712,206386,168,245038
24.717,206376,168,245027
24.722,206383,168,245044
24.727,206401,168,245052
24.732,206415,168,245056
24.737,206413,168,245048
24.742,206417,168,245075
24.747,206433,168,245076
24.752,206463,168,245089
24.757,206464,168,245118
24.762,206471,168,245130
24.767,206460,168,245165
24.772,206472,168,245181
24.777,206457,168,245201
24.782,206436,168,245191
24.787,206448,168,245227
24.791,206426,168,245258
24.796,206406,168,245247
24.801,206376,168,245261
24.806,206361,168,245262
24.811,206349,168,245265
24.816,206316,168,245264
24.821,206317,168,245263
24.826,206281,168,245254
24.831,206250,168,245245
24.836,206230,168,245231
24.841,206215,168,245226
24.846,206200,168,245235
24.851,206173,168,245239
24.856,206160,168,245230
24.861,206124,168,245228
24.866,206138,168,245225
24.871,206104,168,245232
24.876,206093,168,245219
24.881,206093,168,245230
24.886,206072,168,245237
24.891,206062,168,245228
24.896,206043,168,245235
24.901,206035,168,245239
24.906,206026,168,245248
24.911,206010,168,245247
24.915,206008,168,245260
24.920,205979,168,245259
24.925,205983,168,245269
24.930,205974,168,245263
24.935,205945,168,245269
24.940,205935,168,245238
24.945,205921,168,245271
24.950,205900,168,245261
24.955,205897,168,245276
24.960,205895,168,245271
24.965,205897,168,245258
24.970,205895,168,245268
24.975,205880,168,245273
24.980,205867,168,245266
24.985,205858,168,245281
24.990,205849,168,245273
24.995,205867,168,245266
25.000,205854,168,245272
25.005,205846,168,245275
25.010,205840,168,245270
25.015,205842,168,245264
25.020,205839,168,245279
25.025,205842,168,245275
25.030,205830,168,245271
25.035,205855,168,245293
25.039,205838,168,245299
25.044,205830,168,245286
25.049,205838,168,245288
25.054,205830,168,245315
25.059,205829,168,245318
25.064,205822,168,245345
25.069,205831,168,245340
25.074,205810,168,245357
25.079,205823,168,245365
25.084,205842,168,245366
25.089,205841,168,245368
25.094,205842,168,245419
25.099,205855,168,245406
25.104,205847,168,245397
25.109,205837,168,245410
25.114,205837,168,245426
25.119,205849,168,245423
25.124,205840,168,245437
25.129,205837,168,245421
25.134,205847,168,245444
25.139,205844,168,245452
25.144,205842,168,245448
25.149,205851,168,245452
25.154,205842,168,245462
25.159,205849,168,245469
25.163,205851,168,245462
25.168,205853,168,245471
25.173,205861,168,245497
25.178,205864,168,245501
25.183,205869,168,245493
25.188,205866,168,245504
25.193,205878,168,245509
25.198,205889,168,245510
25.203,205885,168,245525
25.208,205880,168,245521
25.213,205889,168,245539
25.218,205916,168,245546
25.223,205921,168,245555
25.228,205917,168,245547
25.233,205921,168,245547
25.238,205914,168,245563
25.243,205935,168,245558
25.248,205937,168,245568
25.253,205941,168,245586
25.258,205932,168,245564
25.263,205942,168,245584
25.268,205954,168,245561
25.273,205953,168,245564
25.278,205975,168,245596
25.283,205958,168,245587
25.287,205960,168,245611
25.292,205971,168,245598
25.297,205977,168,245615
25.302,206000,168,245624
25.307,205981,168,245627
25.312,206007,168,245650
25.317,206000,168,245636
25.322,206003,168,245642
25.327,206008,168,245642
25.332,206021,168,245665
25.337,206036,168,245659
25.342,206031,168,245671
25.347,206028,168,245679
25.352,206050,168,245675
25.357,206063,168,245690
25.362,206061,168,245685
25.367,206061,168,245723
25.372,206084,168,245750
25.377,206066,168,245743
25.382,206073,168,245735
25.387,206083,168,245772
25.392,206101,168,245777
25.397,206100,168,245785
25.402,206122,168,245783
25.407,206119,168,245784
25.411,206119,168,245806
25.416,206125,168,245805
25.421,206152,168,245814
25.426,206136,168,245823
25.431,206166,168,245826
25.436,206160,168,245836
25.441,206182,168,245830
25.446,206196,168,245829
25.451,206189,168,245828
25.456,206209,168,245851
25.461,206205,168,245843
25.466,206239,168,245854
25.471,206242,168,245887
25.476,206261,168,245860
25.481,206261,168,245882
25.486,206267,168,245902
25.491,206284,168,245913
25.496,206287,168,245887
25.501,206300,168,245890
25.506,206318,168,245925
25.511,206313,168,245944
25.516,206338,168,245942
25.521,206322,168,245937
25.526,206345,168,245990
25.531,206339,168,245988
25.535,206343,168,246016
25.540,206341,168,246046
25.545,206351,168,246060
25.550,206333,168,246065
25.555,206316,168,246076
25.560,206298,168,246096
25.565,206255,168,246100
25.570,206258,168,246102
25.575,206239,168,246108
25.580,206205,168,246076
25.585,206173,168,246069
25.590,206171,168,246059
25.595,206155,168,246043
25.600,206110,168,246050
25.605,206101,168,246036
25.610,206073,168,246039
25.615,206059,168,246020
25.620,206041,168,246030
25.625,206017,168,246018
25.630,206018,168,246020
25.635,205986,168,246002
25.640,205987,168,246008
25.645,205975,168,245989
25.650,205935,168,245984
25.655,205925,168,245952
25.659,205899,168,245953
25.664,205892,168,245953
25.669,205889,168,245963
25.674,205874,168,245959
25.679,205868,168,245955
25.684,205849,168,245955
25.689,205856,168,245933
25.694,205847,168,245941
25.699,205824,168,245955
25.704,205804,168,245935
25.709,205783,168,245927
25.714,205780,168,245927
25.719,205763,168,245930
25.724,205751,168,245929
25.729,205765,168,245921
25.734,205749,168,245925
25.739,205740,168,245941
25.744,205745,168,245921
25.749,205737,168,245927
25.754,205728,168,245912
25.759,205715,168,245901
25.764,205693,168,245907
25.769,205713,168,245888
25.774,205730,168,245910
25.779,205711,168,245882
25.783,205690,168,245902
25.788,205702,168,245919
25.793,205705,168,245915
25.798,205697,168,245921
25.803,205712,168,245919
25.808,205706,168,245907
25.813,205705,168,245908
25.818,205689,168,245911
25.823,205702,168,245914
25.828,205685,168,245919
25.833,205699,168,245920
25.838,205687,168,245946
25.843,205689,168,245952
25.848,205697,168,245967
25.853,205679,168,245951
25.858,205681,168,245936
25.863,205680,168,245950
25.868,205682,168,245952
25.873,205659,168,245941
25.878,205690,168,245943
25.883,205665,168,245952
25.888,205676,168,245933
25.893,205677,168,245934
25.898,205684,168,245959
25.903,205676,168,245930
25.907,205683,168,245933
25.912,205685,168,245921
25.917,205673,168,245937
25.922,205686,168,245950
25.927,205669,168,245924
25.932,205694,168,245924
25.937,205689,168,245933
25.942,205699,168,245948
25.947,205682,168,245947
25.952,205679,168,245921
25.957,205690,168,245931
25.962,205691,168,245943
25.967,205701,168,245951
25.972,205700,168,245944
25.977,205715,168,245950
25.982,205719,168,245938
25.987,205714,168,245955
25.992,205723,168,245947
25.997,205724,168,245982
26.002,205729,168,245979
26.007,205727,168,245977
26.012,205753,168,245980
26.017,205740,168,245969
26.022,205744,168,245972
26.027,205734,168,245961
26.031,205743,168,245976
26.036,205758,168,245982
26.041,205758,168,245953
26.046,205749,168,245964
26.051,205772,168,245990
26.056,205754,168,246011
26.061,205769,168,245971
26.066,205772,168,245988
26.071,205787,168,245986
26.076,205803,168,245987
26.081,205809,168,245992
26.086,205786,168,245983
26.091,205797,168,245990
26.096,205805,168,246004
26.101,205808,168,245994
26.106,205833,168,245986
26.111,205828,168,246006
26.116,205838,168,245989
26.121,205839,168,246012
26.126,205834,168,245997
26.131,205852,168,245986
26.136,205863,168,246003
26.141,205864,168,246002
26.146,205869,168,245999
26.151,205881,168,246011
26.155,205880,168,246002
26.160,205873,168,246001
26.165,205898,168,246028
26.170,205893,168,246025
26.175,205910,168,246004
26.180,205925,168,246029
26.185,205933,168,246028
26.190,205910,168,246033
26.195,205925,168,246011
26.200,205915,168,246009
26.205,205933,168,246026
26.210,205951,168,246023
26.215,205941,168,246014
26.220,205961,168,246040
26.225,205979,168,246024
26.230,205965,168,246024
26.235,205965,168,246037
26.240,205986,168,246034
26.245,205994,168,246015
26.250,206001,168,246028
26.255,206010,168,246039
26.260,206000,168,246030
26.265,206012,168,246036
26.270,206027,168,246057
26.275,206020,168,246042
26.279,206035,168,246044
26.284,206048,168,246040
26.289,206051,168,246056
26.294,206056,168,246056
26.299,206055,168,246045
26.304,206071,168,246056
26.309,206089,168,246051
26.314,206092,168,246046
26.319,206115,168,246041
26.324,206117,168,246068
26.329,206141,168,246064
26.334,206121,168,246093
26.339,206121,168,246090
26.344,206131,168,246108
26.349,206116,168,246145
26.354,206135,168,246148
26.359,206105,168,246147
26.364,206086,168,246176
26.369,206087,168,246168
26.374,206057,168,246143
26.379,206036,168,246124
26.384,206012,168,246117
26.389,205980,168,246091
26.394,205962,168,246090
26.399,205942,168,246067
26.403,205910,168,246025
26.408,205898,168,246037
26.413,205879,168,246023
26.418,205855,168,245990
26.423,205835,168,245963
26.428,205800,168,245964
26.433,205791,168,245949
26.438,205770,168,245935
26.443,205761,168,245910
26.448,205738,168,245908
26.453,205735,168,245892
26.458,205702,168,245887
26.463,205687,168,245876
26.468,205692,168,245869
26.473,205672,168,245865
26.478,205676,168,245882
26.483,205665,168,245857
26.488,205656,168,245843
26.493,205664,168,245834
26.498,205615,168,245854
26.503,205634,168,245829
26.508,205623,168,245824
26.513,205614,168,245821
26.518,205598,168,245815
26.523,205588,168,245789
26.527,205590,168,245790
26.532,205567,168,245795
26.537,205575,168,245790
26.542,205550,168,245774
26.547,205537,168,245783
26.552,205536,168,245755
26.557,205536,168,245756
26.562,205517,168,245765
26.567,205515,168,245725
26.572,205527,168,245730
26.577,205509,168,245736
26.582,205530,168,245717
26.587,205523,168,245719
26.592,205502,168,245722
26.597,205500,168,245714
26.602,205509,168,245722
26.607,205508,168,245723
26.612,205513,168,245721
26.617,205502,168,245730
26.622,205503,168,245716
26.627,205502,168,245723
26.632,205504,168,245711
26.637,205500,168,245718
26.642,205497,168,245720
26.647,205489,168,245714
26.651,205501,168,245714
26.656,205481,168,245708
26.661,205502,168,245708
26.666,205484,168,245698
26.671,205499,168,245693
26.676,205495,168,245702
26.681,205494,168,245690
26.686,205491,168,245668
26.691,205475,168,245678
26.696,205477,168,245688
26.701,205484,168,245678
26.706,205478,168,245657
26.711,205474,168,245671
26.716,205460,168,245648
26.721,205486,168,245647
26.726,205477,168,245615
26.731,205460,168,245634
26.736,205470,168,245614
26.741,205467,168,245620
26.746,205479,168,245611
26.751,205487,168,245609
26.756,205480,168,245601
26.761,205495,168,245602
26.766,205492,168,245609
26.771,205475,168,245597
26.775,205496,168,245594
26.780,205489,168,245590
26.785,205479,168,245588
26.790,205494,168,245601
26.795,205493,168,245599
26.800,205492,168,245576
26.805,205482,168,245594
26.810,205507,168,245591
26.815,205505,168,245584
26.820,205505,168,245582
26.825,205500,168,245577
26.830,205520,168,245578
26.835,205526,168,245590
26.840,205531,168,245593
26.845,205544,168,245590
26.850,205540,168,245582
26.855,205542,168,245598
26.860,205552,168,245607
26.865,205554,168,245585
26.870,205563,168,245606
26.875,205558,168,245605
26.880,205580,168,245617
26.885,205579,168,245625
26.890,205594,168,245603
26.895,205588,168,245593
26.899,205598,168,245624
26.904,205604,168,245618
26.909,205612,168,245618
26.914,205613,168,245623
26.919,205614,168,245627
26.924,205604,168,245622
26.929,205612,168,245633
26.934,205638,168,245635
26.939,205628,168,245628
26.944,205633,168,245629
26.949,205628,168,245615
26.954,205654,168,245630
26.959,205657,168,245640
26.964,205652,168,245619
26.969,205678,168,245623
26.974,205650,168,245619
26.979,205664,168,245605
26.984,205681,168,245636
26.989,205695,168,245613
26.994,205687,168,245583
26.999,205708,168,245597
27.004,205709,168,245606
27.009,205723,168,245614
27.014,205721,168,245602
27.019,205740,168,245579
27.023,205743,168,245593
27.028,205736,168,245569
27.033,205775,168,245596
27.038,205746,168,245557
27.043,205772,168,245582
27.048,205767,168,245573
27.053,205767,168,245588
27.058,205789,168,245594
27.063,205801,168,245583
27.068,205820,168,245626
27.073,205788,168,245640
27.078,205810,168,245650
27.083,205782,168,245660
27.088,205766,168,245666
27.093,205751,168,245696
27.098,205735,168,245686
27.103,205719,168,245672
27.108,205711,168,245691
27.113,205682,168,245670
27.118,205654,168,245635
27.123,205642,168,245634
27.128,205624,168,245622
27.133,205616,168,245602
27.138,205572,168,245587
27.143,205552,168,245576
27.147,205547,168,245569
27.152,205533,168,245550
27.157,205502,168,245532
27.162,205477,168,245527
27.167,205487,168,245531
27.172,205471,168,245515
27.177,205442,168,245523
27.182,205436,168,245497
27.187,205435,168,245500
27.192,205422,168,245494
27.197,205397,168,245489
27.202,205391,168,245477
27.207,205388,168,245477
27.212,205381,168,245477
27.217,205369,168,245454
27.222,205368,168,245469
27.227,205356,168,245468
27.232,205340,168,245446
27.237,205348,168,245469
27.242,205341,168,245456
27.247,205323,168,245459
27.252,205331,168,245415
27.257,205316,168,245435
27.262,205282,168,245434
27.267,205309,168,245439
27.271,205297,168,245429
27.276,205300,168,245416
27.281,205264,168,245397
27.286,205263,168,245417
27.291,205258,168,245382
27.296,205268,168,245393
27.301,205233,168,245383
27.306,205255,168,245374
27.311,205260,168,245379
27.316,205263,168,245373
27.321,205270,168,245379
27.326,205274,168,245367
27.331,205258,168,245382
27.336,205269,168,245400
27.341,205280,168,245361
27.346,205277,168,245385
27.351,205274,168,245372
27.356,205278,168,245374
27.361,205268,168,245390
27.366,205262,168,245371
27.371,205263,168,245402
27.376,205259,168,245370
27.381,205251,168,245389
27.386,205289,168,245402
27.391,205270,168,245402
27.395,205257,168,245392
27.400,205268,168,245407
27.405,205252,168,245386
27.410,205258,168,245401
27.415,205288,168,245408
27.420,205259,168,245397
27.425,205266,168,245383
27.430,205266,168,245399
27.435,205261,168,245410
27.440,205258,168,245394
27.445,205274,168,245396
27.450,205289,168,245417
27.455,205267,168,245395
27.460,205266,168,245377
27.465,205280,168,245383
27.470,205294,168,245401
27.475,205289,168,245370
27.480,205285,168,245385
27.485,205294,168,245396
27.490,205304,168,245390
27.495,205304,168,245383
27.500,205314,168,245413
27.505,205326,168,245394
27.510,205325,168,245392
27.515,205328,168,245386
27.519,205327,168,245391
27.524,205324,168,245393
27.529,205338,168,245404
27.534,205343,168,245395
27.539,205334,168,245405
27.544,205363,168,245371
27.549,205352,168,245396
27.554,205366,168,245389
27.559,205369,168,245387
27.564,205381,168,245395
27.569,205374,168,245394
27.574,205398,168,245411
27.579,205397,168,245402
27.584,205398,168,245411
27.589,205418,168,245385
27.594,205433,168,245413
27.599,205428,168,245404
27.604,205430,168,245394
27.609,205429,168,245409
27.614,205440,168,245399
27.619,205436,168,245406
27.624,205444,168,245407
27.629,205446,168,245404
27.634,205448,168,245410
27.639,205459,168,245420
27.643,205466,168,245423
27.648,205465,168,245439
27.653,205479,168,245420
27.658,205480,168,245423
27.663,205484,168,245432
27.668,205462,168,245437
27.673,205483,168,245431
27.678,205481,168,245433
27.683,205492,168,245416
27.688,205503,168,245445
27.693,205487,168,245426
27.698,205525,168,245442
27.703,205519,168,245443
27.708,205530,168,245438
27.713,205533,168,245428
27.718,205557,168,245440
27.723,205533,168,245468
27.728,205552,168,245443
27.733,205582,168,245448
27.738,205575,168,245460
27.743,205577,168,245451
27.748,205603,168,245439
27.753,205602,168,245446
27.758,205610,168,245451
27.763,205609,168,245442
27.767,205621,168,245451
27.772,205618,168,245436
27.777,205624,168,245433
27.782,205636,168,245444
27.787,205652,168,245443
27.792,205671,168,245427
27.797,205667,168,245455
27.802,205685,168,245430
27.807,205682,168,245445
27.812,205694,168,245464
27.817,205704,168,245473
27.822,205711,168,245488
27.827,205706,168,245510
27.832,205697,168,245505
27.837,205703,168,245536
27.842,205695,168,245560
27.847,205679,168,245563
27.852,205668,168,245550
27.857,205643,168,245578
27.862,205638,168,245580
27.867,205602,168,245560
27.872,205585,168,245535
27.877,205547,168,245523
27.882,205520,168,245516
27.887,205489,168,245520
27.891,205484,168,245490
27.896,205452,168,245470
27.901,205437,168,245465
27.906,205421,168,245446
27.911,205392,168,245429
27.916,205378,168,245419
27.921,205363,168,245415
27.926,205348,168,245397
27.931,205340,168,245390
27.936,205320,168,245364
27.941,205316,168,245368
27.946,205308,168,245363
27.951,205288,168,245365
27.956,205264,168,245346
27.961,205253,168,245344
27.966,205237,168,245347
27.971,205212,168,245324
27.976,205235,168,245324
27.981,205208,168,245326
27.986,205198,168,245332
27.991,205189,168,245320
27.996,205179,168,245309
28.001,205163,168,245295
28.006,205148,168,245303
28.011,205134,168,245281
28.015,205131,168,245274
28.020,205109,168,245274
28.025,205099,168,245271
28.030,205091,168,245275
28.035,205081,168,245264
28.040,205096,168,245249
28.045,205075,168,245252
28.050,205062,168,245234
28.055,205049,168,245243
28.060,205044,168,245229
28.065,205041,168,245230
28.070,205034,168,245226
28.075,205034,168,245219
28.080,205038,168,245196
28.085,205036,168,245216
28.090,205043,168,245199
28.095,205043,168,245178
28.100,205034,168,245177
28.105,205047,168,245163
28.110,205013,168,245202
28.115,205038,168,245200
28.120,205015,168,245193
28.125,205020,168,245185
28.130,205019,168,245160
28.135,205019,168,245185
28.139,205001,168,245178
28.144,205007,168,245185
28.149,205001,168,245147
28.154,205012,168,245162
28.159,204995,168,245161
28.164,204994,168,245145
28.169,204983,168,245137
28.174,204983,168,245118
28.179,204979,168,245116
28.184,204975,168,245108
28.189,204987,168,245105
28.194,204965,168,245080
28.199,204969,168,245093
28.204,204967,168,245082
28.209,204962,168,245087
28.214,204951,168,245046
28.219,204970,168,245059
28.224,204969,168,245026
28.229,204985,168,245020
28.234,204977,168,245031
28.239,204974,168,245028
28.244,204969,168,245003
28.249,204964,168,245015
28.254,204980,168,245011
28.259,204980,168,245002
28.263,204957,168,245011
28.268,204972,168,244999
28.273,204972,168,244989
28.278,204968,168,244992
28.283,204968,168,244997
28.288,204979,168,244995
28.293,204975,168,244978
28.298,204981,168,244992
28.303,204989,168,244961
28.308,204982,168,244984
28.313,205016,168,244969
28.318,204996,168,244977
28.323,204988,168,244968
28.328,205007,168,244962
28.333,205002,168,244928
28.338,204999,168,244945
28.343,204999,168,244943
28.348,204997,168,244933
28.353,205019,168,244936
28.358,205016,168,244932
28.363,205039,168,244931
28.368,205023,168,244916
28.373,205023,168,244930
28.378,205012,168,244906
28.383,205025,168,244910
28.387,205043,168,244906
28.392,205031,168,244901
28.397,205036,168,244919
28.402,205058,168,244912
28.407,205030,168,244896
28.412,205048,168,244911
28.417,205065,168,244897
28.422,205050,168,244896
28.427,205070,168,244902
28.432,205068,168,244903
28.437,205071,168,244889
28.442,205083,168,244886
28.447,205081,168,244891
28.452,205082,168,244861
28.457,205072,168,244879
28.462,205104,168,244881
28.467,205078,168,244862
28.472,205092,168,244865
28.477,205085,168,244872
28.482,205099,168,244873
28.487,205110,168,244853
28.492,205107,168,244861
28.497,205134,168,244865
28.502,205121,168,244861
28.507,205138,168,244856
28.511,205130,168,244868
28.516,205146,168,244860
28.521,205151,168,244874
28.526,205146,168,244865
28.531,205141,168,244864
28.536,205165,168,244863
28.541,205169,168,244860
28.546,205176,168,244871
28.551,205190,168,244851
28.556,205197,168,244863
28.561,205199,168,244870
28.566,205211,168,244867
28.571,205215,168,244876
28.576,205223,168,244893
28.581,205248,168,244898
28.586,205244,168,244894
28.591,205244,168,244907
28.596,205255,168,244896
28.601,205270,168,244914
28.606,205283,168,244933
28.611,205284,168,244950
28.616,205288,168,244972
28.621,205270,168,244984
28.626,205253,168,244985
28.631,205254,168,244997
28.635,205241,168,245001
28.640,205218,168,245023
28.645,205198,168,245007
28.650,205165,168,244993
28.655,205157,168,244979
28.660,205109,168,244958
28.665,205098,168,244938
28.670,205046,168,244911
28.675,205032,168,244887
28.680,205003,168,244867
28.685,205000,168,244870
28.690,204955,168,244842
28.695,204943,168,244813
28.700,204926,168,244810
28.705,204903,168,244782
28.710,204895,168,244776
28.715,204859,168,244757
28.720,204866,168,244743
28.725,204820,168,244714
28.730,204814,168,244718
28.735,204814,168,244705
28.740,204810,168,244696
28.745,204796,168,244682
28.750,204787,168,244671
28.755,204775,168,244644
28.759,204760,168,244645
28.764,204759,168,244645
28.769,204740,168,244632
28.774,204714,168,244616
28.779,204728,168,244602
28.784,204707,168,244623
28.789,204688,168,244600
28.794,204666,168,244589
28.799,204676,168,244574
28.804,204651,168,244561
28.809,204641,168,244545
28.814,204648,168,244550
28.819,204630,168,244525
28.824,204620,168,244530
28.829,204578,168,244526
28.834,204581,168,244520
28.839,204564,168,244495
28.844,204565,168,244507
28.849,204570,168,244470
28.854,204574,168,244475
28.859,204576,168,244481
28.864,204597,168,244491
28.869,204570,168,244480
28.874,204583,168,244496
28.879,204567,168,244467
28.883,204565,168,244489
28.888,204577,168,244491
28.893,204556,168,244485
28.898,204553,168,244470
28.903,204552,168,244481
28.908,204549,168,244483
28.913,204536,168,244478
28.918,204551,168,244488
28.923,204553,168,244470
28.928,204561,168,244474
28.933,204555,168,244490
28.938,204541,168,244477
28.943,204545,168,244472
28.948,204535,168,244482
28.953,204541,168,244473
28.958,204536,168,244479
28.963,204526,168,244468
28.968,204535,168,244470
28.973,204524,168,244437
28.978,204533,168,244470
28.983,204517,168,244467
28.988,204537,168,244465
28.993,204530,168,244449
28.998,204520,168,244473
29.003,204530,168,244445
29.007,204534,168,244462
29.012,204508,168,244451
29.017,204534,168,244471
