df_hash,22ZHK4.QRA2JK
device,HZ2X61
project_hash,29R7
project_name,istanbul_aydin_university
person_hash,29R7.J83X
person_label,V39
date_time_start,2025-10-27_13-20-19.994000_+03
date_time_start_unix,1761556819.994
date_time_end,2025-10-27_13-28-31.380000_+03
length_difference_noticed,no

time,ppg_med
5.742,409
5.767,470
5.792,567
5.817,620
5.842,599
5.867,578
5.892,634
5.917,737
5.942,776
5.967,713
5.992,645
6.017,680
6.042,776
6.067,781
6.092,646
6.117,502
6.142,494
6.167,565
6.192,513
6.217,272
6.242,19
6.267,-52
6.292,-20
6.317,-148
6.342,-524
6.367,-911
6.392,-1058
6.417,-1064
6.442,-1273
6.467,-1797
6.492,-2327
6.517,-2538
6.542,-2558
6.567,-2828
6.592,-3488
6.617,-4142
6.642,-4375
6.667,-4350
6.692,-4627
6.717,-5379
6.742,-6105
6.767,-6282
6.792,-6116
6.817,-6308
6.842,-7077
6.867,-7792
6.892,-7799
6.917,-7358
6.942,-7344
6.967,-8030
6.992,-8629
7.017,-8327
7.042,-7448
7.067,-7085
7.092,-7581
7.117,-7956
7.142,-7193
7.167,-5699
7.192,-4843
7.217,-5059
7.242,-5122
7.267,-3755
7.292,-1470
7.317,4
7.342,108
7.367,390
7.392,2479
7.417,5729
7.442,7912
7.467,8288
7.492,8853
7.517,11750
7.542,16151
7.567,19091
7.592,19535
7.617,20159
7.642,23941
7.667,29795
7.692,32767
7.717,32767
7.742,32767
7.767,32767
7.792,32767
7.817,32767
7.842,32767
7.867,32767
7.892,32767
7.917,32767
7.942,32767
7.967,32767
7.992,10876
8.017,-32768
8.042,-32768
8.067,-32768
8.092,-32768
8.117,-32768
8.142,-32768
8.167,-32768
8.192,-32768
8.217,-32768
8.242,-32768
8.267,-32768
8.292,-32768
8.317,-31557
8.342,-26046
8.367,-21027
8.392,-19325
8.417,-19263
8.442,-17421
8.467,-13263
8.492,-9478
8.517,-8121
8.542,-8018
8.567,-6654
8.592,-3597
8.617,-845
8.642,33
8.667,-77
8.692,756
8.717,2883
8.742,4758
8.767,5158
8.792,4781
8.817,5168
8.842,6608
8.867,7870
8.892,7960
8.917,7404
8.942,7421
8.967,8253
8.992,8935
9.017,8687
9.042,7932
9.067,7644
9.092,8012
9.117,8266
9.142,7785
9.167,6918
9.192,6448
9.217,6526
9.242,6533
9.267,5972
9.292,5121
9.317,4605
9.342,4544
9.367,4444
9.392,3907
9.417,3151
9.442,2672
9.467,2571
9.492,2469
9.517,2062
9.542,1520
9.567,1215
9.592,1200
9.617,1165
9.642,872
9.667,461
9.692,235
9.717,243
9.742,247
9.767,61
9.792,-209
9.817,-341
9.842,-300
9.867,-267
9.892,-379
9.917,-554
9.942,-619
9.967,-552
9.992,-488
10.017,-534
10.042,-630
10.067,-651
10.092,-576
10.117,-501
10.142,-502
10.167,-542
10.192,-535
10.217,-470
10.242,-415
10.267,-411
10.292,-413
10.317,-351
10.342,-224
10.367,-106
10.392,-49
10.417,-29
10.442,14
10.467,98
10.492,175
10.517,207
10.542,213
10.567,228
10.592,234
10.617,239
10.642,240
10.667,235
10.692,226
10.717,215
10.742,202
10.767,188
10.792,173
10.817,160
10.842,151
10.867,144
10.892,134
10.917,122
10.942,109
10.967,98
10.992,86
11.017,69
11.042,50
11.067,37
11.092,43
11.117,70
11.142,110
11.167,147
11.192,173
11.217,189
11.242,200
11.267,208
11.292,214
11.317,216
11.342,216
11.367,216
11.392,219
11.417,221
11.442,220
11.467,217
11.492,210
11.517,202
11.542,193
11.567,181
11.592,170
11.617,161
11.642,151
11.667,141
11.692,131
11.717,123
11.742,115
11.767,104
11.792,88
11.817,71
11.842,62
11.867,73
11.892,104
11.917,143
11.942,175
11.967,192
11.992,198
12.017,199
12.042,201
12.067,204
12.092,206
12.117,207
12.142,209
12.167,211
12.192,212
12.217,209
12.242,203
12.267,193
12.292,183
12.317,172
12.342,163
12.367,153
12.392,144
12.417,134
12.442,122
12.467,110
12.492,97
12.517,84
12.542,70
12.567,60
12.592,61
12.617,79
12.642,112
12.667,150
12.692,181
12.717,198
12.742,203
12.767,204
12.792,204
12.817,206
12.842,208
12.867,210
12.892,211
12.917,212
12.942,210
12.967,205
12.992,198
13.017,189
13.042,177
13.067,164
13.092,148
13.117,135
13.142,128
13.167,125
13.192,119
13.217,106
13.242,88
13.267,76
13.292,81
13.317,106
13.342,144
13.367,179
13.392,202
13.417,210
13.442,210
13.467,208
13.492,206
13.517,204
13.542,201
13.567,200
13.592,201
13.617,202
13.642,201
13.667,193
13.692,182
13.717,168
13.742,155
13.767,142
13.792,129
13.817,117
13.842,104
13.867,89
13.892,69
13.917,49
13.942,39
13.967,50
13.992,83
14.017,127
14.042,165
14.067,188
14.092,195
14.117,196
14.142,198
14.167,202
14.192,206
14.217,209
14.242,211
14.267,213
14.292,214
14.317,210
14.342,204
14.367,194
14.392,180
14.417,164
14.442,146
14.467,132
14.492,121
14.517,110
14.542,92
14.567,68
14.592,51
14.617,55
14.642,85
14.667,129
14.692,168
14.717,189
14.742,196
14.767,201
14.792,209
14.817,218
14.842,220
14.867,217
14.892,215
14.917,219
14.942,225
14.967,224
14.992,214
15.017,198
15.042,182
15.067,169
15.092,156
15.117,140
15.142,124
15.167,109
15.192,94
15.217,74
15.242,52
15.267,38
15.292,46
15.317,77
15.342,119
15.367,157
15.392,181
15.417,194
15.442,203
15.467,210
15.492,213
15.517,213
15.542,214
15.567,217
15.592,222
15.617,223
15.642,219
15.667,209
15.692,197
15.717,185
15.742,170
15.767,152
15.792,135
15.817,123
15.842,113
15.867,99
15.892,78
15.917,56
15.942,50
15.967,69
15.992,108
16.017,149
16.042,179
16.067,195
16.092,203
16.117,209
16.142,213
16.167,212
16.192,209
16.217,208
16.242,211
16.267,215
16.292,213
16.317,204
16.342,193
16.367,182
16.392,171
16.417,157
16.442,141
16.467,126
16.492,114
16.517,100
16.542,81
16.567,61
16.592,49
16.617,57
16.642,87
16.667,127
16.692,164
16.717,187
16.742,197
16.767,200
16.792,200
16.817,200
16.842,202
16.867,205
16.892,208
16.917,209
16.942,206
16.967,200
16.992,191
17.017,180
17.042,167
17.067,153
17.092,138
17.117,124
17.142,109
17.167,91
17.192,71
17.217,61
17.242,69
17.267,98
17.292,139
17.317,174
17.342,195
17.367,201
17.392,202
17.417,202
17.442,203
17.467,202
17.492,199
17.517,195
17.542,195
17.567,197
17.592,198
17.617,191
17.642,176
17.667,159
17.692,146
17.717,137
17.742,126
17.767,109
17.792,87
17.817,72
17.842,75
17.867,97
17.892,130
17.917,160
17.942,180
17.967,189
17.992,193
18.017,195
18.042,195
18.067,193
18.092,191
18.117,189
18.142,188
18.167,187
18.192,185
18.217,178
18.242,167
18.267,153
18.292,138
18.317,126
18.342,115
18.367,100
18.392,82
18.417,66
18.442,64
18.467,83
18.492,116
18.517,150
18.542,173
18.567,184
18.592,191
18.617,201
18.642,210
18.667,215
18.692,213
18.717,207
18.742,203
18.767,202
18.792,200
18.817,193
18.842,180
18.867,165
18.892,153
18.917,142
18.942,130
18.967,114
18.992,96
19.017,81
19.042,77
19.067,88
19.092,114
19.117,145
19.142,170
19.167,186
19.192,194
19.217,201
19.242,208
19.267,213
19.292,212
19.317,207
19.342,203
19.367,202
19.392,203
19.417,199
19.442,191
19.467,180
19.492,169
19.517,159
19.542,148
19.567,136
19.592,125
19.617,112
19.642,97
19.667,83
19.692,79
19.717,91
19.742,119
19.767,150
19.792,171
19.817,179
19.842,181
19.867,185
19.892,193
19.917,197
19.942,194
19.967,188
19.992,185
20.017,187
20.042,188
20.067,183
20.092,173
20.117,162
20.142,154
20.167,149
20.192,141
20.217,131
20.242,122
20.267,115
20.292,105
20.317,92
20.342,81
20.367,82
20.392,101
20.417,132
20.442,161
20.467,179
20.492,185
20.517,189
20.542,195
20.567,202
20.592,204
20.617,202
20.642,199
20.667,201
20.692,205
20.717,208
20.742,204
20.767,194
20.792,182
20.817,171
20.842,163
20.867,155
20.892,146
20.917,133
20.942,116
20.967,99
20.992,90
21.017,94
21.042,114
21.067,141
21.092,166
21.117,181
21.142,186
21.167,186
21.192,185
21.217,184
21.242,184
21.267,182
21.292,181
21.317,181
21.342,181
21.367,180
21.392,175
21.417,166
21.442,154
21.467,141
21.492,129
21.517,118
21.542,107
21.567,92
21.592,77
21.617,70
21.642,77
21.667,101
21.692,133
21.717,162
21.742,183
21.767,195
21.792,203
21.817,208
21.842,212
21.867,212
21.892,210
21.917,210
21.942,210
21.967,210
21.992,208
22.017,202
22.042,193
22.067,182
22.092,167
22.117,151
22.142,136
22.167,123
22.192,111
22.217,94
22.242,73
22.267,57
22.292,58
22.317,79
22.342,113
22.367,147
22.392,170
22.417,182
22.442,189
22.467,195
22.492,202
22.517,207
22.542,209
22.567,210
22.592,210
22.617,210
22.642,207
22.667,202
22.692,195
22.717,184
22.742,169
22.767,152
22.792,135
22.817,122
22.842,111
22.867,98
22.892,81
22.917,65
22.942,61
22.967,76
22.992,107
23.017,142
23.042,170
23.067,189
23.092,201
23.117,209
23.142,215
23.167,217
23.192,216
23.217,217
23.242,219
23.267,220
23.292,216
23.317,208
23.342,196
23.367,184
23.392,173
23.417,160
23.442,149
23.467,138
23.492,126
23.517,110
23.542,90
23.567,73
23.592,70
23.617,88
23.642,120
23.667,154
23.692,177
23.717,187
23.742,192
23.767,197
23.792,202
23.817,203
23.842,198
23.867,193
23.892,193
23.917,198
23.942,200
23.967,193
23.992,179
24.017,164
24.042,152
24.067,143
24.092,132
24.117,113
24.142,89
24.167,70
24.192,67
24.217,82
24.242,110
24.267,142
24.292,168
24.317,185
24.342,193
24.367,194
24.392,194
24.417,192
24.442,191
24.467,190
24.492,189
24.517,190
24.542,189
24.567,185
24.592,175
24.617,160
24.642,144
24.667,130
24.692,118
24.717,103
24.742,85
24.767,67
24.792,59
24.817,70
24.842,98
24.867,134
24.892,166
24.917,187
24.942,198
24.967,205
24.992,209
25.017,212
25.042,211
25.067,208
25.092,204
25.117,201
25.142,199
25.167,197
25.192,192
25.217,183
25.242,168
25.267,152
25.292,136
25.317,122
25.342,107
25.367,90
25.392,73
25.417,67
25.442,81
25.467,113
25.492,150
25.517,179
25.542,193
25.567,196
25.592,197
25.617,199
25.642,202
25.667,201
25.692,197
25.717,193
25.742,192
25.767,192
25.792,189
25.817,181
25.842,169
25.867,155
25.892,142
25.917,128
25.942,114
25.967,99
25.992,86
26.017,81
26.042,91
26.067,115
26.092,148
26.117,180
26.142,200
26.167,207
26.192,207
26.217,207
26.242,208
26.267,209
26.292,209
26.317,207
26.342,206
26.367,205
26.392,200
26.417,187
26.442,168
26.467,150
26.492,135
26.517,122
26.542,105
26.567,84
26.592,68
26.617,70
26.642,95
26.667,134
26.692,172
26.717,197
26.742,206
26.767,208
26.792,206
26.817,204
26.842,199
26.867,193
26.892,189
26.917,189
26.942,189
26.967,182
26.992,167
27.017,150
27.042,137
27.067,129
27.092,121
27.117,107
27.142,90
27.167,79
27.192,86
27.217,111
27.242,145
27.267,175
27.292,193
27.317,199
27.342,198
27.367,195
27.392,192
27.417,189
27.442,186
27.467,184
27.492,180
27.517,174
27.542,165
27.567,156
27.592,147
27.617,138
27.642,127
27.667,110
27.692,90
27.717,72
27.742,67
27.767,80
27.792,110
27.817,143
27.842,171
27.867,187
27.892,195
27.917,199
27.942,203
27.967,206
27.992,206
28.017,204
28.042,202
28.067,199
28.092,193
28.117,183
28.142,170
28.167,156
28.192,142
28.217,126
28.242,106
28.267,85
28.292,71
28.317,73
28.342,92
28.367,124
28.392,156
28.417,182
28.442,199
28.467,209
28.492,213
28.517,215
28.542,214
28.567,210
28.592,206
28.617,203
28.642,199
28.667,192
28.692,181
28.717,166
28.742,152
28.767,141
28.792,130
28.817,115
28.842,93
28.867,72
28.892,64
28.917,76
28.942,107
28.967,142
28.992,169
29.017,184
29.042,193
29.067,202
29.092,210
29.117,213
29.142,211
29.167,206
29.192,203
29.217,205
29.242,207
29.267,205
29.292,196
29.317,183
29.342,166
29.367,150
29.392,135
29.417,122
29.442,107
29.467,88
29.492,67
29.517,52
29.542,54
29.567,77
29.592,113
29.617,148
29.642,173
29.667,185
29.692,192
29.717,198
29.742,203
29.767,206
29.792,206
29.817,204
29.842,204
29.867,205
29.892,204
29.917,199
29.942,190
29.967,178
29.992,164
30.017,150
30.042,139
30.067,130
30.092,121
30.117,107
30.142,87
30.167,71
30.192,69
30.217,88
30.242,121
30.267,156
30.292,179
30.317,190
30.342,194
30.367,197
30.392,201
30.417,203
30.442,203
30.467,203
30.492,205
30.517,207
30.542,206
30.567,202
30.592,193
30.617,183
30.642,171
30.667,158
30.692,145
30.717,132
30.742,118
30.767,101
30.792,83
30.817,73
30.842,77
30.867,99
30.892,132
30.917,164
30.942,184
30.967,191
30.992,192
31.017,194
31.042,200
31.067,206
31.092,208
31.117,205
31.142,198
31.167,190
31.192,183
31.217,177
31.242,170
31.267,161
31.292,151
31.317,140
31.342,126
31.367,110
31.392,93
31.417,80
31.442,81
31.467,101
31.492,134
31.517,169
31.542,194
31.567,204
31.592,203
31.617,200
31.642,198
31.667,196
31.692,193
31.717,189
31.742,188
31.767,189
31.792,186
31.817,177
31.842,162
31.867,147
31.892,134
31.917,121
31.942,105
31.967,84
31.992,67
32.017,61
32.042,74
32.067,101
32.092,134
32.117,163
32.142,183
32.167,194
32.192,198
32.217,200
32.242,201
32.267,201
32.292,200
32.317,199
32.342,198
32.367,196
32.392,192
32.417,180
32.442,163
32.467,145
32.492,132
32.517,124
32.542,114
32.567,98
32.592,80
32.617,73
32.642,88
32.667,121
32.692,159
32.717,187
32.742,201
32.767,206
32.792,209
32.817,213
32.842,217
32.867,219
32.892,217
32.917,213
32.942,207
32.967,199
32.992,188
33.017,175
33.042,161
33.067,148
33.092,136
33.117,124
33.142,110
33.167,91
33.192,69
33.217,52
33.242,51
33.267,70
33.292,105
33.317,142
33.342,170
33.367,186
33.392,194
33.417,201
33.442,207
33.467,214
33.492,218
33.517,219
33.542,217
33.567,212
33.592,204
33.617,195
33.642,186
33.667,176
33.692,164
33.717,149
33.742,135
33.767,120
33.792,104
33.817,86
33.842,69
33.867,63
33.892,76
33.917,106
33.942,141
33.967,170
33.992,188
34.017,198
34.042,203
34.067,206
34.092,207
34.117,208
34.142,210
34.167,212
34.192,212
34.217,208
34.242,201
34.267,193
34.292,184
34.317,173
34.342,159
34.367,144
34.392,132
34.417,121
34.442,107
34.467,87
34.492,68
34.517,61
34.542,75
34.567,106
34.592,141
34.617,169
34.642,186
34.667,193
34.692,195
34.717,195
34.742,196
34.767,199
34.792,202
34.817,202
34.842,200
34.867,195
34.892,190
34.917,184
34.942,176
34.967,165
34.992,153
35.017,142
35.042,130
35.067,114
35.092,94
35.117,78
35.142,79
35.167,98
35.192,131
35.217,163
35.242,185
35.267,195
35.292,198
35.317,199
35.342,198
35.367,198
35.392,198
35.417,200
35.442,201
35.467,200
35.492,196
35.517,190
35.542,181
35.567,168
35.592,152
35.617,138
35.642,127
35.667,115
35.692,97
35.717,75
35.742,58
35.767,59
35.792,81
35.817,115
35.842,148
35.867,171
35.892,185
35.917,193
35.942,199
35.967,201
35.992,199
36.017,197
36.042,196
36.067,198
36.092,198
36.117,196
36.142,189
36.167,179
36.192,168
36.217,157
36.242,146
36.267,136
36.292,123
36.317,104
36.342,83
36.367,70
36.392,73
36.417,96
36.442,131
36.467,165
36.492,188
36.517,200
36.542,205
36.567,206
36.592,206
36.617,204
36.642,202
36.667,201
36.692,201
36.717,200
36.742,197
36.767,191
36.792,182
36.817,169
36.842,154
36.867,139
36.892,124
36.917,109
36.942,93
36.967,79
36.992,72
37.017,80
37.042,105
37.067,137
37.092,166
37.117,184
37.142,192
37.167,193
37.192,193
37.217,192
37.242,190
37.267,189
37.292,189
37.317,189
37.342,190
37.367,188
37.392,183
37.417,173
37.442,160
37.467,145
37.492,133
37.517,123
37.542,112
37.567,97
37.592,82
37.617,75
37.642,87
37.667,116
37.692,153
37.717,183
37.742,199
37.767,204
37.792,203
37.817,200
37.842,195
37.867,190
37.892,187
37.917,189
37.942,194
37.967,197
37.992,194
38.017,183
38.042,172
38.067,164
38.092,158
38.117,149
38.142,134
38.167,112
38.192,92
38.217,84
38.242,95
38.267,121
38.292,154
38.317,181
38.342,195
38.367,199
38.392,197
38.417,197
38.442,197
38.467,196
38.492,192
38.517,188
38.542,185
38.567,182
38.592,175
38.617,162
38.642,145
38.667,128
38.692,114
38.717,101
38.742,89
38.767,78
38.792,76
38.817,90
38.842,119
38.867,157
38.892,189
38.917,206
38.942,210
38.967,208
38.992,207
39.017,207
39.042,204
39.067,196
39.092,185
39.117,176
39.142,170
39.167,167
39.192,162
39.217,155
39.242,147
39.267,138
39.292,125
39.317,106
39.342,87
39.367,75
39.392,79
39.417,103
39.442,138
39.467,173
39.492,197
39.517,207
39.542,207
39.567,204
39.592,202
39.617,200
39.642,198
39.667,194
39.692,189
39.717,186
39.742,182
39.767,178
39.792,170
39.817,161
39.842,151
39.867,141
39.892,128
39.917,112
39.942,101
39.967,104
39.992,124
40.017,158
40.042,192
40.067,215
40.092,226
40.117,230
40.142,235
40.167,241
40.192,245
40.217,245
40.242,240
40.267,234
40.292,228
40.317,219
40.342,205
40.367,188
40.392,172
40.417,157
40.442,142
40.467,123
40.492,99
40.517,78
40.542,70
40.567,82
40.592,108
40.617,139
40.642,163
40.667,176
40.692,181
40.717,183
40.742,182
40.767,175
40.792,161
40.817,141
40.842,121
40.867,102
40.892,81
40.917,56
40.942,26
40.967,-4
40.992,-34
41.017,-63
41.042,-92
41.067,-119
41.092,-138
41.117,-144
41.142,-138
41.167,-124
41.192,-111
41.217,-99
41.242,-86
41.267,-62
41.292,-23
41.317,33
41.342,106
41.367,187
41.392,267
41.417,339
41.442,400
41.467,452
41.492,497
41.517,531
41.542,550
41.567,551
41.592,540
41.617,525
41.642,514
41.667,501
41.692,480
41.717,450
41.742,425
41.767,417
41.792,429
41.817,443
41.842,436
41.867,395
41.892,326
41.917,246
41.942,170
41.967,102
41.992,40
42.017,-7
42.042,-32
42.067,-28
42.092,-1
42.117,30
42.142,51
42.167,59
42.192,64
42.217,75
42.242,90
42.267,105
42.292,113
42.317,120
42.342,130
42.367,142
42.392,150
42.417,141
42.442,111
42.467,66
42.492,20
42.517,-12
42.542,-27
42.567,-26
42.592,-17
42.617,-10
42.642,-9
42.667,-9
42.692,-2
42.717,18
42.742,53
42.767,92
42.792,122
42.817,139
42.842,150
42.867,159
42.892,171
42.917,182
42.942,192
42.967,199
42.992,206
43.017,214
43.042,221
43.067,221
43.092,214
43.117,203
43.142,192
43.167,184
43.192,179
43.217,171
43.242,159
43.267,143
43.292,127
43.317,122
43.342,131
43.367,154
43.392,181
43.417,203
43.442,217
43.467,225
43.492,228
43.517,228
43.542,225
43.567,220
43.592,216
43.617,215
43.642,215
43.667,212
43.692,203
43.717,189
43.742,174
43.767,161
43.792,150
43.817,139
43.842,128
43.867,116
43.892,104
43.917,94
43.942,90
43.967,98
43.992,120
44.017,149
44.042,176
44.067,194
44.092,200
44.117,200
44.142,197
44.167,193
44.192,191
44.217,190
44.242,191
44.267,190
44.292,187
44.317,180
44.342,172
44.367,164
44.392,156
44.417,145
44.442,131
44.467,114
44.492,94
44.517,71
44.542,48
44.567,30
44.592,26
44.617,40
44.642,65
44.667,88
44.692,102
44.717,105
44.742,104
44.767,103
44.792,103
44.817,104
44.842,112
44.867,129
44.892,154
44.917,178
44.942,197
44.967,208
44.992,218
45.017,226
45.042,230
45.067,229
45.092,225
45.117,223
45.142,223
45.167,223
45.192,224
45.217,236
45.242,270
45.267,323
45.292,372
45.317,397
45.342,388
45.367,358
45.392,322
45.417,286
45.442,244
45.467,192
45.492,137
45.517,97
45.542,84
45.567,100
45.592,135
45.617,178
45.642,217
45.667,245
45.692,258
45.717,251
45.742,228
45.767,190
45.792,144
45.817,93
45.842,48
45.867,17
45.892,3
45.917,4
45.942,10
45.967,16
45.992,26
46.017,45
46.042,73
46.067,104
46.092,127
46.117,136
46.142,132
46.167,120
46.192,105
46.217,90
46.242,76
46.267,65
46.292,57
46.317,56
46.342,64
46.367,82
46.392,106
46.417,130
46.442,150
46.467,169
46.492,195
46.517,234
46.542,277
46.567,308
46.592,316
46.617,302
46.642,275
46.667,249
46.692,230
46.717,217
46.742,209
46.767,206
46.792,208
46.817,214
46.842,220
46.867,224
46.892,222
46.917,213
46.942,196
46.967,172
46.992,146
47.017,120
47.042,97
47.067,78
47.092,68
47.117,71
47.142,90
47.167,118
47.192,143
47.217,156
47.242,156
47.267,150
47.292,144
47.317,140
47.342,136
47.367,131
47.392,127
47.417,128
47.442,133
47.467,137
47.492,137
47.517,132
47.542,125
47.567,121
47.592,120
47.617,118
47.642,111
47.667,101
47.692,95
47.717,100
47.742,120
47.767,151
47.792,183
47.817,210
47.842,227
47.867,235
47.892,237
47.917,237
47.942,237
47.967,240
47.992,247
48.017,257
48.042,263
48.067,261
48.092,251
48.117,237
48.142,223
48.167,211
48.192,197
48.217,179
48.242,157
48.267,133
48.292,116
48.317,113
48.342,126
48.367,152
48.392,180
48.417,199
48.442,204
48.467,197
48.492,187
48.517,179
48.542,173
48.567,168
48.592,162
48.617,158
48.642,157
48.667,155
48.692,149
48.717,135
48.742,116
48.767,96
48.792,78
48.817,58
48.842,34
48.867,10
48.892,-2
48.917,6
48.942,37
48.967,78
48.992,113
49.017,133
49.042,141
49.067,144
49.092,151
49.117,161
49.142,171
49.167,179
49.192,187
49.217,198
49.242,211
49.267,222
49.292,227
49.317,226
49.342,223
49.367,219
49.392,213
49.417,202
49.442,187
49.467,173
49.492,170
49.517,181
49.542,203
49.567,227
49.592,247
49.617,260
49.642,267
49.667,268
49.692,262
49.717,250
49.742,236
49.767,225
49.792,219
49.817,216
49.842,212
49.867,203
49.892,188
49.917,169
49.942,148
49.967,127
49.992,104
50.017,81
50.042,55
50.067,31
50.092,15
50.117,12
50.142,27
50.167,53
50.192,80
50.217,99
50.242,107
50.267,108
50.292,107
50.317,106
50.342,105
50.367,104
50.392,105
50.417,109
50.442,116
50.467,122
50.492,123
50.517,119
50.542,115
50.567,116
50.592,124
50.617,132
50.642,133
50.667,127
50.692,122
50.717,133
50.742,171
50.767,237
50.792,318
50.817,400
50.842,476
50.867,545
50.892,608
50.917,653
50.942,663
50.967,627
50.992,552
51.017,461
51.042,377
51.067,310
51.092,258
51.117,211
51.142,167
51.167,126
51.192,93
51.217,67
51.242,42
51.267,10
51.292,-29
51.317,-72
51.342,-101
51.367,-105
51.392,-83
51.417,-50
51.442,-29
51.467,-29
51.492,-43
51.517,-60
51.542,-73
51.567,-90
51.592,-116
51.617,-149
51.642,-175
51.667,-192
51.692,-208
51.717,-231
51.742,-254
51.767,-260
51.792,-240
51.817,-212
51.842,-204
51.867,-221
51.892,-240
51.917,-223
51.942,-167
51.967,-101
51.992,-59
52.017,-28
52.042,43
52.067,203
52.092,441
52.117,686
52.142,858
52.167,925
52.192,917
52.217,883
52.242,853
52.267,818
52.292,762
52.317,685
52.342,605
52.367,536
52.392,471
52.417,399
52.442,321
52.467,259
52.492,237
52.517,253
52.542,286
52.567,309
52.592,315
52.617,317
52.642,329
52.667,347
52.692,359
52.717,358
52.742,352
52.767,353
52.792,356
52.817,340
52.842,285
52.867,191
52.892,78
52.917,-19
52.942,-82
52.967,-105
52.992,-104
53.017,-111
53.042,-153
53.067,-234
53.092,-322
53.117,-374
53.142,-364
53.167,-305
53.192,-230
53.217,-152
53.242,-56
53.267,70
53.292,206
53.317,294
53.342,300
53.367,249
53.392,206
53.417,208
53.442,231
53.467,224
53.492,168
53.517,102
53.542,73
53.567,86
53.592,98
53.617,73
53.642,27
53.667,11
53.692,56
53.717,139
53.742,211
53.767,245
53.792,248
53.817,245
53.842,243
53.867,240
53.892,241
53.917,263
53.942,308
53.967,355
53.992,374
54.017,354
54.042,316
54.067,285
54.092,261
54.117,222
54.142,149
54.167,48
54.192,-55
54.217,-138
54.242,-195
54.267,-229
54.292,-243
54.317,-234
54.342,-204
54.367,-156
54.392,-98
54.417,-28
54.442,49
54.467,124
54.492,183
54.517,218
54.542,238
54.567,253
54.592,267
54.617,273
54.642,263
54.667,239
54.692,212
54.717,190
54.742,174
54.767,162
54.792,158
54.817,171
54.842,201
54.867,246
54.892,297
54.917,356
54.942,425
54.967,501
54.992,567
55.017,598
55.042,583
55.067,531
55.092,465
55.117,406
55.142,357
55.167,309
55.192,256
55.217,205
55.242,168
55.267,153
55.292,151
55.317,144
55.342,123
55.367,93
55.392,73
55.417,78
55.442,105
55.467,139
55.492,161
55.517,163
55.542,150
55.567,129
55.592,108
55.617,90
55.642,78
55.667,72
55.692,72
55.717,73
55.742,71
55.767,64
55.792,56
55.817,50
55.842,43
55.867,33
55.892,17
55.917,3
55.942,-1
55.967,8
55.992,32
56.017,63
56.042,94
56.067,120
56.092,138
56.117,150
56.142,156
56.167,159
56.192,161
56.217,164
56.242,169
56.267,175
56.292,179
56.317,181
56.342,179
56.367,173
56.392,166
56.417,156
56.442,143
56.467,128
56.492,116
56.517,114
56.542,126
56.567,152
56.592,181
56.617,205
56.642,218
56.667,220
56.692,217
56.717,211
56.742,205
56.767,200
56.792,198
56.817,199
56.842,200
56.867,195
56.892,183
56.917,168
56.942,153
56.967,141
56.992,129
57.017,114
57.042,100
57.067,94
57.092,103
57.117,129
57.142,161
57.167,189
57.192,208
57.217,217
57.242,219
57.267,219
57.292,218
57.317,217
57.342,215
57.367,213
57.392,209
57.417,202
57.442,194
57.467,184
57.492,174
57.517,162
57.542,147
57.567,128
57.592,110
57.617,101
57.642,107
57.667,128
57.692,156
57.717,181
57.742,197
57.767,201
57.792,199
57.817,195
57.842,192
57.867,190
57.892,188
57.917,186
57.942,184
57.967,177
57.992,165
58.017,149
58.042,132
58.067,117
58.092,102
58.117,84
58.142,66
58.167,55
58.192,59
58.217,79
58.242,104
58.267,122
58.292,127
58.317,124
58.342,120
58.367,119
58.392,118
58.417,111
58.442,102
58.467,95
58.492,91
58.517,86
58.542,75
58.567,57
58.592,40
58.617,27
58.642,17
58.667,1
58.692,-19
58.717,-34
58.742,-33
58.767,-10
58.792,21
58.817,50
58.842,70
58.867,88
58.892,112
58.917,144
58.942,178
58.967,211
58.992,257
59.017,334
59.042,451
59.067,589
59.092,709
59.117,779
59.142,793
59.167,769
59.192,728
59.217,673
59.242,591
59.267,483
59.292,375
59.317,299
59.342,264
59.367,241
59.392,187
59.417,96
59.442,7
59.467,-28
59.492,6
59.517,83
59.542,158
59.567,207
59.592,234
59.617,245
59.642,231
59.667,189
59.692,140
59.717,116
59.742,123
59.767,125
59.792,74
59.817,-42
59.842,-182
59.867,-282
59.892,-319
59.917,-314
59.942,-302
59.967,-291
59.992,-265
60.017,-211
60.042,-141
60.067,-81
60.092,-43
60.117,-20
60.142,4
60.167,37
60.192,76
60.217,117
60.242,159
60.267,195
60.292,216
60.317,219
60.342,211
60.367,200
60.392,189
60.417,180
60.442,193
60.467,257
60.492,384
60.517,533
60.542,632
60.567,625
60.592,517
60.617,371
60.642,247
60.667,170
60.692,125
60.717,84
60.742,33
60.767,-31
60.792,-101
60.817,-147
60.842,-131
60.867,-26
60.892,142
60.917,303
60.942,378
60.967,349
60.992,259
61.017,178
61.042,138
61.067,128
61.092,122
61.117,110
61.142,96
61.167,82
61.192,64
61.217,45
61.242,51
61.267,102
61.292,185
61.317,249
61.342,248
61.367,184
61.392,110
61.417,87
61.442,138
61.467,230
61.492,306
61.517,329
61.542,297
61.567,243
61.592,210
61.617,227
61.642,293
61.667,372
61.692,414
61.717,388
61.742,309
61.767,232
61.792,213
61.817,273
61.842,382
61.867,483
61.892,533
61.917,523
61.942,476
61.967,418
61.992,360
62.017,298
62.042,220
62.067,119
62.092,2
62.117,-111
62.142,-193
62.167,-220
62.192,-191
62.217,-126
62.242,-60
62.267,-21
62.292,-8
62.317,-1
62.342,23
62.367,67
62.392,104
62.417,102
62.442,56
62.467,-5
62.492,-38
62.517,-18
62.542,43
62.567,116
62.592,172
62.617,207
62.642,232
62.667,258
62.692,281
62.717,290
62.742,278
62.767,248
62.792,207
62.817,163
62.842,125
62.867,100
62.892,92
62.917,97
62.942,104
62.967,110
62.992,116
63.017,127
63.042,142
63.067,149
63.092,135
63.117,97
63.142,48
63.167,8
63.192,-9
63.217,-2
63.242,26
63.267,72
63.292,126
63.317,178
63.342,218
63.367,242
63.392,253
63.417,256
63.442,252
63.467,240
63.492,216
63.517,184
63.542,152
63.567,134
63.592,140
63.617,173
63.642,225
63.667,283
63.692,330
63.717,357
63.742,361
63.767,350
63.792,329
63.817,300
63.842,266
63.867,230
63.892,201
63.917,183
63.942,175
63.967,172
63.992,174
64.017,186
64.042,210
64.067,238
64.092,258
64.117,259
64.142,241
64.167,214
64.192,189
64.217,160
64.242,120
64.267,65
64.292,8
64.317,-28
64.342,-23
64.367,23
64.392,94
64.417,164
64.442,214
64.467,236
64.492,235
64.517,216
64.542,180
64.567,130
64.592,70
64.617,14
64.642,-25
64.667,-35
64.692,-13
64.717,36
64.742,103
64.767,172
64.792,228
64.817,260
64.842,265
64.867,244
64.892,203
64.917,150
64.942,100
64.967,67
64.992,65
65.017,96
65.042,147
65.067,198
65.092,235
65.117,256
65.142,267
65.167,267
65.192,250
65.217,207
65.242,143
65.267,79
65.292,39
65.317,35
65.342,58
65.367,94
65.392,128
65.417,158
65.442,187
65.467,217
65.492,245
65.517,263
65.542,264
65.567,245
65.592,208
65.617,161
65.642,117
65.667,86
65.692,75
65.717,81
65.742,95
65.767,106
65.792,112
65.817,118
65.842,132
65.867,157
65.892,189
65.917,215
65.942,228
65.967,228
65.992,222
66.017,218
66.042,216
66.067,215
66.092,215
66.117,217
66.142,224
66.167,233
66.192,235
66.217,227
66.242,209
66.267,191
66.292,176
66.317,162
66.342,142
66.367,114
66.392,89
66.417,81
66.442,96
66.467,126
66.492,158
66.517,181
66.542,192
66.567,197
66.592,202
66.617,207
66.642,210
66.667,208
66.692,205
66.717,201
66.742,197
66.767,192
66.792,185
66.817,176
66.842,167
66.867,155
66.892,138
66.917,115
66.942,90
66.967,74
66.992,74
67.017,91
67.042,119
67.067,149
67.092,174
67.117,191
67.142,203
67.167,211
67.192,213
67.217,210
67.242,205
67.267,202
67.292,200
67.317,197
67.342,186
67.367,167
67.392,144
67.417,121
67.442,99
67.467,73
67.492,39
67.517,5
67.542,-16
67.567,-14
67.592,11
67.617,48
67.642,82
67.667,106
67.692,118
67.717,123
67.742,123
67.767,117
67.792,109
67.817,102
67.842,102
67.867,112
67.892,129
67.917,150
67.942,174
67.967,198
67.992,218
68.017,229
68.042,230
68.067,222
68.092,216
68.117,221
68.142,238
68.167,266
68.192,297
68.217,325
68.242,345
68.267,357
68.292,361
68.317,358
68.342,348
68.367,330
68.392,304
68.417,269
68.442,231
68.467,193
68.492,161
68.517,131
68.542,100
68.567,65
68.592,25
68.617,-12
68.642,-40
68.667,-49
68.692,-40
68.717,-16
68.742,14
68.767,44
68.792,71
68.817,98
68.842,125
68.867,150
68.892,168
68.917,178
68.942,182
68.967,185
68.992,190
69.017,194
69.042,191
69.067,179
69.092,162
69.117,144
69.142,125
69.167,103
69.192,80
69.217,64
69.242,65
69.267,86
69.292,120
69.317,154
69.342,182
69.367,201
69.392,215
69.417,224
69.442,227
69.467,223
69.492,217
69.517,215
69.542,217
69.567,217
69.592,213
69.617,205
69.642,195
69.667,185
69.692,175
69.717,165
69.742,153
69.767,139
69.792,122
69.817,100
69.842,81
69.867,74
69.892,86
69.917,115
69.942,149
69.967,177
69.992,196
70.017,211
70.042,225
70.067,237
70.092,242
70.117,240
70.142,237
70.167,237
70.192,239
70.217,238
70.242,228
70.267,212
70.292,195
70.317,181
70.342,172
70.367,164
70.392,154
70.417,143
70.442,130
70.467,118
70.492,107
70.517,97
70.542,87
70.567,74
70.592,55
70.617,33
70.642,15
70.667,11
70.692,25
70.717,52
70.742,86
70.767,118
70.792,146
70.817,169
70.842,190
70.867,207
70.892,219
70.917,227
70.942,230
70.967,233
70.992,235
71.017,238
71.042,238
71.067,234
71.092,224
71.117,210
71.142,197
71.167,186
71.192,176
71.217,166
71.242,154
71.267,143
71.292,133
71.317,126
71.342,117
71.367,103
71.392,86
71.417,69
71.442,58
71.467,58
71.492,70
71.517,93
71.542,122
71.567,152
71.592,176
71.617,193
71.642,205
71.667,214
71.692,221
71.717,227
71.742,230
71.767,230
71.792,228
71.817,226
71.842,222
71.867,215
71.892,204
71.917,192
71.942,180
71.967,169
71.992,157
72.017,143
72.042,129
72.067,116
72.092,105
72.117,95
72.142,83
72.167,70
72.192,59
72.217,60
72.242,75
72.267,104
72.292,137
72.317,165
72.342,185
72.367,196
72.392,202
72.417,206
72.442,209
72.467,210
72.492,212
72.517,214
72.542,214
72.567,210
72.592,203
72.617,195
72.642,190
72.667,184
72.692,176
72.717,163
72.742,150
72.767,138
72.792,127
72.817,113
72.842,96
72.867,84
72.892,88
72.917,108
72.942,137
72.967,161
72.992,175
73.017,183
73.042,191
73.067,202
73.092,209
73.117,210
73.142,205
73.167,203
73.192,204
73.217,207
73.242,205
73.267,197
73.292,185
73.317,173
73.342,162
73.367,148
73.392,133
73.417,117
73.442,101
73.467,87
73.492,77
73.517,76
73.542,89
73.567,114
73.592,142
73.617,164
73.642,177
73.667,182
73.692,187
73.717,191
73.742,194
73.767,193
73.792,191
73.817,191
73.842,192
73.867,192
73.892,187
73.917,178
73.942,167
73.967,156
73.992,145
74.017,134
74.042,120
74.067,103
74.092,85
74.117,71
74.142,69
74.167,83
74.192,111
74.217,143
74.242,170
74.267,188
74.292,198
74.317,206
74.342,214
74.367,220
74.392,224
74.417,223
74.442,220
74.467,216
74.492,212
74.517,207
74.542,199
74.567,187
74.592,171
74.617,154
74.642,136
74.667,119
74.692,101
74.717,80
74.742,60
74.767,49
74.792,56
74.817,81
74.842,115
74.867,144
74.892,165
74.917,181
74.942,199
74.967,221
74.992,239
75.017,245
75.042,242
75.067,236
75.092,233
75.117,233
75.142,228
75.167,216
75.192,199
75.217,185
75.242,174
75.267,161
75.292,142
75.317,119
75.342,98
75.367,83
75.392,68
75.417,48
75.442,26
75.467,13
75.492,22
75.517,54
75.542,97
75.567,135
75.592,159
75.617,175
75.642,193
75.667,216
75.692,237
75.717,250
75.742,253
75.767,250
75.792,249
75.817,249
75.842,245
75.867,236
75.892,223
75.917,208
75.942,194
75.967,180
75.992,163
76.017,146
76.042,132
76.067,119
76.092,105
76.117,85
76.142,62
76.167,45
76.192,47
76.217,68
76.242,103
76.267,137
76.292,162
76.317,178
76.342,189
76.367,201
76.392,212
76.417,219
76.442,221
76.467,221
76.492,222
76.517,224
76.542,221
76.567,212
76.592,199
76.617,186
76.642,178
76.667,171
76.692,162
76.717,147
76.742,131
76.767,117
76.792,106
76.817,94
76.842,78
76.867,61
76.892,51
76.917,59
76.942,85
76.967,122
76.992,158
77.017,185
77.042,201
77.067,209
77.092,212
77.117,213
77.142,213
77.167,214
77.192,216
77.217,219
77.242,219
77.267,215
77.292,206
77.317,195
77.342,184
77.367,174
77.392,162
77.417,148
77.442,133
77.467,120
77.492,108
77.517,96
77.542,81
77.567,66
77.592,58
77.617,65
77.642,87
77.667,119
77.692,149
77.717,169
77.742,181
77.767,186
77.792,190
77.817,193
77.842,195
77.867,196
77.892,198
77.917,202
77.942,205
77.967,204
77.992,200
78.017,194
78.042,188
78.067,180
78.092,170
78.117,159
78.142,149
78.167,139
78.192,126
78.217,109
78.242,93
78.267,87
78.292,98
78.317,125
78.342,155
78.367,178
78.392,188
78.417,188
78.442,187
78.467,186
78.492,185
78.517,185
78.542,185
78.567,188
78.592,193
78.617,196
78.642,193
78.667,185
78.692,173
78.717,162
78.742,152
78.767,142
78.792,130
78.817,117
78.842,104
78.867,94
78.892,93
78.917,104
78.942,127
78.967,156
78.992,183
79.017,201
79.042,208
79.067,208
79.092,207
79.117,204
79.142,201
79.167,198
79.192,195
79.217,193
79.242,192
79.267,188
79.292,179
79.317,167
79.342,154
79.367,143
79.392,132
79.417,119
79.442,103
79.467,87
79.492,77
79.517,79
79.542,95
79.567,122
79.592,153
79.617,178
79.642,191
79.667,192
79.692,189
79.717,187
79.742,189
79.767,193
79.792,195
79.817,194
79.842,193
79.867,192
79.892,190
79.917,182
79.942,169
79.967,154
79.992,143
80.017,134
80.042,123
80.067,106
80.092,90
80.117,88
80.142,104
80.167,134
80.192,164
80.217,184
80.242,192
80.267,195
80.292,197
80.317,199
80.342,198
80.367,195
80.392,193
80.417,194
80.442,197
80.467,196
80.492,189
80.517,178
80.542,167
80.567,157
80.592,146
80.617,128
80.642,105
80.667,83
80.692,72
80.717,80
80.742,105
80.767,140
80.792,172
80.817,194
80.842,205
80.867,208
80.892,207
80.917,205
80.942,200
80.967,193
80.992,189
81.017,188
81.042,187
81.067,182
81.092,169
81.117,153
81.142,138
81.167,127
81.192,115
81.217,98
81.242,78
81.267,68
81.292,77
81.317,103
81.342,136
81.367,163
81.392,182
81.417,197
81.442,210
81.467,220
81.492,223
81.517,220
81.542,215
81.567,212
81.592,210
81.617,204
81.642,192
81.667,177
81.692,163
81.717,149
81.742,132
81.767,106
81.792,78
81.817,58
81.842,55
81.867,70
81.892,99
81.917,131
81.942,159
81.967,181
81.992,195
82.017,204
82.042,210
82.067,215
82.092,217
82.117,216
82.142,212
82.167,206
82.192,201
82.217,194
82.242,183
82.267,168
82.292,151
82.317,135
82.342,119
82.367,100
82.392,79
82.417,62
82.442,60
82.467,77
82.492,105
82.517,134
82.542,156
82.567,175
82.592,195
82.617,218
82.642,236
82.667,244
82.692,243
82.717,236
82.742,232
82.767,230
82.792,229
82.817,225
82.842,218
82.867,206
82.892,193
82.917,177
82.942,160
82.967,143
82.992,127
83.017,112
83.042,98
83.067,85
83.092,69
83.117,49
83.142,26
83.167,7
83.192,4
83.217,22
83.242,57
83.267,97
83.292,132
83.317,160
83.342,185
83.367,211
83.392,235
83.417,252
83.442,259
83.467,260
83.492,258
83.517,257
83.542,255
83.567,250
83.592,242
83.617,231
83.642,219
83.667,206
83.692,194
83.717,182
83.742,169
83.767,152
83.792,134
83.817,118
83.842,105
83.867,94
83.892,80
83.917,59
83.942,38
83.967,30
83.992,40
84.017,68
84.042,102
84.067,132
84.092,156
84.117,178
84.142,198
84.167,216
84.192,227
84.217,231
84.242,231
84.267,232
84.292,234
84.317,235
84.342,231
84.367,224
84.392,213
84.417,201
84.442,188
84.467,173
84.492,159
84.517,147
84.542,137
84.567,127
84.592,114
84.617,99
84.642,82
84.667,68
84.692,56
84.717,45
84.742,33
84.767,20
84.792,11
84.817,13
84.842,31
84.867,63
84.892,100
84.917,131
84.942,153
84.967,168
84.992,182
85.017,196
85.042,210
85.067,218
85.092,221
85.117,221
85.142,223
85.167,228
85.192,232
85.217,233
85.242,229
85.267,223
85.292,217
85.317,214
85.342,213
85.367,212
85.392,210
85.417,207
85.442,205
85.467,204
85.492,203
85.517,201
85.542,197
85.567,190
85.592,181
85.617,173
85.642,167
85.667,168
85.692,179
85.717,195
85.742,212
85.767,222
85.792,222
85.817,216
85.842,209
85.867,203
85.892,199
85.917,196
85.942,191
85.967,186
85.992,180
86.017,172
86.042,162
86.067,150
86.092,140
86.117,133
86.142,127
86.167,120
86.192,111
86.217,102
86.242,96
86.267,95
86.292,95
86.317,94
86.342,90
86.367,85
86.392,80
86.417,74
86.442,64
86.467,54
86.492,52
86.517,66
86.542,98
86.567,135
86.592,166
86.617,184
86.642,193
86.667,203
86.692,218
86.717,235
86.742,245
86.767,242
86.792,231
86.817,221
86.842,217
86.867,219
86.892,221
86.917,217
86.942,205
86.967,187
86.992,169
87.017,152
87.042,135
87.067,118
87.092,100
87.117,83
87.142,71
87.167,61
87.192,53
87.217,44
87.242,35
87.267,32
87.292,42
87.317,67
87.342,100
87.367,134
87.392,163
87.417,182
87.442,194
87.467,203
87.492,211
87.517,221
87.542,230
87.567,237
87.592,239
87.617,241
87.642,242
87.667,243
87.692,239
87.717,227
87.742,209
87.767,190
87.792,175
87.817,164
87.842,154
87.867,142
87.892,128
87.917,114
87.942,101
87.967,88
87.992,77
88.017,73
88.042,85
88.067,111
88.092,144
88.117,173
88.142,192
88.167,204
88.192,215
88.217,228
88.242,240
88.267,246
88.292,248
88.317,250
88.342,255
88.367,258
88.392,255
88.417,243
88.442,225
88.467,207
88.492,193
88.517,181
88.542,166
88.567,148
88.592,127
88.617,107
88.642,87
88.667,69
88.692,52
88.717,43
88.742,48
88.767,71
88.792,104
88.817,136
88.842,160
88.867,172
88.892,177
88.917,182
88.942,188
88.967,194
88.992,199
89.017,202
89.042,204
89.067,204
89.092,203
89.117,199
89.142,193
89.167,184
89.192,174
89.217,163
89.242,151
89.267,141
89.292,130
89.317,116
89.342,98
89.367,82
89.392,75
89.417,86
89.442,113
89.467,146
89.492,174
89.517,190
89.542,199
89.567,205
89.592,210
89.617,213
89.642,212
89.667,210
89.692,210
89.717,210
89.742,209
89.767,202
89.792,191
89.817,178
89.842,167
89.867,157
89.892,146
89.917,132
89.942,114
89.967,93
89.992,72
90.017,53
90.042,44
90.067,52
90.092,79
90.117,117
90.142,153
90.167,176
90.192,186
90.217,189
90.242,193
90.267,199
90.292,203
90.317,204
90.342,203
90.367,201
90.392,199
90.417,195
90.442,189
90.467,180
90.492,171
90.517,160
90.542,149
90.567,137
90.592,124
90.617,112
90.642,98
90.667,83
90.692,72
90.717,72
90.742,89
90.767,120
90.792,156
90.817,185
90.842,203
90.867,214
90.892,222
90.917,229
90.942,234
90.967,237
90.992,238
91.017,240
91.042,241
91.067,240
91.092,234
91.117,224
91.142,212
91.167,199
91.192,185
91.217,168
91.242,150
91.267,132
91.292,115
91.317,99
91.342,81
91.367,63
91.392,52
91.417,55
91.442,74
91.467,103
91.492,132
91.517,152
91.542,163
91.567,169
91.592,173
91.617,177
91.642,178
91.667,179
91.692,180
91.717,184
91.742,188
91.767,188
91.792,184
91.817,175
91.842,164
91.867,153
91.892,144
91.917,136
91.942,127
91.967,115
91.992,99
92.017,82
92.042,72
92.067,78
92.092,102
92.117,134
92.142,164
92.167,183
92.192,193
92.217,199
92.242,206
92.267,212
92.292,216
92.317,219
92.342,223
92.367,229
92.392,234
92.417,234
92.442,228
92.467,216
92.492,202
92.517,189
92.542,180
92.567,171
92.592,158
92.617,141
92.642,123
92.667,112
92.692,118
92.717,140
92.742,169
92.767,193
92.792,208
92.817,216
92.842,221
92.867,225
92.892,227
92.917,225
92.942,221
92.967,217
92.992,214
93.017,210
93.042,205
93.067,195
93.092,181
93.117,162
93.142,141
93.167,120
93.192,100
93.217,79
93.242,55
93.267,35
93.292,29
93.317,45
93.342,77
93.367,109
93.392,131
93.417,141
93.442,152
93.467,166
93.492,179
93.517,177
93.542,160
93.567,137
93.592,121
93.617,114
93.642,104
93.667,83
93.692,51
93.717,16
93.742,-13
93.767,-37
93.792,-62
93.817,-86
93.842,-102
93.867,-97
93.892,-66
93.917,-12
93.942,54
93.967,120
93.992,178
94.017,225
94.042,267
94.067,309
94.092,355
94.117,404
94.142,452
94.167,494
94.192,524
94.217,532
94.242,510
94.267,451
94.292,362
94.317,257
94.342,160
94.367,87
94.392,38
94.417,3
94.442,-28
94.467,-60
94.492,-81
94.517,-81
94.542,-59
94.567,-28
94.592,-1
94.617,18
94.642,41
94.667,73
94.692,111
94.717,139
94.742,152
94.767,168
94.792,216
94.817,311
94.842,434
94.867,546
94.892,607
94.917,609
94.942,570
94.967,512
94.992,449
95.017,383
95.042,310
95.067,236
95.092,169
95.117,117
95.142,82
95.167,66
95.192,68
95.217,83
95.242,105
95.267,126
95.292,146
95.317,164
95.342,179
95.367,189
95.392,190
95.417,184
95.442,176
95.467,168
95.492,156
95.517,133
95.542,96
95.567,52
95.592,13
95.617,-13
95.642,-27
95.667,-34
95.692,-41
95.717,-49
95.742,-57
95.767,-57
95.792,-44
95.817,-16
95.842,22
95.867,63
95.892,96
95.917,119
95.942,134
95.967,148
95.992,161
96.017,171
96.042,178
96.067,183
96.092,190
96.117,199
96.142,207
96.167,207
96.192,198
96.217,186
96.242,175
96.267,168
96.292,161
96.317,150
96.342,137
96.367,127
96.392,128
96.417,144
96.442,173
96.467,204
96.492,230
96.517,243
96.542,244
96.567,238
96.592,232
96.617,230
96.642,231
96.667,232
96.692,230
96.717,224
96.742,217
96.767,208
96.792,196
96.817,181
96.842,166
96.867,150
96.892,134
96.917,116
96.942,96
96.967,82
96.992,82
97.017,100
97.042,130
97.067,159
97.092,180
97.117,190
97.142,193
97.167,196
97.192,198
97.217,199
97.242,198
97.267,197
97.292,197
97.317,197
97.342,193
97.367,182
97.392,167
97.417,152
97.442,140
97.467,129
97.492,117
97.517,100
97.542,83
97.567,71
97.592,74
97.617,92
97.642,120
97.667,149
97.692,171
97.717,184
97.742,191
97.767,196
97.792,198
97.817,199
97.842,198
97.867,194
97.892,191
97.917,186
97.942,179
97.967,170
97.992,159
98.017,149
98.042,138
98.067,125
98.092,109
98.117,93
98.142,85
98.167,91
98.192,113
98.217,145
98.242,178
98.267,203
98.292,216
98.317,219
98.342,219
98.367,218
98.392,218
98.417,217
98.442,214
98.467,209
98.492,205
98.517,197
98.542,187
98.567,172
98.592,157
98.617,143
98.642,128
98.667,107
98.692,83
98.717,61
98.742,55
98.767,71
98.792,103
98.817,138
98.842,163
98.867,177
98.892,185
98.917,192
98.942,199
98.967,202
98.992,200
99.017,197
99.042,197
99.067,200
99.092,199
99.117,191
99.142,175
99.167,158
99.192,143
99.217,129
99.242,111
99.267,89
99.292,72
99.317,70
99.342,88
99.367,123
99.392,161
99.417,191
99.442,207
99.467,213
99.492,216
99.517,220
99.542,222
99.567,220
99.592,214
99.617,207
99.642,201
99.667,196
99.692,190
99.717,179
99.742,164
99.767,148
99.792,130
99.817,108
99.842,80
99.867,53
99.892,39
99.917,48
99.942,78
99.967,117
99.992,153
100.017,178
100.042,196
100.067,211
100.092,227
100.117,239
100.142,244
100.167,243
100.192,240
100.217,237
100.242,236
100.267,234
100.292,229
100.317,220
100.342,206
100.367,190
100.392,173
100.417,156
100.442,138
100.467,118
100.492,95
100.517,74
100.542,55
100.567,37
100.592,17
100.617,-4
100.642,-21
100.667,-22
100.692,0
100.717,42
100.742,89
100.767,128
100.792,156
100.817,176
100.842,194
100.867,210
100.892,223
100.917,232
100.942,237
100.967,241
100.992,242
101.017,240
101.042,238
101.067,237
101.092,238
101.117,238
101.142,233
101.167,223
101.192,209
101.217,193
101.242,178
101.267,163
101.292,150
101.317,136
101.342,119
101.367,97
101.392,73
101.417,57
101.442,61
101.467,87
101.492,126
101.517,162
101.542,186
101.567,198
101.592,205
101.617,214
101.642,222
101.667,226
101.692,224
101.717,222
101.742,221
101.767,221
101.792,220
101.817,215
101.842,206
101.867,196
101.892,184
101.917,171
101.942,159
101.967,149
101.992,140
102.017,130
102.042,116
102.067,101
102.092,88
102.117,77
102.142,64
102.167,47
102.192,30
102.217,26
102.242,43
102.267,81
102.292,126
102.317,165
102.342,189
102.367,202
102.392,208
102.417,211
102.442,213
102.467,214
102.492,215
102.517,218
102.542,223
102.567,225
102.592,224
102.617,218
102.642,209
102.667,198
102.692,188
102.717,177
102.742,166
102.767,152
102.792,138
102.817,125
102.842,115
102.867,106
102.892,94
102.917,77
102.942,63
102.967,63
102.992,83
103.017,120
103.042,157
103.067,183
103.092,194
103.117,198
103.142,202
103.167,206
103.192,208
103.217,207
103.242,205
103.267,206
103.292,210
103.317,212
103.342,209
103.367,201
103.392,191
103.417,180
103.442,168
103.467,154
103.492,141
103.517,132
103.542,125
103.567,114
103.592,97
103.617,78
103.642,69
103.667,78
103.692,106
103.717,143
103.742,173
103.767,191
103.792,197
103.817,196
103.842,194
103.867,192
103.892,192
103.917,194
103.942,199
103.967,204
103.992,204
104.017,199
104.042,190
104.067,179
104.092,169
104.117,158
104.142,146
104.167,134
104.192,122
104.217,110
104.242,96
104.267,82
104.292,72
104.317,76
104.342,98
104.367,133
104.392,168
104.417,192
104.442,201
104.467,201
104.492,199
104.517,199
104.542,201
104.567,204
104.592,207
104.617,209
104.642,210
104.667,209
104.692,203
104.717,192
104.742,178
104.767,165
104.792,155
104.817,145
104.842,131
104.867,113
104.892,94
104.917,83
104.942,87
104.967,109
104.992,140
105.017,169
105.042,188
105.067,196
105.092,196
105.117,192
105.142,189
105.167,188
105.192,187
105.217,187
105.242,186
105.267,184
105.292,182
105.317,178
105.342,172
105.367,161
105.392,148
105.417,134
105.442,120
105.467,107
105.492,92
105.517,78
105.542,71
105.567,78
105.592,101
105.617,133
105.642,165
105.667,186
105.692,197
105.717,201
105.742,203
105.767,203
105.792,202
105.817,198
105.842,197
105.867,198
105.892,201
105.917,200
105.942,191
105.967,175
105.992,157
106.017,144
106.042,134
106.067,122
106.092,103
106.117,83
106.142,71
106.167,78
106.192,103
106.217,138
106.242,169
106.267,191
106.292,201
106.317,206
106.342,208
106.367,209
106.392,210
106.417,210
106.442,210
106.467,209
106.492,207
106.517,202
106.542,195
106.567,184
106.592,172
106.617,158
106.642,143
106.667,127
106.692,108
106.717,88
106.742,74
106.767,75
106.792,96
106.817,130
106.842,164
106.867,186
106.892,196
106.917,199
106.942,202
106.967,205
106.992,204
107.017,197
107.042,189
107.067,185
107.092,185
107.117,184
107.142,177
107.167,164
107.192,151
107.217,141
107.242,131
107.267,115
107.292,95
107.317,76
107.342,71
107.367,85
107.392,115
107.417,150
107.442,176
107.467,191
107.492,197
107.517,200
107.542,203
107.567,207
107.592,207
107.617,203
107.642,198
107.667,194
107.692,190
107.717,184
107.742,172
107.767,157
107.792,141
107.817,126
107.842,108
107.867,87
107.892,68
107.917,63
107.942,78
107.967,108
107.992,142
108.017,167
108.042,182
108.067,191
108.092,198
108.117,206
108.142,211
108.167,212
108.192,209
108.217,203
108.242,198
108.267,193
108.292,186
108.317,177
108.342,166
108.367,154
108.392,140
108.417,122
108.442,100
108.467,77
108.492,60
108.517,57
108.542,73
108.567,103
108.592,137
108.617,164
108.642,183
108.667,196
108.692,208
108.717,218
108.742,221
108.767,220
108.792,218
108.817,218
108.842,220
108.867,218
108.892,210
108.917,197
108.942,184
108.967,173
108.992,161
109.017,147
109.042,133
109.067,118
109.092,102
109.117,83
109.142,67
109.167,63
109.192,77
109.217,107
109.242,140
109.267,165
109.292,179
109.317,189
109.342,200
109.367,213
109.392,222
109.417,223
109.442,220
109.467,217
109.492,217
109.517,217
109.542,214
109.567,205
109.592,193
109.617,179
109.642,166
109.667,154
109.692,143
109.717,133
109.742,123
109.767,113
109.792,103
109.817,88
109.842,69
109.867,48
109.892,35
109.917,39
109.942,62
109.967,98
109.992,133
110.017,159
110.042,175
110.067,188
110.092,200
110.117,211
110.142,216
110.167,218
110.192,218
110.217,221
110.242,224
110.267,225
110.292,220
110.317,210
110.342,198
110.367,186
110.392,177
110.417,169
110.442,161
110.467,151
110.492,139
110.517,126
110.542,113
110.567,101
110.592,87
110.617,74
110.642,67
110.667,74
110.692,99
110.717,134
110.742,164
110.767,180
110.792,185
110.817,189
110.842,198
110.867,210
110.892,218
110.917,218
110.942,214
110.967,211
110.992,211
111.017,209
111.042,203
111.067,194
111.092,185
111.117,179
111.142,172
111.167,161
111.192,147
111.217,133
111.242,121
111.267,111
111.292,99
111.317,84
111.342,71
111.367,66
111.392,75
111.417,96
111.442,123
111.467,150
111.492,170
111.517,182
111.542,190
111.567,195
111.592,199
111.617,202
111.642,203
111.667,206
111.692,210
111.717,211
111.742,208
111.767,201
111.792,193
111.817,186
111.842,181
111.867,174
111.892,164
111.917,153
111.942,145
111.967,139
111.992,130
112.017,115
112.042,99
112.067,90
112.092,98
112.117,119
112.142,144
112.167,161
112.192,169
112.217,172
112.242,175
112.267,180
112.292,185
112.317,189
112.342,191
112.367,193
112.392,195
112.417,195
112.442,190
112.467,184
112.492,178
112.517,170
112.542,160
112.567,147
112.592,136
112.617,128
112.642,121
112.667,110
112.692,95
112.717,82
112.742,83
112.767,103
112.792,138
112.817,172
112.842,196
112.867,206
112.892,211
112.917,216
112.942,222
112.967,226
112.992,226
113.017,224
113.042,223
113.067,222
113.092,220
113.117,214
113.142,204
113.167,188
113.192,169
113.217,148
113.242,130
113.267,116
113.292,103
113.317,88
113.342,66
113.367,45
113.392,36
113.417,49
113.442,80
113.467,114
113.492,141
113.517,155
113.542,163
113.567,170
113.592,177
113.617,182
113.642,183
113.667,185
113.692,187
113.717,189
113.742,187
113.767,179
113.792,170
113.817,164
113.842,159
113.867,152
113.892,140
113.917,125
113.942,110
113.967,97
113.992,86
114.017,74
114.042,66
114.067,69
114.092,88
114.117,120
114.142,154
114.167,182
114.192,200
114.217,214
114.242,227
114.267,240
114.292,250
114.317,255
114.342,254
114.367,250
114.392,246
114.417,244
114.442,242
114.467,239
114.492,232
114.517,221
114.542,207
114.567,191
114.592,175
114.617,158
114.642,143
114.667,127
114.692,110
114.717,91
114.742,71
114.767,56
114.792,54
114.817,71
114.842,104
114.867,142
114.892,172
114.917,189
114.942,196
114.967,202
114.992,210
115.017,220
115.042,226
115.067,226
115.092,224
115.117,223
115.142,224
115.167,224
115.192,219
115.217,209
115.242,192
115.267,170
115.292,143
115.317,116
115.342,94
115.367,80
115.392,69
115.417,56
115.442,38
115.467,24
115.492,25
115.517,47
115.542,83
115.567,117
115.592,139
115.617,150
115.642,159
115.667,170
115.692,182
115.717,190
115.742,195
115.767,200
115.792,208
115.817,215
115.842,217
115.867,213
115.892,207
115.917,204
115.942,200
115.967,195
115.992,185
116.017,172
116.042,157
116.067,139
116.092,117
116.117,97
116.142,90
116.167,101
116.192,126
116.217,156
116.242,179
116.267,192
116.292,198
116.317,202
116.342,209
116.367,219
116.392,228
116.417,235
116.442,236
116.467,234
116.492,234
116.517,235
116.542,232
116.567,222
116.592,206
116.617,189
116.642,176
116.667,163
116.692,144
116.717,121
116.742,101
116.767,95
116.792,101
116.817,116
116.842,134
116.867,152
116.892,165
116.917,165
116.942,150
116.967,131
116.992,123
117.017,129
117.042,137
117.067,135
117.092,133
117.117,151
117.142,196
117.167,246
117.192,277
117.217,302
117.242,367
117.267,486
117.292,583
117.317,517
117.342,195
117.367,-311
117.392,-777
117.417,-967
117.442,-807
117.467,-432
117.492,-68
117.517,137
117.542,207
117.567,262
117.592,377
117.617,506
117.642,518
117.667,336
117.692,16
117.717,-280
117.742,-402
117.767,-307
117.792,-71
117.817,194
117.842,419
117.867,591
117.892,715
117.917,781
117.942,775
117.967,713
117.992,647
118.017,611
118.042,580
118.067,480
118.092,260
118.117,-45
118.142,-324
118.167,-458
118.192,-406
118.217,-221
118.242,-5
118.267,153
118.292,225
118.317,228
118.342,201
118.367,173
118.392,156
118.417,139
118.442,119
118.467,100
118.492,96
118.517,109
118.542,119
118.567,94
118.592,25
118.617,-62
118.642,-125
118.667,-131
118.692,-81
118.717,3
118.742,94
118.767,169
118.792,213
118.817,223
118.842,224
118.867,266
118.892,385
118.917,572
118.942,764
118.967,888
118.992,913
119.017,866
119.042,796
119.067,734
119.092,674
119.117,598
119.142,509
119.167,426
119.192,369
119.217,340
119.242,330
119.267,330
119.292,335
119.317,337
119.342,315
119.367,249
119.392,131
119.417,-25
119.442,-199
119.467,-370
119.492,-525
119.517,-661
119.542,-773
119.567,-854
119.592,-902
119.617,-919
119.642,-909
119.667,-876
119.692,-820
119.717,-740
119.742,-629
119.767,-487
119.792,-318
119.817,-136
119.842,43
119.867,208
119.892,355
119.917,488
119.942,611
119.967,723
119.992,815
120.017,879
120.042,911
120.067,919
120.092,913
120.117,901
120.142,889
120.167,881
120.192,878
120.217,878
120.242,865
120.267,822
120.292,732
120.317,602
120.342,456
120.367,327
120.392,234
120.417,175
120.442,130
120.467,85
120.492,36
120.517,-13
120.542,-59
120.567,-99
120.592,-137
120.617,-174
120.642,-208
120.667,-237
120.692,-263
120.717,-286
120.742,-304
120.767,-316
120.792,-321
120.817,-322
120.842,-324
120.867,-330
120.892,-337
120.917,-337
120.942,-322
120.967,-284
120.992,-215
121.017,-111
121.042,26
121.067,184
121.092,333
121.117,441
121.142,490
121.167,486
121.192,458
121.217,438
121.242,436
121.267,442
121.292,443
121.317,441
121.342,450
121.367,477
121.392,506
121.417,509
121.442,466
121.467,388
121.492,301
121.517,220
121.542,145
121.567,69
121.592,4
121.617,-22
121.642,13
121.667,105
121.692,218
121.717,314
121.742,374
121.767,401
121.792,410
121.817,408
121.842,394
121.867,364
121.892,321
121.917,276
121.942,238
121.967,208
121.992,183
122.017,151
122.042,104
122.067,40
122.092,-26
122.117,-84
122.142,-123
122.167,-147
122.192,-160
122.217,-163
122.242,-145
122.267,-102
122.292,-42
122.317,17
122.342,62
122.367,91
122.392,115
122.417,139
122.442,161
122.467,171
122.492,166
122.517,151
122.542,140
122.567,139
122.592,150
122.617,173
122.642,205
122.667,247
122.692,296
122.717,343
122.742,376
122.767,381
122.792,352
122.817,298
122.842,242
122.867,207
122.892,204
122.917,221
122.942,242
122.967,256
122.992,265
123.017,277
123.042,292
123.067,302
123.092,299
123.117,285
123.142,268
123.167,252
123.192,233
123.217,204
123.242,167
123.267,126
123.292,86
123.317,42
123.342,-10
123.367,-72
123.392,-133
123.417,-182
123.442,-213
123.467,-228
123.492,-233
123.517,-236
123.542,-242
123.567,-249
123.592,-252
123.617,-243
123.642,-217
123.667,-180
123.692,-139
123.717,-94
123.742,-34
123.767,49
123.792,153
123.817,254
123.842,334
123.867,388
123.892,429
123.917,469
123.942,509
123.967,548
123.992,589
124.017,641
124.042,696
124.067,728
124.092,711
124.117,638
124.142,534
124.167,435
124.192,359
124.217,300
124.242,247
124.267,199
124.292,169
124.317,159
124.342,159
124.367,155
124.392,142
124.417,127
124.442,114
124.467,94
124.492,60
124.517,23
124.542,2
124.567,13
124.592,44
124.617,71
124.642,77
124.667,69
124.692,68
124.717,88
124.742,120
124.767,151
124.792,168
124.817,174
124.842,173
124.867,169
124.892,160
124.917,149
124.942,136
124.967,120
124.992,98
125.017,71
125.042,41
125.067,18
125.092,7
125.117,5
125.142,10
125.167,19
125.192,34
125.217,55
125.242,77
125.267,92
125.292,98
125.317,97
125.342,97
125.367,102
125.392,115
125.417,135
125.442,158
125.467,182
125.492,204
125.517,221
125.542,233
125.567,236
125.592,229
125.617,211
125.642,188
125.667,171
125.692,170
125.717,186
125.742,211
125.767,231
125.792,240
125.817,239
125.842,236
125.867,232
125.892,229
125.917,225
125.942,221
125.967,221
125.992,227
126.017,235
126.042,238
126.067,236
126.092,229
126.117,219
126.142,206
126.167,186
126.192,160
126.217,137
126.242,127
126.267,132
126.292,145
126.317,151
126.342,143
126.367,127
126.392,111
126.417,99
126.442,88
126.467,74
126.492,60
126.517,51
126.542,48
126.567,48
126.592,44
126.617,37
126.642,30
126.667,24
126.692,16
126.717,0
126.742,-20
126.767,-35
126.792,-36
126.817,-23
126.842,-5
126.867,13
126.892,32
126.917,53
126.942,74
126.967,92
126.992,107
127.017,123
127.042,144
127.067,163
127.092,178
127.117,200
127.142,254
127.167,357
127.192,496
127.217,619
127.242,674
127.267,641
127.292,547
127.317,448
127.342,384
127.367,361
127.392,358
127.417,353
127.442,340
127.467,325
127.492,313
127.517,302
127.542,293
127.567,286
127.592,285
127.617,289
127.642,290
127.667,279
127.692,255
127.717,227
127.742,202
127.767,175
127.792,130
127.817,59
127.842,-28
127.867,-103
127.892,-139
127.917,-130
127.942,-92
127.967,-50
127.992,-19
128.017,0
128.042,12
128.067,22
128.092,28
128.117,26
128.142,18
128.167,10
128.192,6
128.217,5
128.242,4
128.267,-3
128.292,-17
128.317,-37
128.342,-59
128.367,-80
128.392,-100
128.417,-120
128.442,-135
128.467,-135
128.492,-117
128.517,-87
128.542,-62
128.567,-54
128.592,-55
128.617,-38
128.642,17
128.667,115
128.692,242
128.717,381
128.742,528
128.767,675
128.792,801
128.817,867
128.842,839
128.867,727
128.892,579
128.917,456
128.942,390
128.967,370
128.992,366
129.017,356
129.042,340
129.067,327
129.092,317
129.117,302
129.142,273
129.167,230
129.192,185
129.217,146
129.242,119
129.267,103
129.292,95
129.317,91
129.342,84
129.367,69
129.392,42
129.417,11
129.442,-18
129.467,-40
129.492,-55
129.517,-61
129.542,-50
129.567,-20
129.592,25
129.617,70
129.642,98
129.667,105
129.692,102
129.717,103
129.742,116
129.767,135
129.792,150
129.817,158
129.842,161
129.867,164
129.892,164
129.917,160
129.942,150
129.967,139
129.992,129
130.017,118
130.042,104
130.067,90
130.092,84
130.117,96
130.142,124
130.167,155
130.192,177
130.217,184
130.242,186
130.267,192
130.292,204
130.317,216
130.342,222
130.367,218
130.392,209
130.417,200
130.442,192
130.467,185
130.492,176
130.517,166
130.542,157
130.567,146
130.592,132
130.617,113
130.642,95
130.667,86
130.692,94
130.717,117
130.742,145
130.767,170
130.792,188
130.817,199
130.842,208
130.867,217
130.892,225
130.917,230
130.942,232
130.967,232
130.992,231
131.017,232
131.042,233
131.067,229
131.092,218
131.117,200
131.142,181
131.167,163
131.192,148
131.217,132
131.242,109
131.267,83
131.292,65
131.317,65
131.342,86
131.367,118
131.392,148
131.417,167
131.442,175
131.467,180
131.492,183
131.517,186
131.542,187
131.567,189
131.592,193
131.617,198
131.642,200
131.667,195
131.692,185
131.717,171
131.742,156
131.767,137
131.792,118
131.817,101
131.842,90
131.867,80
131.892,68
131.917,53
131.942,45
131.967,52
131.992,76
132.017,109
132.042,138
132.067,157
132.092,169
132.117,180
132.142,190
132.167,195
132.192,195
132.217,191
132.242,191
132.267,194
132.292,199
132.317,199
132.342,194
132.367,185
132.392,175
132.417,167
132.442,162
132.467,159
132.492,157
132.517,152
132.542,138
132.567,114
132.592,88
132.617,74
132.642,80
132.667,108
132.692,147
132.717,182
132.742,208
132.767,223
132.792,233
132.817,240
132.842,245
132.867,243
132.892,236
132.917,227
132.942,219
132.967,213
132.992,206
133.017,195
133.042,187
133.067,186
133.092,192
133.117,200
133.142,200
133.167,188
133.192,172
133.217,156
133.242,143
133.267,127
133.292,104
133.317,79
133.342,63
133.367,67
133.392,86
133.417,104
133.442,111
133.467,104
133.492,98
133.517,102
133.542,120
133.567,140
133.592,151
133.617,150
133.642,148
133.667,160
133.692,188
133.717,223
133.742,250
133.767,258
133.792,251
133.817,242
133.842,240
133.867,250
133.892,266
133.917,278
133.942,278
133.967,261
133.992,226
134.017,181
134.042,141
134.067,117
134.092,111
134.117,115
134.142,114
134.167,100
134.192,74
134.217,45
134.242,20
134.267,3
134.292,-8
134.317,-18
134.342,-27
134.367,-37
134.392,-46
134.417,-54
134.442,-61
134.467,-64
134.492,-58
134.517,-33
134.542,15
134.567,85
134.592,161
134.617,223
134.642,257
134.667,268
134.692,274
134.717,290
134.742,321
134.767,352
134.792,371
134.817,373
134.842,363
134.867,349
134.892,336
134.917,324
134.942,311
134.967,299
134.992,288
135.017,276
135.042,263
135.067,251
135.092,239
135.117,228
135.142,215
135.167,198
135.192,178
135.217,160
135.242,145
135.267,131
135.292,112
135.317,87
135.342,66
135.367,58
135.392,67
135.417,85
135.442,103
135.467,114
135.492,119
135.517,123
135.542,128
135.567,132
135.592,131
135.617,125
135.642,115
135.667,104
135.692,89
135.717,71
135.742,53
135.767,36
135.792,20
135.817,4
135.842,-12
135.867,-23
135.892,-20
135.917,-4
135.942,16
135.967,27
135.992,29
136.017,32
136.042,54
136.067,95
136.092,144
136.117,186
136.142,218
136.167,248
136.192,285
136.217,328
136.242,366
136.267,395
136.292,418
136.317,448
136.342,486
136.367,523
136.392,542
136.417,533
136.442,493
136.467,431
136.492,361
136.517,294
136.542,240
136.567,196
136.592,152
136.617,98
136.642,39
136.667,-7
136.692,-27
136.717,-19
136.742,-1
136.767,10
136.792,13
136.817,20
136.842,43
136.867,78
136.892,113
136.917,139
136.942,156
136.967,170
136.992,180
137.017,181
137.042,171
137.067,155
137.092,143
137.117,139
137.142,136
137.167,126
137.192,107
137.217,79
137.242,45
137.267,8
137.292,-24
137.317,-41
137.342,-29
137.367,8
137.392,58
137.417,102
137.442,129
137.467,146
137.492,161
137.517,179
137.542,197
137.567,210
137.592,216
137.617,218
137.642,220
137.667,222
137.692,223
137.717,222
137.742,215
137.767,203
137.792,187
137.817,171
137.842,159
137.867,148
137.892,134
137.917,113
137.942,93
137.967,87
137.992,102
138.017,133
138.042,168
138.067,193
138.092,205
138.117,209
138.142,211
138.167,214
138.192,216
138.217,216
138.242,216
138.267,216
138.292,214
138.317,211
138.342,204
138.367,194
138.392,181
138.417,168
138.442,155
138.467,145
138.492,135
138.517,122
138.542,107
138.567,94
138.592,93
138.617,111
138.642,143
138.667,179
138.692,206
138.717,220
138.742,225
138.767,227
138.792,227
138.817,227
138.842,223
138.867,219
138.892,215
138.917,212
138.942,208
138.967,199
138.992,183
139.017,164
139.042,147
139.067,133
139.092,121
139.117,105
139.142,84
139.167,64
139.192,54
139.217,65
139.242,94
139.267,131
139.292,162
139.317,181
139.342,189
139.367,191
139.392,191
139.417,188
139.442,183
139.467,178
139.492,177
139.517,178
139.542,177
139.567,170
139.592,158
139.617,146
139.642,139
139.667,134
139.692,124
139.717,108
139.742,88
139.767,75
139.792,80
139.817,103
139.842,137
139.867,170
139.892,191
139.917,199
139.942,198
139.967,195
139.992,193
140.017,192
140.042,192
140.067,191
140.092,191
140.117,189
140.142,184
140.167,173
140.192,158
140.217,145
140.242,137
140.267,131
140.292,119
140.317,100
140.342,81
140.367,74
140.392,88
140.417,120
140.442,157
140.467,186
140.492,202
140.517,208
140.542,212
140.567,216
140.592,220
140.617,222
140.642,222
140.667,221
140.692,219
140.717,215
140.742,208
140.767,198
140.792,185
140.817,171
140.842,158
140.867,144
140.892,127
140.917,108
140.942,89
140.967,78
140.992,81
141.017,101
141.042,132
141.067,164
141.092,187
141.117,200
141.142,207
141.167,214
141.192,221
141.217,226
141.242,228
141.267,226
141.292,225
141.317,223
141.342,218
141.367,207
141.392,191
141.417,174
141.442,154
141.467,121
141.492,67
141.517,-2
141.542,-66
141.567,-95
141.592,-76
141.617,-18
141.642,49
141.667,102
141.692,132
141.717,151
141.742,170
141.767,190
141.792,206
141.817,215
141.842,221
141.867,232
141.892,253
141.917,277
141.942,296
141.967,309
141.992,322
142.017,338
142.042,353
142.067,358
142.092,347
142.117,321
142.142,287
142.167,247
142.192,202
142.217,150
142.242,94
142.267,39
142.292,-14
142.317,-65
142.342,-111
142.367,-144
142.392,-157
142.417,-149
142.442,-125
142.467,-91
142.492,-48
142.517,5
142.542,63
142.567,113
142.592,146
142.617,159
142.642,157
142.667,149
142.692,138
142.717,127
142.742,122
142.767,127
142.792,142
142.817,154
142.842,155
142.867,143
142.892,127
142.917,111
142.942,96
142.967,79
142.992,67
143.017,67
143.042,79
143.067,91
143.092,98
143.117,110
143.142,147
143.167,218
143.192,305
143.217,377
143.242,425
143.267,471
143.292,544
143.317,640
143.342,721
143.367,745
143.392,709
143.417,650
143.442,608
143.467,596
143.492,596
143.517,581
143.542,546
143.567,498
143.592,450
143.617,409
143.642,383
143.667,377
143.692,386
143.717,392
143.742,370
143.767,307
143.792,214
143.817,113
143.842,21
143.867,-54
143.892,-116
143.917,-158
143.942,-179
143.967,-181
143.992,-180
144.017,-191
144.042,-214
144.067,-235
144.092,-241
144.117,-230
144.142,-214
144.167,-206
144.192,-210
144.217,-221
144.242,-235
144.267,-248
144.292,-260
144.317,-274
144.342,-292
144.367,-319
144.392,-355
144.417,-397
144.442,-438
144.467,-471
144.492,-480
144.517,-453
144.542,-377
144.567,-257
144.592,-113
144.617,26
144.642,143
144.667,236
144.692,313
144.717,383
144.742,445
144.767,499
144.792,550
144.817,610
144.842,686
144.867,769
144.892,836
144.917,865
144.942,851
144.967,803
144.992,737
145.017,662
145.042,582
145.067,499
145.092,417
145.117,344
145.142,283
145.167,236
145.192,201
145.217,180
145.242,172
145.267,176
145.292,185
145.317,191
145.342,195
145.367,202
145.392,219
145.417,245
145.442,273
145.467,296
145.492,309
145.517,310
145.542,294
145.567,257
145.592,201
145.617,132
145.642,65
145.667,8
145.692,-33
145.717,-61
145.742,-76
145.767,-80
145.792,-72
145.817,-57
145.842,-40
145.867,-21
145.892,4
145.917,43
145.942,93
145.967,148
145.992,197
146.017,236
146.042,267
146.067,291
146.092,310
146.117,323
146.142,329
146.167,329
146.192,321
146.217,304
146.242,276
146.267,240
146.292,199
146.317,161
146.342,129
146.367,102
146.392,77
146.417,52
146.442,29
146.467,7
146.492,-13
146.517,-35
146.542,-58
146.567,-76
146.592,-82
146.617,-68
146.642,-34
146.667,9
146.692,52
146.717,83
146.742,104
146.767,117
146.792,128
146.817,137
146.842,141
146.867,140
146.892,138
146.917,140
146.942,149
146.967,162
146.992,170
147.017,171
147.042,166
147.067,158
147.092,151
147.117,141
147.142,127
147.167,111
147.192,99
147.217,93
147.242,90
147.267,87
147.292,85
147.317,95
147.342,128
147.367,182
147.392,243
147.417,296
147.442,331
147.467,354
147.492,370
147.517,379
147.542,379
147.567,367
147.592,348
147.617,331
147.642,315
147.667,297
147.692,271
147.717,242
147.742,214
147.767,194
147.792,179
147.817,163
147.842,146
147.867,130
147.892,117
147.917,103
147.942,85
147.967,65
147.992,53
148.017,59
148.042,82
148.067,114
148.092,143
148.117,163
148.142,175
148.167,182
148.192,186
148.217,185
148.242,182
148.267,180
148.292,178
148.317,177
148.342,174
148.367,169
148.392,164
148.417,161
148.442,158
148.467,150
148.492,137
148.517,122
148.542,109
148.567,99
148.592,87
148.617,70
148.642,48
148.667,28
148.692,18
148.717,24
148.742,47
148.767,79
148.792,111
148.817,134
148.842,144
148.867,147
148.892,148
148.917,151
148.942,155
148.967,156
148.992,150
149.017,136
149.042,115
149.067,90
149.092,69
149.117,61
149.142,66
149.167,69
149.192,54
149.217,18
149.242,-19
149.267,-31
149.292,-8
149.317,29
149.342,57
149.367,64
149.392,65
149.417,82
149.442,120
149.467,169
149.492,216
149.517,260
149.542,311
149.567,369
149.592,429
149.617,486
149.642,541
149.667,590
149.692,615
149.717,586
149.742,493
149.767,357
149.792,225
149.817,139
149.842,111
149.867,136
149.892,202
149.917,297
149.942,392
149.967,446
149.992,429
150.017,347
150.042,244
150.067,167
150.092,129
150.117,116
150.142,107
150.167,97
150.192,94
150.217,101
150.242,112
150.267,115
150.292,111
150.317,103
150.342,96
150.367,87
150.392,83
150.417,96
150.442,126
150.467,153
150.492,143
150.517,80
150.542,-14
150.567,-95
150.592,-131
150.617,-125
150.642,-101
150.667,-80
150.692,-64
150.717,-44
150.742,-14
150.767,26
150.792,80
150.817,147
150.842,222
150.867,287
150.892,324
150.917,323
150.942,293
150.967,249
150.992,204
151.017,162
151.042,126
151.067,103
151.092,97
151.117,106
151.142,121
151.167,134
151.192,144
151.217,153
151.242,161
151.267,166
151.292,162
151.317,150
151.342,131
151.367,111
151.392,93
151.417,84
151.442,91
151.467,116
151.492,153
151.517,190
151.542,219
151.567,238
151.592,252
151.617,262
151.642,267
151.667,266
151.692,260
151.717,250
151.742,242
151.767,235
151.792,225
151.817,210
151.842,189
151.867,168
151.892,151
151.917,138
151.942,125
151.967,108
151.992,86
152.017,64
152.042,53
152.067,62
152.092,89
152.117,127
152.142,162
152.167,185
152.192,197
152.217,201
152.242,206
152.267,214
152.292,224
152.317,232
152.342,238
152.367,240
152.392,242
152.417,241
152.442,236
152.467,223
152.492,205
152.517,184
152.542,165
152.567,146
152.592,126
152.617,100
152.642,75
152.667,59
152.692,63
152.717,85
152.742,116
152.767,144
152.792,163
152.817,173
152.842,181
152.867,188
152.892,196
152.917,203
152.942,207
152.967,209
152.992,209
153.017,206
153.042,200
153.067,192
153.092,182
153.117,171
153.142,160
153.167,148
153.192,135
153.217,121
153.242,108
153.267,102
153.292,109
153.317,130
153.342,157
153.367,181
153.392,193
153.417,197
153.442,198
153.467,203
153.492,211
153.517,215
153.542,213
153.567,206
153.592,200
153.617,196
153.642,192
153.667,184
153.692,170
153.717,154
153.742,141
153.767,128
153.792,112
153.817,90
153.842,70
153.867,62
153.892,73
153.917,100
153.942,133
153.967,161
153.992,180
154.017,191
154.042,197
154.067,201
154.092,201
154.117,200
154.142,200
154.167,201
154.192,203
154.217,200
154.242,192
154.267,180
154.292,165
154.317,147
154.342,128
154.367,109
154.392,91
154.417,74
154.442,56
154.467,35
154.492,21
154.517,22
154.542,44
154.567,83
154.592,125
154.617,159
154.642,183
154.667,200
154.692,215
154.717,228
154.742,234
154.767,233
154.792,228
154.817,224
154.842,221
154.867,219
154.892,213
154.917,204
154.942,193
154.967,181
154.992,168
155.017,154
155.042,142
155.067,130
155.092,116
155.117,98
155.142,79
155.167,67
155.192,71
155.217,93
155.242,127
155.267,159
155.292,181
155.317,193
155.342,201
155.367,210
155.392,218
155.417,222
155.442,222
155.467,220
155.492,220
155.517,222
155.542,221
155.567,217
155.592,209
155.617,199
155.642,189
155.667,175
155.692,159
155.717,143
155.742,131
155.767,124
155.792,114
155.817,100
155.842,84
155.867,77
155.892,86
155.917,111
155.942,139
155.967,160
155.992,169
156.017,173
156.042,177
156.067,183
156.092,187
156.117,188
156.142,188
156.167,190
156.192,193
156.217,194
156.242,191
156.267,184
156.292,178
156.317,173
156.342,166
156.367,156
156.392,145
156.417,135
156.442,128
156.467,121
156.492,109
156.517,95
156.542,85
156.567,91
156.592,114
156.617,144
156.642,172
156.667,188
156.692,195
156.717,198
156.742,202
156.767,205
156.792,207
156.817,206
156.842,205
156.867,207
156.892,209
156.917,208
156.942,202
156.967,192
156.992,182
157.017,172
157.042,161
157.067,149
157.092,137
157.117,125
157.142,111
157.167,95
157.192,77
157.217,67
157.242,72
157.267,94
157.292,126
157.317,153
157.342,169
157.367,176
157.392,178
157.417,182
157.442,187
157.467,192
157.492,194
157.517,196
157.542,199
157.567,200
157.592,199
157.617,195
157.642,189
157.667,180
157.692,170
157.717,158
157.742,147
157.767,137
157.792,125
157.817,110
157.842,94
157.867,84
157.892,88
157.917,109
157.942,138
157.967,164
157.992,180
158.017,187
158.042,189
158.067,191
158.092,192
158.117,192
158.142,192
158.167,194
158.192,194
158.217,193
158.242,188
158.267,183
158.292,177
158.317,171
158.342,162
158.367,150
158.392,136
158.417,124
158.442,111
158.467,96
158.492,84
158.517,82
158.542,97
158.567,124
158.592,155
158.617,178
158.642,191
158.667,197
158.692,198
158.717,198
158.742,197
158.767,197
158.792,201
158.817,207
158.842,213
158.867,213
158.892,209
158.917,202
158.942,195
158.967,186
158.992,176
159.017,166
159.042,156
159.067,146
159.092,134
159.117,120
159.142,115
159.167,124
159.192,149
159.217,179
159.242,202
159.267,216
159.292,222
159.317,226
159.342,226
159.367,223
159.392,219
159.417,217
159.442,219
159.467,221
159.492,219
159.517,211
159.542,199
159.567,185
159.592,169
159.617,152
159.642,136
159.667,124
159.692,112
159.717,93
159.742,68
159.767,47
159.792,45
159.817,62
159.842,86
159.867,100
159.892,102
159.917,99
159.942,98
159.967,97
159.992,89
160.017,77
160.042,69
160.067,68
160.092,64
160.117,46
160.142,18
160.167,-6
160.192,-15
160.217,-14
160.242,-14
160.267,-10
160.292,16
160.317,78
160.342,160
160.367,228
160.392,264
160.417,283
160.442,317
160.467,377
160.492,440
160.517,472
160.542,458
160.567,419
160.592,382
160.617,358
160.642,341
160.667,324
160.692,309
160.717,305
160.742,310
160.767,313
160.792,299
160.817,265
160.842,220
160.867,173
160.892,132
160.917,101
160.942,81
160.967,68
160.992,55
161.017,40
161.042,29
161.067,30
161.092,47
161.117,71
161.142,88
161.167,92
161.192,87
161.217,78
161.242,67
161.267,52
161.292,36
161.317,24
161.342,20
161.367,23
161.392,28
161.417,30
161.442,32
161.467,40
161.492,55
161.517,79
161.542,109
161.567,138
161.592,155
161.617,151
161.642,130
161.667,110
161.692,107
161.717,123
161.742,143
161.767,153
161.792,152
161.817,154
161.842,171
161.867,199
161.892,225
161.917,242
161.942,256
161.967,279
161.992,312
162.017,347
162.042,373
162.067,390
162.092,401
162.117,406
162.142,398
162.167,370
162.192,326
162.217,276
162.242,231
162.267,196
162.292,169
162.317,147
162.342,129
162.367,120
162.392,119
162.417,122
162.442,127
162.467,128
162.492,124
162.517,115
162.542,101
162.567,86
162.592,70
162.617,56
162.642,47
162.667,45
162.692,50
162.717,60
162.742,72
162.767,85
162.792,100
162.817,116
162.842,129
162.867,135
162.892,136
162.917,141
162.942,160
162.967,191
162.992,222
163.017,239
163.042,238
163.067,228
163.092,221
163.117,221
163.142,223
163.167,222
163.192,217
163.217,211
163.242,207
163.267,199
163.292,183
163.317,160
163.342,137
163.367,121
163.392,112
163.417,107
163.442,99
163.467,86
163.492,69
163.517,53
163.542,46
163.567,54
163.592,77
163.617,110
163.642,138
163.667,153
163.692,156
163.717,157
163.742,161
163.767,168
163.792,170
163.817,167
163.842,161
163.867,159
163.892,164
163.917,171
163.942,173
163.967,168
163.992,161
164.017,157
164.042,158
164.067,162
164.092,169
164.117,174
164.142,174
164.167,167
164.192,155
164.217,148
164.242,153
164.267,173
164.292,199
164.317,219
164.342,227
164.367,227
164.392,230
164.417,238
164.442,244
164.467,241
164.492,226
164.517,204
164.542,182
164.567,160
164.592,139
164.617,117
164.642,98
164.667,86
164.692,83
164.717,87
164.742,91
164.767,93
164.792,88
164.817,76
164.842,60
164.867,46
164.892,43
164.917,57
164.942,83
164.967,109
164.992,129
165.017,143
165.042,156
165.067,170
165.092,184
165.117,193
165.142,200
165.167,208
165.192,221
165.217,237
165.242,249
165.267,253
165.292,252
165.317,249
165.342,247
165.367,247
165.392,248
165.417,249
165.442,245
165.467,230
165.492,202
165.517,169
165.542,146
165.567,142
165.592,156
165.617,175
165.642,185
165.667,184
165.692,176
165.717,169
165.742,165
165.767,161
165.792,154
165.817,145
165.842,138
165.867,131
165.892,121
165.917,105
165.942,88
165.967,75
165.992,73
166.017,80
166.042,88
166.067,89
166.092,81
166.117,66
166.142,53
166.167,52
166.192,67
166.217,94
166.242,125
166.267,154
166.292,178
166.317,200
166.342,222
166.367,243
166.392,259
166.417,267
166.442,268
166.467,266
166.492,264
166.517,262
166.542,257
166.567,245
166.592,226
166.617,205
166.642,186
166.667,170
166.692,154
166.717,131
166.742,104
166.767,81
166.792,71
166.817,77
166.842,92
166.867,110
166.892,124
166.917,136
166.942,150
166.967,164
166.992,176
167.017,183
167.042,187
167.067,190
167.092,191
167.117,190
167.142,185
167.167,179
167.192,174
167.217,167
167.242,155
167.267,138
167.292,122
167.317,111
167.342,103
167.367,94
167.392,81
167.417,73
167.442,78
167.467,98
167.492,126
167.517,150
167.542,164
167.567,172
167.592,179
167.617,187
167.642,195
167.667,200
167.692,201
167.717,202
167.742,204
167.767,207
167.792,210
167.817,211
167.842,208
167.867,201
167.892,191
167.917,180
167.942,169
167.967,157
167.992,139
168.017,117
168.042,99
168.067,96
168.092,112
168.117,139
168.142,166
168.167,185
168.192,197
168.217,210
168.242,224
168.267,237
168.292,243
168.317,242
168.342,237
168.367,233
168.392,231
168.417,228
168.442,219
168.467,204
168.492,183
168.517,162
168.542,143
168.567,130
168.592,121
168.617,113
168.642,102
168.667,86
168.692,71
168.717,67
168.742,79
168.767,107
168.792,142
168.817,172
168.842,190
168.867,195
168.892,192
168.917,184
168.942,175
168.967,162
168.992,145
169.017,124
169.042,103
169.067,86
169.092,76
169.117,70
169.142,64
169.167,54
169.192,39
169.217,20
169.242,3
169.267,-9
169.292,-17
169.317,-23
169.342,-30
169.367,-34
169.392,-28
169.417,-4
169.442,40
169.467,99
169.492,160
169.517,211
169.542,245
169.567,267
169.592,281
169.617,294
169.642,306
169.667,316
169.692,324
169.717,328
169.742,330
169.767,331
169.792,329
169.817,321
169.842,303
169.867,279
169.892,254
169.917,232
169.942,212
169.967,190
169.992,162
170.017,134
170.042,115
170.067,113
170.092,129
170.117,152
170.142,170
170.167,181
170.192,189
170.217,198
170.242,209
170.267,216
170.292,216
170.317,211
170.342,206
170.367,205
170.392,205
170.417,203
170.442,196
170.467,184
170.492,169
170.517,152
170.542,136
170.567,121
170.592,106
170.617,90
170.642,70
170.667,49
170.692,33
170.717,29
170.742,43
170.767,70
170.792,103
170.817,132
170.842,153
170.867,168
170.892,180
170.917,190
170.942,197
170.967,202
170.992,205
171.017,209
171.042,214
171.067,218
171.092,220
171.117,218
171.142,212
171.167,202
171.192,192
171.217,181
171.242,169
171.267,153
171.292,130
171.317,100
171.342,67
171.367,41
171.392,31
171.417,41
171.442,67
171.467,98
171.492,126
171.517,146
171.542,161
171.567,174
171.592,183
171.617,185
171.642,181
171.667,174
171.692,169
171.717,168
171.742,169
171.767,165
171.792,155
171.817,143
171.842,134
171.867,129
171.892,125
171.917,117
171.942,106
171.967,98
171.992,94
172.017,89
172.042,81
172.067,70
172.092,69
172.117,85
172.142,119
172.167,158
172.192,188
172.217,205
172.242,215
172.267,224
172.292,235
172.317,244
172.342,246
172.367,244
172.392,244
172.417,245
172.442,245
172.467,241
172.492,231
172.517,221
172.542,211
172.567,200
172.592,186
172.617,170
172.642,154
172.667,139
172.692,124
172.717,110
172.742,102
172.767,107
172.792,125
172.817,150
172.842,170
172.867,181
172.892,185
172.917,190
172.942,196
172.967,199
172.992,197
173.017,190
173.042,185
173.067,184
173.092,186
173.117,187
173.142,182
173.167,171
173.192,154
173.217,134
173.242,117
173.267,103
173.292,92
173.317,80
173.342,63
173.367,47
173.392,40
173.417,50
173.442,75
173.467,104
173.492,129
173.517,146
173.542,159
173.567,172
173.592,183
173.617,187
173.642,185
173.667,181
173.692,178
173.717,177
173.742,176
173.767,173
173.792,168
173.817,162
173.842,154
173.867,143
173.892,131
173.917,122
173.942,113
173.967,103
173.992,91
174.017,85
174.042,93
174.067,119
174.092,153
174.117,182
174.142,202
174.167,215
174.192,231
174.217,248
174.242,263
174.267,270
174.292,274
174.317,279
174.342,288
174.367,298
174.392,303
174.417,303
174.442,301
174.467,297
174.492,288
174.517,273
174.542,254
174.567,234
174.592,215
174.617,193
174.642,170
174.667,155
174.692,158
174.717,180
174.742,213
174.767,238
174.792,243
174.817,222
174.842,181
174.867,127
174.892,72
174.917,24
174.942,-13
174.967,-45
174.992,-77
175.017,-113
175.042,-148
175.067,-179
175.092,-207
175.117,-232
175.142,-255
175.167,-269
175.192,-271
175.217,-264
175.242,-249
175.267,-218
175.292,-155
175.317,-47
175.342,94
175.367,242
175.392,367
175.417,459
175.442,527
175.467,588
175.492,647
175.517,697
175.542,728
175.567,735
175.592,717
175.617,682
175.642,633
175.667,577
175.692,514
175.717,447
175.742,375
175.767,295
175.792,211
175.817,122
175.842,29
175.867,-65
175.892,-158
175.917,-242
175.942,-306
175.967,-340
175.992,-338
176.017,-301
176.042,-242
176.067,-179
176.092,-120
176.117,-56
176.142,27
176.167,126
176.192,208
176.217,227
176.242,171
176.267,82
176.292,31
176.317,59
176.342,148
176.367,246
176.392,320
176.417,381
176.442,459
176.467,556
176.492,637
176.517,667
176.542,644
176.567,603
176.592,576
176.617,564
176.642,553
176.667,538
176.692,527
176.717,526
176.742,523
176.767,492
176.792,424
176.817,333
176.842,243
176.867,169
176.892,110
176.917,56
176.942,-2
176.967,-76
176.992,-173
177.017,-288
177.042,-399
177.067,-486
177.092,-544
177.117,-590
177.142,-638
177.167,-686
177.192,-717
177.217,-720
177.242,-703
177.267,-669
177.292,-608
177.317,-494
177.342,-320
177.367,-110
177.392,99
177.417,289
177.442,464
177.467,631
177.492,781
177.517,897
177.542,980
177.567,1042
177.592,1086
177.617,1078
177.642,974
177.667,768
177.692,510
177.717,271
177.742,99
177.767,-7
177.792,-71
177.817,-104
177.842,-109
177.867,-90
177.892,-57
177.917,-7
177.942,80
177.967,223
177.992,398
178.017,542
178.042,601
178.067,573
178.092,506
178.117,451
178.142,418
178.167,384
178.192,326
178.217,250
178.242,181
178.267,135
178.292,112
178.317,97
178.342,83
178.367,70
178.392,58
178.417,51
178.442,50
178.467,58
178.492,76
178.517,98
178.542,120
178.567,142
178.592,159
178.617,154
178.642,112
178.667,35
178.692,-47
178.717,-94
178.742,-88
178.767,-48
178.792,-11
178.817,5
178.842,12
178.867,29
178.892,58
178.917,81
178.942,82
178.967,63
178.992,42
179.017,34
179.042,40
179.067,52
179.092,66
179.117,87
179.142,113
179.167,141
179.192,165
179.217,182
179.242,197
179.267,211
179.292,223
179.317,232
179.342,240
179.367,251
179.392,265
179.417,278
179.442,285
179.467,287
179.492,284
179.517,275
179.542,255
179.567,224
179.592,189
179.617,161
179.642,151
179.667,158
179.692,172
179.717,185
179.742,193
179.767,195
179.792,194
179.817,191
179.842,189
179.867,187
179.892,188
179.917,190
179.942,192
179.967,191
179.992,189
180.017,184
180.042,175
180.067,162
180.092,145
180.117,130
180.142,123
180.167,127
180.192,142
180.217,164
180.242,186
180.267,204
180.292,213
180.317,215
180.342,212
180.367,209
180.392,206
180.417,205
180.442,204
180.467,200
180.492,192
180.517,180
180.542,165
180.567,150
180.592,137
180.617,126
180.642,115
180.667,98
180.692,80
180.717,70
180.742,75
180.767,97
180.792,125
180.817,149
180.842,161
180.867,165
180.892,166
180.917,166
180.942,162
180.967,155
180.992,148
181.017,144
181.042,144
181.067,142
181.092,135
181.117,125
181.142,115
181.167,108
181.192,98
181.217,82
181.242,64
181.267,53
181.292,60
181.317,83
181.342,116
181.367,147
181.392,171
181.417,188
181.442,201
181.467,209
181.492,211
181.517,209
181.542,205
181.567,204
181.592,205
181.617,207
181.642,207
181.667,202
181.692,194
181.717,185
181.742,175
181.767,164
181.792,150
181.817,134
181.842,119
181.867,113
181.892,118
181.917,136
181.942,159
181.967,181
181.992,198
182.017,210
182.042,217
182.067,222
182.092,224
182.117,224
182.142,222
182.167,219
182.192,215
182.217,209
182.242,202
182.267,192
182.292,180
182.317,166
182.342,153
182.367,140
182.392,128
182.417,116
182.442,101
182.467,84
182.492,67
182.517,60
182.542,65
182.567,83
182.592,105
182.617,123
182.642,135
182.667,141
182.692,145
182.717,152
182.742,160
182.767,167
182.792,173
182.817,177
182.842,182
182.867,188
182.892,193
182.917,196
182.942,194
182.967,188
182.992,179
183.017,171
183.042,164
183.067,156
183.092,145
183.117,130
183.142,117
183.167,111
183.192,119
183.217,139
183.242,164
183.267,187
183.292,205
183.317,218
183.342,228
183.367,234
183.392,236
183.417,233
183.442,227
183.467,220
183.492,212
183.517,200
183.542,186
183.567,171
183.592,162
183.617,163
183.642,170
183.667,177
183.692,175
183.717,164
183.742,148
183.767,136
183.792,131
183.817,134
183.842,140
183.867,147
183.892,155
183.917,165
183.942,176
183.967,188
183.992,196
184.017,196
184.042,181
184.067,153
184.092,119
184.117,91
184.142,80
184.167,87
184.192,109
184.217,135
184.242,154
184.267,163
184.292,161
184.317,152
184.342,145
184.367,143
184.392,149
184.417,162
184.442,181
184.467,200
184.492,219
184.517,233
184.542,241
184.567,243
184.592,238
184.617,228
184.642,217
184.667,205
184.692,193
184.717,180
184.742,168
184.767,157
184.792,149
184.817,144
184.842,139
184.867,129
184.892,112
184.917,89
184.942,66
184.967,48
184.992,40
185.017,38
185.042,38
185.067,37
185.092,36
185.117,39
185.142,46
185.167,57
185.192,69
185.217,84
185.242,104
185.267,130
185.292,161
185.317,196
185.342,231
185.367,258
185.392,273
185.417,271
185.442,254
185.467,228
185.492,206
185.517,193
185.542,194
185.567,206
185.592,227
185.617,248
185.642,258
185.667,250
185.692,223
185.717,185
185.742,148
185.767,120
185.792,103
185.817,94
185.842,92
185.867,97
185.892,108
185.917,120
185.942,125
185.967,118
185.992,102
186.017,87
186.042,80
186.067,85
186.092,98
186.117,113
186.142,126
186.167,137
186.192,149
186.217,165
186.242,183
186.267,199
186.292,212
186.317,220
186.342,224
186.367,225
186.392,225
186.417,223
186.442,224
186.467,229
186.492,234
186.517,235
186.542,226
186.567,206
186.592,182
186.617,159
186.642,138
186.667,116
186.692,89
186.717,63
186.742,47
186.767,45
186.792,57
186.817,75
186.842,91
186.867,106
186.892,119
186.917,130
186.942,138
186.967,140
186.992,134
187.017,127
187.042,120
187.067,115
187.092,110
187.117,104
187.142,98
187.167,94
187.192,91
187.217,84
187.242,73
187.267,60
187.292,50
187.317,47
187.342,54
187.367,70
187.392,95
187.417,129
187.442,165
187.467,196
187.492,222
187.517,246
187.542,275
187.567,307
187.592,336
187.617,356
187.642,370
187.667,386
187.692,406
187.717,422
187.742,428
187.767,423
187.792,419
187.817,422
187.842,425
187.867,416
187.892,393
187.917,366
187.942,352
187.967,353
187.992,355
188.017,344
188.042,321
188.067,293
188.092,268
188.117,245
188.142,222
188.167,197
188.192,172
188.217,144
188.242,106
188.267,53
188.292,-9
188.317,-73
188.342,-134
188.367,-190
188.392,-241
188.417,-284
188.442,-317
188.467,-346
188.492,-382
188.517,-422
188.542,-441
188.567,-411
188.592,-324
188.617,-200
188.642,-74
188.667,31
188.692,117
188.717,192
188.742,257
188.767,303
188.792,326
188.817,333
188.842,337
188.867,343
188.892,346
188.917,338
188.942,320
188.967,300
188.992,282
189.017,266
189.042,250
189.067,235
189.092,225
189.117,217
189.142,207
189.167,191
189.192,176
189.217,175
189.242,190
189.267,217
189.292,246
189.317,269
189.342,285
189.367,296
189.392,302
189.417,305
189.442,303
189.467,299
189.492,290
189.517,278
189.542,259
189.567,235
189.592,206
189.617,173
189.642,139
189.667,109
189.692,86
189.717,73
189.742,64
189.767,55
189.792,45
189.817,41
189.842,48
189.867,68
189.892,92
189.917,113
189.942,129
189.967,142
189.992,155
190.017,167
190.042,173
190.067,169
190.092,157
190.117,146
190.142,142
190.167,144
190.192,150
190.217,154
190.242,153
190.267,147
190.292,142
190.317,138
190.342,134
190.367,127
190.392,115
190.417,101
190.442,95
190.467,104
190.492,127
190.517,156
190.542,181
190.567,199
190.592,209
190.617,216
190.642,223
190.667,228
190.692,230
190.717,228
190.742,225
190.767,222
190.792,220
190.817,215
190.842,209
190.867,200
190.892,190
190.917,179
190.942,167
190.967,154
190.992,142
191.017,131
191.042,121
191.067,109
191.092,99
191.117,94
191.142,100
191.167,118
191.192,144
191.217,167
191.242,182
191.267,190
191.292,194
191.317,196
191.342,198
191.367,198
191.392,196
191.417,194
191.442,193
191.467,192
191.492,189
191.517,183
191.542,176
191.567,169
191.592,162
191.617,154
191.642,146
191.667,137
191.692,129
191.717,120
191.742,110
191.767,97
191.792,87
191.817,87
191.842,101
191.867,126
191.892,152
191.917,172
191.942,182
191.967,187
191.992,191
192.017,195
192.042,198
192.067,199
192.092,198
192.117,200
192.142,203
192.167,205
192.192,202
192.217,192
192.242,179
192.267,166
192.292,157
192.317,150
192.342,144
192.367,136
192.392,124
192.417,111
192.442,101
192.467,100
192.492,111
192.517,133
192.542,158
192.567,178
192.592,189
192.617,191
192.642,189
192.667,186
192.692,182
192.717,180
192.742,181
192.767,182
192.792,184
192.817,184
192.842,182
192.867,177
192.892,170
192.917,161
192.942,151
192.967,141
192.992,133
193.017,125
193.042,117
193.067,108
193.092,104
193.117,111
193.142,130
193.167,155
193.192,177
193.217,191
193.242,197
193.267,200
193.292,203
193.317,204
193.342,204
193.367,203
193.392,202
193.417,202
193.442,201
193.467,196
193.492,187
193.517,176
193.542,163
193.567,151
193.592,139
193.617,125
193.642,110
193.667,94
193.692,78
193.717,69
193.742,71
193.767,88
193.792,117
193.817,147
193.842,170
193.867,183
193.892,187
193.917,189
193.942,189
193.967,188
193.992,185
194.017,183
194.042,181
194.067,180
194.092,177
194.117,170
194.142,159
194.167,147
194.192,135
194.217,122
194.242,110
194.267,96
194.292,84
194.317,76
194.342,77
194.367,89
194.392,111
194.417,137
194.442,161
194.467,178
194.492,190
194.517,201
194.542,213
194.567,224
194.592,230
194.617,231
194.642,230
194.667,231
194.692,234
194.717,232
194.742,223
194.767,209
194.792,196
194.817,187
194.842,179
194.867,166
194.892,148
194.917,132
194.942,126
194.967,136
194.992,157
195.017,181
195.042,203
195.067,218
195.092,226
195.117,228
195.142,225
195.167,223
195.192,222
195.217,222
195.242,218
195.267,207
195.292,189
195.317,167
195.342,146
195.367,127
195.392,111
195.417,96
195.442,82
195.467,69
195.492,57
195.517,49
195.542,53
195.567,70
195.592,98
195.617,126
195.642,145
195.667,154
195.692,157
195.717,162
195.742,170
195.767,179
195.792,187
195.817,195
195.842,206
195.867,217
195.892,224
195.917,222
195.942,211
195.967,195
195.992,176
196.017,153
196.042,123
196.067,91
196.092,65
196.117,51
196.142,53
196.167,64
196.192,77
196.217,88
196.242,95
196.267,99
196.292,103
196.317,108
196.342,116
196.367,127
196.392,140
196.417,150
196.442,154
196.467,150
196.492,139
196.517,124
196.542,108
196.567,94
196.592,81
196.617,69
196.642,56
196.667,43
196.692,37
196.717,48
196.742,78
196.767,122
196.792,169
196.817,209
196.842,238
196.867,257
196.892,269
196.917,276
196.942,283
196.967,292
196.992,303
197.017,314
197.042,320
197.067,323
197.092,323
197.117,323
197.142,318
197.167,305
197.192,283
197.217,259
197.242,235
197.267,210
197.292,178
197.317,135
197.342,90
197.367,51
197.392,21
197.417,1
197.442,-11
197.467,-11
197.492,4
197.517,27
197.542,43
197.567,52
197.592,73
197.617,135
197.642,241
197.667,360
197.692,441
197.717,453
197.742,408
197.767,346
197.792,297
197.817,261
197.842,224
197.867,173
197.892,120
197.917,83
197.942,76
197.967,94
197.992,124
198.017,153
198.042,178
198.067,201
198.092,223
198.117,247
198.142,269
198.167,282
198.192,285
198.217,280
198.242,274
198.267,269
198.292,252
198.317,207
198.342,132
198.367,43
198.392,-33
198.417,-79
198.442,-95
198.467,-97
198.492,-95
198.517,-89
198.542,-70
198.567,-37
198.592,0
198.617,32
198.642,54
198.667,70
198.692,87
198.717,104
198.742,120
198.767,133
198.792,146
198.817,159
198.842,172
198.867,181
198.892,184
198.917,184
198.942,182
198.967,180
198.992,175
199.017,166
199.042,155
199.067,149
199.092,152
199.117,167
199.142,189
199.167,209
199.192,223
199.217,230
199.242,232
199.267,231
199.292,230
199.317,226
199.342,222
199.367,220
199.392,219
199.417,218
199.442,213
199.467,202
199.492,190
199.517,178
199.542,167
199.567,155
199.592,141
199.617,128
199.642,124
199.667,131
199.692,146
199.717,162
199.742,174
199.767,182
199.792,185
199.817,186
199.842,185
199.867,181
199.892,177
199.917,175
199.942,175
199.967,174
199.992,169
200.017,162
200.042,153
200.067,144
200.092,137
200.117,133
200.142,129
200.167,124
200.192,119
200.217,118
200.242,127
200.267,145
200.292,167
200.317,184
200.342,192
200.367,193
200.392,193
200.417,195
200.442,197
200.467,195
200.492,191
200.517,189
200.542,191
200.567,193
200.592,190
200.617,180
200.642,168
200.667,159
200.692,152
200.717,143
200.742,131
200.767,120
200.792,118
200.817,129
200.842,147
200.867,165
200.892,177
200.917,181
200.942,183
200.967,183
200.992,184
201.017,184
201.042,183
201.067,183
201.092,181
201.117,176
201.142,168
201.167,157
201.192,148
201.217,141
201.242,132
201.267,120
201.292,106
201.317,97
201.342,97
201.367,108
201.392,127
201.417,146
201.442,160
201.467,169
201.492,176
201.517,183
201.542,187
201.567,188
201.592,188
201.617,188
201.642,191
201.667,192
201.692,186
201.717,174
201.742,160
201.767,147
201.792,137
201.817,124
201.842,106
201.867,88
201.892,79
201.917,86
201.942,105
201.967,127
201.992,147
202.017,162
202.042,176
202.067,188
202.092,198
202.117,201
202.142,201
202.167,200
202.192,201
202.217,202
202.242,202
202.267,198
202.292,192
202.317,184
202.342,174
202.367,161
202.392,148
202.417,136
202.442,124
202.467,110
202.492,92
202.517,75
202.542,68
202.567,76
202.592,97
202.617,124
202.642,148
202.667,167
202.692,182
202.717,196
202.742,210
202.767,220
202.792,227
202.817,230
202.842,233
202.867,236
202.892,238
202.917,237
202.942,231
202.967,221
202.992,208
203.017,197
203.042,187
203.067,177
203.092,168
203.117,157
203.142,146
203.167,134
203.192,122
203.217,111
203.242,100
203.267,87
203.292,72
203.317,59
203.342,51
203.367,55
203.392,75
203.417,104
203.442,133
203.467,155
203.492,169
203.517,179
203.542,190
203.567,200
203.592,209
203.617,213
203.642,217
203.667,221
203.692,224
203.717,223
203.742,217
203.767,208
203.792,201
203.817,197
203.842,191
203.867,182
203.892,170
203.917,158
203.942,150
203.967,142
203.992,132
204.017,119
204.042,106
204.067,94
204.092,83
204.117,73
204.142,67
204.167,71
204.192,88
204.217,115
204.242,142
204.267,161
204.292,172
204.317,179
204.342,187
204.367,195
204.392,199
204.417,199
204.442,198
204.467,202
204.492,209
204.517,214
204.542,212
204.567,204
204.592,195
204.617,189
204.642,185
204.667,180
204.692,172
204.717,162
204.742,155
204.767,148
204.792,140
204.817,127
204.842,113
204.867,102
204.892,101
204.917,110
204.942,127
204.967,145
204.992,161
205.017,172
205.042,179
205.067,183
205.092,184
205.117,184
205.142,185
205.167,187
205.192,190
205.217,193
205.242,195
205.267,193
205.292,189
205.317,183
205.342,175
205.367,168
205.392,161
205.417,153
205.442,145
205.467,138
205.492,130
205.517,122
205.542,113
205.567,103
205.592,96
205.617,98
205.642,111
205.667,130
205.692,150
205.717,164
205.742,171
205.767,175
205.792,180
205.817,186
205.842,193
205.867,198
205.892,200
205.917,199
205.942,197
205.967,195
205.992,193
206.017,189
206.042,185
206.067,179
206.092,172
206.117,163
206.142,153
206.167,143
206.192,133
206.217,121
206.242,109
206.267,96
206.292,88
206.317,90
206.342,105
206.367,128
206.392,151
206.417,167
206.442,176
206.467,180
206.492,184
206.517,188
206.542,190
206.567,192
206.592,195
206.617,200
206.642,203
206.667,201
206.692,192
206.717,183
206.742,176
206.767,172
206.792,166
206.817,154
206.842,139
206.867,128
206.892,123
206.917,119
206.942,110
206.967,97
206.992,90
207.017,98
207.042,120
207.067,145
207.092,164
207.117,175
207.142,183
207.167,192
207.192,200
207.217,203
207.242,201
207.267,199
207.292,201
207.317,205
207.342,207
207.367,204
207.392,196
207.417,188
207.442,180
207.467,173
207.492,164
207.517,155
207.542,146
207.567,137
207.592,125
207.617,112
207.642,105
207.667,112
207.692,132
207.717,156
207.742,175
207.767,183
207.792,184
207.817,182
207.842,183
207.867,186
207.892,189
207.917,191
207.942,192
207.967,190
207.992,188
208.017,184
208.042,180
208.067,173
208.092,164
208.117,151
208.142,139
208.167,127
208.192,116
208.217,103
208.242,90
208.267,84
208.292,89
208.317,105
208.342,127
208.367,148
208.392,166
208.417,179
208.442,189
208.467,195
208.492,196
208.517,194
208.542,195
208.567,197
208.592,199
208.617,198
208.642,194
208.667,189
208.692,184
208.717,178
208.742,168
208.767,157
208.792,144
208.817,130
208.842,114
208.867,97
208.892,84
208.917,83
208.942,98
208.967,122
208.992,145
209.017,160
209.042,169
209.067,176
209.092,184
209.117,191
209.142,194
209.167,195
209.192,194
209.217,195
209.242,196
209.267,195
209.292,190
209.317,182
209.342,174
209.367,164
209.392,154
209.417,142
209.442,131
209.467,118
209.492,106
209.517,97
209.542,97
209.567,109
209.592,131
209.617,155
209.642,174
209.667,186
209.692,193
209.717,198
209.742,202
209.767,204
209.792,203
209.817,202
209.842,200
209.867,200
209.892,199
209.917,195
209.942,187
209.967,177
209.992,166
210.017,156
210.042,146
210.067,135
210.092,123
210.117,111
210.142,103
210.167,106
210.192,121
210.217,141
210.242,160
210.267,172
210.292,177
210.317,181
210.342,187
210.367,191
210.392,192
210.417,188
210.442,184
210.467,184
210.492,186
210.517,185
210.542,178
210.567,165
210.592,152
210.617,142
210.642,135
210.667,127
210.692,114
210.717,100
210.742,90
210.767,89
210.792,99
210.817,119
210.842,142
210.867,163
210.892,178
210.917,187
210.942,193
210.967,197
210.992,201
211.017,202
211.042,201
211.067,199
211.092,197
211.117,195
211.142,192
211.167,185
211.192,176
211.217,165
211.242,156
211.267,146
211.292,135
211.317,120
211.342,105
211.367,94
211.392,92
211.417,100
211.442,117
211.467,137
211.492,155
211.517,169
211.542,179
211.567,186
211.592,191
211.617,194
211.642,194
211.667,193
211.692,191
211.717,190
211.742,190
211.767,187
211.792,182
211.817,174
211.842,165
211.867,156
211.892,146
211.917,137
211.942,127
211.967,117
211.992,107
212.017,99
212.042,97
212.067,106
212.092,124
212.117,145
212.142,163
212.167,176
212.192,183
212.217,189
212.242,194
212.267,196
212.292,196
212.317,195
212.342,196
212.367,200
212.392,202
212.417,200
212.442,192
212.467,183
212.492,175
212.517,170
212.542,164
212.567,155
212.592,143
212.617,128
212.642,114
212.667,105
212.692,104
212.717,115
212.742,133
212.767,153
212.792,168
212.817,175
212.842,177
212.867,180
212.892,185
212.917,191
212.942,194
212.967,193
212.992,192
213.017,190
213.042,187
213.067,179
213.092,168
213.117,156
213.142,147
213.167,141
213.192,134
213.217,123
213.242,109
213.267,98
213.292,95
213.317,102
213.342,116
213.367,135
213.392,153
213.417,168
213.442,178
213.467,184
213.492,189
213.517,194
213.542,200
213.567,205
213.592,206
213.617,204
213.642,200
213.667,195
213.692,191
213.717,185
213.742,176
213.767,164
213.792,152
213.817,142
213.842,135
213.867,128
213.892,118
213.917,106
213.942,96
213.967,96
213.992,108
214.017,130
214.042,152
214.067,169
214.092,180
214.117,186
214.142,192
214.167,198
214.192,202
214.217,204
214.242,205
214.267,206
214.292,204
214.317,199
214.342,191
214.367,182
214.392,175
214.417,167
214.442,157
214.467,143
214.492,128
214.517,116
214.542,105
214.567,94
214.592,82
214.617,73
214.642,73
214.667,87
214.692,110
214.717,134
214.742,150
214.767,160
214.792,167
214.817,175
214.842,184
214.867,190
214.892,192
214.917,193
214.942,194
214.967,196
214.992,197
215.017,195
215.042,191
215.067,186
215.092,179
215.117,171
215.142,162
215.167,154
215.192,144
215.217,132
215.242,118
215.267,109
215.292,110
215.317,124
215.342,147
215.367,171
215.392,187
215.417,196
215.442,200
215.467,204
215.492,209
215.517,213
215.542,216
215.567,215
215.592,213
215.617,210
215.642,207
215.667,202
215.692,195
215.717,184
215.742,171
215.767,156
215.792,143
215.817,130
215.842,118
215.867,105
215.892,95
215.917,96
215.942,109
215.967,130
215.992,153
216.017,168
216.042,175
216.067,178
216.092,181
216.117,184
216.142,186
216.167,187
216.192,186
216.217,186
216.242,186
216.267,183
216.292,177
216.317,168
216.342,158
216.367,148
216.392,135
216.417,120
216.442,104
216.467,89
216.492,78
216.517,73
216.542,76
216.567,90
216.592,114
216.617,142
216.642,164
216.667,177
216.692,182
216.717,187
216.742,192
216.767,196
216.792,196
216.817,191
216.842,186
216.867,182
216.892,179
216.917,173
216.942,159
216.967,142
216.992,124
217.017,109
217.042,97
217.067,84
217.092,66
217.117,47
217.142,32
217.167,29
217.192,43
217.217,72
217.242,109
217.267,147
217.292,180
217.317,210
217.342,241
217.367,273
217.392,299
217.417,315
217.442,318
217.467,314
217.492,310
217.517,307
217.542,302
217.567,291
217.592,272
217.617,248
217.642,223
217.667,198
217.692,172
217.717,145
217.742,118
217.767,94
217.792,74
217.817,63
217.842,62
217.867,72
217.892,91
217.917,113
217.942,130
217.967,141
217.992,148
218.017,154
218.042,158
218.067,162
218.092,165
218.117,168
218.142,170
218.167,171
218.192,170
218.217,166
218.242,161
218.267,155
218.292,148
218.317,143
218.342,139
218.367,133
218.392,124
218.417,110
218.442,99
218.467,97
218.492,108
218.517,129
218.542,151
218.567,169
218.592,180
218.617,187
218.642,191
218.667,193
218.692,192
218.717,191
218.742,191
218.767,193
218.792,195
218.817,194
218.842,187
218.867,177
218.892,166
218.917,156
218.942,147
218.967,137
218.992,124
219.017,109
219.042,94
219.067,87
219.092,93
219.117,114
219.142,143
219.167,171
219.192,187
219.217,191
219.242,190
219.267,192
219.292,196
219.317,200
219.342,201
219.367,199
219.392,196
219.417,194
219.442,190
219.467,183
219.492,173
219.517,163
219.542,154
219.567,145
219.592,133
219.617,119
219.642,105
219.667,95
219.692,94
219.717,105
219.742,125
219.767,149
219.792,171
219.817,186
219.842,192
219.867,194
219.892,196
219.917,199
219.942,201
219.967,200
219.992,196
220.017,192
220.042,190
220.067,187
220.092,180
220.117,169
220.142,157
220.167,146
220.192,137
220.217,127
220.242,114
220.267,99
220.292,89
220.317,88
220.342,97
220.367,113
220.392,130
220.417,146
220.442,160
220.467,172
220.492,180
220.517,183
220.542,182
220.567,181
220.592,181
220.617,183
220.642,185
220.667,185
220.692,183
220.717,180
220.742,175
220.767,169
220.792,160
220.817,152
220.842,144
220.867,136
220.892,126
220.917,116
220.942,110
220.967,114
220.992,131
221.017,154
221.042,176
221.067,190
221.092,198
221.117,203
221.142,207
221.167,209
221.192,209
221.217,207
221.242,207
221.267,210
221.292,212
221.317,209
221.342,201
221.367,190
221.392,183
221.417,179
221.442,174
221.467,165
221.492,149
221.517,132
221.542,121
221.567,122
221.592,136
221.617,158
221.642,180
221.667,195
221.692,204
221.717,208
221.742,209
221.767,208
221.792,203
221.817,192
221.842,181
221.867,171
221.892,164
221.917,158
221.942,150
221.967,137
221.992,124
222.017,112
222.042,102
222.067,93
222.092,80
222.117,63
222.142,46
222.167,35
222.192,36
222.217,49
222.242,72
222.267,95
222.292,114
222.317,125
222.342,135
222.367,146
222.392,163
222.417,183
222.442,203
222.467,222
222.492,238
222.517,252
222.542,261
222.567,262
222.592,253
222.617,236
222.642,216
222.667,193
222.692,169
222.717,145
222.742,121
222.767,100
222.792,85
222.817,79
222.842,85
222.867,104
222.892,130
222.917,152
222.942,166
222.967,172
222.992,179
223.017,190
223.042,203
223.067,212
223.092,215
223.117,213
223.142,211
223.167,206
223.192,195
223.217,175
223.242,149
223.267,119
223.292,87
223.317,52
223.342,14
223.367,-15
223.392,-30
223.417,-31
223.442,-25
223.467,-16
223.492,0
223.517,28
223.542,62
223.567,88
223.592,96
223.617,101
223.642,130
223.667,199
223.692,295
223.717,385
223.742,435
223.767,443
223.792,425
223.817,401
223.842,382
223.867,363
223.892,340
223.917,315
223.942,291
223.967,269
223.992,254
224.017,248
224.042,256
224.067,278
224.092,309
224.117,344
224.142,376
224.167,396
224.192,396
224.217,367
224.242,315
224.267,256
224.292,207
224.317,170
224.342,134
224.367,87
224.392,31
224.417,-20
224.442,-54
224.467,-71
224.492,-80
224.517,-89
224.542,-100
224.567,-108
224.592,-110
224.617,-104
224.642,-88
224.667,-61
224.692,-26
224.717,9
224.742,37
224.767,57
224.792,72
224.817,90
224.842,109
224.867,127
224.892,143
224.917,158
224.942,175
224.967,190
224.992,198
225.017,196
225.042,187
225.067,178
225.092,172
225.117,165
225.142,155
225.167,144
225.192,139
225.217,147
225.242,166
225.267,189
225.292,210
225.317,225
225.342,234
225.367,238
225.392,239
225.417,237
225.442,235
225.467,235
225.492,235
225.517,235
225.542,233
225.567,227
225.592,219
225.617,209
225.642,196
225.667,181
225.692,164
225.717,147
225.742,134
225.767,130
225.792,134
225.817,148
225.842,167
225.867,184
225.892,197
225.917,203
225.942,204
225.967,203
225.992,201
226.017,198
226.042,197
226.067,195
226.092,193
226.117,189
226.142,183
226.167,175
226.192,167
226.217,158
226.242,145
226.267,127
226.292,107
226.317,92
226.342,91
226.367,103
226.392,123
226.417,145
226.442,162
226.467,174
226.492,182
226.517,185
226.542,183
226.567,180
226.592,177
226.617,177
226.642,179
226.667,180
226.692,175
226.717,166
226.742,155
226.767,144
226.792,133
226.817,119
226.842,106
226.867,97
226.892,98
226.917,110
226.942,128
226.967,147
226.992,162
227.017,172
227.042,179
227.067,183
227.092,185
227.117,185
227.142,184
227.167,182
227.192,183
227.217,184
227.242,183
227.267,178
227.292,168
227.317,157
227.342,148
227.367,138
227.392,126
227.417,110
227.442,97
227.467,94
227.492,105
227.517,128
227.542,153
227.567,174
227.592,187
227.617,196
227.642,201
227.667,204
227.692,205
227.717,205
227.742,205
227.767,204
227.792,202
227.817,198
227.842,192
227.867,184
227.892,175
227.917,162
227.942,147
227.967,131
227.992,116
228.017,103
228.042,93
228.067,88
228.092,92
228.117,107
228.142,129
228.167,151
228.192,168
228.217,177
228.242,181
228.267,184
228.292,187
228.317,190
228.342,190
228.367,189
228.392,188
228.417,188
228.442,187
228.467,181
228.492,172
228.517,161
228.542,151
228.567,143
228.592,136
228.617,125
228.642,113
228.667,101
228.692,97
228.717,104
228.742,122
228.767,144
228.792,165
228.817,181
228.842,190
228.867,195
228.892,199
228.917,203
228.942,205
228.967,206
228.992,207
229.017,208
229.042,209
229.067,208
229.092,202
229.117,193
229.142,181
229.167,169
229.192,157
229.217,147
229.242,136
229.267,125
229.292,113
229.317,105
229.342,104
229.367,112
229.392,129
229.417,149
229.442,165
229.467,175
229.492,179
229.517,180
229.542,180
229.567,182
229.592,183
229.617,185
229.642,185
229.667,185
229.692,182
229.717,177
229.742,170
229.767,161
229.792,152
229.817,142
229.842,131
229.867,120
229.892,108
229.917,99
229.942,97
229.967,103
229.992,118
230.017,140
230.042,161
230.067,178
230.092,188
230.117,195
230.142,200
230.167,204
230.192,208
230.217,208
230.242,207
230.267,204
230.292,201
230.317,197
230.342,192
230.367,184
230.392,173
230.417,161
230.442,149
230.467,138
230.492,124
230.517,109
230.542,93
230.567,82
230.592,82
230.617,94
230.642,115
230.667,136
230.692,152
230.717,162
230.742,168
230.767,172
230.792,175
230.817,177
230.842,179
230.867,182
230.892,185
230.917,187
230.942,183
230.967,177
230.992,169
231.017,160
231.042,151
231.067,140
231.092,128
231.117,118
231.142,107
231.167,94
231.192,78
231.217,67
231.242,68
231.267,85
231.292,111
231.317,136
231.342,153
231.367,164
231.392,173
231.417,185
231.442,198
231.467,210
231.492,219
231.517,229
231.542,240
231.567,247
231.592,249
231.617,246
231.642,241
231.667,237
231.692,232
231.717,224
231.742,212
231.767,195
231.792,177
231.817,161
231.842,152
231.867,152
231.892,163
231.917,180
231.942,192
231.967,196
231.992,192
232.017,185
232.042,181
232.067,178
232.092,174
232.117,167
232.142,161
232.167,160
232.192,162
232.217,162
232.242,156
232.267,144
232.292,130
232.317,118
232.342,105
232.367,91
232.392,74
232.417,60
232.442,54
232.467,60
232.492,77
232.517,99
232.542,123
232.567,144
232.592,161
232.617,172
232.642,179
232.667,182
232.692,184
232.717,185
232.742,184
232.767,182
232.792,181
232.817,181
232.842,181
232.867,178
232.892,170
232.917,158
232.942,142
232.967,125
232.992,112
233.017,108
233.042,114
233.067,131
233.092,153
233.117,175
233.142,189
233.167,194
233.192,193
233.217,190
233.242,191
233.267,194
233.292,197
233.317,198
233.342,197
233.367,196
233.392,196
233.417,191
233.442,181
233.467,165
233.492,150
233.517,139
233.542,130
233.567,120
233.592,105
233.617,92
233.642,88
233.667,99
233.692,118
233.717,140
233.742,157
233.767,169
233.792,180
233.817,191
233.842,198
233.867,199
233.892,197
233.917,196
233.942,199
233.967,204
233.992,205
234.017,199
234.042,190
234.067,180
234.092,170
234.117,162
234.142,152
234.167,139
234.192,127
234.217,114
234.242,102
234.267,92
234.292,87
234.317,92
234.342,107
234.367,130
234.392,153
234.417,168
234.442,176
234.467,179
234.492,185
234.517,192
234.542,200
234.567,205
234.592,206
234.617,206
234.642,206
234.667,206
234.692,203
234.717,195
234.742,184
234.767,174
234.792,166
234.817,158
234.842,149
234.867,137
234.892,123
234.917,111
234.942,104
234.967,105
234.992,117
235.017,137
235.042,159
235.067,175
235.092,183
235.117,186
235.142,188
235.167,192
235.192,199
235.217,202
235.242,202
235.267,201
235.292,200
235.317,201
235.342,199
235.367,193
235.392,184
235.417,177
235.442,172
235.467,168
235.492,160
235.517,147
235.542,134
235.567,128
235.592,132
235.617,146
235.642,164
235.667,179
235.692,189
235.717,193
235.742,193
235.767,190
235.792,186
235.817,182
235.842,180
235.867,178
235.892,176
235.917,170
235.942,161
235.967,150
235.992,138
236.017,126
236.042,116
236.067,108
236.092,99
236.117,89
236.142,81
236.167,80
236.192,91
236.217,114
236.242,141
236.267,163
236.292,177
236.317,184
236.342,192
236.367,201
236.392,209
236.417,211
236.442,204
236.467,192
236.492,180
236.517,167
236.542,152
236.567,133
236.592,111
236.617,93
236.642,80
236.667,72
236.692,62
236.717,50
236.742,40
236.767,38
236.792,52
236.817,82
236.842,122
236.867,160
236.892,183
236.917,186
236.942,174
236.967,155
236.992,138
237.017,125
237.042,109
237.067,92
237.092,77
237.117,71
237.142,71
237.167,73
237.192,73
237.217,80
237.242,101
237.267,134
237.292,167
237.317,188
237.342,197
237.367,211
237.392,242
237.417,285
237.442,321
237.467,338
237.492,334
237.517,321
237.542,307
237.567,289
237.592,266
237.617,240
237.642,220
237.667,206
237.692,197
237.717,193
237.742,208
237.767,251
237.792,317
237.817,375
237.842,389
237.867,348
237.892,269
237.917,187
237.942,128
237.967,94
237.992,75
238.017,66
238.042,68
238.067,87
238.092,121
238.117,160
238.142,195
238.167,225
238.192,249
238.217,273
238.242,297
238.267,322
238.292,341
238.317,343
238.342,323
238.367,281
238.392,231
238.417,179
238.442,126
238.467,64
238.492,-11
238.517,-88
238.542,-145
238.567,-164
238.592,-147
238.617,-108
238.642,-65
238.667,-29
238.692,-2
238.717,19
238.742,38
238.767,56
238.792,72
238.817,86
238.842,97
238.867,105
238.892,114
238.917,123
238.942,133
238.967,142
238.992,147
239.017,151
239.042,153
239.067,154
239.092,152
239.117,147
239.142,145
239.167,154
239.192,176
239.217,204
239.242,229
239.267,243
239.292,247
239.317,247
239.342,245
239.367,241
239.392,236
239.417,231
239.442,229
239.467,228
239.492,224
239.517,217
239.542,206
239.567,194
239.592,182
239.617,169
239.642,154
239.667,139
239.692,129
239.717,131
239.742,143
239.767,161
239.792,178
239.817,191
239.842,199
239.867,201
239.892,199
239.917,196
239.942,193
239.967,193
239.992,195
240.017,196
240.042,192
240.067,184
240.092,175
240.117,169
240.142,167
240.167,163
240.192,155
240.217,140
240.242,125
240.267,118
240.292,123
240.317,139
240.342,157
240.367,172
240.392,179
240.417,180
240.442,179
240.467,178
240.492,178
240.517,178
240.542,178
240.567,178
240.592,177
240.617,174
240.642,166
240.667,156
240.692,145
240.717,136
240.742,129
240.767,119
240.792,109
240.817,100
240.842,100
240.867,113
240.892,134
240.917,157
240.942,172
240.967,178
240.992,177
241.017,175
241.042,174
241.067,175
241.092,173
241.117,170
241.142,165
241.167,160
241.192,155
241.217,149
241.242,141
241.267,130
241.292,116
241.317,102
241.342,91
241.367,87
241.392,93
241.417,109
241.442,131
241.467,150
241.492,164
241.517,174
241.542,182
241.567,191
241.592,197
241.617,198
241.642,195
241.667,193
241.692,196
241.717,201
241.742,204
241.767,201
241.792,194
241.817,185
241.842,176
241.867,166
241.892,153
241.917,139
241.942,129
241.967,129
241.992,139
242.017,155
242.042,173
242.067,187
242.092,196
242.117,201
242.142,204
242.167,207
242.192,210
242.217,210
242.242,207
242.267,204
242.292,201
242.317,200
242.342,197
242.367,189
242.392,176
242.417,162
242.442,151
242.467,144
242.492,135
242.517,123
242.542,109
242.567,98
242.592,95
242.617,103
242.642,118
242.667,135
242.692,150
242.717,163
242.742,175
242.767,186
242.792,195
242.817,199
242.842,202
242.867,205
242.892,210
242.917,212
242.942,210
242.967,202
242.992,191
243.017,180
243.042,169
243.067,154
243.092,136
243.117,119
243.142,105
243.167,90
243.192,71
243.217,45
243.242,18
243.267,-1
243.292,-12
243.317,-17
243.342,-19
243.367,-18
243.392,-13
243.417,-7
243.442,-8
243.467,-16
243.492,-26
243.517,-31
243.542,-32
243.567,-35
243.592,-48
243.617,-66
243.642,-81
243.667,-93
243.692,-106
243.717,-125
243.742,-142
243.767,-145
243.792,-137
243.817,-128
243.842,-127
243.867,-125
243.892,-110
243.917,-81
243.942,-57
243.967,-41
243.992,-6
244.017,96
244.042,290
244.067,542
244.092,784
244.117,973
244.142,1112
244.167,1227
244.192,1317
244.217,1348
244.242,1289
244.267,1155
244.292,1003
244.317,881
244.342,789
244.367,695
244.392,581
244.417,457
244.442,351
244.467,274
244.492,212
244.517,151
244.542,93
244.567,50
244.592,25
244.617,6
244.642,-16
244.667,-39
244.692,-53
244.717,-54
244.742,-57
244.767,-75
244.792,-105
244.817,-131
244.842,-138
244.867,-133
244.892,-132
244.917,-148
244.942,-177
244.967,-206
244.992,-223
245.017,-224
245.042,-212
245.067,-189
245.092,-156
245.117,-118
245.142,-79
245.167,-39
245.192,1
245.217,45
245.242,92
245.267,145
245.292,207
245.317,282
245.342,367
245.367,450
245.392,517
245.417,553
245.442,554
245.467,529
245.492,491
245.517,454
245.542,427
245.567,407
245.592,388
245.617,365
245.642,341
245.667,324
245.692,319
245.717,320
245.742,309
245.767,272
245.792,206
245.817,122
245.842,36
245.867,-45
245.892,-118
245.917,-178
245.942,-222
245.967,-251
245.992,-280
246.017,-321
246.042,-377
246.067,-430
246.092,-466
246.117,-487
246.142,-516
246.167,-568
246.192,-625
246.217,-638
246.242,-564
246.267,-406
246.292,-214
246.317,-48
246.342,60
246.367,125
246.392,176
246.417,237
246.442,311
246.467,399
246.492,505
246.517,633
246.542,771
246.567,895
246.592,978
246.617,1008
246.642,991
246.667,940
246.692,868
246.717,788
246.742,713
246.767,656
246.792,615
246.817,575
246.842,521
246.867,450
246.892,379
246.917,323
246.942,284
246.967,250
246.992,208
247.017,160
247.042,121
247.067,100
247.092,94
247.117,93
247.142,90
247.167,87
247.192,89
247.217,99
247.242,118
247.267,146
247.292,185
247.317,232
247.342,271
247.367,286
247.392,266
247.417,220
247.442,169
247.467,129
247.492,106
247.517,90
247.542,75
247.567,60
247.592,49
247.617,47
247.642,49
247.667,50
247.692,44
247.717,33
247.742,20
247.767,11
247.792,9
247.817,10
247.842,13
247.867,14
247.892,9
247.917,-1
247.942,-14
247.967,-26
247.992,-36
248.017,-48
248.042,-66
248.067,-89
248.092,-112
248.117,-130
248.142,-146
248.167,-167
248.192,-197
248.217,-230
248.242,-257
248.267,-267
248.292,-253
248.317,-208
248.342,-126
248.367,-10
248.392,111
248.417,200
248.442,235
248.467,238
248.492,274
248.517,409
248.542,654
248.567,951
248.592,1205
248.617,1348
248.642,1366
248.667,1288
248.692,1153
248.717,984
248.742,789
248.767,585
248.792,396
248.817,248
248.842,154
248.867,107
248.892,95
248.917,108
248.942,141
248.967,189
248.992,244
249.017,291
249.042,318
249.067,319
249.092,298
249.117,264
249.142,227
249.167,190
249.192,155
249.217,122
249.242,94
249.267,71
249.292,50
249.317,22
249.342,-15
249.367,-55
249.392,-90
249.417,-115
249.442,-134
249.467,-150
249.492,-163
249.517,-167
249.542,-163
249.567,-158
249.592,-162
249.617,-174
249.642,-185
249.667,-187
249.692,-185
249.717,-190
249.742,-202
249.767,-212
249.792,-207
249.817,-188
249.842,-166
249.867,-153
249.892,-150
249.917,-147
249.942,-141
249.967,-130
249.992,-117
250.017,-98
250.042,-65
250.067,-10
250.092,60
250.117,137
250.142,208
250.167,270
250.192,320
250.217,355
250.242,379
250.267,407
250.292,453
250.317,522
250.342,597
250.367,653
250.392,671
250.417,652
250.442,614
250.467,572
250.492,530
250.517,486
250.542,441
250.567,402
250.592,379
250.617,375
250.642,383
250.667,395
250.692,402
250.717,396
250.742,373
250.767,331
250.792,279
250.817,235
250.842,211
250.867,212
250.892,222
250.917,227
250.942,221
250.967,208
250.992,199
251.017,193
251.042,181
251.067,158
251.092,128
251.117,104
251.142,93
251.167,89
251.192,81
251.217,62
251.242,35
251.267,12
251.292,-3
251.317,-13
251.342,-18
251.367,-19
251.392,-9
251.417,8
251.442,27
251.467,40
251.492,46
251.517,51
251.542,61
251.567,73
251.592,81
251.617,80
251.642,75
251.667,77
251.692,88
251.717,108
251.742,128
251.767,143
251.792,151
251.817,155
251.842,155
251.867,150
251.892,140
251.917,128
251.942,117
251.967,109
251.992,101
252.017,91
252.042,76
252.067,55
252.092,34
252.117,19
252.142,18
252.167,32
252.192,56
252.217,83
252.242,109
252.267,133
252.292,158
252.317,184
252.342,208
252.367,226
252.392,240
252.417,253
252.442,266
252.467,279
252.492,287
252.517,287
252.542,282
252.567,276
252.592,270
252.617,263
252.642,254
252.667,242
252.692,227
252.717,211
252.742,196
252.767,181
252.792,165
252.817,149
252.842,131
252.867,113
252.892,97
252.917,91
252.942,100
252.967,125
252.992,161
253.017,199
253.042,234
253.067,262
253.092,284
253.117,300
253.142,308
253.167,308
253.192,302
253.217,293
253.242,283
253.267,274
253.292,268
253.317,266
253.342,268
253.367,268
253.392,260
253.417,242
253.442,217
253.467,193
253.492,176
253.517,161
253.542,143
253.567,120
253.592,100
253.617,93
253.642,103
253.667,123
253.692,136
253.717,134
253.742,118
253.767,94
253.792,67
253.817,36
253.842,2
253.867,-31
253.892,-52
253.917,-51
253.942,-28
253.967,5
253.992,37
254.017,62
254.042,83
254.067,105
254.092,126
254.117,138
254.142,138
254.167,131
254.192,127
254.217,131
254.242,133
254.267,123
254.292,100
254.317,79
254.342,77
254.367,101
254.392,137
254.417,166
254.442,181
254.467,185
254.492,190
254.517,197
254.542,203
254.567,201
254.592,194
254.617,191
254.642,196
254.667,206
254.692,215
254.717,219
254.742,222
254.767,228
254.792,240
254.817,256
254.842,270
254.867,279
254.892,278
254.917,269
254.942,253
254.967,234
254.992,213
255.017,190
255.042,163
255.067,134
255.092,113
255.117,107
255.142,120
255.167,140
255.192,155
255.217,158
255.242,153
255.267,147
255.292,145
255.317,143
255.342,137
255.367,126
255.392,120
255.417,128
255.442,152
255.467,184
255.492,212
255.517,227
255.542,227
255.567,221
255.592,218
255.617,222
255.642,226
255.667,225
255.692,216
255.717,203
255.742,195
255.767,192
255.792,189
255.817,178
255.842,156
255.867,134
255.892,121
255.917,122
255.942,130
255.967,136
255.992,135
256.017,130
256.042,126
256.067,126
256.092,130
256.117,135
256.142,143
256.167,154
256.192,167
256.217,177
256.242,181
256.267,180
256.292,176
256.317,171
256.342,162
256.367,148
256.392,131
256.417,116
256.442,105
256.467,94
256.492,77
256.517,59
256.542,49
256.567,58
256.592,86
256.617,122
256.642,152
256.667,172
256.692,186
256.717,200
256.742,216
256.767,227
256.792,232
256.817,232
256.842,233
256.867,238
256.892,241
256.917,238
256.942,228
256.967,215
256.992,202
257.017,189
257.042,172
257.067,152
257.092,135
257.117,122
257.142,110
257.167,91
257.192,66
257.217,44
257.242,36
257.267,50
257.292,80
257.317,113
257.342,142
257.367,166
257.392,188
257.417,210
257.442,225
257.467,229
257.492,225
257.517,220
257.542,220
257.567,223
257.592,224
257.617,221
257.642,217
257.667,215
257.692,213
257.717,208
257.742,196
257.767,181
257.792,169
257.817,161
257.842,150
257.867,130
257.892,105
257.917,84
257.942,81
257.967,96
257.992,123
258.017,149
258.042,168
258.067,181
258.092,190
258.117,195
258.142,196
258.167,192
258.192,186
258.217,179
258.242,172
258.267,166
258.292,160
258.317,155
258.342,150
258.367,144
258.392,132
258.417,117
258.442,103
258.467,94
258.492,87
258.517,76
258.542,60
258.567,43
258.592,37
258.617,50
258.642,79
258.667,115
258.692,147
258.717,171
258.742,189
258.767,204
258.792,216
258.817,224
258.842,228
258.867,229
258.892,230
258.917,231
258.942,231
258.967,228
258.992,222
259.017,211
259.042,196
259.067,177
259.092,156
259.117,137
259.142,121
259.167,105
259.192,86
259.217,66
259.242,49
259.267,46
259.292,61
259.317,89
259.342,121
259.367,148
259.392,169
259.417,188
259.442,207
259.467,226
259.492,240
259.517,248
259.542,251
259.567,252
259.592,255
259.617,255
259.642,250
259.667,238
259.692,223
259.717,210
259.742,199
259.767,190
259.792,179
259.817,164
259.842,147
259.867,127
259.892,104
259.917,77
259.942,53
259.967,41
259.992,50
260.017,78
260.042,114
260.067,144
260.092,163
260.117,175
260.142,187
260.167,200
260.192,209
260.217,211
260.242,207
260.267,204
260.292,208
260.317,214
260.342,216
260.367,209
260.392,195
260.417,181
260.442,170
260.467,158
260.492,143
260.517,127
260.542,111
260.567,98
260.592,84
260.617,67
260.642,49
260.667,38
260.692,42
260.717,61
260.742,89
260.767,117
260.792,138
260.817,154
260.842,168
260.867,181
260.892,192
260.917,199
260.942,200
260.967,198
260.992,195
261.017,195
261.042,196
261.067,194
261.092,186
261.117,175
261.142,164
261.167,155
261.192,149
261.217,142
261.242,136
261.267,136
261.292,144
261.317,156
261.342,162
261.367,155
261.392,144
261.417,144
261.442,161
261.467,190
261.492,217
261.517,230
261.542,233
261.567,238
261.592,249
261.617,264
261.642,274
261.667,274
261.692,267
261.717,261
261.742,258
261.767,255
261.792,247
261.817,235
261.842,220
261.867,207
261.892,195
261.917,182
261.942,166
261.967,147
261.992,128
262.017,112
262.042,98
262.067,83
262.092,63
262.117,44
262.142,34
262.167,39
262.192,59
262.217,82
262.242,101
262.267,114
262.292,127
262.317,141
262.342,152
262.367,153
262.392,145
262.417,136
262.442,131
262.467,128
262.492,116
262.517,92
262.542,64
262.567,42
262.592,31
262.617,27
262.642,21
262.667,12
262.692,7
262.717,12
262.742,29
262.767,56
262.792,88
262.817,113
262.842,121
262.867,106
262.892,76
262.917,49
262.942,40
262.967,48
262.992,68
263.017,98
263.042,151
263.067,232
263.092,324
263.117,389
263.142,404
263.167,385
263.192,378
263.217,423
263.242,512
263.267,599
263.292,638
263.317,611
263.342,542
263.367,461
263.392,387
263.417,320
263.442,254
263.467,192
263.492,138
263.517,96
263.542,62
263.567,29
263.592,-7
263.617,-45
263.642,-76
263.667,-91
263.692,-84
263.717,-62
263.742,-35
263.767,-13
263.792,2
263.817,19
263.842,40
263.867,64
263.892,84
263.917,97
263.942,105
263.967,113
263.992,123
264.017,131
264.042,132
264.067,130
264.092,129
264.117,136
264.142,151
264.167,176
264.192,210
264.217,249
264.242,284
264.267,302
264.292,298
264.317,279
264.342,257
264.367,238
264.392,220
264.417,193
264.442,154
264.467,113
264.492,83
264.517,72
264.542,78
264.567,90
264.592,102
264.617,113
264.642,126
264.667,144
264.692,167
264.717,192
264.742,216
264.767,237
264.792,253
264.817,265
264.842,274
264.867,283
264.892,292
264.917,299
264.942,302
264.967,299
264.992,294
265.017,289
265.042,282
265.067,267
265.092,242
265.117,211
265.142,180
265.167,155
265.192,133
265.217,109
265.242,83
265.267,65
265.292,62
265.317,75
265.342,91
265.367,100
265.392,99
265.417,93
265.442,91
265.467,93
265.492,95
265.517,90
265.542,80
265.567,70
265.592,63
265.617,61
265.642,62
265.667,63
265.692,65
265.717,65
265.742,62
265.767,53
265.792,41
265.817,32
