df_hash,22ZHK4.J6TT4M
device,HZ2X61
project_hash,29R7
project_name,istanbul_aydin_university
person_hash,29R7.YU3D
person_label,V78
date_time_start,2025-11-03_14-27-12.158000_+03
date_time_start_unix,1762165632.158
date_time_end,2025-11-03_14-36-02.613000_+03
length_difference_noticed,no

time,ppg_med
2.401,373
2.426,429
2.451,517
2.476,565
2.501,546
2.526,526
2.551,578
2.576,672
2.601,707
2.626,650
2.651,588
2.676,620
2.701,708
2.726,713
2.751,589
2.776,457
2.801,451
2.826,516
2.851,469
2.876,248
2.901,17
2.926,-47
2.951,-16
2.976,-133
3.001,-477
3.026,-831
3.051,-964
3.076,-968
3.101,-1159
3.126,-1638
3.151,-2122
3.176,-2313
3.201,-2330
3.226,-2576
3.251,-3179
3.276,-3777
3.301,-3988
3.326,-3964
3.351,-4216
3.376,-4904
3.401,-5568
3.426,-5727
3.451,-5574
3.476,-5750
3.501,-6454
3.526,-7109
3.551,-7114
3.576,-6709
3.601,-6697
3.626,-7327
3.651,-7876
3.676,-7599
3.701,-6794
3.726,-6465
3.751,-6923
3.776,-7268
3.801,-6570
3.826,-5205
3.851,-4426
3.876,-4630
3.901,-4691
3.926,-3443
3.951,-1354
3.976,-11
4.001,76
4.026,328
4.051,2236
4.076,5206
4.101,7196
4.126,7529
4.151,8039
4.176,10686
4.201,14709
4.226,17390
4.251,17783
4.276,18346
4.301,21803
4.326,27156
4.351,30556
4.376,30534
4.401,30630
4.426,32767
4.451,32767
4.476,32767
4.501,32767
4.526,32767
4.551,32767
4.576,32767
4.601,32767
4.626,32767
4.651,9725
4.676,-32768
4.701,-32768
4.726,-32768
4.751,-32768
4.776,-32768
4.801,-32768
4.826,-32768
4.851,-32768
4.876,-32768
4.901,-31421
4.926,-29847
4.951,-30390
4.976,-28438
5.001,-23431
5.026,-18932
5.051,-17493
5.076,-17535
5.101,-15904
5.126,-12127
5.151,-8694
5.176,-7496
5.201,-7449
5.226,-6236
5.251,-3460
5.276,-955
5.301,-150
5.326,-225
5.351,600
5.376,2638
5.401,4448
5.426,4888
5.451,4581
5.476,4933
5.501,6207
5.526,7286
5.551,7275
5.576,6678
5.601,6623
5.626,7331
5.651,7913
5.676,7652
5.701,6936
5.726,6656
5.751,6982
5.776,7210
5.801,6779
5.826,6011
5.851,5614
5.876,5707
5.901,5718
5.926,5208
5.951,4463
5.976,4067
6.001,4110
6.026,4107
6.051,3681
6.076,3042
6.101,2660
6.126,2618
6.151,2542
6.176,2137
6.201,1577
6.226,1240
6.251,1203
6.276,1175
6.301,911
6.326,526
6.351,299
6.376,288
6.401,272
6.426,75
6.451,-211
6.476,-370
6.501,-357
6.526,-340
6.551,-456
6.576,-637
6.601,-715
6.626,-647
6.651,-547
6.676,-522
6.701,-539
6.726,-504
6.751,-406
6.776,-332
6.801,-342
6.826,-386
6.851,-373
6.876,-291
6.901,-214
6.926,-198
6.951,-212
6.976,-189
7.001,-113
7.026,-39
7.051,-12
7.076,-13
7.101,10
7.126,73
7.151,133
7.176,152
7.201,145
7.226,142
7.251,131
7.276,122
7.301,118
7.326,129
7.351,165
7.376,229
7.401,308
7.426,377
7.451,417
7.476,427
7.501,419
7.526,402
7.551,371
7.576,319
7.601,246
7.626,167
7.651,95
7.676,38
7.701,-10
7.726,-55
7.751,-94
7.776,-120
7.801,-129
7.826,-125
7.851,-117
7.876,-109
7.901,-102
7.926,-95
7.951,-89
7.976,-83
8.001,-72
8.026,-45
8.051,1
8.076,63
8.101,123
8.126,168
8.151,195
8.176,212
8.201,228
8.226,244
8.251,257
8.276,266
8.301,274
8.326,287
8.351,302
8.376,311
8.401,307
8.426,290
8.451,266
8.476,242
8.501,216
8.526,192
8.551,170
8.576,152
8.601,133
8.626,106
8.651,71
8.676,47
8.701,53
8.726,97
8.751,160
8.776,211
8.801,231
8.826,223
8.851,205
8.876,191
8.901,177
8.926,156
8.951,130
8.976,109
9.001,102
9.026,103
9.051,104
9.076,98
9.101,89
9.126,84
9.151,81
9.176,75
9.201,65
9.226,53
9.251,43
9.276,29
9.301,8
9.326,-12
9.351,-16
9.376,13
9.401,74
9.426,143
9.451,196
9.476,227
9.501,242
9.526,251
9.551,252
9.576,244
9.601,228
9.626,215
9.651,212
9.676,216
9.701,215
9.726,206
9.751,193
9.776,182
9.801,173
9.826,161
9.851,146
9.876,135
9.901,131
9.926,126
9.951,111
9.976,88
10.001,78
10.026,103
10.051,165
10.076,239
10.101,298
10.126,328
10.151,339
10.176,343
10.201,345
10.226,341
10.251,328
10.276,316
10.301,310
10.326,308
10.351,299
10.376,275
10.401,239
10.426,199
10.451,159
10.476,121
10.501,86
10.526,54
10.551,23
10.576,-13
10.601,-57
10.626,-100
10.651,-120
10.676,-101
10.701,-49
10.726,10
10.751,54
10.776,77
10.801,88
10.826,95
10.851,97
10.876,90
10.901,76
10.926,69
10.951,75
10.976,91
11.001,106
11.026,112
11.051,111
11.076,107
11.101,106
11.126,107
11.151,111
11.176,116
11.201,116
11.226,105
11.251,87
11.276,78
11.301,96
11.326,146
11.351,211
11.376,264
11.401,291
11.426,296
11.451,292
11.476,283
11.501,269
11.526,247
11.551,227
11.576,217
11.601,217
11.626,219
11.651,213
11.676,200
11.701,189
11.726,181
11.751,172
11.776,157
11.801,137
11.826,117
11.851,98
11.876,75
11.901,50
11.926,37
11.951,55
11.976,104
12.001,163
12.026,205
12.051,217
12.076,210
12.101,203
12.126,201
12.151,194
12.176,177
12.201,153
12.226,137
12.251,134
12.276,137
12.301,133
12.326,121
12.351,108
12.376,100
12.401,95
12.426,90
12.451,83
12.476,81
12.501,80
12.526,75
12.551,61
12.576,42
12.601,37
12.626,61
12.651,112
12.676,174
12.701,229
12.726,265
12.751,284
12.776,287
12.801,281
12.826,270
12.851,262
12.876,260
12.901,260
12.926,253
12.951,235
12.976,210
13.001,187
13.026,172
13.051,166
13.076,160
13.101,149
13.126,127
13.151,100
13.176,74
13.201,54
13.226,40
13.251,24
13.276,1
13.301,-20
13.326,-26
13.351,-1
13.376,53
13.401,118
13.426,172
13.451,204
13.476,216
13.501,220
13.526,219
13.551,213
13.576,203
13.601,194
13.626,191
13.651,195
13.676,200
13.701,202
13.726,200
13.751,193
13.776,183
13.801,172
13.826,161
13.851,153
13.876,148
13.901,141
13.926,128
13.951,108
13.976,86
14.001,63
14.026,37
14.051,7
14.076,-17
14.101,-20
14.126,11
14.151,73
14.176,144
14.201,201
14.226,235
14.251,248
14.276,253
14.301,253
14.326,246
14.351,230
14.376,210
14.401,198
14.426,198
14.451,206
14.476,212
14.501,206
14.526,187
14.551,161
14.576,137
14.601,117
14.626,104
14.651,93
14.676,83
14.701,70
14.726,52
14.751,29
14.776,8
14.801,0
14.826,17
14.851,64
14.876,125
14.901,180
14.926,215
14.951,229
14.976,232
15.001,230
15.026,225
15.051,214
15.076,201
15.101,194
15.126,199
15.151,210
15.176,214
15.201,207
15.226,190
15.251,170
15.276,154
15.301,140
15.326,126
15.351,111
15.376,93
15.401,68
15.426,39
15.451,12
15.476,7
15.501,34
15.526,87
15.551,146
15.576,189
15.601,209
15.626,215
15.651,218
15.676,219
15.701,213
15.726,199
15.751,182
15.776,171
15.801,169
15.826,168
15.851,161
15.876,148
15.901,134
15.926,124
15.951,115
15.976,105
16.001,95
16.026,91
16.051,89
16.076,81
16.101,60
16.126,32
16.151,17
16.176,32
16.201,80
16.226,144
16.251,200
16.276,238
16.301,258
16.326,266
16.351,266
16.376,257
16.401,242
16.426,228
16.451,222
16.476,227
16.501,234
16.526,235
16.551,226
16.576,212
16.601,200
16.626,192
16.651,185
16.676,177
16.701,163
16.726,144
16.751,120
16.776,90
16.801,50
16.826,1
16.851,-46
16.876,-78
16.901,-76
16.926,-37
16.951,26
16.976,93
17.001,145
17.026,177
17.051,195
17.076,204
17.101,208
17.126,205
17.151,198
17.176,197
17.201,205
17.226,222
17.251,235
17.276,238
17.301,231
17.326,222
17.351,213
17.376,203
17.401,189
17.426,173
17.451,160
17.476,149
17.501,137
17.526,118
17.551,96
17.576,77
17.601,61
17.626,40
17.651,11
17.676,-18
17.701,-28
17.726,-5
17.751,48
17.776,110
17.801,161
17.826,194
17.851,214
17.876,228
17.901,234
17.926,229
17.951,217
17.976,209
18.001,210
18.026,219
18.051,225
18.076,222
18.101,213
18.126,201
18.151,190
18.176,178
18.201,166
18.226,157
18.251,150
18.276,140
18.301,125
18.326,108
18.351,94
18.376,85
18.401,74
18.426,55
18.451,35
18.476,31
18.501,58
18.526,111
18.551,170
18.576,213
18.601,232
18.626,237
18.651,235
18.676,229
18.701,218
18.726,202
18.751,188
18.776,182
18.801,184
18.826,187
18.851,183
18.876,168
18.901,146
18.926,122
18.951,102
18.976,89
19.001,81
19.026,77
19.051,74
19.076,64
19.101,45
19.126,15
19.151,-14
19.176,-28
19.201,-10
19.226,38
19.251,103
19.276,162
19.301,199
19.326,217
19.351,229
19.376,240
19.401,247
19.426,244
19.451,232
19.476,223
19.501,223
19.526,229
19.551,229
19.576,218
19.601,201
19.626,187
19.651,177
19.676,163
19.701,142
19.726,117
19.751,95
19.776,73
19.801,47
19.826,17
19.851,-4
19.876,2
19.901,40
19.926,95
19.951,144
19.976,176
20.001,195
20.026,213
20.051,231
20.076,239
20.101,234
20.126,219
20.151,208
20.176,208
20.201,214
20.226,217
20.251,210
20.276,197
20.301,182
20.326,167
20.351,153
20.376,137
20.401,122
20.426,110
20.451,101
20.476,89
20.501,69
20.526,38
20.551,4
20.576,-18
20.601,-14
20.626,20
20.651,77
20.676,136
20.701,182
20.726,211
20.751,230
20.776,245
20.801,253
20.826,248
20.851,233
20.876,217
20.901,211
20.926,216
20.951,224
20.976,225
21.001,216
21.026,204
21.051,194
21.076,187
21.101,178
21.126,166
21.151,152
21.176,135
21.201,118
21.226,100
21.251,83
21.276,70
21.301,55
21.326,33
21.351,5
21.376,-17
21.401,-16
21.426,18
21.451,76
21.476,135
21.501,179
21.526,202
21.551,214
21.576,221
21.601,226
21.626,223
21.651,214
21.676,205
21.701,202
21.726,206
21.751,211
21.776,210
21.801,203
21.826,193
21.851,186
21.876,184
21.901,185
21.926,184
21.951,180
21.976,170
22.001,156
22.026,139
22.051,121
22.076,104
22.101,89
22.126,77
22.151,64
22.176,44
22.201,15
22.226,-11
22.251,-19
22.276,4
22.301,55
22.326,115
22.351,160
22.376,184
22.401,195
22.426,204
22.451,213
22.476,216
22.501,207
22.526,193
22.551,187
22.576,194
22.601,208
22.626,217
22.651,213
22.676,201
22.701,189
22.726,181
22.751,177
22.776,170
22.801,159
22.826,144
22.851,131
22.876,121
22.901,112
22.926,98
22.951,76
22.976,49
23.001,32
23.026,37
23.051,69
23.076,117
23.101,163
23.126,194
23.151,210
23.176,218
23.201,224
23.226,226
23.251,218
23.276,202
23.301,189
23.326,186
23.351,192
23.376,197
23.401,191
23.426,176
23.451,159
23.476,146
23.501,137
23.526,127
23.551,113
23.576,98
23.601,84
23.626,64
23.651,36
23.676,5
23.701,-14
23.726,-3
23.751,40
23.776,100
23.801,154
23.826,186
23.851,202
23.876,212
23.901,222
23.926,227
23.951,224
23.976,214
24.001,206
24.026,204
24.051,206
24.076,201
24.101,188
24.126,173
24.151,162
24.176,153
24.201,140
24.226,122
24.251,102
24.276,87
24.301,74
24.326,54
24.351,24
24.376,-2
24.401,-4
24.426,30
24.451,91
24.476,154
24.501,200
24.526,224
24.551,236
24.576,245
24.601,248
24.626,241
24.651,226
24.676,210
24.701,202
24.726,203
24.751,207
24.776,207
24.801,198
24.826,184
24.851,170
24.876,159
24.901,148
24.926,135
24.951,118
24.976,100
25.001,83
25.026,67
25.051,47
25.076,20
25.101,-6
25.126,-16
25.151,7
25.176,64
25.201,137
25.226,197
25.251,232
25.276,244
25.301,246
25.326,245
25.351,239
25.376,226
25.401,212
25.426,207
25.451,213
25.476,222
25.501,224
25.526,216
25.551,205
25.576,200
25.601,200
25.626,193
25.651,174
25.676,146
25.701,117
25.726,92
25.751,72
25.776,56
25.801,44
25.826,36
25.851,26
25.876,6
25.901,-21
25.926,-41
25.951,-35
25.976,5
26.001,69
26.026,134
26.051,182
26.076,209
26.101,224
26.126,233
26.151,237
26.176,234
26.201,224
26.226,213
26.251,210
26.276,218
26.301,231
26.326,239
26.351,235
26.376,222
26.401,210
26.426,203
26.451,200
26.476,194
26.501,182
26.526,165
26.551,151
26.576,140
26.601,128
26.626,113
26.651,97
26.676,87
26.701,79
26.726,64
26.751,39
26.776,13
26.801,8
26.826,39
26.851,99
26.876,162
26.901,206
26.926,226
26.951,233
26.976,237
27.001,237
27.026,228
27.051,211
27.076,196
27.101,189
27.126,191
27.151,192
27.176,188
27.201,177
27.226,164
27.251,148
27.276,133
27.301,118
27.326,107
27.351,99
27.376,90
27.401,77
27.426,61
27.451,45
27.476,28
27.501,11
27.526,-5
27.551,-12
27.576,4
27.601,47
27.626,105
27.651,160
27.676,199
27.701,222
27.726,232
27.751,233
27.776,228
27.801,218
27.826,210
27.851,207
27.876,211
27.901,216
27.926,217
27.951,211
27.976,199
28.001,187
28.026,176
28.051,167
28.076,160
28.101,150
28.126,137
28.151,123
28.176,110
28.201,96
28.226,77
28.251,48
28.276,17
28.301,1
28.326,17
28.351,66
28.376,130
28.401,186
28.426,220
28.451,236
28.476,245
28.501,253
28.526,258
28.551,253
28.576,240
28.601,226
28.626,220
28.651,224
28.676,229
28.701,227
28.726,214
28.751,195
28.776,178
28.801,165
28.826,154
28.851,139
28.876,121
28.901,103
28.926,89
28.951,77
28.976,62
29.001,42
29.026,24
29.051,10
29.076,-1
29.101,-21
29.126,-47
29.151,-64
29.176,-51
29.201,1
29.226,76
29.251,147
29.276,196
29.301,223
29.326,242
29.351,258
29.376,268
29.401,266
29.426,257
29.451,251
29.476,256
29.501,266
29.526,273
29.551,272
29.576,267
29.601,260
29.626,253
29.651,243
29.676,230
29.701,215
29.726,199
29.751,182
29.776,162
29.801,141
29.826,120
29.851,101
29.876,80
29.901,57
29.926,35
29.951,17
29.976,-1
30.001,-25
30.026,-52
30.051,-64
30.076,-42
30.101,16
30.126,94
30.151,160
30.176,200
30.201,218
30.226,230
30.251,241
30.276,245
30.301,236
30.326,221
30.351,211
30.376,216
30.401,227
30.426,233
30.451,230
30.476,220
30.501,211
30.526,204
30.551,193
30.576,178
30.601,162
30.626,150
30.651,138
30.676,120
30.701,98
30.726,76
30.751,60
30.776,43
30.801,18
30.826,-13
30.851,-32
30.876,-19
30.901,32
30.926,103
30.951,166
30.976,206
31.001,227
31.026,241
31.051,251
31.076,253
31.101,244
31.126,229
31.151,220
31.176,218
31.201,221
31.226,219
31.251,212
31.276,203
31.301,194
31.326,185
31.351,173
31.376,160
31.401,147
31.426,134
31.451,119
31.476,100
31.501,80
31.526,62
31.551,41
31.576,12
31.601,-15
31.626,-25
31.651,0
31.676,58
31.701,127
31.726,178
31.751,203
31.776,210
31.801,214
31.826,218
31.851,215
31.876,202
31.901,188
31.926,184
31.951,191
31.976,200
32.001,201
32.026,195
32.051,189
32.076,184
32.101,177
32.126,165
32.151,151
32.176,138
32.201,125
32.226,109
32.251,89
32.276,71
32.301,57
32.326,41
32.351,14
32.376,-20
32.401,-41
32.426,-26
32.451,28
32.476,102
32.501,165
32.526,204
32.551,225
32.576,243
32.601,259
32.626,268
32.651,262
32.676,248
32.701,239
32.726,241
32.751,249
32.776,253
32.801,249
32.826,240
32.851,230
32.876,221
32.901,210
32.926,199
32.951,188
32.976,176
33.001,162
33.026,143
33.051,119
33.076,92
33.101,69
33.126,53
33.151,40
33.176,23
33.201,-2
33.226,-33
33.251,-52
33.276,-39
33.301,10
33.326,82
33.351,146
33.376,187
33.401,205
33.426,217
33.451,231
33.476,241
33.501,237
33.526,221
33.551,209
33.576,211
33.601,224
33.626,235
33.651,233
33.676,222
33.701,210
33.726,202
33.751,193
33.776,181
33.801,168
33.826,157
33.851,147
33.876,133
33.901,113
33.926,94
33.951,78
33.976,61
34.001,35
34.026,0
34.051,-25
34.076,-17
34.101,29
34.126,96
34.151,155
34.176,189
34.201,202
34.226,206
34.251,209
34.276,209
34.301,200
34.326,188
34.351,180
34.376,181
34.401,187
34.426,192
34.451,191
34.476,185
34.501,177
34.526,170
34.551,163
34.576,157
34.601,148
34.626,133
34.651,114
34.676,97
34.701,83
34.726,66
34.751,40
34.776,10
34.801,-6
34.826,7
34.851,56
34.876,122
34.901,181
34.926,218
34.951,237
34.976,248
35.001,254
35.026,251
35.051,238
35.076,221
35.101,212
35.126,215
35.151,224
35.176,229
35.201,227
35.226,220
35.251,211
35.276,201
35.301,188
35.326,171
35.351,150
35.376,126
35.401,100
35.426,75
35.451,55
35.476,35
35.501,9
35.526,-22
35.551,-46
35.576,-42
35.601,0
35.626,66
35.651,132
35.676,176
35.701,198
35.726,211
35.751,226
35.776,238
35.801,237
35.826,223
35.851,206
35.876,199
35.901,202
35.926,207
35.951,205
35.976,195
36.001,185
36.026,177
36.051,170
36.076,159
36.101,146
36.126,135
36.151,126
36.176,115
36.201,99
36.226,82
36.251,66
36.276,52
36.301,32
36.326,3
36.351,-24
36.376,-32
36.401,-3
36.426,59
36.451,136
36.476,198
36.501,235
36.526,251
36.551,259
36.576,266
36.601,268
36.626,263
36.651,251
36.676,242
36.701,240
36.726,244
36.751,246
36.776,242
36.801,234
36.826,223
36.851,210
36.876,193
36.901,173
36.926,154
36.951,140
36.976,130
37.001,117
37.026,97
37.051,73
37.076,52
37.101,32
37.126,7
37.151,-20
37.176,-40
37.201,-36
37.226,1
37.251,63
37.276,125
37.301,173
37.326,202
37.351,218
37.376,229
37.401,231
37.426,225
37.451,213
37.476,204
37.501,206
37.526,214
37.551,221
37.576,219
37.601,207
37.626,192
37.651,179
37.676,170
37.701,160
37.726,146
37.751,126
37.776,106
37.801,89
37.826,76
37.851,61
37.876,37
37.901,7
37.926,-15
37.951,-10
37.976,27
38.001,89
38.026,149
38.051,190
38.076,208
38.101,216
38.126,222
38.151,226
38.176,219
38.201,203
38.226,188
38.251,187
38.276,200
38.301,214
38.326,214
38.351,200
38.376,183
38.401,172
38.426,166
38.451,157
38.476,140
38.501,120
38.526,107
38.551,97
38.576,82
38.601,54
38.626,24
38.651,13
38.676,37
38.701,90
38.726,152
38.751,201
38.776,227
38.801,239
38.826,243
38.851,241
38.876,232
38.901,214
38.926,195
38.951,185
38.976,186
39.001,193
39.026,195
39.051,188
39.076,175
39.101,161
39.126,151
39.151,142
39.176,129
39.201,110
39.226,92
39.251,77
39.276,65
39.301,48
39.326,23
39.351,0
39.376,-8
39.401,12
39.426,61
39.451,120
39.476,172
39.501,207
39.526,226
39.551,236
39.576,239
39.601,233
39.626,223
39.651,213
39.676,208
39.701,207
39.726,204
39.751,197
39.776,187
39.801,178
39.826,173
39.851,169
39.876,163
39.901,151
39.926,134
39.951,114
39.976,97
40.001,84
40.026,71
40.051,49
40.076,15
40.101,-22
40.126,-40
40.151,-22
40.176,31
40.201,100
40.226,159
40.251,197
40.276,218
40.301,233
40.326,245
40.351,250
40.376,244
40.401,232
40.426,224
40.451,226
40.476,232
40.501,232
40.526,225
40.551,215
40.576,208
40.601,201
40.626,189
40.651,171
40.676,155
40.701,143
40.726,135
40.751,121
40.776,99
40.801,73
40.826,54
40.851,40
40.876,22
40.901,-5
40.926,-35
40.951,-44
40.976,-16
41.001,43
41.026,114
41.051,173
41.076,210
41.101,232
41.126,244
41.151,249
41.176,244
41.201,231
41.226,220
41.251,217
41.276,223
41.301,229
41.326,230
41.351,225
41.376,216
41.401,204
41.426,191
41.451,177
41.476,166
41.501,154
41.526,139
41.551,118
41.576,97
41.601,80
41.626,67
41.651,49
41.676,21
41.701,-6
41.726,-15
41.751,10
41.776,68
41.801,132
41.826,180
41.851,203
41.876,210
41.901,214
41.926,215
41.951,211
41.976,201
42.001,190
42.026,186
42.051,190
42.076,195
42.101,195
42.126,187
42.151,177
42.176,169
42.201,161
42.226,149
42.251,134
42.276,117
42.301,103
42.326,90
42.351,72
42.376,46
42.401,16
42.426,0
42.451,12
42.476,57
42.501,122
42.526,184
42.551,226
42.576,245
42.601,246
42.626,240
42.651,230
42.676,218
42.701,207
42.726,201
42.751,203
42.776,210
42.801,217
42.826,214
42.851,202
42.876,184
42.901,168
42.926,158
42.951,151
42.976,143
43.001,131
43.026,117
43.051,102
43.076,81
43.101,51
43.126,13
43.151,-15
43.176,-17
43.201,17
43.226,78
43.251,140
43.276,182
43.301,202
43.326,213
43.351,221
43.376,222
43.401,210
43.426,187
43.451,166
43.476,159
43.501,165
43.526,172
43.551,171
43.576,164
43.601,159
43.626,158
43.651,155
43.676,142
43.701,121
43.726,100
43.751,85
43.776,76
43.801,69
43.826,62
43.851,49
43.876,26
43.901,-1
43.926,-22
43.951,-13
43.976,35
44.001,112
44.026,189
44.051,239
44.076,261
44.101,272
44.126,284
44.151,295
44.176,296
44.201,283
44.226,268
44.251,265
44.276,271
44.301,275
44.326,266
44.351,248
44.376,232
44.401,222
44.426,211
44.451,192
44.476,168
44.501,147
44.526,136
44.551,130
44.576,119
44.601,98
44.626,69
44.651,36
44.676,1
44.701,-30
44.726,-48
44.751,-38
44.776,2
44.801,63
44.826,120
44.851,157
44.876,172
44.901,173
44.926,170
44.951,166
44.976,159
45.001,150
45.026,145
45.051,145
45.076,150
45.101,155
45.126,158
45.151,159
45.176,157
45.201,157
45.226,159
45.251,163
45.276,165
45.301,163
45.326,155
45.351,145
45.376,136
45.401,125
45.426,109
45.451,84
45.476,56
45.501,43
45.526,59
45.551,106
45.576,167
45.601,218
45.626,244
45.651,246
45.676,237
45.701,228
45.726,221
45.751,213
45.776,203
45.801,194
45.826,192
45.851,196
45.876,199
45.901,192
45.926,176
45.951,160
45.976,150
46.001,146
46.026,138
46.051,121
46.076,99
46.101,79
46.126,67
46.151,56
46.176,37
46.201,13
46.226,0
46.251,12
46.276,54
46.301,109
46.326,158
46.351,193
46.376,215
46.401,231
46.426,239
46.451,236
46.476,221
46.501,204
46.526,194
46.551,194
46.576,200
46.601,202
46.626,196
46.651,184
46.676,170
46.701,158
46.726,145
46.751,130
46.776,111
46.801,92
46.826,75
46.851,62
46.876,47
46.901,26
46.926,3
46.951,-7
46.976,7
47.001,50
47.026,106
47.051,157
47.076,192
47.101,215
47.126,233
47.151,246
47.176,247
47.201,236
47.226,221
47.251,214
47.276,218
47.301,224
47.326,224
47.351,217
47.376,208
47.401,199
47.426,186
47.451,169
47.476,151
47.501,139
47.526,131
47.551,123
47.576,109
47.601,94
47.626,83
47.651,73
47.676,53
47.701,25
47.726,6
47.751,20
47.776,74
47.801,142
47.826,194
47.851,215
47.876,218
47.901,220
47.926,227
47.951,226
47.976,212
48.001,194
48.026,188
48.051,198
48.076,211
48.101,214
48.126,204
48.151,194
48.176,188
48.201,185
48.226,176
48.251,160
48.276,142
48.301,126
48.326,109
48.351,86
48.376,61
48.401,40
48.426,21
48.451,-2
48.476,-33
48.501,-57
48.526,-51
48.551,-4
48.576,68
48.601,136
48.626,180
48.651,202
48.676,215
48.701,227
48.726,231
48.751,221
48.776,202
48.801,187
48.826,187
48.851,199
48.876,212
48.901,217
48.926,216
48.951,216
48.976,221
49.001,230
49.026,235
49.051,229
49.076,207
49.101,174
49.126,139
49.151,112
49.176,95
49.201,79
49.226,52
49.251,16
49.276,-11
49.301,-9
49.326,30
49.351,94
49.376,159
49.401,206
49.426,231
49.451,241
49.476,239
49.501,227
49.526,208
49.551,190
49.576,182
49.601,187
49.626,200
49.651,208
49.676,202
49.701,184
49.726,162
49.751,142
49.776,130
49.801,123
49.826,117
49.851,109
49.876,97
49.901,83
49.926,64
49.951,41
49.976,16
50.001,-1
50.026,1
50.051,32
50.076,87
50.101,147
50.126,195
50.151,224
50.176,238
50.201,244
50.226,242
50.251,230
50.276,210
50.301,191
50.326,182
50.351,185
50.376,190
50.401,189
50.426,181
50.451,172
50.476,165
50.501,155
50.526,139
50.551,120
50.576,104
50.601,95
50.626,84
50.651,59
50.676,23
50.701,-4
50.726,-3
50.751,35
50.776,96
50.801,156
50.826,198
50.851,222
50.876,235
50.901,238
50.926,234
50.951,221
50.976,207
51.001,200
51.026,200
51.051,204
51.076,205
51.101,200
51.126,190
51.151,177
51.176,165
51.201,154
51.226,143
51.251,130
51.276,113
51.301,95
51.326,78
51.351,63
51.376,43
51.401,16
51.426,-11
51.451,-23
51.476,0
51.501,55
51.526,126
51.551,185
51.576,219
51.601,233
51.626,241
51.651,247
51.676,247
51.701,237
51.726,223
51.751,215
51.776,219
51.801,226
51.826,227
51.851,217
51.876,204
51.901,196
51.926,190
51.951,181
51.976,167
52.001,150
52.026,136
52.051,123
52.076,106
52.101,83
52.126,61
52.151,45
52.176,34
52.201,17
52.226,-10
52.251,-36
52.276,-39
52.301,-3
52.326,64
52.351,137
52.376,194
52.401,226
52.426,241
52.451,250
52.476,254
52.501,251
52.526,238
52.551,225
52.576,220
52.601,227
52.626,237
52.651,242
52.676,236
52.701,225
52.726,216
52.751,210
52.776,206
52.801,196
52.826,181
52.851,164
52.876,148
52.901,134
52.926,119
52.951,100
52.976,80
53.001,64
53.026,52
53.051,37
53.076,12
53.101,-17
53.126,-36
53.151,-23
53.176,24
53.201,91
53.226,153
53.251,192
53.276,210
53.301,215
53.326,216
53.351,212
53.376,202
53.401,189
53.426,180
53.451,179
53.476,183
53.501,188
53.526,188
53.551,183
53.576,175
53.601,167
53.626,160
53.651,153
53.676,143
53.701,130
53.726,115
53.751,101
53.776,91
53.801,80
53.826,62
53.851,36
53.876,15
53.901,16
53.926,51
53.951,112
53.976,174
54.001,219
54.026,243
54.051,254
54.076,259
54.101,258
54.126,248
54.151,230
54.176,213
54.201,203
54.226,199
54.251,198
54.276,196
54.301,192
54.326,186
54.351,177
54.376,167
54.401,157
54.426,148
54.451,139
54.476,124
54.501,102
54.526,78
54.551,55
54.576,33
54.601,7
54.626,-20
54.651,-38
54.676,-28
54.701,17
54.726,86
54.751,154
54.776,201
54.801,227
54.826,241
54.851,251
54.876,255
54.901,249
54.926,234
54.951,221
54.976,219
55.001,228
55.026,239
55.051,243
55.076,237
55.101,225
55.126,212
55.151,200
55.176,186
55.201,170
55.226,153
55.251,136
55.276,120
55.301,103
55.326,84
55.351,66
55.376,51
55.401,36
55.426,16
55.451,-14
55.476,-45
55.501,-59
55.526,-38
55.551,18
55.576,91
55.601,156
55.626,200
55.651,223
55.676,234
55.701,240
55.726,239
55.751,231
55.776,219
55.801,211
55.826,212
55.851,219
55.876,226
55.901,226
55.926,221
55.951,214
55.976,209
56.001,205
56.026,200
56.051,191
56.076,180
56.101,167
56.126,151
56.151,131
56.176,108
56.201,84
56.226,64
56.251,48
56.276,29
56.301,2
56.326,-27
56.351,-43
56.376,-25
56.401,31
56.426,107
56.451,176
56.476,220
56.501,239
56.526,246
56.551,247
56.576,243
56.601,230
56.626,212
56.651,201
56.676,201
56.701,208
56.726,212
56.751,207
56.776,195
56.801,183
56.826,172
56.851,164
56.876,155
56.901,146
56.926,135
56.951,123
56.976,108
57.001,92
57.026,75
57.051,52
57.076,23
57.101,-5
57.126,-18
57.151,2
57.176,57
57.201,130
57.226,194
57.251,235
57.276,252
57.301,254
57.326,249
57.351,239
57.376,225
57.401,212
57.426,204
57.451,204
57.476,208
57.501,210
57.526,205
57.551,195
57.576,181
57.601,167
57.626,153
57.651,137
57.676,119
57.701,98
57.726,78
57.751,60
57.776,41
57.801,16
57.826,-11
57.851,-29
57.876,-17
57.901,30
57.926,102
57.951,169
57.976,211
58.001,230
58.026,238
58.051,245
58.076,247
58.101,237
58.126,218
58.151,204
58.176,205
58.201,215
58.226,221
58.251,211
58.276,192
58.301,175
58.326,167
58.351,165
58.376,161
58.401,151
58.426,135
58.451,116
58.476,95
58.501,74
58.526,56
58.551,40
58.576,19
58.601,-8
58.626,-36
58.651,-42
58.676,-10
58.701,56
58.726,134
58.751,194
58.776,228
58.801,242
58.826,251
58.851,256
58.876,254
58.901,241
58.926,225
58.951,219
58.976,225
59.001,236
59.026,240
59.051,234
59.076,222
59.101,212
59.126,205
59.151,196
59.176,182
59.201,166
59.226,150
59.251,135
59.276,117
59.301,95
59.326,72
59.351,53
59.376,36
59.401,15
59.426,-15
59.451,-46
59.476,-54
59.501,-22
59.526,45
59.551,124
59.576,188
59.601,223
59.626,237
59.651,240
59.676,239
59.701,232
59.726,218
59.751,203
59.776,198
59.801,202
59.826,211
59.851,215
59.876,211
59.901,202
59.926,191
59.951,182
59.976,173
60.001,161
60.026,148
60.051,133
60.076,117
60.101,99
60.126,82
60.151,62
60.176,35
60.201,2
60.226,-24
60.251,-26
60.276,9
60.301,73
60.326,143
60.351,194
60.376,218
60.401,225
60.426,227
60.451,229
60.476,225
60.501,212
60.526,196
60.551,190
60.576,196
60.601,207
60.626,212
60.651,206
60.676,193
60.701,181
60.726,174
60.751,165
60.776,150
60.801,129
60.826,109
60.851,92
60.876,76
60.901,51
60.926,16
60.951,-15
60.976,-21
61.001,9
61.026,73
61.051,145
61.076,201
61.101,230
61.126,240
61.151,242
61.176,241
61.201,235
61.226,223
61.251,208
61.276,199
61.301,199
61.326,206
61.351,211
61.376,208
61.401,199
61.426,188
61.451,175
61.476,161
61.501,141
61.526,119
61.551,98
61.576,83
61.601,72
61.626,59
61.651,35
61.676,3
61.701,-19
61.726,-15
61.751,25
61.776,91
61.801,158
61.826,207
61.851,231
61.876,242
61.901,249
61.926,254
61.951,250
61.976,236
62.001,222
62.026,219
62.051,226
62.076,233
62.101,230
62.126,214
62.151,194
62.176,177
62.201,164
62.226,148
62.251,127
62.276,104
62.301,86
62.326,73
62.351,60
62.376,44
62.401,29
62.426,20
62.451,14
62.476,2
62.501,-18
62.526,-36
62.551,-32
62.576,8
62.601,77
62.626,152
62.651,210
62.676,241
62.701,250
62.726,249
62.751,241
62.776,229
62.801,214
62.826,203
62.851,203
62.876,215
62.901,230
62.926,240
62.951,240
62.976,236
63.001,231
63.026,227
63.051,220
63.076,209
63.101,194
63.126,181
63.151,169
63.176,153
63.201,131
63.226,107
63.251,87
63.276,71
63.301,53
63.326,23
63.351,-14
63.376,-41
63.401,-36
63.426,6
63.451,75
63.476,143
63.501,191
63.526,218
63.551,232
63.576,238
63.601,237
63.626,226
63.651,210
63.676,198
63.701,195
63.726,200
63.751,205
63.776,204
63.801,195
63.826,184
63.851,175
63.876,169
63.901,161
63.926,149
63.951,133
63.976,119
64.001,109
64.026,100
64.051,83
64.076,51
64.101,9
64.126,-22
64.151,-21
64.176,17
64.201,82
64.226,149
64.251,200
64.276,228
64.301,239
64.326,240
64.351,232
64.376,220
64.401,206
64.426,197
64.451,195
64.476,198
64.501,202
64.526,202
64.551,194
64.576,183
64.601,172
64.626,164
64.651,156
64.676,142
64.701,120
64.726,93
64.751,68
64.776,46
64.801,20
64.826,-10
64.851,-37
64.876,-38
64.901,1
64.926,73
64.951,150
64.976,206
65.001,235
65.026,248
65.051,256
65.076,259
65.101,253
65.126,236
65.151,219
65.176,214
65.201,218
65.226,222
65.251,217
65.276,203
65.301,188
65.326,175
65.351,164
65.376,153
65.401,140
65.426,124
65.451,105
65.476,83
65.501,60
65.526,40
65.551,21
65.576,-1
65.601,-31
65.626,-54
65.651,-49
65.676,-2
65.701,74
65.726,151
65.751,201
65.776,223
65.801,234
65.826,250
65.851,266
65.876,271
65.901,262
65.926,250
65.951,246
65.976,252
66.001,256
66.026,250
66.051,235
66.076,222
66.101,213
66.126,204
66.151,189
66.176,171
66.201,154
66.226,139
66.251,121
66.276,97
66.301,71
66.326,52
66.351,38
66.376,19
66.401,-11
66.426,-42
66.451,-46
66.476,-7
66.501,63
66.526,138
66.551,192
66.576,217
66.601,226
66.626,229
66.651,227
66.676,218
66.701,207
66.726,201
66.751,205
66.776,215
66.801,220
66.826,218
66.851,211
66.876,204
66.901,196
66.926,186
66.951,174
66.976,163
67.001,150
67.026,134
67.051,113
67.076,91
67.101,74
67.126,58
67.151,39
67.176,12
67.201,-8
67.226,-5
67.251,34
67.276,99
67.301,166
67.326,213
67.351,237
67.376,246
67.401,248
67.426,245
67.451,237
67.476,226
67.501,218
67.526,217
67.551,221
67.576,221
67.601,210
67.626,189
67.651,164
67.676,143
67.701,128
67.726,115
67.751,99
67.776,79
67.801,57
67.826,37
67.851,19
67.876,-1
67.901,-29
67.926,-54
67.951,-59
67.976,-29
68.001,35
68.026,114
68.051,181
68.076,225
68.101,247
68.126,257
68.151,258
68.176,252
68.201,239
68.226,227
68.251,223
68.276,228
68.301,238
68.326,242
68.351,236
68.376,224
68.401,211
68.426,199
68.451,188
68.476,175
68.501,159
68.526,139
68.551,118
68.576,98
68.601,78
68.626,53
68.651,21
68.676,-8
68.701,-18
68.726,3
68.751,57
68.776,123
68.801,179
68.826,215
68.851,233
68.876,241
68.901,242
68.926,233
68.951,216
68.976,201
69.001,193
69.026,196
69.051,203
69.076,205
69.101,201
69.126,191
69.151,176
69.176,159
69.201,142
69.226,127
69.251,112
69.276,95
69.301,75
69.326,53
69.351,31
69.376,8
69.401,-19
69.426,-46
69.451,-57
69.476,-35
69.501,20
69.526,93
69.551,156
69.576,196
69.601,217
69.626,231
69.651,243
69.676,249
69.701,248
69.726,243
69.751,244
69.776,252
69.801,262
69.826,264
69.851,256
69.876,240
69.901,223
69.926,205
69.951,189
69.976,173
70.001,159
70.026,144
70.051,124
70.076,103
70.101,82
70.126,64
70.151,41
70.176,11
70.201,-18
70.226,-26
70.251,1
70.276,63
70.301,135
70.326,190
70.351,219
70.376,228
70.401,232
70.426,233
70.451,227
70.476,212
70.501,195
70.526,188
70.551,191
70.576,197
70.601,195
70.626,182
70.651,165
70.676,152
70.701,143
70.726,134
70.751,121
70.776,107
70.801,94
70.826,81
70.851,63
70.876,35
70.901,2
70.926,-21
70.951,-21
70.976,9
71.001,66
71.026,129
71.051,180
71.076,210
71.101,222
71.126,225
71.151,225
71.176,223
71.201,218
71.226,210
71.251,204
71.276,204
71.301,207
71.326,209
71.351,209
71.376,207
71.401,206
71.426,203
71.451,194
71.476,177
71.501,158
71.526,143
71.551,134
71.576,123
71.601,102
71.626,70
71.651,45
71.676,47
71.701,86
71.726,148
71.751,209
71.776,246
71.801,256
71.826,246
71.851,228
71.876,207
71.901,182
71.926,157
71.951,139
71.976,131
72.001,131
72.026,130
72.051,123
72.076,111
72.101,101
72.126,96
72.151,94
72.176,92
72.201,89
72.226,83
72.251,70
72.276,41
72.301,0
72.326,-42
72.351,-60
72.376,-38
72.401,18
72.426,88
72.451,148
72.476,189
72.501,215
72.526,234
72.551,246
72.576,249
72.601,241
72.626,229
72.651,225
72.676,231
72.701,242
72.726,248
72.751,244
72.776,233
72.801,220
72.826,208
72.851,198
72.876,186
72.901,174
72.926,159
72.951,139
72.976,112
73.001,80
73.026,51
73.051,30
73.076,11
73.101,-11
73.126,-39
73.151,-60
73.176,-53
73.201,-7
73.226,67
73.251,148
73.276,212
73.301,250
73.326,266
73.351,268
73.376,263
73.401,254
73.426,246
73.451,241
73.476,242
73.501,247
73.526,251
73.551,250
73.576,244
73.601,233
73.626,221
73.651,209
73.676,198
73.701,186
73.726,169
73.751,150
73.776,130
73.801,112
73.826,96
73.851,79
73.876,59
73.901,39
73.926,21
73.951,2
73.976,-23
74.001,-53
74.026,-73
74.051,-63
74.076,-14
74.101,60
74.126,138
74.151,195
74.176,228
74.201,242
74.226,247
74.251,243
74.276,232
74.301,216
74.326,208
74.351,211
74.376,223
74.401,231
74.426,229
74.451,218
74.476,207
74.501,200
74.526,195
74.551,186
74.576,173
74.601,158
74.626,146
74.651,134
74.676,120
74.701,102
74.726,84
74.751,71
74.776,59
74.801,41
74.826,13
74.851,-14
74.876,-22
74.901,4
74.926,63
74.951,133
74.976,192
75.001,227
75.026,245
75.051,254
75.076,259
75.101,258
75.126,250
75.151,242
75.176,239
75.201,245
75.226,252
75.251,256
75.276,254
75.301,250
75.326,247
75.351,242
75.376,233
75.401,221
75.426,209
75.451,197
75.476,183
75.501,165
75.526,147
75.551,134
75.576,121
75.601,101
75.626,72
75.651,49
75.676,53
75.701,91
75.726,152
75.751,208
75.776,243
75.801,256
75.826,258
75.851,253
75.876,240
75.901,216
75.926,188
75.951,165
75.976,151
76.001,142
76.026,127
76.051,103
76.076,73
76.101,39
76.126,6
76.151,-25
76.176,-57
76.201,-89
76.226,-125
76.251,-167
76.276,-212
76.301,-259
76.326,-304
76.351,-352
76.376,-402
76.401,-442
76.426,-451
76.451,-416
76.476,-340
76.501,-244
76.526,-142
76.551,-39
76.576,68
76.601,179
76.626,279
76.651,357
76.676,413
76.701,464
76.726,520
76.751,581
76.776,636
76.801,679
76.826,714
76.851,745
76.876,768
76.901,777
76.926,771
76.951,758
76.976,743
77.001,716
77.026,657
77.051,549
77.076,405
77.101,259
77.126,147
77.151,77
77.176,32
77.201,-9
77.226,-56
77.251,-92
77.276,-96
77.301,-60
77.326,-3
77.351,50
77.376,80
77.401,87
77.426,84
77.451,80
77.476,74
77.501,64
77.526,50
77.551,41
77.576,42
77.601,53
77.626,65
77.651,72
77.676,75
77.701,79
77.726,86
77.751,92
77.776,95
77.801,95
77.826,94
77.851,90
77.876,81
77.901,64
77.926,44
77.951,24
77.976,6
78.001,-11
78.026,-29
78.051,-47
78.076,-62
78.101,-78
78.126,-97
78.151,-108
78.176,-94
78.201,-41
78.226,43
78.251,132
78.276,196
78.301,227
78.326,239
78.351,251
78.376,268
78.401,280
78.426,282
78.451,282
78.476,295
78.501,326
78.526,364
78.551,391
78.576,398
78.601,391
78.626,383
78.651,381
78.676,382
78.701,379
78.726,369
78.751,354
78.776,338
78.801,321
78.826,301
78.851,281
78.876,265
78.901,254
78.926,240
78.951,214
78.976,180
79.001,152
79.026,152
79.051,189
79.076,252
79.101,317
79.126,361
79.151,379
79.176,378
79.201,365
79.226,340
79.251,303
79.276,257
79.301,211
79.326,172
79.351,138
79.376,103
79.401,59
79.426,5
79.451,-56
79.476,-124
79.501,-198
79.526,-278
79.551,-359
79.576,-437
79.601,-510
79.626,-577
79.651,-641
79.676,-699
79.701,-750
79.726,-794
79.751,-829
79.776,-849
79.801,-841
79.826,-795
79.851,-710
79.876,-605
79.901,-503
79.926,-418
79.951,-342
79.976,-258
80.001,-151
80.026,-25
80.051,106
80.076,234
80.101,362
80.126,498
80.151,642
80.176,773
80.201,871
80.226,928
80.251,957
80.276,974
80.301,987
80.326,990
80.351,982
80.376,968
80.401,954
80.426,939
80.451,917
80.476,890
80.501,874
80.526,884
80.551,923
80.576,979
80.601,1044
80.626,1124
80.651,1219
80.676,1296
80.701,1288
80.726,1144
80.751,875
80.776,562
80.801,298
80.826,125
80.851,19
80.876,-72
80.901,-180
80.926,-299
80.951,-408
80.976,-498
81.001,-569
81.026,-622
81.051,-651
81.076,-658
81.101,-654
81.126,-652
81.151,-654
81.176,-650
81.201,-635
81.226,-617
81.251,-603
81.276,-588
81.301,-548
81.326,-469
81.351,-358
81.376,-243
81.401,-149
81.426,-80
81.451,-27
81.476,22
81.501,69
81.526,111
81.551,149
81.576,188
81.601,231
81.626,276
81.651,313
81.676,336
81.701,344
81.726,343
81.751,339
81.776,336
81.801,333
81.826,326
81.851,315
81.876,301
81.901,288
81.926,279
81.951,270
81.976,258
82.001,242
82.026,224
82.051,201
82.076,172
82.101,142
82.126,125
82.151,142
82.176,196
82.201,266
82.226,324
82.251,354
82.276,361
82.301,361
82.326,360
82.351,347
82.376,316
82.401,277
82.426,246
82.451,231
82.476,220
82.501,200
82.526,170
82.551,140
82.576,122
82.601,112
82.626,98
82.651,76
82.676,51
82.701,29
82.726,9
82.751,-17
82.776,-50
82.801,-82
82.826,-105
82.851,-118
82.876,-128
82.901,-138
82.926,-146
82.951,-153
82.976,-163
83.001,-180
83.026,-193
83.051,-183
83.076,-136
83.101,-59
83.126,26
83.151,102
83.176,162
83.201,211
83.226,252
83.251,282
83.276,298
83.301,308
83.326,321
83.351,337
83.376,346
83.401,338
83.426,315
83.451,289
83.476,273
83.501,269
83.526,269
83.551,269
83.576,269
83.601,269
83.626,271
83.651,271
83.676,271
83.701,270
83.726,267
83.751,257
83.776,238
83.801,218
83.826,209
83.851,213
83.876,221
83.901,222
83.926,221
83.951,234
83.976,268
84.001,315
84.026,347
84.051,348
84.076,324
84.101,299
84.126,287
84.151,282
84.176,269
84.201,243
84.226,215
84.251,200
84.276,197
84.301,192
84.326,167
84.351,123
84.376,73
84.401,35
84.426,12
84.451,1
84.476,-6
84.501,-16
84.526,-29
84.551,-45
84.576,-61
84.601,-74
84.626,-78
84.651,-78
84.676,-83
84.701,-96
84.726,-109
84.751,-100
84.776,-58
84.801,10
84.826,83
84.851,139
84.876,174
84.901,195
84.926,208
84.951,208
84.976,191
85.001,160
85.026,132
85.051,121
85.076,127
85.101,140
85.126,146
85.151,143
85.176,137
85.201,134
85.226,134
85.251,133
85.276,126
85.301,118
85.326,113
85.351,112
85.376,106
85.401,86
85.426,53
85.451,23
85.476,18
85.501,50
85.526,110
85.551,173
85.576,219
85.601,244
85.626,256
85.651,264
85.676,267
85.701,257
85.726,234
85.751,211
85.776,203
85.801,210
85.826,221
85.851,223
85.876,216
85.901,206
85.926,197
85.951,184
85.976,164
86.001,138
86.026,115
86.051,96
86.076,73
86.101,42
86.126,13
86.151,8
86.176,41
86.201,101
86.226,162
86.251,203
86.276,225
86.301,237
86.326,246
86.351,247
86.376,233
86.401,212
86.426,197
86.451,195
86.476,200
86.501,199
86.526,188
86.551,173
86.576,157
86.601,143
86.626,127
86.651,108
86.676,88
86.701,65
86.726,35
86.751,4
86.776,-11
86.801,4
86.826,55
86.851,122
86.876,179
86.901,214
86.926,233
86.951,246
86.976,256
87.001,257
87.026,244
87.051,226
87.076,215
87.101,215
87.126,219
87.151,218
87.176,207
87.201,191
87.226,173
87.251,155
87.276,136
87.301,118
87.326,102
87.351,85
87.376,67
87.401,47
87.426,28
87.451,8
87.476,-16
87.501,-46
87.526,-69
87.551,-63
87.576,-17
87.601,60
87.626,139
87.651,195
87.676,224
87.701,242
87.726,259
87.751,274
87.776,280
87.801,274
87.826,266
87.851,268
87.876,281
87.901,295
87.926,301
87.951,300
87.976,297
88.001,293
88.026,286
88.051,274
88.076,258
88.101,242
88.126,227
88.151,208
88.176,182
88.201,152
88.226,123
88.251,96
88.276,70
88.301,42
88.326,15
88.351,-5
88.376,-24
88.401,-44
88.426,-67
88.451,-81
88.476,-71
88.501,-30
88.526,31
88.551,91
88.576,130
88.601,150
88.626,161
88.651,171
88.676,177
88.701,172
88.726,159
88.751,149
88.776,153
88.801,167
88.826,180
88.851,183
88.876,178
88.901,173
88.926,171
88.951,168
88.976,161
89.001,152
89.026,146
89.051,141
89.076,133
89.101,117
89.126,97
89.151,81
89.176,71
89.201,60
89.226,41
89.251,17
89.276,4
89.301,19
89.326,66
89.351,127
89.376,182
89.401,219
89.426,239
89.451,249
89.476,252
89.501,248
89.526,237
89.551,225
89.576,220
89.601,224
89.626,233
89.651,237
89.676,234
89.701,226
89.726,216
89.751,207
89.776,198
89.801,187
89.826,173
89.851,160
89.876,145
89.901,128
89.926,107
89.951,85
89.976,66
90.001,50
90.026,31
90.051,3
90.076,-29
90.101,-48
90.126,-37
90.151,10
90.176,79
90.201,143
90.226,187
90.251,210
90.276,222
90.301,232
90.326,238
90.351,236
90.376,227
90.401,219
90.426,221
90.451,234
90.476,247
90.501,251
90.526,245
90.551,235
90.576,227
90.601,223
90.626,220
90.651,215
90.676,206
90.701,192
90.726,172
90.751,145
90.776,112
90.801,79
90.826,52
90.851,31
90.876,4
90.901,-35
90.926,-84
90.951,-122
90.976,-121
91.001,-73
91.026,5
91.051,83
91.076,136
91.101,164
91.126,182
91.151,201
91.176,218
91.201,226
91.226,219
91.251,210
91.276,211
91.301,226
91.326,248
91.351,261
91.376,261
91.401,251
91.426,241
91.451,235
91.476,230
91.501,223
91.526,211
91.551,192
91.576,171
91.601,150
91.626,129
91.651,108
91.676,87
91.701,67
91.726,50
91.751,35
91.776,16
91.801,-12
91.826,-42
91.851,-57
91.876,-38
91.901,17
91.926,90
91.951,154
91.976,191
92.001,208
92.026,219
92.051,233
92.076,244
92.101,242
92.126,227
92.151,211
92.176,208
92.201,220
92.226,235
92.251,242
92.276,238
92.301,229
92.326,221
92.351,216
92.376,207
92.401,196
92.426,184
92.451,173
92.476,159
92.501,137
92.526,108
92.551,79
92.576,53
92.601,28
92.626,-1
92.651,-35
92.676,-57
92.701,-47
92.726,1
92.751,76
92.776,151
92.801,204
92.826,232
92.851,243
92.876,247
92.901,244
92.926,235
92.951,222
92.976,211
93.001,209
93.026,215
93.051,220
93.076,216
93.101,204
93.126,189
93.151,176
93.176,165
93.201,151
93.226,132
93.251,108
93.276,86
93.301,67
93.326,51
93.351,30
93.376,3
93.401,-17
93.426,-19
93.451,9
93.476,61
93.501,119
93.526,167
93.551,198
93.576,218
93.601,230
93.626,233
93.651,224
93.676,209
93.701,196
93.726,193
93.751,196
93.776,196
93.801,186
93.826,171
93.851,157
93.876,149
93.901,141
93.926,129
93.951,115
93.976,103
94.001,93
94.026,77
94.051,53
94.076,30
94.101,29
94.126,61
94.151,121
94.176,183
94.201,227
94.226,247
94.251,251
94.276,250
94.301,247
94.326,237
94.351,218
94.376,198
94.401,186
94.426,186
94.451,189
94.476,183
94.501,168
94.526,148
94.551,130
94.576,115
94.601,100
94.626,81
94.651,63
94.676,50
94.701,38
94.726,19
94.751,-7
94.776,-30
94.801,-30
94.826,6
94.851,69
94.876,136
94.901,185
94.926,210
94.951,222
94.976,231
95.001,240
95.026,241
95.051,231
95.076,217
95.101,209
95.126,211
95.151,216
95.176,214
95.201,204
95.226,192
95.251,184
95.276,179
95.301,172
95.326,160
95.351,147
95.376,135
95.401,124
95.426,112
95.451,96
95.476,81
95.501,71
95.526,63
95.551,49
95.576,24
95.601,0
95.626,-1
95.651,29
95.676,86
95.701,148
95.726,196
95.751,223
95.776,238
95.801,247
95.826,250
95.851,244
95.876,229
95.901,215
95.926,209
95.951,214
95.976,220
96.001,221
96.026,214
96.051,203
96.076,194
96.101,189
96.126,186
96.151,179
96.176,168
96.201,153
96.226,139
96.251,126
96.276,113
96.301,97
96.326,79
96.351,63
96.376,51
96.401,40
96.426,22
96.451,-1
96.476,-18
96.501,-11
96.526,29
96.551,92
96.576,154
96.601,196
96.626,216
96.651,225
96.676,231
96.701,233
96.726,227
96.751,215
96.776,205
96.801,203
96.826,208
96.851,214
96.876,212
96.901,203
96.926,191
96.951,180
96.976,173
97.001,166
97.026,157
97.051,144
97.076,127
97.101,109
97.126,93
97.151,80
97.176,63
97.201,40
97.226,12
97.251,-7
97.276,-1
97.301,33
97.326,86
97.351,137
97.376,169
97.401,184
97.426,191
97.451,196
97.476,199
97.501,195
97.526,186
97.551,180
97.576,181
97.601,185
97.626,186
97.651,179
97.676,167
97.701,156
97.726,148
97.751,140
97.776,129
97.801,118
97.826,109
97.851,98
97.876,80
97.901,51
97.926,24
97.951,17
97.976,40
98.001,90
98.026,148
98.051,197
98.076,228
98.101,247
98.126,257
98.151,258
98.176,250
98.201,237
98.226,225
98.251,221
98.276,220
98.301,217
98.326,207
98.351,191
98.376,177
98.401,164
98.426,151
98.451,131
98.476,106
98.501,83
98.526,67
98.551,56
98.576,40
98.601,12
98.626,-19
98.651,-36
98.676,-21
98.701,27
98.726,92
98.751,151
98.776,190
98.801,213
98.826,227
98.851,238
98.876,242
98.901,235
98.926,223
98.951,214
98.976,215
99.001,221
99.026,224
99.051,220
99.076,213
99.101,209
99.126,207
99.151,200
99.176,185
99.201,166
99.226,149
99.251,136
99.276,120
99.301,97
99.326,71
99.351,50
99.376,37
99.401,22
99.426,-2
99.451,-34
99.476,-51
99.501,-31
99.526,25
99.551,99
99.576,164
99.601,206
99.626,230
99.651,247
99.676,261
99.701,267
99.726,263
99.751,254
99.776,248
99.801,252
99.826,263
99.851,271
99.876,270
99.901,258
99.926,241
99.951,221
99.976,203
100.001,188
100.026,173
100.051,157
100.076,138
100.101,115
100.126,93
100.151,71
100.176,51
100.201,34
100.226,19
100.251,5
100.276,-11
100.301,-32
100.326,-54
100.351,-62
100.376,-43
100.401,7
100.426,79
100.451,146
100.476,191
100.501,207
100.526,205
100.551,194
100.576,182
100.601,171
100.626,162
100.651,157
100.676,157
100.701,157
100.726,154
100.751,148
100.776,143
100.801,141
100.826,145
100.851,155
100.876,172
100.901,194
100.926,217
100.951,231
100.976,229
101.001,214
101.026,195
101.051,177
101.076,155
101.101,123
101.126,84
101.151,56
101.176,59
101.201,96
101.226,151
101.251,197
101.276,225
101.301,237
101.326,245
101.351,252
101.376,250
101.401,237
101.426,217
101.451,201
101.476,195
101.501,196
101.526,196
101.551,190
101.576,179
101.601,167
101.626,154
101.651,141
101.676,126
101.701,112
101.726,95
101.751,76
101.776,56
101.801,37
101.826,20
101.851,3
101.876,-17
101.901,-38
101.926,-42
101.951,-13
101.976,45
102.001,115
102.026,171
102.051,203
102.076,218
102.101,232
102.126,246
102.151,253
102.176,249
102.201,237
102.226,227
102.251,225
102.276,225
102.301,221
102.326,209
102.351,195
102.376,182
102.401,169
102.426,156
102.451,142
102.476,130
102.501,118
102.526,104
102.551,85
102.576,64
102.601,47
102.626,33
102.651,16
102.676,-8
102.701,-32
102.726,-37
102.751,-7
102.776,54
102.801,128
102.826,188
102.851,225
102.876,242
102.901,251
102.926,257
102.951,257
102.976,248
103.001,236
103.026,230
103.051,234
103.076,245
103.101,251
103.126,245
103.151,229
103.176,212
103.201,199
103.226,191
103.251,184
103.276,176
103.301,168
103.326,159
103.351,145
103.376,125
103.401,103
103.426,83
103.451,69
103.476,51
103.501,22
103.526,-13
103.551,-35
103.576,-22
103.601,30
103.626,103
103.651,167
103.676,206
103.701,222
103.726,226
103.751,225
103.776,219
103.801,206
103.826,192
103.851,183
103.876,183
103.901,186
103.926,185
103.951,179
103.976,169
104.001,159
104.026,147
104.051,134
104.076,120
104.101,106
104.126,91
104.151,74
104.176,58
104.201,45
104.226,32
104.251,15
104.276,-7
104.301,-25
104.326,-17
104.351,25
104.376,95
104.401,166
104.426,218
104.451,244
104.476,255
104.501,259
104.526,260
104.551,255
104.576,244
104.601,234
104.626,232
104.651,238
104.676,244
104.701,243
104.726,233
104.751,219
104.776,204
104.801,190
104.826,176
104.851,160
104.876,140
104.901,120
104.926,101
104.951,80
104.976,53
105.001,21
105.026,-5
105.051,-9
105.076,22
105.101,81
105.126,146
105.151,193
105.176,214
105.201,221
105.226,224
105.251,224
105.276,216
105.301,199
105.326,181
105.351,175
105.376,182
105.401,189
105.426,187
105.451,176
105.476,163
105.501,156
105.526,151
105.551,142
105.576,127
105.601,111
105.626,98
105.651,86
105.676,73
105.701,59
105.726,46
105.751,32
105.776,12
105.801,-12
105.826,-29
105.851,-18
105.876,31
105.901,103
105.926,171
105.951,214
105.976,232
106.001,239
106.026,245
106.051,247
106.076,238
106.101,221
106.126,208
106.151,206
106.176,214
106.201,220
106.226,219
106.251,214
106.276,209
106.301,207
106.326,204
106.351,196
106.376,185
106.401,174
106.426,160
106.451,143
106.476,123
106.501,104
106.526,88
106.551,71
106.576,48
106.601,22
106.626,6
106.651,18
106.676,61
106.701,122
106.726,179
106.751,216
106.776,232
106.801,236
106.826,235
106.851,230
106.876,220
106.901,208
106.926,199
106.951,197
106.976,201
107.001,205
107.026,201
107.051,187
107.076,170
107.101,154
107.126,142
107.151,132
107.176,118
107.201,99
107.226,77
107.251,56
107.276,37
107.301,15
107.326,-11
107.351,-34
107.376,-39
107.401,-12
107.426,41
107.451,105
107.476,155
107.501,181
107.526,188
107.551,187
107.576,187
107.601,186
107.626,182
107.651,179
107.676,182
107.701,195
107.726,212
107.751,221
107.776,218
107.801,206
107.826,194
107.851,184
107.876,175
107.901,161
107.926,142
107.951,123
107.976,107
108.001,86
108.026,57
108.051,22
108.076,0
108.101,7
108.126,51
108.151,114
108.176,173
108.201,212
108.226,230
108.251,238
108.276,241
108.301,238
108.326,229
108.351,215
108.376,205
108.401,201
108.426,203
108.451,203
108.476,198
108.501,188
108.526,175
108.551,163
108.576,153
108.601,143
108.626,131
108.651,112
108.676,88
108.701,64
108.726,42
108.751,21
108.776,-3
108.801,-31
108.826,-50
108.851,-43
108.876,-1
108.901,65
108.926,134
108.951,187
108.976,218
109.001,235
109.026,241
109.051,238
109.076,227
109.101,212
109.126,201
109.151,200
109.176,207
109.201,217
109.226,225
109.251,227
109.276,224
109.301,217
109.326,209
109.351,205
109.376,202
109.401,196
109.426,181
109.451,158
109.476,137
109.501,123
109.526,110
109.551,91
109.576,64
109.601,46
109.626,56
109.651,95
109.676,147
109.701,187
109.726,205
109.751,207
109.776,207
109.801,206
109.826,200
109.851,184
109.876,166
109.901,157
109.926,163
109.951,178
109.976,192
110.001,195
110.026,190
110.051,182
110.076,176
110.101,173
110.126,169
110.151,162
110.176,149
110.201,131
110.226,109
110.251,81
110.276,43
110.301,-4
110.326,-51
110.351,-75
110.376,-57
110.401,4
110.426,88
110.451,163
110.476,210
110.501,230
110.526,237
110.551,243
110.576,243
110.601,230
110.626,207
110.651,187
110.676,180
110.701,185
110.726,189
110.751,177
110.776,151
110.801,121
110.826,97
110.851,81
110.876,68
110.901,55
110.926,44
110.951,34
110.976,21
111.001,-1
111.026,-28
111.051,-44
111.076,-31
111.101,14
111.126,79
111.151,143
111.176,191
111.201,221
111.226,239
111.251,250
111.276,254
111.301,250
111.326,240
111.351,233
111.376,234
111.401,242
111.426,249
111.451,249
111.476,239
111.501,225
111.526,211
111.551,201
111.576,189
111.601,172
111.626,150
111.651,127
111.676,107
111.701,85
111.726,58
111.751,26
111.776,3
111.801,5
111.826,39
111.851,96
111.876,155
111.901,198
111.926,222
111.951,232
111.976,235
112.001,232
112.026,224
112.051,212
112.076,205
112.101,205
112.126,210
112.151,216
112.176,215
112.201,208
112.226,195
112.251,181
112.276,166
112.301,151
112.326,134
112.351,115
112.376,95
112.401,77
112.426,63
112.451,49
112.476,28
112.501,0
112.526,-23
112.551,-22
112.576,15
112.601,81
112.626,148
112.651,196
112.676,219
112.701,229
112.726,233
112.751,234
112.776,225
112.801,208
112.826,193
112.851,189
112.876,196
112.901,205
112.926,206
112.951,199
112.976,188
113.001,177
113.026,167
113.051,160
113.076,154
113.101,146
113.126,134
113.151,118
113.176,101
113.201,89
113.226,79
113.251,61
113.276,30
113.301,-2
113.326,-15
113.351,7
113.376,61
113.401,125
113.426,176
113.451,207
113.476,223
113.501,230
113.526,229
113.551,220
113.576,207
113.601,198
113.626,199
113.651,206
113.676,214
113.701,219
113.726,221
113.751,219
113.776,210
113.801,193
113.826,170
113.851,145
113.876,122
113.901,102
113.926,82
113.951,63
113.976,44
114.001,22
114.026,-1
114.051,-18
114.076,-12
114.101,26
114.126,90
114.151,156
114.176,199
114.201,216
114.226,218
114.251,218
114.276,217
114.301,210
114.326,195
114.351,181
114.376,178
114.401,185
114.426,192
114.451,187
114.476,175
114.501,163
114.526,158
114.551,151
114.576,136
114.601,115
114.626,97
114.651,85
114.676,71
114.701,45
114.726,11
114.751,-9
114.776,2
114.801,51
114.826,119
114.851,181
114.876,222
114.901,241
114.926,248
114.951,247
114.976,239
115.001,225
115.026,210
115.051,202
115.076,202
115.101,206
115.126,206
115.151,200
115.176,188
115.201,175
115.226,163
115.251,152
115.276,138
115.301,121
115.326,104
115.351,90
115.376,75
115.401,53
115.426,21
115.451,-15
115.476,-34
115.501,-18
115.526,36
115.551,109
115.576,173
115.601,213
115.626,232
115.651,244
115.676,252
115.701,253
115.726,242
115.751,224
115.776,213
115.801,216
115.826,226
115.851,231
115.876,225
115.901,212
115.926,198
115.951,187
115.976,176
116.001,161
116.026,143
116.051,125
116.076,108
116.101,91
116.126,72
116.151,52
116.176,27
116.201,-4
116.226,-35
116.251,-49
116.276,-26
116.301,34
116.326,114
116.351,182
116.376,220
116.401,230
116.426,229
116.451,227
116.476,223
116.501,213
116.526,201
116.551,196
116.576,202
116.601,210
116.626,211
116.651,201
116.676,188
116.701,179
116.726,173
116.751,166
116.776,154
116.801,140
116.826,127
116.851,113
116.876,97
116.901,81
116.926,67
116.951,55
116.976,38
117.001,10
117.026,-19
117.051,-32
117.076,-5
117.101,57
117.126,135
117.151,199
117.176,234
117.201,246
117.226,246
117.251,243
117.276,237
117.301,228
117.326,218
117.351,211
117.376,210
117.401,214
117.426,217
117.451,216
117.476,209
117.501,198
117.526,186
117.551,174
117.576,162
117.601,150
117.626,137
117.651,124
117.676,111
117.701,96
117.726,74
117.751,46
117.776,24
117.801,25
117.826,58
117.851,116
117.876,175
117.901,216
117.926,231
117.951,231
117.976,225
118.001,216
118.026,203
118.051,185
118.076,170
118.101,162
118.126,160
118.151,158
118.176,150
118.201,140
118.226,130
118.251,121
118.276,110
118.301,95
118.326,83
118.351,77
118.376,75
118.401,64
118.426,42
118.451,16
118.476,6
118.501,29
118.526,80
118.551,142
118.576,190
118.601,217
118.626,227
118.651,230
118.676,229
118.701,222
118.726,208
118.751,194
118.776,188
118.801,193
118.826,202
118.851,204
118.876,195
118.901,180
118.926,167
118.951,160
118.976,151
119.001,135
119.026,114
119.051,94
119.076,77
119.101,57
119.126,28
119.151,-3
119.176,-19
119.201,-4
119.226,42
119.251,103
119.276,156
119.301,190
119.326,207
119.351,215
119.376,217
119.401,209
119.426,193
119.451,173
119.476,160
119.501,162
119.526,179
119.551,199
119.576,211
119.601,209
119.626,198
119.651,187
119.676,183
119.701,180
119.726,172
119.751,153
119.776,128
119.801,104
119.826,80
119.851,52
119.876,19
119.901,-1
119.926,8
119.951,55
119.976,123
120.001,186
120.026,226
120.051,244
120.076,254
120.101,260
120.126,260
120.151,250
120.176,232
120.201,220
120.226,217
120.251,219
120.276,215
120.301,203
120.326,187
120.351,174
120.376,165
120.401,157
120.426,145
120.451,129
120.476,110
120.501,89
120.526,70
120.551,52
120.576,37
120.601,18
120.626,-7
120.651,-33
120.676,-40
120.701,-15
120.726,44
120.751,116
120.776,176
120.801,210
120.826,223
120.851,226
120.876,226
120.901,222
120.926,210
120.951,196
120.976,189
121.001,192
121.026,200
121.051,204
121.076,197
121.101,184
121.126,171
121.151,163
121.176,157
121.201,148
121.226,134
121.251,119
121.276,105
121.301,91
121.326,73
121.351,50
121.376,28
121.401,23
121.426,47
121.451,97
121.476,157
121.501,204
121.526,228
121.551,233
121.576,229
121.601,224
121.626,217
121.651,207
121.676,196
121.701,190
121.726,189
121.751,189
121.776,184
121.801,172
121.826,160
121.851,151
121.876,143
121.901,131
121.926,117
121.951,104
121.976,94
122.001,80
122.026,54
122.051,20
122.076,-2
122.101,6
122.126,51
122.151,115
122.176,170
122.201,201
122.226,212
122.251,215
122.276,217
122.301,214
122.326,203
122.351,186
122.376,174
122.401,173
122.426,179
122.451,183
122.476,177
122.501,163
122.526,149
122.551,135
122.576,122
122.601,109
122.626,98
122.651,88
122.676,76
122.701,55
122.726,24
122.751,-2
122.776,-5
122.801,27
122.826,87
122.851,152
122.876,202
122.901,228
122.926,238
122.951,241
122.976,241
123.001,236
123.026,226
123.051,214
123.076,207
123.101,209
123.126,216
123.151,219
123.176,212
123.201,196
123.226,178
123.251,165
123.276,155
123.301,144
123.326,128
123.351,110
123.376,95
123.401,82
123.426,65
123.451,43
123.476,25
123.501,30
123.526,64
123.551,119
123.576,170
123.601,202
123.626,219
123.651,231
123.676,246
123.701,255
123.726,247
123.751,225
123.776,204
123.801,199
123.826,206
123.851,210
123.876,199
123.901,175
123.926,152
123.951,136
123.976,126
124.001,117
124.026,107
124.051,98
124.076,91
124.101,84
124.126,74
124.151,62
124.176,53
124.201,44
124.226,31
124.251,16
124.276,11
124.301,34
124.326,86
124.351,151
124.376,205
124.401,233
124.426,235
124.451,223
124.476,205
124.501,184
124.526,163
124.551,148
124.576,146
124.601,152
124.626,156
124.651,150
124.676,136
124.701,123
124.726,113
124.751,105
124.776,97
124.801,91
124.826,97
124.851,113
124.876,126
124.901,126
124.926,111
124.951,93
124.976,79
125.001,66
125.026,46
125.051,21
125.076,11
125.101,37
125.126,99
125.151,176
125.176,235
125.201,265
125.226,271
125.251,270
125.276,271
125.301,272
125.326,268
125.351,259
125.376,252
125.401,250
125.426,252
125.451,250
125.476,242
125.501,230
125.526,219
125.551,212
125.576,205
125.601,191
125.626,165
125.651,131
125.676,100
125.701,80
125.726,67
125.751,48
125.776,16
125.801,-18
125.826,-33
125.851,-8
125.876,56
125.901,134
125.926,196
125.951,225
125.976,231
126.001,228
126.026,227
126.051,223
126.076,212
126.101,199
126.126,194
126.151,201
126.176,212
126.201,217
126.226,211
126.251,197
126.276,183
126.301,172
126.326,159
126.351,141
126.376,120
126.401,103
126.426,89
126.451,74
126.476,53
126.501,29
126.526,5
126.551,-13
126.576,-31
126.601,-52
126.626,-70
126.651,-71
126.676,-38
126.701,27
126.726,104
126.751,169
126.776,206
126.801,221
126.826,227
126.851,230
126.876,229
126.901,224
126.926,216
126.951,213
126.976,218
127.001,227
127.026,231
127.051,230
127.076,226
127.101,225
127.126,222
127.151,213
127.176,198
127.201,178
127.226,157
127.251,134
127.276,105
127.301,74
127.326,46
127.351,23
127.376,4
127.401,-12
127.426,-21
127.451,-7
127.476,39
127.501,109
127.526,179
127.551,230
127.576,256
127.601,266
127.626,268
127.651,265
127.676,254
127.701,239
127.726,227
127.751,225
127.776,228
127.801,231
127.826,228
127.851,219
127.876,208
127.901,197
127.926,184
127.951,170
127.976,156
128.001,142
128.026,125
128.051,106
128.076,84
128.101,63
128.126,40
128.151,12
128.176,-15
128.201,-26
128.226,-5
128.251,49
128.276,119
128.301,178
128.326,211
128.351,221
128.376,224
128.401,224
128.426,219
128.451,204
128.476,187
128.501,178
128.526,183
128.551,193
128.576,195
128.601,183
128.626,166
128.651,153
128.676,146
128.701,139
128.726,125
128.751,107
128.776,93
128.801,84
128.826,70
128.851,45
128.876,13
128.901,-6
128.926,4
128.951,47
128.976,108
129.001,164
129.026,199
129.051,214
129.076,217
129.101,215
129.126,210
129.151,200
129.176,191
129.201,186
129.226,187
129.251,192
129.276,194
129.301,191
129.326,183
129.351,172
129.376,158
129.401,141
129.426,122
129.451,105
129.476,92
129.501,78
129.526,58
129.551,35
129.576,25
129.601,41
129.626,84
129.651,139
129.676,185
129.701,213
129.726,226
129.751,231
129.776,229
129.801,219
129.826,202
129.851,186
129.876,181
129.901,184
129.926,185
129.951,177
129.976,163
130.001,151
130.026,145
130.051,139
130.076,127
130.101,110
130.126,92
130.151,76
130.176,58
130.201,31
130.226,2
130.251,-11
130.276,5
130.301,55
130.326,120
130.351,177
130.376,214
130.401,232
130.426,240
130.451,242
130.476,237
130.501,225
130.526,211
130.551,201
130.576,198
130.601,200
130.626,199
130.651,192
130.676,180
130.701,170
130.726,164
130.751,159
130.776,148
130.801,129
130.826,107
130.851,89
130.876,77
130.901,63
130.926,39
130.951,11
130.976,-1
131.001,18
131.026,71
131.051,134
131.076,185
131.101,212
131.126,223
131.151,231
131.176,235
131.201,232
131.226,219
131.251,204
131.276,199
131.301,205
131.326,214
131.351,216
131.376,209
131.401,196
131.426,183
131.451,168
131.476,153
131.501,140
131.526,131
131.551,122
131.576,108
131.601,88
131.626,67
131.651,55
131.676,47
131.701,33
131.726,9
131.751,-13
131.776,-9
131.801,30
131.826,96
131.851,159
131.876,200
131.901,218
131.926,224
131.951,225
131.976,223
132.001,213
132.026,199
132.051,190
132.076,190
132.101,196
132.126,199
132.151,194
132.176,185
132.201,175
132.226,166
132.251,157
132.276,146
132.301,132
132.326,119
132.351,107
132.376,98
132.401,89
132.426,76
132.451,54
132.476,29
132.501,16
132.526,30
132.551,75
132.576,137
132.601,193
132.626,225
132.651,236
132.676,236
132.701,233
132.726,226
132.751,214
132.776,200
132.801,195
132.826,201
132.851,210
132.876,209
132.901,197
132.926,181
132.951,170
132.976,163
133.001,154
133.026,138
133.051,119
133.076,102
133.101,85
133.126,63
133.151,34
133.176,10
133.201,8
133.226,36
133.251,87
133.276,142
133.301,182
133.326,203
133.351,208
133.376,203
133.401,195
133.426,186
133.451,177
133.476,172
133.501,170
133.526,170
133.551,171
133.576,172
133.601,172
133.626,170
133.651,164
133.676,153
133.701,138
133.726,123
133.751,109
133.776,98
133.801,85
133.826,63
133.851,33
133.876,7
133.901,2
133.926,29
133.951,83
133.976,145
134.001,194
134.026,219
134.051,226
134.076,226
134.101,224
134.126,220
134.151,210
134.176,199
134.201,192
134.226,193
134.251,198
134.276,201
134.301,194
134.326,182
134.351,170
134.376,161
134.401,151
134.426,137
134.451,118
134.476,99
134.501,83
134.526,71
134.551,55
134.576,32
134.601,8
134.626,-1
134.651,15
134.676,61
134.701,120
134.726,172
134.751,205
134.776,222
134.801,229
134.826,230
134.851,225
134.876,214
134.901,203
134.926,199
134.951,203
134.976,208
135.001,208
135.026,200
135.051,190
135.076,182
135.101,176
135.126,169
135.151,161
135.176,149
135.201,134
135.226,117
135.251,102
135.276,90
135.301,84
135.326,75
135.351,56
135.376,28
135.401,8
135.426,16
135.451,59
135.476,122
135.501,180
135.526,216
135.551,232
135.576,236
135.601,236
135.626,232
135.651,220
135.676,203
135.701,189
135.726,183
135.751,185
135.776,189
135.801,188
135.826,181
135.851,171
135.876,161
135.901,152
135.926,143
135.951,131
135.976,119
136.001,106
136.026,94
136.051,81
136.076,62
136.101,35
136.126,9
136.151,0
136.176,20
136.201,69
136.226,130
136.251,181
136.276,210
136.301,219
136.326,220
136.351,216
136.376,208
136.401,196
136.426,185
136.451,182
136.476,186
136.501,190
136.526,186
136.551,175
136.576,163
136.601,154
136.626,147
136.651,137
136.676,124
136.701,112
136.726,100
136.751,87
136.776,65
136.801,39
136.826,25
136.851,37
136.876,80
136.901,137
136.926,186
136.951,214
136.976,225
137.001,228
137.026,228
137.051,223
137.076,212
137.101,200
137.126,194
137.151,196
137.176,201
137.201,199
137.226,189
137.251,174
137.276,162
137.301,152
137.326,137
137.351,119
137.376,100
137.401,87
137.426,73
137.451,51
137.476,20
137.501,-6
137.526,-8
137.551,23
137.576,80
137.601,137
137.626,178
137.651,198
137.676,205
137.701,208
137.726,208
137.751,202
137.776,191
137.801,181
137.826,178
137.851,181
137.876,186
137.901,185
137.926,176
137.951,163
137.976,151
138.001,142
138.026,134
138.051,122
138.076,107
138.101,93
138.126,83
138.151,73
138.176,54
138.201,27
138.226,8
138.251,18
138.276,63
138.301,131
138.326,195
138.351,237
138.376,257
138.401,264
138.426,269
138.451,270
138.476,263
138.501,252
138.526,243
138.551,238
138.576,233
138.601,221
138.626,200
138.651,176
138.676,157
138.701,144
138.726,136
138.751,130
138.776,123
138.801,113
138.826,97
138.851,78
138.876,60
138.901,45
138.926,28
138.951,8
138.976,-11
139.001,-13
139.026,17
139.051,77
139.076,147
139.101,203
139.126,231
139.151,240
139.176,240
139.201,236
139.226,227
139.251,213
139.276,202
139.301,201
139.326,208
139.351,214
139.376,211
139.401,198
139.426,183
139.451,172
139.476,165
139.501,157
139.526,146
139.551,132
139.576,118
139.601,106
139.626,93
139.651,74
139.676,49
139.701,26
139.726,15
139.751,31
139.776,74
139.801,131
139.826,182
139.851,210
139.876,215
139.901,208
139.926,199
139.951,192
139.976,182
140.001,170
140.026,162
140.051,163
140.076,169
140.101,170
140.126,158
140.151,138
140.176,120
140.201,111
140.226,105
140.251,94
140.276,74
140.301,53
140.326,35
140.351,18
140.376,-2
140.401,-24
140.426,-32
140.451,-7
140.476,50
140.501,127
140.526,198
140.551,246
140.576,272
140.601,282
140.626,282
140.651,272
140.676,256
140.701,240
140.726,230
140.751,228
140.776,228
140.801,226
140.826,218
140.851,207
140.876,194
140.901,181
140.926,168
140.951,153
140.976,139
141.001,125
141.026,111
141.051,98
141.076,82
141.101,60
141.126,35
141.151,15
141.176,16
141.201,48
141.226,105
141.251,166
141.276,210
141.301,231
141.326,238
141.351,242
141.376,244
141.401,238
141.426,221
141.451,203
141.476,194
141.501,197
141.526,202
141.551,198
141.576,182
141.601,163
141.626,147
141.651,137
141.676,128
141.701,118
141.726,106
141.751,95
141.776,83
141.801,69
141.826,56
141.851,43
141.876,30
141.901,13
141.926,-9
141.951,-25
141.976,-16
142.001,28
142.026,97
142.051,168
142.076,219
142.101,244
142.126,252
142.151,254
142.176,252
142.201,243
142.226,226
142.251,211
142.276,208
142.301,216
142.326,227
142.351,231
142.376,225
142.401,214
142.426,204
142.451,197
142.476,188
142.501,175
142.526,160
142.551,146
142.576,130
142.601,111
142.626,87
142.651,63
142.676,44
142.701,27
142.726,6
142.751,-22
142.776,-47
142.801,-48
142.826,-10
142.851,56
142.876,125
142.901,172
142.926,192
142.951,196
142.976,197
143.001,195
143.026,189
143.051,176
143.076,168
143.101,175
143.126,198
143.151,227
143.176,247
143.201,250
143.226,239
143.251,225
143.276,213
143.301,199
143.326,181
143.351,156
143.376,131
143.401,111
143.426,95
143.451,76
143.476,51
143.501,23
143.526,7
143.551,18
143.576,60
143.601,121
143.626,178
143.651,217
143.676,234
143.701,236
143.726,229
143.751,218
143.776,203
143.801,189
143.826,183
143.851,186
143.876,192
143.901,192
143.926,181
143.951,165
143.976,153
144.001,146
144.026,140
144.051,128
144.076,113
144.101,100
144.126,89
144.151,76
144.176,54
144.201,28
144.226,14
144.251,30
144.276,80
144.301,146
144.326,206
144.351,244
144.376,264
144.401,277
144.426,287
144.451,285
144.476,262
144.501,223
144.526,181
144.551,155
144.576,148
144.601,151
144.626,149
144.651,139
144.676,126
144.701,118
144.726,115
144.751,110
144.776,97
144.801,78
144.826,61
144.851,47
144.876,29
144.901,0
144.926,-34
144.951,-53
144.976,-36
145.001,17
145.026,88
145.051,149
145.076,185
145.101,202
145.126,212
145.151,221
145.176,225
145.201,218
145.226,207
145.251,202
145.276,208
145.301,219
145.326,224
145.351,219
145.376,210
145.401,200
145.426,192
145.451,182
145.476,170
145.501,160
145.526,154
145.551,149
145.576,141
145.601,128
145.626,113
145.651,95
145.676,75
145.701,52
145.726,37
145.751,44
145.776,80
145.801,133
145.826,181
145.851,211
145.876,221
145.901,223
145.926,222
145.951,216
145.976,205
146.001,192
146.026,186
146.051,191
146.076,200
146.101,203
146.126,198
146.151,187
146.176,177
146.201,170
146.226,163
146.251,153
146.276,141
146.301,126
146.326,110
146.351,94
146.376,79
146.401,65
146.426,48
146.451,25
146.476,0
146.501,-10
146.526,7
146.551,56
146.576,117
146.601,168
146.626,197
146.651,207
146.676,210
146.701,211
146.726,209
146.751,202
146.776,194
146.801,193
146.826,198
146.851,204
146.876,203
146.901,194
146.926,180
146.951,168
146.976,161
147.001,156
147.026,150
147.051,138
147.076,124
147.101,109
147.126,97
147.151,84
147.176,66
147.201,41
147.226,16
147.251,9
147.276,33
147.301,85
147.326,146
147.351,196
147.376,224
147.401,235
147.426,237
147.451,234
147.476,225
147.501,211
147.526,198
147.551,193
147.576,197
147.601,203
147.626,203
147.651,195
147.676,183
147.701,170
147.726,159
147.751,150
147.776,141
147.801,129
147.826,115
147.851,98
147.876,82
147.901,67
147.926,51
147.951,28
147.976,0
148.001,-19
148.026,-13
148.051,24
148.076,84
148.101,145
148.126,188
148.151,211
148.176,222
148.201,228
148.226,229
148.251,223
148.276,211
148.301,202
148.326,202
148.351,209
148.376,214
148.401,212
148.426,204
148.451,195
148.476,188
148.501,182
148.526,172
148.551,158
148.576,145
148.601,134
148.626,124
148.651,111
148.676,95
148.701,79
148.726,67
148.751,55
148.776,37
148.801,12
148.826,-9
148.851,-6
148.876,31
148.901,98
148.926,168
148.951,218
148.976,239
149.001,239
149.026,233
149.051,228
149.076,222
149.101,214
149.126,208
149.151,208
149.176,216
149.201,224
149.226,224
149.251,214
149.276,202
149.301,194
149.326,189
149.351,184
149.376,172
149.401,157
149.426,142
149.451,127
149.476,112
149.501,94
149.526,76
149.551,62
149.576,49
149.601,29
149.626,2
149.651,-18
149.676,-14
149.701,23
149.726,85
149.751,148
149.776,191
149.801,212
149.826,219
149.851,220
149.876,218
149.901,207
149.926,190
149.951,176
149.976,172
150.001,181
150.026,194
150.051,201
150.076,199
150.101,191
150.126,181
150.151,174
150.176,168
150.201,159
150.226,145
150.251,128
150.276,111
150.301,94
150.326,75
150.351,49
150.376,20
150.401,1
150.426,9
150.451,49
150.476,110
150.501,170
150.526,212
150.551,232
150.576,239
150.601,240
150.626,236
150.651,223
150.676,206
150.701,191
150.726,188
150.751,194
150.776,199
150.801,194
150.826,179
150.851,162
150.876,151
150.901,144
150.926,134
150.951,117
150.976,97
151.001,82
151.026,71
151.051,56
151.076,31
151.101,0
151.126,-20
151.151,-10
151.176,32
151.201,95
151.226,155
151.251,198
151.276,221
151.301,232
151.326,236
151.351,232
151.376,221
151.401,208
151.426,201
151.451,201
151.476,206
151.501,209
151.526,206
151.551,197
151.576,188
151.601,178
151.626,168
151.651,155
151.676,140
151.701,123
151.726,105
151.751,87
151.776,70
151.801,51
151.826,25
151.851,-5
151.876,-31
151.901,-36
151.926,-5
151.951,56
151.976,126
152.001,182
152.026,212
152.051,225
152.076,233
152.101,241
152.126,243
152.151,236
152.176,225
152.201,219
152.226,224
152.251,234
152.276,237
152.301,230
152.326,217
152.351,206
152.376,201
152.401,199
152.426,194
152.451,186
152.476,178
152.501,170
152.526,162
152.551,151
152.576,134
152.601,108
152.626,70
152.651,19
152.676,-36
152.701,-78
152.726,-87
152.751,-54
152.776,10
152.801,86
152.826,150
152.851,191
152.876,213
152.901,223
152.926,224
152.951,216
152.976,199
153.001,182
153.026,177
153.051,186
153.076,200
153.101,208
153.126,205
153.151,198
153.176,194
153.201,193
153.226,190
153.251,179
153.276,164
153.301,152
153.326,144
153.351,133
153.376,115
153.401,93
153.426,76
153.451,65
153.476,51
153.501,27
153.526,1
153.551,-2
153.576,29
153.601,91
153.626,158
153.651,207
153.676,231
153.701,241
153.726,245
153.751,245
153.776,234
153.801,214
153.826,197
153.851,190
153.876,193
153.901,198
153.926,199
153.951,193
153.976,184
154.001,173
154.026,161
154.051,149
154.076,140
154.101,133
154.126,124
154.151,110
154.176,92
154.201,74
154.226,57
154.251,36
154.276,14
154.301,0
154.326,12
154.351,54
154.376,113
154.401,165
154.426,196
154.451,207
154.476,209
154.501,208
154.526,202
154.551,187
154.576,170
154.601,160
154.626,164
154.651,174
154.676,178
154.701,172
154.726,163
154.751,156
154.776,151
154.801,144
154.826,132
154.851,121
154.876,114
154.901,109
154.926,99
154.951,80
154.976,61
155.001,58
155.026,81
155.051,126
155.076,175
155.101,213
155.126,235
155.151,243
155.176,244
155.201,242
155.226,238
155.251,229
155.276,218
155.301,207
155.326,200
155.351,195
155.376,188
155.401,176
155.426,162
155.451,150
155.476,140
155.501,130
155.526,114
155.551,94
155.576,77
155.601,65
155.626,54
155.651,33
155.676,4
155.701,-17
155.726,-11
155.751,27
155.776,87
155.801,142
155.826,178
155.851,197
155.876,208
155.901,214
155.926,214
155.951,205
155.976,194
156.001,188
156.026,189
156.051,192
156.076,191
156.101,184
156.126,173
156.151,162
156.176,150
156.201,142
156.226,137
156.251,135
156.276,128
156.301,112
156.326,89
156.351,66
156.376,48
156.401,31
156.426,7
156.451,-19
156.476,-29
156.501,-3
156.526,58
156.551,133
156.576,195
156.601,232
156.626,249
156.651,260
156.676,267
156.701,265
156.726,255
156.751,243
156.776,240
156.801,245
156.826,252
156.851,250
156.876,241
156.901,230
156.926,222
156.951,217
156.976,210
157.001,199
157.026,185
157.051,169
157.076,150
157.101,130
157.126,112
157.151,98
157.176,85
157.201,71
157.226,55
157.251,39
157.276,21
157.301,1
157.326,-21
157.351,-41
157.376,-42
157.401,-12
157.426,45
157.451,111
157.476,165
157.501,194
157.526,206
157.551,210
157.576,213
157.601,216
157.626,216
157.651,212
157.676,211
157.701,216
157.726,223
157.751,226
157.776,220
157.801,207
157.826,196
157.851,190
157.876,187
157.901,181
157.926,167
157.951,148
157.976,131
158.001,115
158.026,99
158.051,80
158.076,61
158.101,49
158.126,40
158.151,27
158.176,5
158.201,-17
158.226,-21
158.251,7
158.276,65
158.301,132
158.326,187
158.351,221
158.376,239
158.401,249
158.426,250
158.451,243
158.476,230
158.501,220
158.526,220
158.551,232
158.576,246
158.601,256
158.626,256
158.651,247
158.676,231
158.701,214
158.726,198
158.751,183
158.776,165
158.801,140
158.826,110
158.851,88
158.876,80
158.901,81
158.926,75
158.951,53
158.976,25
159.001,16
159.026,42
159.051,98
159.076,160
159.101,206
159.126,227
159.151,231
159.176,223
159.201,204
159.226,179
159.251,154
159.276,142
159.301,145
159.326,153
159.351,154
159.376,142
159.401,126
159.426,115
159.451,109
159.476,102
159.501,90
159.526,75
159.551,63
159.576,56
159.601,45
159.626,25
159.651,0
159.676,-13
159.701,-1
159.726,39
159.751,97
159.776,154
159.801,199
159.826,228
159.851,243
159.876,246
159.901,240
159.926,227
159.951,212
159.976,203
160.001,202
160.026,207
160.051,211
160.076,209
160.101,200
160.126,187
160.151,175
160.176,166
160.201,157
160.226,145
160.251,129
160.276,112
160.301,98
160.326,81
160.351,58
160.376,30
160.401,11
160.426,19
160.451,64
160.476,130
160.501,194
160.526,235
160.551,251
160.576,254
160.601,253
160.626,250
160.651,241
160.676,228
160.701,216
160.726,211
160.751,209
160.776,205
160.801,195
160.826,181
160.851,169
160.876,157
160.901,144
160.926,129
160.951,115
160.976,103
161.001,92
161.026,77
161.051,61
161.076,45
161.101,29
161.126,11
161.151,-12
161.176,-33
161.201,-35
161.226,-5
161.251,52
161.276,119
161.301,175
161.326,211
161.351,233
161.376,247
161.401,255
161.426,252
161.451,238
161.476,222
161.501,212
161.526,213
161.551,217
161.576,218
161.601,211
161.626,201
161.651,192
161.676,186
161.701,184
161.726,179
161.751,171
161.776,161
161.801,151
161.826,140
161.851,127
161.876,111
161.901,95
161.926,81
161.951,68
161.976,51
162.001,25
162.026,0
162.051,-6
162.076,18
162.101,72
162.126,135
162.151,184
162.176,211
162.201,219
162.226,220
162.251,217
162.276,210
162.301,198
162.326,188
162.351,185
162.376,191
162.401,199
162.426,202
162.451,200
162.476,193
162.501,184
162.526,175
162.551,166
162.576,159
162.601,153
162.626,143
162.651,127
162.676,105
162.701,83
162.726,63
162.751,43
162.776,19
162.801,0
162.826,2
162.851,33
162.876,90
162.901,149
162.926,192
162.951,212
162.976,218
163.001,220
163.026,218
163.051,210
163.076,199
163.101,190
163.126,190
163.151,196
163.176,202
163.201,199
163.226,190
163.251,178
163.276,167
163.301,159
163.326,151
163.351,141
163.376,130
163.401,117
163.426,102
163.451,88
163.476,72
163.501,53
163.526,30
163.551,14
163.576,18
163.601,51
163.626,106
163.651,161
163.676,199
163.701,215
163.726,220
163.751,223
163.776,225
163.801,219
163.826,206
163.851,195
163.876,195
163.901,204
163.926,211
163.951,207
163.976,195
164.001,185
164.026,180
164.051,175
164.076,163
164.101,144
164.126,125
164.151,110
164.176,97
164.201,80
164.226,61
164.251,44
164.276,28
164.301,9
164.326,-15
164.351,-35
164.376,-30
164.401,10
164.426,76
164.451,142
164.476,188
164.501,211
164.526,222
164.551,230
164.576,235
164.601,233
164.626,223
164.651,216
164.676,217
164.701,228
164.726,239
164.751,242
164.776,238
164.801,229
164.826,221
164.851,215
164.876,209
164.901,201
164.926,190
164.951,177
164.976,163
165.001,147
165.026,128
165.051,108
165.076,87
165.101,68
165.126,52
165.151,32
165.176,7
165.201,-16
165.226,-22
165.251,5
165.276,66
165.301,140
165.326,200
165.351,232
165.376,244
165.401,247
165.426,249
165.451,244
165.476,226
165.501,202
165.526,185
165.551,181
165.576,182
165.601,178
165.626,165
165.651,151
165.676,144
165.701,142
165.726,139
165.751,131
165.776,122
165.801,116
165.826,110
165.851,99
165.876,82
165.901,62
165.926,46
165.951,31
165.976,10
166.001,-12
166.026,-22
166.051,-1
166.076,51
166.101,119
166.126,179
166.151,216
166.176,234
166.201,241
166.226,242
166.251,238
166.276,228
166.301,217
166.326,211
166.351,212
166.376,216
166.401,218
166.426,214
166.451,205
166.476,192
166.501,178
166.526,165
166.551,153
166.576,142
166.601,128
166.626,113
166.651,97
166.676,81
166.701,59
166.726,31
166.751,3
166.776,-5
166.801,18
166.826,74
166.851,140
166.876,191
166.901,218
166.926,227
166.951,232
166.976,236
167.001,235
167.026,226
167.051,216
167.076,214
167.101,221
167.126,227
167.151,225
167.176,215
167.201,203
167.226,193
167.251,182
167.276,169
167.301,154
167.326,139
167.351,126
167.376,111
167.401,92
167.426,71
167.451,51
167.476,30
167.501,2
167.526,-28
167.551,-45
167.576,-31
167.601,18
167.626,89
167.651,153
167.676,194
167.701,213
167.726,222
167.751,229
167.776,230
167.801,222
167.826,209
167.851,200
167.876,200
167.901,208
167.926,213
167.951,210
167.976,203
168.001,199
168.026,199
168.051,199
168.076,194
168.101,185
168.126,173
168.151,162
168.176,148
168.201,128
168.226,100
168.251,72
168.276,47
168.301,25
168.326,-1
168.351,-33
168.376,-57
168.401,-52
168.426,-7
168.451,63
168.476,134
168.501,182
168.526,206
168.551,219
168.576,234
168.601,248
168.626,249
168.651,238
168.676,223
168.701,218
168.726,223
168.751,226
168.776,219
168.801,204
168.826,194
168.851,192
168.876,192
168.901,184
168.926,168
168.951,152
168.976,142
169.001,133
169.026,120
169.051,101
169.076,81
169.101,61
169.126,40
169.151,14
169.176,-6
169.201,-4
169.226,31
169.251,92
169.276,156
169.301,204
169.326,230
169.351,243
169.376,248
169.401,247
169.426,237
169.451,223
169.476,212
169.501,209
169.526,213
169.551,216
169.576,214
169.601,206
169.626,194
169.651,181
169.676,165
169.701,145
169.726,124
169.751,102
169.776,83
169.801,67
169.826,53
169.851,34
169.876,9
169.901,-20
169.926,-39
169.951,-30
169.976,12
170.001,78
170.026,145
170.051,192
170.076,216
170.101,225
170.126,228
170.151,227
170.176,222
170.201,212
170.226,204
170.251,203
170.276,208
170.301,213
170.326,211
170.351,202
170.376,189
170.401,176
170.426,167
170.451,159
170.476,148
170.501,134
170.526,117
170.551,99
170.576,79
170.601,53
170.626,21
170.651,-8
170.676,-17
170.701,6
170.726,58
170.751,120
170.776,170
170.801,201
170.826,218
170.851,227
170.876,230
170.901,222
170.926,206
170.951,192
170.976,188
171.001,195
171.026,203
171.051,203
171.076,197
171.101,191
171.126,187
171.151,183
171.176,173
171.201,160
171.226,146
171.251,133
171.276,118
171.301,99
171.326,78
171.351,59
171.376,41
171.401,17
171.426,-9
171.451,-24
171.476,-10
171.501,39
171.526,107
171.551,170
171.576,210
171.601,232
171.626,247
171.651,259
171.676,264
171.701,257
171.726,245
171.751,238
171.776,243
171.801,253
171.826,258
171.851,255
171.876,246
171.901,238
171.926,227
171.951,212
171.976,192
172.001,173
172.026,157
172.051,141
172.076,117
172.101,87
172.126,58
172.151,37
172.176,19
172.201,-4
172.226,-37
172.251,-65
172.276,-63
172.301,-24
172.326,41
172.351,106
172.376,153
172.401,179
172.426,192
172.451,200
172.476,204
172.501,204
172.526,199
172.551,196
172.576,195
172.601,196
172.626,197
172.651,195
172.676,193
172.701,188
172.726,181
172.751,171
172.776,160
172.801,151
172.826,139
172.851,123
172.876,105
172.901,91
172.926,82
172.951,71
172.976,52
173.001,29
173.026,16
173.051,32
173.076,76
173.101,132
173.126,179
173.151,207
173.176,220
173.201,227
173.226,230
173.251,224
173.276,210
173.301,197
173.326,195
173.351,203
173.376,212
173.401,213
173.426,205
173.451,194
173.476,183
173.501,174
173.526,164
173.551,151
173.576,135
173.601,117
173.626,98
173.651,78
173.676,59
173.701,41
173.726,20
173.751,-1
173.776,-13
173.801,-1
173.826,43
173.851,109
173.876,174
173.901,217
173.926,235
173.951,238
173.976,237
174.001,235
174.026,228
174.051,217
174.076,209
174.101,210
174.126,217
174.151,222
174.176,218
174.201,206
174.226,195
174.251,187
174.276,178
174.301,166
174.326,151
174.351,135
174.376,119
174.401,102
174.426,83
174.451,65
174.476,53
174.501,40
174.526,20
174.551,-7
174.576,-32
174.601,-30
174.626,7
174.651,72
174.676,141
174.701,192
174.726,221
174.751,235
174.776,242
174.801,244
174.826,239
174.851,230
174.876,223
174.901,225
174.926,232
174.951,238
174.976,240
175.001,236
175.026,231
175.051,226
175.076,220
175.101,211
175.126,197
175.151,181
175.176,163
175.201,146
175.226,129
175.251,113
175.276,93
175.301,71
175.326,49
175.351,31
175.376,14
175.401,-7
175.426,-36
175.451,-61
175.476,-62
175.501,-25
175.526,41
175.551,113
175.576,165
175.601,191
175.626,200
175.651,205
175.676,208
175.701,206
175.726,197
175.751,192
175.776,195
175.801,205
175.826,214
175.851,216
175.876,212
175.901,207
175.926,203
175.951,196
175.976,187
176.001,176
176.026,167
176.051,156
176.076,140
176.101,121
176.126,102
176.151,86
176.176,67
176.201,43
176.226,19
176.251,13
176.276,40
176.301,95
176.326,158
176.351,204
176.376,227
176.401,233
176.426,232
176.451,229
176.476,220
176.501,207
176.526,193
176.551,187
176.576,189
176.601,194
176.626,193
176.651,184
176.676,169
176.701,154
176.726,145
176.751,140
176.776,134
176.801,121
176.826,101
176.851,80
176.876,64
176.901,51
176.926,33
176.951,4
176.976,-20
177.001,-20
177.026,18
177.051,84
177.076,150
177.101,195
177.126,215
177.151,223
177.176,229
177.201,232
177.226,228
177.251,218
177.276,210
177.301,211
177.326,219
177.351,225
177.376,229
177.401,232
177.426,236
177.451,235
177.476,223
177.501,201
177.526,179
177.551,161
177.576,144
177.601,120
177.626,89
177.651,57
177.676,29
177.701,4
177.726,-23
177.751,-46
177.776,-46
177.801,-9
177.826,58
177.851,130
177.876,180
177.901,203
177.926,208
177.951,211
177.976,215
178.001,214
178.026,208
178.051,204
178.076,207
178.101,215
178.126,220
178.151,218
178.176,210
178.201,201
178.226,190
178.251,177
178.276,160
178.301,145
178.326,132
178.351,117
178.376,95
178.401,70
178.426,51
178.451,41
178.476,32
178.501,13
178.526,-12
178.551,-26
178.576,-5
178.601,52
178.626,126
178.651,187
178.676,221
178.701,234
178.726,239
178.751,240
178.776,235
178.801,222
178.826,211
178.851,208
178.876,215
178.901,224
178.926,226
178.951,219
178.976,208
179.001,200
179.026,194
179.051,187
179.076,176
179.101,162
179.126,144
179.151,125
179.176,108
179.201,93
179.226,78
179.251,58
179.276,33
179.301,10
179.326,7
179.351,36
179.376,93
179.401,158
179.426,209
179.451,236
179.476,243
179.501,239
179.526,230
179.551,218
179.576,204
179.601,192
179.626,187
179.651,188
179.676,187
179.701,178
179.726,162
179.751,144
179.776,131
179.801,124
179.826,118
179.851,106
179.876,88
179.901,67
179.926,50
179.951,37
179.976,21
180.001,0
180.026,-18
180.051,-17
180.076,15
180.101,76
180.126,143
180.151,194
180.176,220
180.201,227
180.226,229
180.251,228
180.276,222
180.301,209
180.326,195
180.351,190
180.376,195
180.401,202
180.426,200
180.451,190
180.476,176
180.501,166
180.526,158
180.551,147
180.576,132
180.601,115
180.626,99
180.651,82
180.676,58
180.701,33
180.726,21
180.751,38
180.776,88
180.801,158
180.826,220
180.851,257
180.876,267
180.901,261
180.926,251
180.951,239
180.976,223
181.001,205
181.026,192
181.051,188
181.076,189
181.101,188
181.126,175
181.151,154
181.176,134
181.201,118
181.226,107
181.251,94
181.276,78
181.301,63
181.326,48
181.351,27
181.376,0
181.401,-27
181.426,-32
181.451,-1
181.476,60
181.501,129
181.526,181
181.551,208
181.576,220
181.601,229
181.626,234
181.651,232
181.676,218
181.701,203
181.726,197
181.751,201
181.776,208
181.801,205
181.826,194
181.851,182
181.876,176
181.901,174
181.926,167
181.951,151
181.976,130
182.001,111
182.026,96
182.051,77
182.076,50
182.101,18
182.126,-1
182.151,7
182.176,52
182.201,120
182.226,189
182.251,241
182.276,267
182.301,274
182.326,274
182.351,272
182.376,265
182.401,248
182.426,221
182.451,190
182.476,163
182.501,146
182.526,137
182.551,132
182.576,130
182.601,130
182.626,128
182.651,119
182.676,102
182.701,85
182.726,76
182.751,74
182.776,70
182.801,52
182.826,23
182.851,2
182.876,12
182.901,58
182.926,123
182.951,180
182.976,211
183.001,219
183.026,216
183.051,213
183.076,209
183.101,200
183.126,189
183.151,182
183.176,183
183.201,189
183.226,191
183.251,182
183.276,168
183.301,157
183.326,151
183.351,145
183.376,132
183.401,115
183.426,99
183.451,89
183.476,79
183.501,58
183.526,29
183.551,8
183.576,14
183.601,57
183.626,122
183.651,183
183.676,224
183.701,243
183.726,248
183.751,246
183.776,237
183.801,219
183.826,199
183.851,185
183.876,181
183.901,182
183.926,179
183.951,169
183.976,157
184.001,146
184.026,138
184.051,128
184.076,117
184.101,106
184.126,98
184.151,86
184.176,66
184.201,39
184.226,16
184.251,17
184.276,50
184.301,107
184.326,167
184.351,210
184.376,230
184.401,233
184.426,229
184.451,223
184.476,216
184.501,207
184.526,199
184.551,197
184.576,202
184.601,207
184.626,204
184.651,191
184.676,173
184.701,157
184.726,145
184.751,132
184.776,118
184.801,103
184.826,92
184.851,81
184.876,62
184.901,31
184.926,0
184.951,-12
184.976,9
185.001,61
185.026,123
185.051,175
185.076,208
185.101,226
185.126,231
185.151,226
185.176,209
185.201,187
185.226,172
185.251,169
185.276,178
185.301,190
185.326,196
185.351,195
185.376,190
185.401,185
185.426,180
185.451,174
185.476,167
185.501,154
185.526,137
185.551,115
185.576,93
185.601,72
185.626,51
185.651,29
185.676,13
185.701,18
185.726,51
185.751,106
185.776,164
185.801,204
185.826,220
185.851,220
185.876,214
185.901,208
185.926,200
185.951,186
185.976,170
186.001,161
186.026,160
186.051,162
186.076,162
186.101,153
186.126,140
186.151,125
186.176,111
186.201,96
186.226,80
186.251,64
186.276,52
186.301,45
186.326,37
186.351,25
186.376,10
186.401,4
186.426,23
186.451,71
186.476,135
186.501,196
186.526,238
186.551,263
186.576,275
186.601,278
186.626,272
186.651,257
186.676,240
186.701,231
186.726,231
186.751,231
186.776,223
186.801,207
186.826,191
186.851,180
186.876,171
186.901,159
186.926,147
186.951,142
186.976,144
187.001,142
187.026,124
187.051,95
187.076,75
187.101,88
187.126,131
187.151,185
187.176,224
187.201,242
187.226,244
187.251,238
187.276,224
187.301,202
187.326,180
187.351,166
187.376,164
187.401,166
187.426,160
187.451,145
187.476,127
187.501,112
187.526,99
187.551,83
187.576,65
187.601,50
187.626,38
187.651,23
187.676,0
187.701,-23
187.726,-25
187.751,5
187.776,65
187.801,129
187.826,175
187.851,197
187.876,203
187.901,200
187.926,192
187.951,178
187.976,162
188.001,149
188.026,145
188.051,148
188.076,152
188.101,150
188.126,142
188.151,129
188.176,115
188.201,103
188.226,95
188.251,84
188.276,66
188.301,42
188.326,27
188.351,36
188.376,76
188.401,134
188.426,189
188.451,223
188.476,235
188.501,235
188.526,230
188.551,224
188.576,215
188.601,206
188.626,202
188.651,204
188.676,208
188.701,205
188.726,189
188.751,167
188.776,148
188.801,137
188.826,129
188.851,113
188.876,84
188.901,50
188.926,31
188.951,41
188.976,82
189.001,136
189.026,183
189.051,213
189.076,224
189.101,223
189.126,216
189.151,204
189.176,191
189.201,181
189.226,177
189.251,176
189.276,175
189.301,170
189.326,160
189.351,147
189.376,135
189.401,124
189.426,114
189.451,104
189.476,90
189.501,69
189.526,47
189.551,35
189.576,50
189.601,94
189.626,157
189.651,216
189.676,255
189.701,271
189.726,272
189.751,268
189.776,261
189.801,253
189.826,244
189.851,236
189.876,225
189.901,203
189.926,171
189.951,138
189.976,116
190.001,107
190.026,104
190.051,96
190.076,82
190.101,71
190.126,68
190.151,67
190.176,56
190.201,29
190.226,-3
190.251,-20
190.276,-5
190.301,38
190.326,96
190.351,148
190.376,183
190.401,199
190.426,200
190.451,194
190.476,184
190.501,173
190.526,166
190.551,162
190.576,163
190.601,166
190.626,166
190.651,160
190.676,150
190.701,138
190.726,129
190.751,125
190.776,130
190.801,143
190.826,160
190.851,174
190.876,175
190.901,157
190.926,131
190.951,115
190.976,124
191.001,159
191.026,204
191.051,237
191.076,251
191.101,248
191.126,239
191.151,226
191.176,210
191.201,188
191.226,167
191.251,156
191.276,155
191.301,158
191.326,155
191.351,142
191.376,126
191.401,112
191.426,103
191.451,94
191.476,83
191.501,71
191.526,58
191.551,43
191.576,24
191.601,5
191.626,0
191.651,22
191.676,72
191.701,133
191.726,183
191.751,206
191.776,205
191.801,192
191.826,176
191.851,162
191.876,150
191.901,145
191.926,148
191.951,157
191.976,163
192.001,156
192.026,138
192.051,120
192.076,111
192.101,111
192.126,113
192.151,106
192.176,93
192.201,77
192.226,61
192.251,44
192.276,32
192.301,33
192.326,60
192.351,113
192.376,176
192.401,230
192.426,266
192.451,284
192.476,293
192.501,292
192.526,279
192.551,258
192.576,237
192.601,229
192.626,232
192.651,235
192.676,229
192.701,214
192.726,198
192.751,187
192.776,178
192.801,166
192.826,150
192.851,133
192.876,117
192.901,95
192.926,60
192.951,18
192.976,-9
193.001,-6
193.026,29
193.051,81
193.076,126
193.101,154
193.126,169
193.151,179
193.176,185
193.201,185
193.226,175
193.251,162
193.276,156
193.301,159
193.326,167
193.351,170
193.376,162
193.401,149
193.426,135
193.451,124
193.476,113
193.501,96
193.526,76
193.551,58
193.576,46
193.601,40
193.626,34
193.651,26
193.676,25
193.701,43
193.726,86
193.751,148
193.776,211
193.801,257
193.826,283
193.851,294
193.876,298
193.901,299
193.926,296
193.951,288
193.976,281
194.001,277
194.026,273
194.051,261
194.076,234
194.101,197
194.126,162
194.151,139
194.176,126
194.201,115
194.226,100
194.251,83
194.276,73
194.301,68
194.326,59
194.351,40
194.376,15
194.401,4
194.426,26
194.451,82
194.476,150
194.501,205
194.526,233
194.551,238
194.576,231
194.601,220
194.626,202
194.651,177
194.676,150
194.701,130
194.726,118
194.751,109
194.776,98
194.801,85
194.826,76
194.851,73
194.876,69
194.901,58
194.926,42
194.951,28
194.976,20
195.001,11
195.026,-5
195.051,-20
195.076,-12
195.101,32
195.126,108
195.151,187
195.176,240
195.201,264
195.226,268
195.251,267
195.276,260
195.301,247
195.326,228
195.351,214
195.376,212
195.401,218
195.426,222
195.451,217
195.476,206
195.501,195
195.526,184
195.551,171
195.576,155
195.601,140
195.626,125
195.651,104
195.676,72
195.701,42
195.726,34
195.751,63
195.776,122
195.801,184
195.826,225
195.851,239
195.876,239
195.901,235
195.926,227
195.951,213
195.976,195
196.001,183
196.026,181
196.051,184
196.076,182
196.101,168
196.126,148
196.151,128
196.176,111
196.201,96
196.226,81
196.251,67
196.276,53
196.301,31
196.326,-1
196.351,-35
196.376,-49
196.401,-27
196.426,27
196.451,95
196.476,150
196.501,182
196.526,195
196.551,198
196.576,197
196.601,190
196.626,181
196.651,178
196.676,185
196.701,199
196.726,210
196.751,210
196.776,201
196.801,190
196.826,181
196.851,172
196.876,160
196.901,144
196.926,129
196.951,116
196.976,103
197.001,82
197.026,51
197.051,20
197.076,6
197.101,25
197.126,74
197.151,139
197.176,199
197.201,241
197.226,264
197.251,272
197.276,271
197.301,264
197.326,252
197.351,239
197.376,228
197.401,221
197.426,215
197.451,208
197.476,196
197.501,181
197.526,166
197.551,154
197.576,144
197.601,133
197.626,119
197.651,101
197.676,84
197.701,70
197.726,58
197.751,43
197.776,21
197.801,-2
197.826,-12
197.851,6
197.876,58
197.901,129
197.926,195
197.951,238
197.976,255
198.001,254
198.026,247
198.051,238
198.076,226
198.101,211
198.126,198
198.151,190
198.176,190
198.201,191
198.226,189
198.251,180
198.276,168
198.301,155
198.326,144
198.351,132
198.376,118
198.401,101
198.426,87
198.451,76
198.476,64
198.501,44
198.526,14
198.551,-15
198.576,-29
198.601,-11
198.626,35
198.651,98
198.676,156
198.701,194
198.726,211
198.751,214
198.776,210
198.801,203
198.826,193
198.851,181
198.876,174
198.901,176
198.926,185
198.951,195
198.976,197
199.001,189
199.026,177
199.051,167
199.076,159
199.101,150
199.126,136
199.151,120
199.176,108
199.201,100
199.226,89
199.251,68
199.276,42
199.301,31
199.326,52
199.351,105
199.376,168
199.401,217
199.426,239
199.451,242
199.476,236
199.501,227
199.526,213
199.551,195
199.576,181
199.601,178
199.626,185
199.651,191
199.676,184
199.701,167
199.726,149
199.751,137
199.776,130
199.801,119
199.826,103
199.851,88
199.876,79
199.901,72
199.926,56
199.951,33
199.976,16
200.001,24
200.026,65
200.051,124
200.076,178
200.101,211
200.126,224
200.151,225
200.176,221
200.201,211
200.226,196
200.251,181
200.276,174
200.301,176
200.326,183
200.351,185
200.376,180
200.401,172
200.426,162
200.451,150
200.476,135
200.501,119
200.526,106
200.551,99
200.576,88
200.601,66
200.626,35
200.651,14
200.676,21
200.701,62
200.726,123
200.751,180
200.776,217
200.801,233
200.826,237
200.851,235
200.876,228
200.901,215
200.926,197
200.951,183
200.976,177
201.001,179
201.026,180
201.051,175
201.076,163
201.101,149
201.126,139
201.151,132
201.176,123
201.201,110
201.226,94
201.251,81
201.276,67
201.301,49
201.326,24
201.351,1
201.376,-1
201.401,29
201.426,87
201.451,152
201.476,200
201.501,224
201.526,231
201.551,232
201.576,231
201.601,224
201.626,213
201.651,202
201.676,200
201.701,206
201.726,211
201.751,209
201.776,200
201.801,191
201.826,187
201.851,183
201.876,171
201.901,150
201.926,125
201.951,105
201.976,91
202.001,79
202.026,59
202.051,32
202.076,9
202.101,5
202.126,31
202.151,82
202.176,144
202.201,196
202.226,226
202.251,233
202.276,227
202.301,216
202.326,206
202.351,198
202.376,193
202.401,192
202.426,195
202.451,197
202.476,193
202.501,180
202.526,164
202.551,151
202.576,143
202.601,133
202.626,118
202.651,100
202.676,84
202.701,70
202.726,53
202.751,27
202.776,1
202.801,-5
202.826,21
202.851,79
202.876,145
202.901,195
202.926,220
202.951,229
202.976,230
203.001,226
203.026,216
203.051,199
203.076,183
203.101,178
203.126,181
203.151,183
203.176,179
203.201,171
203.226,163
203.251,157
203.276,149
203.301,135
203.326,120
203.351,108
203.376,99
203.401,84
203.426,59
203.451,36
203.476,35
203.501,69
203.526,126
203.551,182
203.576,218
203.601,231
203.626,234
203.651,234
203.676,231
203.701,219
203.726,202
203.751,191
203.776,191
203.801,197
203.826,198
203.851,187
203.876,170
203.901,154
203.926,143
203.951,130
203.976,113
204.001,94
204.026,78
204.051,62
204.076,39
204.101,9
204.126,-17
204.151,-23
204.176,2
204.201,53
204.226,109
204.251,154
204.276,183
204.301,197
204.326,203
204.351,202
204.376,193
204.401,179
204.426,170
204.451,169
204.476,175
204.501,181
204.526,181
204.551,175
204.576,167
204.601,161
204.626,159
204.651,157
204.676,150
204.701,138
204.726,124
204.751,111
204.776,99
204.801,83
204.826,58
204.851,31
204.876,15
204.901,27
204.926,71
204.951,133
204.976,191
205.001,228
205.026,244
205.051,247
205.076,246
205.101,243
205.126,234
205.151,223
205.176,215
205.201,216
205.226,221
205.251,223
205.276,217
205.301,204
205.326,192
205.351,184
205.376,179
205.401,172
205.426,161
205.451,147
205.476,132
205.501,113
205.526,89
205.551,63
205.576,40
205.601,22
205.626,2
205.651,-21
205.676,-43
205.701,-44
205.726,-8
205.751,60
205.776,136
205.801,193
205.826,219
205.851,226
205.876,229
205.901,234
205.926,233
205.951,222
205.976,207
206.001,201
206.026,207
206.051,218
206.076,220
206.101,209
206.126,195
206.151,185
206.176,180
206.201,175
206.226,167
206.251,157
206.276,148
206.301,138
206.326,125
206.351,108
206.376,91
206.401,76
206.426,59
206.451,35
206.476,11
206.501,0
206.526,16
206.551,59
206.576,113
206.601,159
206.626,186
206.651,197
206.676,198
206.701,192
206.726,179
206.751,164
206.776,154
206.801,156
206.826,166
206.851,177
206.876,181
206.901,176
206.926,167
206.951,157
206.976,149
207.001,142
207.026,135
207.051,126
207.076,117
207.101,107
207.126,98
207.151,83
207.176,62
207.201,37
207.226,22
207.251,34
207.276,76
207.301,138
207.326,197
207.351,237
207.376,258
207.401,266
207.426,271
207.451,270
207.476,260
207.501,243
207.526,229
207.551,225
207.576,227
207.601,225
207.626,214
207.651,194
207.676,175
207.701,160
207.726,145
207.751,127
207.776,107
207.801,90
207.826,77
207.851,62
207.876,39
207.901,11
207.926,-5
207.951,7
207.976,54
208.001,117
208.026,169
208.051,193
208.076,192
208.101,183
208.126,178
208.151,179
208.176,177
208.201,166
208.226,152
208.251,145
208.276,148
208.301,155
208.326,156
208.351,150
208.376,140
208.401,133
208.426,128
208.451,119
208.476,104
208.501,87
208.526,74
208.551,63
208.576,45
208.601,19
208.626,-3
208.651,-3
208.676,32
208.701,96
208.726,162
208.751,210
208.776,234
208.801,242
208.826,244
208.851,245
208.876,239
208.901,228
208.926,217
208.951,214
208.976,220
209.001,229
209.026,230
209.051,220
209.076,202
209.101,184
209.126,171
209.151,162
209.176,149
209.201,130
209.226,106
209.251,84
209.276,67
209.301,50
209.326,25
209.351,-5
209.376,-25
209.401,-14
209.426,32
209.451,100
209.476,162
209.501,201
209.526,220
209.551,230
209.576,235
209.601,231
209.626,216
209.651,200
209.676,194
209.701,203
209.726,216
209.751,221
209.776,215
209.801,204
209.826,196
209.851,190
209.876,182
209.901,169
209.926,152
209.951,135
209.976,118
210.001,102
210.026,86
210.051,70
210.076,49
210.101,21
210.126,-7
210.151,-17
210.176,7
210.201,66
210.226,139
210.251,197
210.276,228
210.301,237
210.326,235
210.351,229
210.376,217
210.401,203
210.426,191
210.451,190
210.476,195
210.501,201
210.526,200
210.551,194
210.576,186
210.601,178
210.626,169
210.651,157
210.676,145
210.701,132
210.726,118
210.751,102
210.776,83
210.801,66
210.826,49
210.851,27
210.876,-1
210.901,-24
210.926,-21
210.951,19
210.976,87
211.001,156
211.026,204
211.051,224
211.076,228
211.101,226
211.126,220
211.151,209
211.176,197
211.201,190
211.226,191
211.251,197
211.276,201
211.301,197
211.326,187
211.351,178
211.376,170
211.401,162
211.426,151
211.451,137
211.476,123
211.501,108
211.526,94
211.551,76
211.576,52
211.601,23
211.626,2
211.651,3
211.676,34
211.701,92
211.726,157
211.751,209
211.776,238
211.801,248
211.826,249
211.851,245
211.876,235
211.901,220
211.926,207
211.951,203
211.976,208
212.001,213
212.026,212
212.051,204
212.076,195
212.101,188
212.126,180
212.151,166
212.176,147
212.201,127
212.226,111
212.251,96
212.276,78
212.301,57
212.326,37
212.351,19
212.376,-2
212.401,-32
212.426,-61
212.451,-68
212.476,-36
212.501,30
212.526,106
212.551,165
212.576,198
212.601,213
212.626,225
212.651,233
212.676,234
212.701,226
212.726,217
212.751,217
212.776,226
212.801,235
212.826,236
212.851,230
212.876,225
212.901,222
212.926,217
212.951,206
212.976,189
213.001,172
213.026,157
213.051,143
213.076,125
213.101,107
213.126,89
213.151,70
213.176,45
213.201,14
213.226,-8
213.251,-3
213.276,39
213.301,106
213.326,171
213.351,213
213.376,229
213.401,230
213.426,227
213.451,224
213.476,218
213.501,207
213.526,198
213.551,196
213.576,201
213.601,206
213.626,205
213.651,195
213.676,182
213.701,170
213.726,160
213.751,149
213.776,134
213.801,115
213.826,95
213.851,78
213.876,63
213.901,43
213.926,13
213.951,-14
213.976,-23
214.001,2
214.026,60
214.051,126
214.076,177
214.101,203
214.126,211
214.151,212
214.176,209
214.201,201
214.226,186
214.251,173
214.276,172
214.301,182
214.326,190
214.351,187
214.376,175
214.401,164
214.426,160
214.451,159
214.476,152
214.501,138
214.526,124
214.551,115
214.576,107
214.601,89
214.626,58
214.651,29
214.676,23
214.701,54
214.726,110
214.751,168
214.776,207
214.801,225
214.826,229
214.851,229
214.876,226
214.901,215
214.926,199
214.951,186
214.976,184
215.001,191
215.026,196
215.051,191
215.076,176
215.101,160
215.126,147
215.151,134
215.176,116
215.201,93
215.226,71
215.251,57
215.276,44
215.301,24
215.326,-5
215.351,-30
215.376,-29
215.401,7
215.426,70
215.451,136
215.476,187
215.501,219
215.526,236
215.551,245
215.576,244
215.601,236
215.626,225
215.651,218
215.676,221
215.701,228
215.726,234
215.751,235
215.776,229
215.801,220
215.826,208
215.851,194
215.876,179
215.901,163
215.926,144
215.951,121
215.976,97
216.001,74
216.026,51
216.051,24
216.076,-6
216.101,-30
216.126,-28
216.151,9
216.176,73
216.201,140
216.226,188
216.251,211
216.276,219
216.301,221
216.326,217
216.351,204
216.376,184
216.401,169
216.426,169
216.451,183
216.476,198
216.501,205
216.526,202
216.551,195
216.576,187
216.601,179
216.626,170
216.651,159
216.676,147
216.701,131
216.726,109
216.751,85
216.776,63
216.801,45
216.826,28
216.851,3
216.876,-22
216.901,-33
216.926,-10
216.951,49
216.976,127
217.001,195
217.026,236
217.051,252
217.076,252
217.101,246
217.126,235
217.151,221
217.176,208
217.201,202
217.226,205
217.251,214
217.276,222
217.301,222
217.326,216
217.351,208
217.376,203
217.401,200
217.426,195
217.451,183
217.476,161
217.501,131
217.526,99
217.551,70
217.576,41
217.601,9
217.626,-17
217.651,-27
217.676,-6
217.701,46
217.726,112
217.751,169
217.776,201
217.801,210
217.826,210
217.851,207
217.876,202
217.901,195
217.926,187
217.951,186
217.976,195
218.001,206
218.026,209
218.051,199
218.076,182
218.101,169
218.126,163
218.151,157
218.176,142
218.201,120
218.226,100
218.251,87
218.276,77
218.301,58
218.326,30
218.351,6
218.376,8
218.401,47
218.426,109
218.451,169
218.476,208
218.501,222
218.526,221
218.551,215
218.576,207
218.601,195
218.626,182
218.651,175
218.676,175
218.701,181
218.726,185
218.751,184
218.776,178
218.801,171
218.826,167
218.851,163
218.876,157
218.901,144
218.926,124
218.951,102
218.976,83
219.001,69
219.026,54
219.051,32
219.076,3
219.101,-15
219.126,-4
219.151,40
219.176,105
219.201,166
219.226,204
219.251,222
219.276,229
219.301,233
219.326,230
219.351,218
219.376,200
219.401,188
219.426,188
219.451,198
219.476,206
219.501,206
219.526,194
219.551,174
219.576,154
219.601,136
219.626,123
219.651,112
219.676,100
219.701,85
219.726,69
219.751,57
219.776,48
219.801,35
219.826,16
219.851,0
219.876,4
219.901,44
219.926,112
219.951,183
219.976,232
220.001,255
220.026,259
220.051,256
220.076,247
220.101,233
220.126,216
220.151,207
220.176,212
220.201,224
220.226,235
220.251,237
220.276,229
220.301,217
220.326,205
220.351,195
220.376,190
220.401,187
220.426,180
220.451,166
220.476,143
220.501,120
220.526,101
220.551,81
220.576,53
220.601,17
220.626,-7
220.651,-1
220.676,44
220.701,111
220.726,169
220.751,196
220.776,195
220.801,180
220.826,166
220.851,155
220.876,144
220.901,134
220.926,132
220.951,141
220.976,159
221.001,176
221.026,182
221.051,174
221.076,159
221.101,144
221.126,134
221.151,126
221.176,114
221.201,94
221.226,72
221.251,54
221.276,41
221.301,25
221.326,3
221.351,-16
221.376,-15
221.401,19
221.426,81
221.451,146
221.476,191
221.501,207
221.526,202
221.551,190
221.576,178
221.601,167
221.626,161
221.651,165
221.676,180
221.701,199
221.726,214
221.751,220
221.776,218
221.801,216
221.826,218
221.851,221
221.876,221
221.901,213
221.926,197
221.951,178
221.976,161
222.001,144
222.026,125
222.051,98
222.076,70
222.101,54
222.126,66
222.151,109
222.176,167
222.201,219
222.226,249
222.251,259
222.276,256
222.301,248
222.326,236
222.351,219
222.376,199
222.401,181
222.426,169
222.451,163
222.476,158
222.501,151
222.526,141
222.551,127
222.576,113
222.601,102
222.626,94
222.651,87
222.676,74
222.701,57
222.726,39
222.751,26
222.776,16
222.801,2
222.826,-17
222.851,-30
222.876,-17
222.901,29
222.926,95
222.951,156
222.976,192
223.001,206
223.026,210
223.051,212
223.076,210
223.101,200
223.126,186
223.151,178
223.176,182
223.201,193
223.226,201
223.251,200
223.276,194
223.301,189
223.326,185
223.351,179
223.376,166
223.401,148
223.426,129
223.451,113
223.476,100
223.501,85
223.526,65
223.551,41
223.576,20
223.601,17
223.626,43
223.651,96
223.676,163
223.701,220
223.726,254
223.751,267
223.776,270
223.801,271
223.826,270
223.851,263
223.876,251
223.901,242
223.926,239
223.951,239
223.976,234
224.001,224
224.026,214
224.051,210
224.076,207
224.101,193
224.126,161
224.151,116
224.176,71
224.201,35
224.226,4
224.251,-28
224.276,-62
224.301,-79
224.326,-61
224.351,-8
224.376,61
224.401,122
224.426,159
224.451,174
224.476,175
224.501,169
224.526,158
224.551,142
224.576,129
224.601,127
224.626,139
224.651,156
224.676,169
224.701,173
224.726,170
224.751,167
224.776,166
224.801,163
224.826,155
224.851,145
224.876,135
224.901,124
224.926,105
224.951,77
224.976,48
225.001,38
225.026,59
225.051,108
225.076,167
225.101,214
225.126,239
225.151,245
225.176,243
225.201,238
225.226,230
225.251,219
225.276,206
225.301,197
225.326,195
225.351,197
225.376,198
225.401,192
225.426,177
225.451,159
225.476,144
225.501,135
225.526,129
225.551,119
225.576,103
225.601,84
225.626,67
225.651,52
225.676,32
225.701,7
225.726,-9
225.751,0
225.776,48
225.801,124
225.826,199
225.851,247
225.876,262
225.901,254
225.926,238
225.951,219
225.976,199
226.001,180
226.026,169
226.051,169
226.076,177
226.101,184
226.126,186
226.151,182
226.176,176
226.201,169
226.226,159
226.251,145
226.276,132
226.301,120
226.326,109
226.351,97
226.376,83
226.401,67
226.426,49
226.451,26
226.476,3
226.501,-5
226.526,15
226.551,67
226.576,133
226.601,189
226.626,222
226.651,237
226.676,244
226.701,248
226.726,245
226.751,231
226.776,214
226.801,205
226.826,208
226.851,216
226.876,218
226.901,213
226.926,205
226.951,198
226.976,189
227.001,177
227.026,162
227.051,148
227.076,137
227.101,123
227.126,103
227.151,82
227.176,65
227.201,53
227.226,36
227.251,8
227.276,-20
227.301,-29
227.326,0
227.351,60
227.376,128
227.401,179
227.426,203
227.451,211
227.476,213
227.501,213
227.526,208
227.551,198
227.576,189
227.601,186
227.626,191
227.651,199
227.676,203
227.701,199
227.726,189
227.751,177
227.776,166
227.801,159
227.826,152
227.851,141
227.876,124
227.901,104
227.926,87
227.951,72
227.976,54
228.001,29
228.026,5
228.051,0
228.076,26
228.101,83
228.126,149
228.151,199
228.176,226
228.201,235
228.226,238
228.251,236
228.276,225
228.301,208
228.326,190
228.351,183
228.376,186
228.401,191
228.426,190
228.451,182
228.476,173
228.501,166
228.526,159
228.551,147
228.576,130
228.601,112
228.626,100
228.651,89
228.676,73
228.701,46
228.726,16
228.751,0
228.776,11
228.801,54
228.826,115
228.851,172
228.876,210
228.901,225
228.926,227
228.951,225
228.976,222
229.001,215
229.026,205
229.051,196
229.076,195
229.101,201
229.126,206
229.151,201
229.176,186
229.201,167
229.226,152
229.251,140
229.276,125
229.301,106
229.326,89
229.351,78
229.376,69
229.401,54
229.426,28
229.451,2
229.476,-5
229.501,18
229.526,72
229.551,135
229.576,188
229.601,220
229.626,233
229.651,236
229.676,233
229.701,226
229.726,215
229.751,202
229.776,192
229.801,189
229.826,192
229.851,198
229.876,200
229.901,192
229.926,177
229.951,163
229.976,152
230.001,143
230.026,130
230.051,112
230.076,92
230.101,77
230.126,62
230.151,42
230.176,14
230.201,-6
230.226,0
230.251,41
230.276,105
230.301,165
230.326,203
230.351,218
230.376,222
230.401,225
230.426,225
230.451,217
230.476,202
230.501,190
230.526,190
230.551,201
230.576,211
230.601,210
230.626,200
230.651,190
230.676,183
230.701,180
230.726,171
230.751,153
230.776,130
230.801,112
230.826,101
230.851,93
230.876,75
230.901,45
230.926,11
230.951,-6
230.976,8
231.001,55
231.026,118
231.051,173
231.076,205
231.101,215
231.126,212
231.151,205
231.176,196
231.201,185
231.226,173
231.251,166
231.276,165
231.301,167
231.326,167
231.351,162
231.376,154
231.401,149
231.426,146
231.451,142
231.476,133
231.501,122
231.526,113
231.551,103
231.576,88
231.601,62
231.626,31
231.651,12
231.676,23
231.701,66
231.726,127
231.751,183
231.776,219
231.801,233
231.826,235
231.851,231
231.876,223
231.901,208
231.926,193
231.951,184
231.976,185
232.001,190
232.026,192
232.051,184
232.076,170
232.101,156
232.126,146
232.151,135
232.176,121
232.201,106
232.226,90
232.251,72
232.276,48
232.301,22
232.326,9
232.351,25
232.376,73
232.401,136
232.426,190
232.451,220
232.476,229
232.501,229
232.526,228
232.551,223
232.576,212
232.601,200
232.626,196
232.651,201
232.676,208
232.701,207
232.726,196
232.751,181
232.776,167
232.801,152
232.826,134
232.851,113
232.876,96
232.901,85
232.926,72
232.951,51
232.976,22
233.001,2
233.026,11
233.051,52
233.076,114
233.101,172
233.126,211
233.151,229
233.176,233
233.201,230
233.226,220
233.251,204
233.276,185
233.301,172
233.326,167
233.351,171
233.376,175
233.401,175
233.426,169
233.451,161
233.476,154
233.501,146
233.526,135
233.551,120
233.576,104
233.601,91
233.626,75
233.651,51
233.676,16
233.701,-15
233.726,-23
233.751,4
233.776,63
233.801,129
233.826,181
233.851,210
233.876,220
233.901,220
233.926,213
233.951,201
233.976,188
234.001,179
234.026,180
234.051,189
234.076,197
234.101,199
234.126,193
234.151,183
234.176,174
234.201,168
234.226,163
234.251,156
234.276,144
234.301,129
234.326,111
234.351,93
234.376,73
234.401,50
234.426,27
234.451,16
234.476,29
234.501,71
234.526,131
234.551,188
234.576,226
234.601,242
234.626,242
234.651,235
234.676,226
234.701,213
234.726,200
234.751,193
234.776,196
234.801,204
234.826,209
234.851,204
234.876,190
234.901,175
234.926,163
234.951,154
234.976,145
235.001,133
235.026,122
235.051,113
235.076,103
235.101,87
235.126,61
235.151,33
235.176,19
235.201,35
235.226,83
235.251,147
235.276,201
235.301,225
235.326,219
235.351,197
235.376,176
235.401,162
235.426,154
235.451,150
235.476,152
235.501,161
235.526,173
235.551,179
235.576,171
235.601,155
235.626,141
235.651,132
235.676,126
235.701,116
235.726,101
235.751,87
235.776,75
235.801,62
235.826,40
235.851,14
235.876,0
235.901,16
235.926,63
235.951,123
235.976,176
236.001,210
236.026,226
236.051,233
236.076,233
236.101,226
236.126,214
236.151,200
236.176,193
236.201,194
236.226,199
236.251,200
236.276,193
236.301,180
236.326,166
236.351,156
236.376,152
236.401,149
236.426,139
236.451,123
236.476,105
236.501,89
236.526,73
236.551,52
236.576,22
236.601,-3
236.626,-7
236.651,25
236.676,86
236.701,151
236.726,198
236.751,221
236.776,229
236.801,231
236.826,231
236.851,224
236.876,211
236.901,200
236.926,198
236.951,204
236.976,208
237.001,205
237.026,195
237.051,183
237.076,173
237.101,165
237.126,158
237.151,150
237.176,141
237.201,127
237.226,109
237.251,91
237.276,75
237.301,60
237.326,41
237.351,15
237.376,-3
237.401,2
237.426,42
237.451,105
237.476,169
237.501,213
237.526,233
237.551,238
237.576,236
237.601,230
237.626,218
237.651,206
237.676,202
237.701,209
237.726,223
237.751,232
237.776,231
237.801,222
237.826,210
237.851,201
237.876,195
237.901,188
237.926,176
237.951,158
237.976,139
238.001,122
238.026,108
238.051,89
238.076,59
238.101,20
238.126,-10
238.151,-17
238.176,10
238.201,61
238.226,114
238.251,150
238.276,166
238.301,168
238.326,167
238.351,164
238.376,160
238.401,155
238.426,154
238.451,159
238.476,167
238.501,172
238.526,169
238.551,159
238.576,148
238.601,140
238.626,136
238.651,133
238.676,126
238.701,114
238.726,101
238.751,89
238.776,77
238.801,57
238.826,31
238.851,13
238.876,20
238.901,60
238.926,125
238.951,189
238.976,232
239.001,251
239.026,253
239.051,249
239.076,240
239.101,228
239.126,216
239.151,211
239.176,213
239.201,219
239.226,220
239.251,212
239.276,200
239.301,188
239.326,178
239.351,167
239.376,154
239.401,138
239.426,120
239.451,102
239.476,83
239.501,66
239.526,47
239.551,23
239.576,-3
239.601,-22
239.626,-15
239.651,27
239.676,95
239.701,163
239.726,209
239.751,229
239.776,234
239.801,234
239.826,231
239.851,222
239.876,209
239.901,200
239.926,200
239.951,207
239.976,210
240.001,205
240.026,194
240.051,183
240.076,173
240.101,164
240.126,155
240.151,145
240.176,132
240.201,116
240.226,97
240.251,79
240.276,65
240.301,49
240.326,25
240.351,-5
240.376,-26
240.401,-16
240.426,32
240.451,103
240.476,168
240.501,211
240.526,232
240.551,244
240.576,251
240.601,250
240.626,238
240.651,222
240.676,212
240.701,214
240.726,222
240.751,225
240.776,220
240.801,207
240.826,195
240.851,183
240.876,172
240.901,158
240.926,144
240.951,128
240.976,111
241.001,94
241.026,77
241.051,60
241.076,42
241.101,20
241.126,3
241.151,3
241.176,30
241.201,84
241.226,148
241.251,198
241.276,225
241.301,230
241.326,223
241.351,213
241.376,201
241.401,188
241.426,178
241.451,176
241.476,181
241.501,187
241.526,185
241.551,176
241.576,164
241.601,156
241.626,150
241.651,142
241.676,130
241.701,115
241.726,100
241.751,86
241.776,68
241.801,43
241.826,13
241.851,-7
241.876,-3
241.901,33
241.926,94
241.951,160
241.976,208
242.001,232
242.026,233
242.051,225
242.076,213
242.101,201
242.126,190
242.151,183
242.176,184
242.201,193
242.226,202
242.251,202
242.276,195
242.301,184
242.326,175
242.351,165
242.376,151
242.401,132
242.426,114
242.451,101
242.476,88
242.501,65
242.526,31
242.551,1
242.576,-3
242.601,26
242.626,82
242.651,141
242.676,186
242.701,212
242.726,225
242.751,231
242.776,228
242.801,217
242.826,202
242.851,189
242.876,185
242.901,188
242.926,193
242.951,192
242.976,185
243.001,173
243.026,161
243.051,150
243.076,141
243.101,130
243.126,115
243.151,98
243.176,83
243.201,67
243.226,48
243.251,23
243.276,0
243.301,-3
243.326,24
243.351,80
243.376,145
243.401,196
243.426,226
243.451,239
243.476,245
243.501,247
243.526,244
243.551,235
243.576,229
243.601,230
243.626,237
243.651,242
243.676,239
243.701,226
243.726,207
243.751,185
243.776,162
243.801,140
243.826,119
243.851,98
243.876,77
243.901,56
243.926,37
243.951,19
243.976,1
244.001,-20
244.026,-41
244.051,-45
244.076,-16
244.101,43
244.126,115
244.151,175
244.176,211
244.201,226
244.226,233
244.251,236
244.276,236
244.301,232
244.326,229
244.351,232
244.376,241
244.401,248
244.426,251
244.451,248
244.476,242
244.501,232
244.526,216
244.551,195
244.576,174
244.601,156
244.626,137
244.651,114
244.676,89
244.701,66
244.726,46
244.751,23
244.776,-4
244.801,-29
244.826,-30
244.851,4
244.876,67
244.901,134
244.926,180
244.951,199
244.976,198
245.001,191
245.026,182
245.051,173
245.076,165
245.101,160
245.126,162
245.151,167
245.176,171
245.201,171
245.226,165
245.251,155
245.276,144
245.301,136
245.326,131
245.351,125
245.376,111
245.401,93
245.426,80
245.451,84
245.476,100
245.501,111
245.526,102
245.551,79
245.576,69
245.601,91
245.626,140
245.651,195
245.676,231
245.701,244
245.726,245
245.751,240
245.776,231
245.801,215
245.826,198
245.851,193
245.876,201
245.901,214
245.926,218
245.951,212
245.976,200
246.001,191
246.026,183
246.051,173
246.076,160
246.101,146
246.126,132
246.151,115
246.176,92
246.201,69
246.226,52
246.251,41
246.276,25
246.301,0
246.326,-24
246.351,-27
246.376,5
246.401,68
246.426,133
246.451,180
246.476,205
246.501,216
246.526,222
246.551,223
246.576,214
246.601,199
246.626,189
246.651,193
246.676,206
246.701,220
246.726,226
246.751,222
246.776,214
246.801,207
246.826,202
246.851,195
246.876,184
246.901,169
246.926,154
246.951,140
246.976,126
247.001,110
247.026,91
247.051,70
247.076,52
247.101,37
247.126,20
247.151,-1
247.176,-22
247.201,-23
247.226,7
247.251,68
247.276,137
247.301,189
247.326,215
247.351,223
247.376,226
247.401,229
247.426,226
247.451,215
247.476,202
247.501,198
247.526,205
247.551,215
247.576,218
247.601,211
247.626,200
247.651,190
247.676,182
247.701,174
247.726,166
247.751,157
247.776,146
247.801,132
247.826,113
247.851,95
247.876,80
247.901,67
247.926,47
247.951,19
247.976,-4
248.001,-4
248.026,28
248.051,85
248.076,142
248.101,184
248.126,206
248.151,215
248.176,216
248.201,210
248.226,197
248.251,183
248.276,175
248.301,178
248.326,187
248.351,195
248.376,198
248.401,195
248.426,187
248.451,178
248.476,167
248.501,158
248.526,148
248.551,138
248.576,125
248.601,111
248.626,95
248.651,75
248.676,47
248.701,16
248.726,-1
248.751,9
248.776,55
248.801,120
248.826,180
248.851,217
248.876,232
248.901,238
248.926,241
248.951,238
248.976,226
249.001,208
249.026,196
249.051,197
249.076,205
249.101,209
249.126,201
249.151,186
249.176,171
249.201,161
249.226,152
249.251,140
249.276,125
249.301,111
249.326,102
249.351,96
249.376,86
249.401,67
249.426,37
249.451,7
249.476,-5
249.501,10
249.526,56
249.551,114
249.576,166
249.601,199
249.626,215
249.651,220
249.676,219
249.701,213
249.726,203
249.751,194
249.776,191
249.801,196
249.826,202
249.851,203
249.876,198
249.901,189
249.926,178
249.951,168
249.976,159
250.001,149
250.026,139
250.051,125
250.076,106
250.101,85
250.126,69
250.151,57
250.176,40
250.201,15
250.226,-13
250.251,-23
250.276,1
250.301,59
250.326,128
250.351,182
250.376,210
250.401,219
250.426,220
250.451,219
250.476,214
250.501,204
250.526,195
250.551,193
250.576,197
250.601,202
250.626,204
250.651,201
250.676,193
250.701,183
250.726,171
250.751,161
250.776,152
250.801,144
250.826,132
250.851,114
250.876,97
250.901,83
250.926,71
250.951,53
250.976,30
251.001,14
251.026,24
251.051,67
251.076,131
251.101,190
251.126,227
251.151,244
251.176,250
251.201,252
251.226,248
251.251,235
251.276,220
251.301,212
251.326,214
251.351,219
251.376,219
251.401,208
251.426,191
251.451,175
251.476,161
251.501,147
251.526,129
251.551,111
251.576,94
251.601,82
251.626,69
251.651,50
251.676,23
251.701,-3
251.726,-16
251.751,-3
251.776,38
251.801,95
251.826,150
251.851,191
251.876,215
251.901,228
251.926,230
251.951,222
251.976,208
252.001,194
252.026,189
252.051,191
252.076,195
252.101,191
252.126,178
252.151,160
252.176,141
252.201,124
252.226,109
252.251,99
252.276,93
252.301,87
252.326,70
252.351,43
252.376,17
252.401,15
252.426,45
252.451,98
252.476,151
252.501,187
252.526,206
252.551,213
252.576,213
252.601,206
252.626,193
252.651,179
252.676,173
252.701,173
252.726,174
252.751,169
252.776,159
252.801,148
252.826,136
252.851,124
252.876,112
252.901,104
252.926,99
252.951,90
252.976,70
253.001,44
253.026,29
253.051,44
253.076,87
253.101,143
253.126,189
253.151,217
253.176,231
253.201,237
253.226,237
253.251,229
253.276,217
253.301,206
253.326,202
253.351,205
253.376,212
253.401,223
253.426,235
253.451,243
253.476,241
253.501,229
253.526,219
253.551,218
253.576,220
253.601,206
253.626,165
253.651,113
253.676,83
253.701,93
253.726,131
253.751,164
253.776,167
253.801,146
253.826,124
253.851,113
253.876,106
253.901,84
253.926,47
253.951,16
253.976,19
254.001,63
254.026,132
254.051,197
254.076,237
254.101,244
254.126,227
254.151,196
254.176,165
254.201,137
254.226,113
254.251,87
254.276,58
254.301,35
254.326,31
254.351,53
254.376,96
254.401,140
254.426,167
254.451,171
254.476,158
254.501,138
254.526,119
254.551,103
254.576,90
254.601,83
254.626,85
254.651,92
254.676,97
254.701,92
254.726,77
254.751,59
254.776,49
254.801,44
254.826,37
254.851,20
254.876,-4
254.901,-25
254.926,-34
254.951,-37
254.976,-43
255.001,-49
255.026,-38
255.051,9
255.076,99
255.101,211
255.126,309
255.151,366
255.176,381
255.201,371
255.226,354
255.251,343
255.276,338
255.301,336
255.326,333
255.351,330
255.376,328
255.401,323
255.426,315
255.451,300
255.476,277
255.501,252
255.526,227
255.551,207
255.576,188
255.601,169
255.626,149
255.651,133
255.676,123
255.701,114
255.726,99
255.751,78
255.776,65
255.801,78
255.826,121
255.851,178
255.876,227
255.901,252
255.926,259
255.951,257
255.976,255
256.001,248
256.026,234
256.051,214
256.076,195
256.101,183
256.126,174
256.151,160
256.176,137
256.201,107
256.226,77
256.251,49
256.276,25
256.301,3
256.326,-14
256.351,-27
256.376,-34
256.401,-39
256.426,-49
256.451,-67
256.476,-93
256.501,-112
256.526,-108
256.551,-71
256.576,-8
256.601,58
256.626,107
256.651,131
256.676,141
256.701,150
256.726,163
256.751,177
256.776,187
256.801,196
256.826,212
256.851,233
256.876,251
256.901,256
256.926,249
256.951,237
256.976,229
257.001,224
257.026,215
257.051,199
257.076,180
257.101,164
257.126,150
257.151,128
257.176,92
257.201,53
257.226,34
257.251,53
257.276,109
257.301,180
257.326,240
257.351,275
257.376,288
257.401,287
257.426,277
257.451,259
257.476,237
257.501,219
257.526,212
257.551,214
257.576,217
257.601,209
257.626,190
257.651,167
257.676,145
257.701,127
257.726,110
257.751,92
257.776,75
257.801,60
257.826,43
257.851,20
257.876,-5
257.901,-20
257.926,-9
257.951,31
257.976,91
258.001,147
258.026,186
258.051,204
258.076,209
258.101,208
258.126,199
258.151,185
258.176,167
258.201,155
258.226,155
258.251,163
258.276,172
258.301,175
258.326,174
258.351,170
258.376,165
258.401,154
258.426,137
258.451,117
258.476,100
258.501,86
258.526,68
258.551,41
258.576,14
258.601,6
258.626,36
258.651,102
258.676,180
258.701,241
258.726,271
258.751,277
258.776,275
258.801,274
258.826,270
258.851,258
258.876,242
258.901,229
258.926,227
258.951,231
258.976,230
259.001,222
259.026,211
259.051,202
259.076,194
259.101,180
259.126,159
259.151,133
259.176,113
259.201,98
259.226,80
259.251,50
259.276,12
259.301,-16
259.326,-17
259.351,13
259.376,63
259.401,111
259.426,142
259.451,153
259.476,151
259.501,143
259.526,131
259.551,115
259.576,95
259.601,75
259.626,60
259.651,52
259.676,45
259.701,31
259.726,6
259.751,-25
259.776,-54
259.801,-74
259.826,-92
259.851,-117
259.876,-152
259.901,-184
259.926,-199
259.951,-201
259.976,-209
260.001,-228
260.026,-230
260.051,-163
260.076,4
260.101,251
260.126,505
260.151,695
260.176,795
260.201,831
260.226,842
260.251,842
260.276,819
260.301,761
260.326,676
260.351,592
260.376,527
260.401,479
260.426,432
260.451,373
260.476,298
260.501,214
260.526,133
260.551,63
260.576,10
260.601,-23
260.626,-45
260.651,-62
260.676,-81
260.701,-96
260.726,-101
260.751,-87
260.776,-57
260.801,-17
260.826,23
260.851,55
260.876,75
260.901,80
260.926,74
260.951,62
260.976,51
261.001,47
261.026,60
261.051,95
261.076,146
261.101,198
261.126,230
261.151,229
261.176,200
261.201,158
261.226,119
261.251,91
261.276,70
261.301,53
261.326,39
261.351,26
261.376,9
261.401,-10
261.426,-26
261.451,-23
261.476,4
261.501,48
261.526,92
261.551,121
261.576,136
261.601,145
261.626,153
261.651,159
261.676,159
261.701,154
261.726,153
261.751,160
261.776,172
261.801,183
261.826,187
261.851,189
261.876,194
261.901,201
261.926,204
261.951,196
261.976,177
262.001,154
262.026,133
262.051,116
262.076,99
262.101,79
262.126,58
262.151,46
262.176,57
262.201,95
262.226,157
262.251,226
262.276,283
262.301,314
262.326,321
262.351,314
262.376,301
262.401,290
262.426,279
262.451,268
262.476,257
262.501,249
262.526,243
262.551,236
262.576,225
262.601,207
262.626,188
262.651,171
262.676,155
262.701,138
262.726,114
262.751,87
262.776,60
262.801,38
262.826,17
262.851,-4
262.876,-26
262.901,-37
262.926,-24
262.951,15
262.976,71
263.001,121
263.026,152
263.051,163
263.076,162
263.101,159
263.126,153
263.151,143
263.176,131
263.201,123
263.226,124
263.251,132
263.276,139
263.301,137
263.326,126
263.351,115
263.376,110
263.401,110
263.426,108
263.451,101
263.476,91
263.501,82
263.526,76
263.551,68
263.576,54
263.601,44
263.626,52
263.651,92
263.676,156
263.701,224
263.726,274
263.751,296
263.776,297
263.801,289
263.826,279
263.851,265
263.876,245
263.901,224
263.926,211
263.951,209
263.976,213
264.001,214
264.026,205
264.051,190
264.076,176
264.101,165
264.126,155
264.151,142
264.176,125
264.201,108
264.226,89
264.251,66
264.276,37
264.301,9
264.326,-3
264.351,11
264.376,55
264.401,115
264.426,170
264.451,205
264.476,217
264.501,214
264.526,205
264.551,195
264.576,185
264.601,173
264.626,163
264.651,158
264.676,161
264.701,167
264.726,166
264.751,155
264.776,137
264.801,121
264.826,114
264.851,112
264.876,107
264.901,93
264.926,75
264.951,61
264.976,49
265.001,33
265.026,8
265.051,-12
265.076,-9
265.101,30
265.126,98
265.151,167
265.176,215
265.201,238
265.226,246
265.251,251
265.276,254
265.301,251
265.326,244
265.351,240
265.376,244
265.401,254
