df_hash,22ZHK4.DV5PWR
device,HZ2X61
project_hash,29R7
project_name,istanbul_aydin_university
person_hash,29R7.EPNQ
person_label,V74 (2)
date_time_start,2025-11-03_13-31-17.499000_+03
date_time_start_unix,1762162277.499
date_time_end,2025-11-03_13-39-35.191000_+03
length_difference_noticed,no

time,ppg_ir,ppg_ambient,ppg_red
5.224,205720,1353,307216
5.229,205705,1281,307232
5.234,205716,1242,307236
5.239,205713,1217,307254
5.244,205713,1208,307232
5.249,205737,1191,307275
5.254,205717,1171,307272
5.259,205754,1160,307275
5.264,205738,1163,307264
5.269,205727,1153,307270
5.274,205736,1146,307261
5.279,205742,1139,307275
5.284,205755,1134,307264
5.289,205759,1125,307290
5.294,205756,1121,307312
5.299,205706,1148,307317
5.304,205769,1119,307315
5.309,205778,1115,307321
5.314,205778,1110,307323
5.319,205798,1105,307327
5.324,205784,1103,307328
5.329,205791,1108,307352
5.334,205793,1105,307344
5.339,205802,1101,307369
5.344,205803,1097,307349
5.349,205818,1098,307349
5.354,205811,1095,307370
5.359,205832,1093,307373
5.364,205843,1090,307406
5.369,205826,1085,307394
5.373,205843,1094,307395
5.378,205834,1091,307399
5.383,205850,1088,307433
5.388,205855,1086,307402
5.393,205883,1080,307437
5.398,205874,1085,307439
5.403,205890,1079,307450
5.408,205883,1075,307428
5.413,205905,1081,307461
5.418,205896,1080,307476
5.423,205914,1077,307459
5.428,205890,1073,307471
5.433,205910,1067,307482
5.438,205925,1078,307482
5.443,205914,1072,307514
5.448,205931,1074,307513
5.453,205961,1070,307511
5.458,205937,1069,307517
5.463,205936,1064,307519
5.468,205958,1061,307507
5.473,205959,1068,307546
5.478,205971,1067,307549
5.483,205978,1065,307556
5.488,205981,1061,307551
5.493,206003,1058,307573
5.498,206007,1066,307557
5.503,205994,1063,307573
5.508,206010,1061,307613
5.513,206019,1057,307626
5.518,206047,1056,307591
5.522,206044,1053,307627
5.527,206053,1062,307636
5.532,206056,1058,307643
5.537,206065,1056,307652
5.542,206066,1057,307545
5.547,206053,1054,307636
5.552,206065,1051,307623
5.557,206049,1049,307633
5.562,206064,1058,307619
5.567,206045,1053,307613
5.572,206024,1049,307591
5.577,206011,1047,307550
5.582,206006,1044,307519
5.587,205985,1053,307523
5.592,205956,1040,307494
5.597,205943,1054,307458
5.602,205939,1050,307424
5.607,205930,1048,307430
5.612,205899,1042,307407
5.617,205889,1039,307398
5.622,205873,1048,307404
5.627,205890,1045,307372
5.632,205853,1041,307363
5.637,205866,1037,307357
5.642,205836,1039,307359
5.647,205845,1037,307371
5.652,205834,1044,307351
5.657,205828,1041,307344
5.662,205832,1039,307341
5.667,205833,1035,307353
5.671,205812,1044,307354
5.676,205831,1041,307365
5.681,205806,1038,307343
5.686,205818,1036,307347
5.691,205815,1036,307317
5.696,205798,1036,307357
5.701,205797,1033,307331
5.706,205778,1030,307324
5.711,205805,1038,307325
5.716,205793,1033,307346
5.721,205777,1032,307335
5.726,205779,1028,307305
5.731,205765,1038,307303
5.736,205747,1027,307305
5.741,205763,1027,307299
5.746,205753,1029,307311
5.751,205751,1027,307303
5.756,205745,1024,307301
5.761,205739,1033,307277
5.766,205740,1030,307300
5.771,205735,1026,307278
5.776,205720,1025,307281
5.781,205738,1023,307274
5.786,205739,1033,307291
5.791,205740,1021,307303
5.796,205732,1032,307287
5.801,205744,1031,307324
5.806,205741,1027,307313
5.811,205728,1023,307319
5.816,205756,1022,307310
5.820,205764,1020,307328
5.825,205758,1017,307355
5.830,205765,1026,307356
5.835,205770,1024,307352
5.840,205786,1028,307344
5.845,205784,1024,307361
5.850,205777,1020,307360
5.855,205802,1017,307362
5.860,205789,1016,307375
5.865,205777,1026,307351
5.870,205781,1022,307363
5.875,205784,1020,307359
5.880,205776,1020,307351
5.885,205775,1024,307361
5.890,205770,1020,307362
5.895,205789,1019,307375
5.900,205789,1017,307364
5.905,205772,1012,307377
5.910,205789,1021,307351
5.915,205796,1018,307365
5.920,205794,1016,307407
5.925,205792,1012,307399
5.930,205782,1008,307409
5.935,205789,1011,307387
5.940,205802,1009,307400
5.945,205795,1018,307398
5.950,205816,1016,307395
5.955,205819,1012,307401
5.960,205797,1012,307415
5.965,205802,1009,307411
5.969,205819,1006,307425
5.974,205813,1015,307435
5.979,205807,1015,307413
5.984,205839,1005,307419
5.989,205819,1010,307434
5.994,205824,1006,307422
5.999,205824,1007,307457
6.004,205838,1004,307445
6.009,205833,1013,307453
6.014,205849,1012,307457
6.019,205836,1009,307466
6.024,205856,1008,307478
6.029,205861,1004,307488
6.034,205865,1006,307504
6.039,205862,1005,307478
6.044,205867,1002,307501
6.049,205885,1010,307511
6.054,205877,1005,307513
6.059,205880,1004,307530
6.064,205900,1000,307521
6.069,205880,999,307522
6.074,205915,1007,307518
6.079,205898,1008,307568
6.084,205893,1010,307548
6.089,205920,1008,307546
6.094,205902,1004,307564
6.099,205918,1004,307575
6.104,205927,1000,307565
6.109,205922,998,307564
6.114,205931,994,307560
6.118,205942,1008,307496
6.123,205927,618,307573
6.128,205870,707,307569
6.133,205933,705,307590
6.138,205958,729,307577
6.143,205978,746,307585
6.148,205945,758,307585
6.153,205967,779,307604
6.158,205960,790,307609
6.163,205983,796,307615
6.168,205972,801,307607
6.173,206006,805,307624
6.178,205994,816,307635
6.183,205996,818,307639
6.188,206005,822,307606
6.193,206029,823,307648
6.198,206003,826,307645
6.203,206029,827,307651
6.208,206024,840,307661
6.213,206018,838,307671
6.218,206054,841,307679
6.223,206048,842,307674
6.228,206065,1288,307682
6.233,206075,1201,307690
6.238,206072,1159,307711
6.243,206072,1130,307686
6.248,206076,1122,307713
6.253,206084,1104,307720
6.258,206094,1092,307709
6.263,206100,1079,307719
6.267,206083,1072,307711
6.272,206094,1061,307728
6.277,206104,1060,307710
6.282,206098,1054,307737
6.287,206113,1049,307715
6.292,206115,1042,307713
6.297,206122,1038,307730
6.302,206116,1046,307776
6.307,206117,1040,307775
6.312,206118,1033,307758
6.317,206144,1030,307747
6.322,206146,1026,307783
6.327,206166,1029,307792
6.332,206153,1023,307783
6.337,206159,1021,307777
6.342,206194,1017,307773
6.347,206189,1015,307796
6.352,206191,1023,307818
6.357,206214,1023,307805
6.362,206211,1018,307802
6.367,206200,1016,307805
6.372,206203,1024,307760
6.377,206231,1016,307857
6.382,206219,1012,307836
6.387,206223,1010,307860
6.392,206222,1005,307838
6.397,206224,1005,307861
6.402,206250,1000,307845
6.407,206234,1012,307845
6.412,206225,1007,307819
6.416,206222,1008,307811
6.421,206240,1028,307819
6.426,206199,1002,307770
6.431,206169,997,307740
6.436,206156,997,307739
6.441,206144,1007,307696
6.446,206142,1008,307695
6.451,206101,999,307624
6.456,206082,1002,307624
6.461,206062,1001,307608
6.466,206065,1000,307611
6.471,206035,997,307580
6.476,206042,1000,307563
6.481,206023,997,307559
6.486,206001,997,307567
6.491,206003,987,307544
6.496,205998,1003,307542
6.501,205984,1000,307569
6.506,205994,999,307559
6.511,205991,989,307543
6.516,205997,992,307552
6.521,205990,995,307537
6.526,205984,995,307549
6.531,205973,983,307544
6.536,205964,987,307532
6.541,205970,998,307538
6.546,205957,998,307525
6.551,205953,988,307515
6.556,205948,992,307523
6.561,205952,990,307519
6.565,205948,990,307506
6.570,205928,984,307509
6.575,205952,987,307496
6.580,205921,985,307500
6.585,205939,999,307525
6.590,205937,988,307481
6.595,205908,991,307496
6.600,205908,989,307493
6.605,205922,990,307479
6.610,205897,980,307479
6.615,205910,982,307454
6.620,205899,986,307474
6.625,205887,987,307493
6.630,205910,976,307474
6.635,205903,992,307477
6.640,205891,990,307469
6.645,205887,991,307465
6.650,205906,979,307512
6.655,205905,981,307501
6.660,205898,979,307528
6.665,205902,976,307514
6.670,205910,976,307512
6.675,205896,979,307508
6.680,205914,989,307505
6.685,205923,991,307531
6.690,205923,980,307533
6.695,205907,982,307531
6.700,205923,980,307542
6.705,205923,982,307533
6.710,205925,985,307525
6.714,205915,978,307531
6.719,205929,977,307534
6.724,205924,991,307519
6.729,205927,981,307520
6.734,205922,982,307531
6.739,205922,980,307545
6.744,205918,983,307517
6.749,205907,973,307510
6.754,205918,974,307526
6.759,205917,986,307542
6.764,205906,980,307513
6.769,205921,971,307539
6.774,205923,984,307529
6.779,205929,983,307536
6.784,205926,985,307534
6.789,205919,976,307531
6.794,205939,975,307545
6.799,205933,976,307550
6.804,205926,978,307539
6.809,205930,970,307511
6.814,205930,974,307573
6.819,205928,971,307573
6.824,205949,976,307553
6.829,205963,979,307557
6.834,205962,979,307577
6.839,205948,979,307566
6.844,205959,983,307596
6.849,205956,974,307581
6.854,205952,973,307610
6.859,205953,973,307577
6.863,205963,973,307577
6.868,205976,966,307592
6.873,205978,976,307614
6.878,205969,978,307616
6.883,205990,978,307612
6.888,205975,972,307593
6.893,206006,970,307600
6.898,206012,968,307631
6.903,206004,983,307626
6.908,206018,980,307630
6.913,206008,967,307631
6.918,206006,979,307629
6.923,206022,980,307647
6.928,206035,976,307648
6.933,206015,972,307652
6.938,206034,971,307637
6.943,206030,972,307654
6.948,206056,979,307667
6.953,206044,975,307642
6.958,206150,976,307684
6.963,206066,981,307656
6.968,206051,974,307660
6.973,206059,970,307687
6.978,206063,968,307666
6.983,206064,970,307686
6.988,206063,968,307686
6.993,206075,964,307700
6.998,206082,976,307697
7.003,206094,978,307716
7.008,206091,992,307703
7.012,206090,967,307707
7.017,206090,969,307730
7.022,206096,971,307715
7.027,206113,969,307724
7.032,206097,963,307733
7.037,206120,966,307726
7.042,206126,965,307747
7.047,206129,965,307750
7.052,206113,959,307739
7.057,206118,967,307751
7.062,206143,965,307757
7.067,206153,963,307757
7.072,206154,965,307774
7.077,206164,967,307769
7.082,206157,966,307773
7.087,206179,965,307792
7.092,206181,954,307773
7.097,206166,970,307793
7.102,206193,974,307796
7.107,206192,961,307805
7.112,206192,953,307800
7.117,206198,496,307818
7.122,206185,617,307793
7.127,206186,662,307815
7.132,206192,678,307805
7.137,206209,704,307814
7.142,206198,718,307825
7.147,206219,744,307826
7.152,206211,741,307827
7.157,206205,749,307849
7.161,206229,769,307834
7.166,206237,776,307856
7.171,206253,770,307859
7.176,206246,782,307878
7.181,206260,785,307870
7.186,206269,789,307875
7.191,206270,794,307885
7.196,206280,802,307904
7.201,206279,802,307874
7.206,206291,815,307904
7.211,206292,802,307940
7.216,206312,811,307932
7.221,205856,1452,307929
7.226,206315,1223,307926
7.231,206319,1145,307930
7.236,206331,1118,307931
7.241,206328,1092,307953
7.246,206321,1076,307925
7.251,206289,1052,307914
7.256,206312,1049,307906
7.261,206309,1041,307884
7.266,206289,1044,307875
7.271,206284,1027,307877
7.276,206257,1024,307831
7.281,206253,1020,307797
7.286,206216,1016,307787
7.291,206192,999,307744
7.296,206189,1012,307741
7.301,206159,1002,307728
7.306,206156,1013,307690
7.310,206149,1001,307666
7.315,206117,1002,307691
7.320,206096,997,307651
7.325,206108,999,307670
7.330,206108,986,307654
7.335,206093,988,307648
7.340,206082,986,307667
7.345,206078,1000,307621
7.350,206077,980,307632
7.355,206070,980,307645
7.360,206079,992,307629
7.365,206070,992,307623
7.370,206065,982,307629
7.375,206077,982,307624
7.380,206035,980,307636
7.385,206040,982,307619
7.390,206039,969,307613
7.395,206048,982,307601
7.400,206046,974,307618
7.405,206032,990,307613
7.410,206025,977,307591
7.415,206018,976,307599
7.420,205992,975,307573
7.425,205988,978,307580
7.430,205994,966,307557
7.435,205986,978,307574
7.440,205979,975,307586
7.445,205966,979,307567
7.450,205977,971,307550
7.455,205957,972,307556
7.459,205975,971,307580
7.464,205938,976,307551
7.469,205951,964,307545
7.474,205949,963,307556
7.479,205953,974,307542
7.484,205934,979,307564
7.489,205932,967,307534
7.494,205942,964,307536
7.499,205938,970,307521
7.504,205951,974,307551
7.509,205922,964,307544
7.514,205939,962,307561
7.519,205943,962,307583
7.524,205947,967,307572
7.529,205949,969,307542
7.534,205937,966,307584
7.539,205951,966,307598
7.544,205955,993,307603
7.549,205975,958,307614
7.554,205962,956,307590
7.559,205973,966,307607
7.564,205955,969,307615
7.569,205972,962,307615
7.574,205978,958,307603
7.579,205957,958,307611
7.584,205965,973,307613
7.589,205971,965,307603
7.594,205954,976,307598
7.599,205962,958,307594
7.604,205963,962,307624
7.608,205956,966,307608
7.613,205971,961,307612
7.618,205986,960,307621
7.623,205959,961,307625
7.628,205971,955,307615
7.633,205966,960,307627
7.638,205973,960,307629
7.643,205963,966,307624
7.648,205982,962,307628
7.653,205983,957,307649
7.658,205990,956,307649
7.663,205969,958,307644
7.668,205980,954,307646
7.673,205996,961,307655
7.678,205981,964,307652
7.683,205986,961,307671
7.688,206008,960,307647
7.693,205993,956,307666
7.698,206018,959,307690
7.703,206026,957,307684
7.708,206008,958,307692
7.713,206019,948,307707
7.718,206025,950,307679
7.723,206025,962,307697
7.728,206024,961,307698
7.733,206019,952,307723
7.738,206021,964,307815
7.743,206028,960,307710
7.748,206030,961,307739
7.753,206042,949,307758
7.757,206041,955,307759
7.762,206050,956,307750
7.767,206059,957,307755
7.772,206037,946,307770
7.777,206063,954,307755
7.782,206067,951,307790
7.787,205987,959,307781
7.792,206092,946,307787
7.797,206088,952,307774
7.802,206092,952,307784
7.807,206091,954,307797
7.812,206085,940,307798
7.817,206099,947,307808
7.822,206106,959,307855
7.827,206111,959,307817
7.832,206116,946,307836
7.837,206144,935,307848
7.842,206125,950,307859
7.847,206148,953,307862
7.852,206130,940,307857
7.857,206136,946,307875
7.862,206177,946,307852
7.867,206160,961,307848
7.872,206151,948,307871
7.877,206166,954,307863
7.882,206163,953,307916
7.887,206170,948,307887
7.892,206163,949,307870
7.897,206185,952,307874
7.902,206184,952,307894
7.906,206197,955,307914
7.911,206189,941,307896
7.916,206207,945,307946
7.921,206219,943,307937
7.926,206228,956,307958
7.931,206207,945,307911
7.936,206229,955,307967
7.941,206243,954,307949
7.946,206229,954,307937
7.951,206243,943,307942
7.956,206251,945,307968
7.961,206245,946,307974
7.966,206255,947,307969
7.971,206252,949,307979
7.976,206265,950,307982
7.981,206276,951,307986
7.986,206273,959,308014
7.991,206284,949,308016
7.996,206310,950,308026
8.001,206292,950,308023
8.006,206301,953,308043
8.011,206316,942,308008
8.016,206318,942,308029
8.021,206328,942,308048
8.026,206327,945,308045
8.031,206325,993,308027
8.036,206325,940,308050
8.041,206345,939,308056
8.046,206343,956,308046
8.051,206351,945,308090
8.055,206352,944,308081
8.060,206353,944,308094
8.065,206349,947,308106
8.070,206377,937,308085
8.075,206382,950,308115
8.080,206395,942,308103
8.085,206395,944,308113
8.090,206371,936,308123
8.095,206410,946,308126
8.100,206393,946,308145
8.105,206414,949,308136
8.110,206431,939,308155
8.115,206423,937,308138
8.120,206412,555,308123
8.125,206420,633,308144
8.130,206401,652,308136
8.135,206406,675,308101
8.140,206391,708,308092
8.145,206383,724,308063
8.150,206373,729,308038
8.155,206353,735,308025
8.160,206321,744,308006
8.165,206304,757,307986
8.170,206280,754,307963
8.175,206247,758,307943
8.180,206257,768,307907
8.185,206213,777,307896
8.190,206195,776,307877
8.195,206198,776,307879
8.200,206191,780,307874
8.204,206195,784,307864
8.209,206185,799,307859
8.214,206180,798,307886
8.219,206164,803,307867
8.224,206159,1253,307877
8.229,206163,1154,307847
8.234,206179,1110,307862
8.239,206163,1087,307867
8.244,206149,1059,307870
8.249,206165,1043,307855
8.254,206155,1027,307857
8.259,206134,1022,307858
8.264,206143,1017,307830
8.269,206130,1011,307837
8.274,206118,1005,307937
8.279,206108,1004,307806
8.284,206116,1002,307804
8.289,206093,997,307794
8.294,206106,984,307824
8.299,206098,984,307816
8.304,206078,982,307810
8.309,206064,979,307805
8.314,206075,981,307812
8.319,206064,983,307778
8.324,206047,972,307805
8.329,206054,972,307796
8.334,206042,961,307773
8.339,206033,964,307788
8.344,206022,974,307788
8.349,206041,974,307802
8.353,206014,965,307784
8.358,206013,966,307761
8.363,206000,965,307755
8.368,206006,965,307775
8.373,206004,960,307763
8.378,206007,962,307750
8.383,206018,962,307766
8.388,206022,964,307785
8.393,206016,952,307774
8.398,206013,955,307795
8.403,206016,952,307796
8.408,206023,956,307785
8.413,206002,945,307808
8.418,206036,962,307811
8.423,206029,951,307832
8.428,206037,953,307836
8.433,206031,953,307848
8.438,206042,958,307820
8.443,206028,955,307826
8.448,206031,960,307843
8.453,206031,947,307832
8.458,206038,951,307833
8.463,206036,951,307824
8.468,206031,949,307821
8.473,206042,935,307814
8.478,206036,945,307835
8.483,206032,954,307838
8.488,206045,958,307818
8.493,206042,945,307825
8.498,206033,950,307821
8.502,206030,947,307834
8.507,206047,949,307845
8.512,206043,937,307838
8.517,206034,942,307866
8.522,206041,946,307904
8.527,206054,949,307860
8.532,206050,938,307882
8.537,206052,941,307897
8.542,206065,940,307895
8.547,206064,956,307899
8.552,206081,943,307899
8.557,206075,946,307915
8.562,206090,944,307929
8.567,206094,1003,307923
8.572,206087,938,307936
8.577,206082,941,307931
8.582,206109,940,307960
8.587,206088,943,307934
8.592,206092,944,307943
8.597,206100,945,307973
8.602,206105,942,307956
8.607,206097,944,307993
8.612,206115,933,307977
8.617,206121,941,307975
8.622,206104,939,307990
8.627,206133,943,307995
8.632,206119,934,307997
8.637,206125,936,307995
8.642,206136,935,308014
8.647,206138,951,308002
8.651,206146,941,308006
8.656,206132,940,308037
8.661,206156,939,308018
8.666,206137,948,308056
8.671,206185,942,308023
8.676,206161,941,308052
8.681,206183,940,308075
8.686,206164,941,308070
8.691,206186,932,308060
8.696,206196,944,308068
8.701,206189,943,308069
8.706,206207,945,308082
8.711,206207,937,308094
8.716,206217,922,308089
8.721,206219,934,308128
8.726,206195,937,308111
8.731,206225,941,308112
8.736,206213,941,308111
8.741,206235,941,308137
8.746,206239,946,308144
8.751,206225,940,308132
8.756,206232,939,308133
8.761,206231,938,308157
8.766,206243,946,308137
8.771,206263,941,308138
8.776,206240,938,308153
8.781,206257,938,308148
8.786,206273,942,308132
8.791,206278,935,308185
8.796,206277,933,308190
8.800,206293,934,308186
8.805,206293,936,308203
8.810,206293,933,308213
8.815,206310,934,308230
8.820,206301,933,308203
8.825,206313,934,308206
8.830,206308,930,308244
8.835,206314,940,308225
8.840,206342,941,308232
8.845,206348,942,308250
8.850,206348,936,308254
8.855,206344,932,308278
8.860,206439,935,308267
8.865,206366,939,308278
8.870,206380,935,308284
8.875,206355,929,308267
8.880,206379,930,308287
8.885,206386,931,308300
8.890,206380,942,308299
8.895,206408,937,308284
8.900,206413,937,308328
8.905,206399,939,308322
8.910,206428,954,308313
8.915,206406,928,308313
8.920,206417,930,308331
8.925,206433,934,308320
8.930,206419,932,308335
8.935,206432,927,308352
8.940,206449,929,308358
8.945,206450,928,308354
8.949,206464,929,308345
8.954,206451,935,308368
8.959,206440,930,308381
8.964,206470,931,308381
8.969,206470,929,308401
8.974,206492,924,308416
8.979,206502,938,308415
8.984,206514,939,308434
8.989,206524,940,308452
8.994,206528,934,308431
8.999,206528,936,308435
9.004,206524,929,308468
9.009,206520,930,308469
9.014,206542,924,308474
9.019,206541,938,308478
9.024,206534,938,308454
9.029,206550,940,308456
9.034,206538,932,308420
9.039,206518,933,308421
9.044,206520,935,308377
9.049,206501,935,308373
9.054,206495,930,308367
9.059,206470,938,308324
9.064,206440,937,308315
9.069,206398,937,308287
9.074,206408,930,308232
9.079,206382,931,308227
9.084,206347,930,308197
9.089,206343,932,308200
9.094,206336,924,308194
9.098,206311,926,308166
9.103,206307,956,308154
9.108,206303,926,308166
9.113,206281,932,308141
9.118,206270,513,308140
9.123,206257,597,308117
9.128,206246,641,308130
9.133,206257,660,308139
9.138,206239,681,308122
9.143,206227,698,308118
9.148,206249,710,308120
9.153,206224,720,308118
9.158,206213,730,308125
9.163,206208,738,308082
9.168,206224,745,308106
9.173,206211,743,308083
9.178,206206,747,308098
9.183,206172,754,308080
9.188,206195,759,308097
9.193,206187,771,308087
9.198,206185,776,308082
9.203,206173,771,308067
9.208,206173,775,308066
9.213,206146,771,308076
9.218,206155,790,308073
9.223,206159,1313,308081
9.228,206171,1167,308078
9.233,206155,1106,308066
9.238,206158,1074,308097
9.243,206139,1050,308050
9.247,206143,1035,308078
9.252,206129,1024,308065
9.257,206122,1014,308057
9.262,206122,1006,308073
9.267,206128,1000,308060
9.272,206127,988,308067
9.277,206126,993,308060
9.282,206116,988,308078
9.287,206116,983,308088
9.292,206134,974,308072
9.297,206123,970,308105
9.302,206125,973,308106
9.307,206144,971,308114
9.312,206148,964,308135
9.317,206148,956,308149
9.322,206150,956,308129
9.327,206161,967,308133
9.332,206147,961,308136
9.337,206147,957,308129
9.342,206141,953,308137
9.347,206158,952,308062
9.352,206142,944,308147
9.357,206147,957,308159
9.362,206139,954,308138
9.367,206129,954,308141
9.372,206139,949,308124
9.377,206147,945,308145
9.382,206135,944,308150
9.387,206148,943,308172
9.392,206137,952,308174
9.396,206242,936,308143
9.401,206137,939,308159
9.406,206131,951,308151
9.411,206131,947,308176
9.416,206153,943,308172
9.421,206154,942,308199
9.426,206155,942,308188
9.431,206167,938,308183
9.436,206166,933,308184
9.441,206160,946,308204
9.446,206184,938,308200
9.451,206165,934,308197
9.456,206164,942,308188
9.461,206180,942,308190
9.466,206175,943,308237
9.471,206170,940,308244
9.476,206195,937,308234
9.481,206181,937,308236
9.486,206198,937,308262
9.491,206215,936,308236
9.496,206217,936,308268
9.501,206200,937,308266
9.506,206216,938,308269
9.511,206214,938,308301
9.516,206227,935,308282
9.521,206214,936,308271
9.526,206229,938,308295
9.531,206227,934,308299
9.536,206222,931,308293
9.541,206238,942,308298
9.545,206253,936,308311
9.550,206254,935,308295
9.555,206244,932,308306
9.560,206248,933,308310
9.565,206260,932,308342
9.570,206271,930,308329
9.575,206269,926,308340
9.580,206266,927,308338
9.585,206258,926,308357
9.590,206286,926,308354
9.595,206292,927,308365
9.600,206289,928,308387
9.605,206284,929,308392
9.610,206329,928,308382
9.615,206292,924,308382
9.620,206308,924,308389
9.625,206315,937,308397
9.630,206312,936,308399
9.635,206328,932,308413
9.640,206327,929,308403
9.645,206337,929,308422
9.650,206341,930,308431
9.655,206333,927,308432
9.660,206332,927,308437
9.665,206373,927,308435
9.670,206370,926,308462
9.675,206374,923,308458
9.680,206374,924,308481
9.685,206368,923,308488
9.690,206373,928,308490
9.694,206385,924,308484
9.699,206385,924,308494
9.704,206381,924,308486
9.709,206392,922,308489
9.714,206398,931,308516
9.719,206403,930,308525
9.724,206407,930,308510
9.729,206424,930,308532
9.734,206428,924,308536
9.739,206447,932,308536
9.744,206436,932,308552
9.749,206428,933,308558
9.754,206456,927,308570
9.759,206451,926,308545
9.764,206452,925,308576
9.769,206473,926,308574
9.774,206464,922,308594
9.779,206478,924,308594
9.784,206509,923,308611
9.789,206488,928,308600
9.794,206504,924,308604
9.799,206496,922,308611
9.804,206508,923,308612
9.809,206526,922,308620
9.814,206532,917,308619
9.819,206543,929,308626
9.824,206541,928,308622
9.829,206533,930,308641
9.834,206566,925,308655
9.839,206570,917,308666
9.843,206570,929,308658
9.848,206564,929,308686
9.853,206575,924,308668
9.858,206570,925,308693
9.863,206600,923,308713
9.868,206590,923,308708
9.873,206587,917,308740
9.878,206588,919,308696
9.883,206606,918,308709
9.888,206602,925,308768
9.893,206616,920,308757
9.898,206619,920,308734
9.903,206617,919,308741
9.908,206625,918,308725
9.913,206621,914,308731
9.918,206627,926,308714
9.923,206602,925,308734
9.928,206595,923,308693
9.933,206567,920,308667
9.938,206563,926,308629
9.943,206534,924,308614
9.948,206512,923,308592
9.953,206496,920,308576
9.958,206480,917,308564
9.963,206463,916,308533
9.968,206457,916,308498
9.973,206413,925,308479
9.978,206397,924,308471
9.983,206396,936,308469
9.988,206368,920,308442
9.992,206373,918,308471
9.997,206378,915,308444
10.002,206354,917,308458
10.007,206368,916,308441
10.012,206342,913,308438
10.017,206351,913,308417
10.022,206351,913,308432
10.027,206371,925,308431
10.032,206326,937,308397
10.037,206332,920,308428
10.042,206317,919,308429
10.047,206320,919,308416
10.052,206310,917,308433
10.057,206301,914,308414
10.062,206302,915,308398
10.067,206310,914,308408
10.072,206299,923,308399
10.077,206290,927,308396
10.082,206281,914,308371
10.087,206264,912,308392
10.092,206257,924,308368
10.097,206252,922,308364
10.102,206249,923,308371
10.107,206264,921,308370
10.112,206238,920,308375
10.117,206454,376,308388
10.122,206234,560,308375
10.127,206233,611,308373
10.132,206226,647,308390
10.137,206218,668,308369
10.141,206216,683,308355
10.146,206208,694,308387
10.151,206235,707,308357
10.156,206239,712,308413
10.161,206227,719,308383
10.166,206235,724,308402
10.171,206252,741,308412
10.176,206250,731,308421
10.181,206268,745,308452
10.186,206250,749,308465
10.191,206253,753,308446
10.196,206241,753,308438
10.201,206254,757,308470
10.206,206253,774,308463
10.211,206254,775,308452
10.216,206251,775,308460
10.221,206255,778,308451
10.226,206246,1178,308464
10.231,206258,1108,308458
10.236,206274,1079,308445
10.241,206268,1053,308484
10.246,206280,1035,308455
10.251,206267,1021,308479
10.256,206246,1006,308470
10.261,206281,998,308458
10.266,206268,989,308463
10.271,206280,981,308489
10.276,206268,976,308475
10.281,206259,974,308461
10.286,206264,967,308461
10.290,206286,963,308470
10.295,206268,958,308476
10.300,206266,955,308526
10.305,206278,963,308499
10.310,206265,960,308500
10.315,206277,954,308499
10.320,206277,953,308482
10.325,206291,957,308504
10.330,206273,955,308528
10.335,206293,947,308521
10.340,206302,946,308521
10.345,206288,943,308520
10.350,206298,940,308520
10.355,206297,947,308532
10.360,206301,944,308541
10.365,206314,942,308560
10.370,206324,941,308546
10.375,206312,943,308543
10.380,206319,941,308568
10.385,206322,941,308596
10.390,206337,939,308583
10.395,206330,934,308579
10.400,206336,935,308585
10.405,206339,934,308576
10.410,206340,932,308610
10.415,206336,928,308609
10.420,206337,928,308641
10.425,206367,931,308611
10.430,206369,930,308648
10.435,206383,928,308644
10.439,206370,927,308648
10.444,206376,927,308659
10.449,206393,927,308635
10.454,206402,924,308654
10.459,206393,924,308658
10.464,206406,921,308683
10.469,206321,926,308791
10.474,206397,929,308681
10.479,206424,931,308702
10.484,206417,927,308685
10.489,206425,928,308719
10.494,206429,924,308718
10.499,206426,925,308713
10.504,206444,923,308710
10.509,206449,923,308710
10.514,206442,920,308723
10.519,206457,926,308739
10.524,206453,921,308726
10.529,206466,923,308742
10.534,206453,919,308730
10.539,206477,918,308760
10.544,206471,915,308752
10.549,206496,929,308738
10.554,206464,924,308753
10.559,206494,927,308767
10.564,206477,923,308772
10.569,206504,898,308772
10.574,206490,916,308790
10.579,206505,917,308789
10.584,206498,914,308815
10.588,206510,915,308790
10.593,206510,924,308796
10.598,206523,922,308811
10.603,206522,920,308825
10.608,206547,919,308834
10.613,206553,917,308845
10.618,206550,921,308830
10.623,206541,919,308846
10.628,206551,918,308846
10.633,206551,914,308828
10.638,206554,915,308870
10.643,206582,914,308862
10.648,206586,913,308878
10.653,206579,912,308894
10.658,206596,911,308899
10.663,206597,924,308886
10.668,206600,913,308913
10.673,206610,912,308905
10.678,206619,912,308943
10.683,206603,911,308941
10.688,206639,923,308947
10.693,206641,919,308937
10.698,206638,920,308953
10.703,206644,919,308982
10.708,206670,915,308986
10.713,206676,916,309013
10.718,206667,917,308979
10.723,206673,917,308991
10.728,206685,915,308981
10.733,206686,911,308981
10.737,206700,910,308979
10.742,206693,908,308971
10.747,206670,920,308974
10.752,206677,918,308924
10.757,206650,916,308946
10.762,206662,918,308887
10.767,206630,912,308903
10.772,206603,912,308857
10.777,206584,910,308853
10.782,206569,908,308816
10.787,206539,921,308795
10.792,206517,919,308749
10.797,206507,918,308753
10.802,206512,916,308742
10.807,206484,914,308727
10.812,206464,917,308709
10.817,206468,914,308702
10.822,206441,914,308703
10.827,206420,912,308683
10.832,206443,909,308694
10.837,206426,909,308675
10.842,206426,909,308689
10.847,206417,906,308695
10.852,206410,919,308697
10.857,206406,916,308699
10.862,206392,908,308689
10.867,206403,918,308705
10.872,206384,917,308690
10.877,206389,914,308696
10.882,206406,912,308693
10.886,206396,912,308697
10.891,206378,912,308694
10.896,206396,910,308699
10.901,206374,911,308716
10.906,206375,909,308680
10.911,206348,913,308670
10.916,206376,912,308659
10.921,206354,910,308686
10.926,206353,910,308658
10.931,206344,907,308672
10.936,206336,907,308663
10.941,206345,906,308659
10.946,206322,916,308639
10.951,206321,915,308671
10.956,206314,912,308664
10.961,206319,917,308649
10.966,206309,917,308659
10.971,206320,914,308646
10.976,206313,913,308680
10.981,206312,913,308659
10.986,206314,912,308679
10.991,206288,912,308675
10.996,206326,912,308705
11.001,206317,911,308701
11.006,206331,907,308721
11.011,206330,913,308717
11.016,206341,913,308736
11.021,206357,911,308734
11.026,206342,909,308741
11.031,206361,907,308734
11.035,206352,905,308743
11.040,206368,906,308753
11.045,206355,904,308756
11.050,206347,905,308793
11.055,206350,908,308766
11.060,206350,906,308765
11.065,206344,904,308753
11.070,206352,905,308770
11.075,206349,903,308768
11.080,206340,903,308769
11.085,206359,917,308759
11.090,206354,914,308759
11.095,206359,913,308761
11.100,206337,911,308748
11.105,206342,903,308767
11.110,206347,914,308745
11.115,206339,914,308764
11.120,206339,522,308782
11.125,206349,590,308789
11.130,206345,626,308789
11.135,206337,649,308794
11.140,206365,665,308796
11.145,206339,694,308803
11.150,206360,701,308837
11.155,206350,704,308806
11.160,206355,713,308807
11.165,206380,719,308831
11.170,206369,725,308861
11.175,206387,729,308831
11.180,206382,732,308842
11.184,206382,748,308860
11.189,206382,752,308850
11.194,206392,753,308879
11.199,206403,756,308878
11.204,206406,763,308882
11.209,206407,765,308881
11.214,206409,767,308882
11.219,206417,769,308884
11.224,206423,1234,308905
11.229,206428,1124,308915
11.234,206446,1072,308921
11.239,206441,1055,308929
11.244,206439,1034,308940
11.249,206463,1021,308936
11.254,206457,997,308960
11.259,206454,997,308942
11.264,206472,989,308933
11.269,206482,983,308945
11.274,206463,974,308970
11.279,206472,967,308985
11.284,206472,963,308957
11.289,206498,958,308970
11.294,206490,952,309005
11.299,206545,951,308999
11.304,206494,953,309007
11.309,206511,948,309017
11.314,206510,944,309004
11.319,206532,945,309010
11.324,206520,942,309028
11.329,206527,938,309043
11.333,206527,934,309031
11.338,206532,932,309051
11.343,206541,943,309060
11.348,206539,932,309058
11.353,206544,929,309053
11.358,206560,928,309068
11.363,206547,927,309074
11.368,206562,925,309093
11.373,206572,936,309110
11.378,206567,933,309116
11.383,206582,933,309126
11.388,206600,928,309118
11.393,206614,926,309113
11.398,206603,930,309143
11.403,206612,926,309130
11.408,206608,926,309155
11.413,206618,925,309155
11.418,206616,924,309141
11.423,206615,921,309170
11.428,206644,919,309166
11.433,206648,918,309178
11.438,206653,915,309172
11.443,206650,915,309174
11.448,206639,922,309153
11.453,206668,921,309175
11.458,206657,921,309184
11.463,206658,921,309187
11.468,206653,919,309188
11.473,206680,916,309201
11.478,206660,913,309193
11.482,206666,913,309207
11.487,206683,910,309210
11.492,206678,924,309211
11.497,206693,916,309217
11.502,206706,917,309206
11.507,206707,915,309212
11.512,206685,911,309211
11.517,206709,910,309239
11.522,206703,923,309222
11.527,206703,919,309220
11.532,206708,917,309247
11.537,206714,916,309226
11.542,206763,885,309260
11.547,206730,917,309249
11.552,206755,915,309255
11.557,206742,913,309276
11.562,206775,913,309288
11.567,206779,911,309273
11.572,206769,908,309284
11.577,206775,904,309271
11.582,206774,916,309270
11.587,206772,913,309264
11.592,206753,914,309241
11.597,206764,913,309238
11.602,206740,912,309192
11.607,206714,909,309205
11.612,206689,906,309169
11.617,206675,905,309157
11.622,206653,906,309108
11.627,206631,914,309103
11.631,206631,914,309081
11.636,206581,912,309060
11.641,206582,915,309038
11.646,206560,913,309038
11.651,206547,909,309034
11.656,206551,907,309027
11.661,206537,906,309002
11.666,206529,905,309015
11.671,206515,915,308994
11.676,206512,913,308995
11.681,206507,911,309011
11.686,206497,912,309005
11.691,206506,904,309002
11.696,206509,903,308997
11.701,206501,916,308991
11.706,206489,916,308991
11.711,206467,914,308986
11.716,206472,912,308990
11.721,206480,910,308984
11.726,206465,909,309000
11.731,206455,908,308991
11.736,206452,907,308970
11.741,206459,913,308972
11.746,206453,910,309004
11.751,206444,907,308986
11.756,206427,905,308994
11.761,206457,904,308979
11.766,206429,902,308996
11.771,206427,912,308977
11.776,206424,911,308987
11.780,206417,909,308964
11.785,206420,916,309075
11.790,206407,913,308970
11.795,206390,912,308996
11.800,206409,910,308980
11.805,206405,908,308979
11.810,206386,905,308970
11.815,206394,904,308972
11.820,206382,902,308967
11.825,206377,902,308969
11.830,206373,901,308992
11.835,206377,913,309026
11.840,206373,897,309008
11.845,206378,911,309016
11.850,206391,909,309017
11.855,206394,906,309005
11.860,206404,904,309050
11.865,206407,905,309051
11.870,206397,902,309036
11.875,206407,900,309061
11.880,206400,898,309069
11.885,206413,902,309064
11.890,206424,899,309061
11.895,206421,898,309075
11.900,206400,909,309078
11.905,206425,908,309074
11.910,206403,906,309092
11.915,206406,905,309081
11.920,206429,903,309092
11.925,206406,901,309081
11.929,206408,899,309071
11.934,206409,902,309095
11.939,206439,901,309102
11.944,206396,900,309095
11.949,206417,899,309102
11.954,206418,897,309113
11.959,206437,908,309121
11.964,206420,910,309123
11.969,206420,907,309138
11.974,206424,905,309134
11.979,206437,900,309138
11.984,206439,908,309155
11.989,206462,906,309168
11.994,206449,905,309162
11.999,206456,905,309163
12.004,206458,905,309155
12.009,206469,902,309190
12.014,206469,900,309188
12.019,206454,901,309202
12.024,206478,900,309205
12.029,206480,899,309213
12.034,206472,902,309206
12.039,206493,903,309222
12.044,206490,900,309242
12.049,206508,898,309207
12.054,206516,897,309231
12.059,206514,898,309271
12.064,206513,897,309252
12.069,206495,908,309257
12.074,206530,907,309276
12.078,206533,980,309289
12.083,206547,902,309276
12.088,206556,902,309294
12.093,206541,900,309335
12.098,206553,898,309326
12.103,206557,897,309350
12.108,206573,896,309331
12.113,206565,907,309344
12.118,206575,458,309344
12.123,206564,568,309384
12.128,206576,600,309329
12.133,206579,645,309413
12.138,206596,664,309374
12.143,206565,682,309403
12.148,206608,692,309404
12.153,206606,702,309407
12.158,206615,709,309426
12.163,206617,716,309431
12.168,206625,721,309452
12.173,206629,724,309461
12.178,206645,734,309448
12.183,206642,738,309457
12.188,206663,740,309468
12.193,206666,741,309498
12.198,206678,742,309496
12.203,206673,746,309493
12.208,206686,760,309490
12.213,206682,762,309497
12.218,206703,764,309563
12.223,206692,1417,309516
12.227,206734,1153,309544
12.232,206725,1091,309555
12.237,206737,1052,309555
12.242,206740,1031,309567
12.247,206741,1013,309548
12.252,206744,999,309556
12.257,206758,988,309593
12.262,206781,980,309595
12.267,206779,971,309595
12.272,206776,965,309594
12.277,206779,953,309605
12.282,206792,952,309593
12.287,206795,947,309632
12.292,206807,956,309651
12.297,206813,952,309647
12.302,206817,950,309667
12.307,206810,946,309702
12.312,206828,943,309663
12.317,206822,939,309688
12.322,206841,944,309811
12.327,206858,929,309702
12.332,206851,939,309679
12.337,206859,936,309691
12.342,206869,933,309717
12.347,206868,933,309722
12.352,206891,929,309719
12.357,206884,925,309720
12.362,206885,923,309734
12.367,206906,921,309748
12.372,206862,924,309756
12.376,206918,922,309789
12.381,206909,922,309755
12.386,206927,921,309790
12.391,206924,918,309793
12.396,206921,915,309796
12.401,206938,915,309825
12.406,206957,912,309794
12.411,206962,924,309810
12.416,206965,922,309841
12.421,206969,912,309828
12.426,206976,911,309840
12.431,206999,908,309837
12.436,206993,920,309874
12.441,207012,917,309877
12.446,207013,916,309893
12.451,207002,912,309882
12.456,207008,910,309873
12.461,207030,908,309878
12.466,207020,906,309894
12.471,207018,910,309898
12.476,207034,909,309873
12.481,207000,907,309869
12.486,207000,906,309857
12.491,206989,905,309807
12.496,206951,916,309802
12.501,206914,913,309751
12.506,206905,913,309774
12.511,206890,910,309722
12.516,206891,910,309681
12.521,206858,913,309677
12.525,206830,911,309675
12.530,206836,910,309661
12.535,206812,908,309638
12.540,206802,907,309637
12.545,206795,905,309623
12.550,206792,901,309636
12.555,206787,900,309627
12.560,206776,911,309611
12.565,206770,909,309603
12.570,206768,902,309633
12.575,206761,901,309606
12.580,206761,901,309597
12.585,206751,901,309617
12.590,206749,910,309628
12.595,206755,910,309611
12.600,206752,909,309624
12.605,206738,909,309626
12.610,206730,905,309630
12.615,206754,941,309613
12.620,206722,898,309611
12.625,206714,898,309615
12.630,206706,909,309608
12.635,206718,907,309601
12.640,206704,904,309575
12.645,206713,903,309592
12.650,206699,902,309592
12.655,206682,898,309628
12.660,206692,899,309585
12.665,206684,903,309606
12.670,206666,903,309604
12.674,206674,902,309589
12.679,206653,899,309598
12.684,206645,900,309596
12.689,206650,896,309594
12.694,206652,895,309596
12.699,206638,895,309608
12.704,206665,907,309588
12.709,206650,906,309588
12.714,206637,897,309610
12.719,206645,895,309603
12.724,206653,908,309586
12.729,206668,906,309631
12.734,206673,905,309638
12.739,206675,904,309662
12.744,206685,901,309676
12.749,206686,899,309667
12.754,206677,898,309664
12.759,206704,896,309683
12.764,206704,902,309685
12.769,206713,900,309727
12.774,206695,898,309696
12.779,206695,896,309727
12.784,206705,896,309716
12.789,206686,894,309732
12.794,206711,906,309718
12.799,206695,904,309735
12.804,206703,903,309731
12.809,206687,902,309740
12.814,206691,905,309729
12.819,206717,902,309732
12.823,206705,901,309750
12.828,206703,900,309753
12.833,206712,896,309755
12.838,206709,895,309754
12.843,206706,897,309752
12.848,206720,894,309770
12.853,206705,894,309762
12.858,206723,892,309741
12.863,206712,896,309782
12.868,206729,894,309804
12.873,206728,893,309803
12.878,206737,903,309816
12.883,206732,903,309817
12.888,206747,899,309821
12.893,206745,899,309842
12.898,206731,896,309818
12.903,206743,895,309833
12.908,206850,897,309839
12.913,206781,897,309853
12.918,206768,895,309858
12.923,206766,897,309873
12.928,206764,894,309868
12.933,206785,892,309848
12.938,206786,891,309863
12.943,206766,890,309885
12.948,206791,902,309878
12.953,206776,901,309902
12.958,206783,911,309941
12.963,206788,888,309923
12.968,206803,892,309926
12.972,206810,891,309933
12.977,206814,891,309915
12.982,206820,891,309941
12.987,206831,902,309955
12.992,206827,901,309953
12.997,206835,898,309990
13.002,206854,897,309983
13.007,206849,903,309975
13.012,206860,899,309995
13.017,206863,898,310004
13.022,206864,896,310021
13.027,206866,893,310030
13.032,206888,892,310018
13.037,206880,888,310047
13.042,206884,900,310048
13.047,206898,899,310044
13.052,206911,891,310046
13.057,206892,899,310072
13.062,206937,900,310076
13.067,206929,898,310092
13.072,206923,892,310118
13.077,206926,892,310082
13.082,206945,890,310093
13.087,206939,902,310110
13.092,206941,900,310125
13.097,206960,896,310121
13.102,206960,894,310134
13.107,206975,899,310164
13.112,206982,899,310145
13.117,206976,895,310153
13.121,206967,530,310164
13.126,206979,586,310172
13.131,206989,619,310194
13.136,206981,639,310170
13.141,206996,668,310191
13.146,206990,681,310219
13.151,207009,687,310181
13.156,207028,691,310238
13.161,207004,698,310224
13.166,207046,719,310247
13.171,207053,722,310264
13.176,207043,729,310255
13.181,207066,736,310257
13.186,207056,727,310273
13.191,207077,729,310295
13.196,207074,747,310288
13.201,207093,740,310300
13.206,207090,742,310319
13.211,207107,744,310359
13.216,207113,751,310337
13.221,207115,752,310346
13.226,207162,1177,310356
13.231,207159,1093,310345
13.236,207164,1048,310393
13.241,207164,1022,310393
13.246,207173,1003,310400
13.251,207188,1015,310455
13.256,207192,986,310410
13.261,207200,967,310434
13.266,207182,972,310430
13.270,207208,966,310443
13.275,207212,957,310450
13.280,207223,952,310452
13.285,207219,947,310462
13.290,207218,940,310465
13.295,207227,935,310463
13.300,207232,935,310461
13.305,207245,932,310492
13.310,207236,927,310512
13.315,207242,923,310496
13.320,207255,933,310520
13.325,207267,930,310522
13.330,207289,927,310562
13.335,207298,924,310556
13.340,207302,921,310537
13.345,207311,919,310556
13.350,207310,922,310567
13.355,207313,920,310586
13.360,207330,917,310589
13.365,207335,914,310608
13.370,207359,910,310611
13.375,207357,908,310602
13.380,207376,921,310609
13.385,207383,919,310613
13.390,207368,914,310630
13.395,207363,914,310564
13.400,207373,917,310608
13.405,207387,915,310596
13.410,207340,912,310591
13.415,207341,908,310560
13.419,207316,907,310555
13.424,207310,905,310543
13.429,207285,903,310509
13.434,207261,902,310492
13.439,207255,902,310454
13.444,207339,902,310417
13.449,207199,903,310398
13.454,207200,902,310391
13.459,207162,900,310382
13.464,207151,901,310367
13.469,207152,899,310377
13.474,207129,896,310342
13.479,207123,908,310332
13.484,207113,909,310345
13.489,207113,903,310347
13.494,207128,894,310331
13.499,207102,896,310309
13.504,207100,908,310339
13.509,207091,904,310336
13.514,207092,902,310299
13.519,207081,899,310333
13.524,207078,898,310321
13.529,207090,897,310320
13.534,207072,895,310316
13.539,207074,905,310342
13.544,207062,895,310305
13.549,207066,907,310320
13.554,207052,903,310318
13.559,207059,899,310306
13.564,207037,896,310305
13.568,207020,892,310305
13.573,207028,903,310301
13.578,207011,899,310280
13.583,207008,899,310290
13.588,206998,898,310284
13.593,207002,890,310292
13.598,207000,890,310302
13.603,207007,902,310303
13.608,206997,900,310293
13.613,206990,898,310296
13.618,207007,896,310271
13.623,206988,895,310286
13.628,207006,890,310307
13.633,206976,893,310297
13.638,206992,890,310288
13.643,206970,899,310283
13.648,206978,899,310307
13.653,206987,898,310316
13.658,206994,896,310309
13.663,206985,898,310312
13.668,207007,895,310340
13.673,207000,893,310340
13.678,207014,892,310374
13.683,207015,892,310388
13.688,207007,901,310392
13.693,207032,892,310392
13.698,207020,890,310383
13.703,207030,890,310403
13.708,207036,889,310403
13.713,207018,900,310404
13.717,207013,899,310389
13.722,207022,898,310419
13.727,207018,895,310410
13.732,207029,893,310374
13.737,207033,896,310401
13.742,207031,897,310414
13.747,207038,895,310409
13.752,207018,892,310405
13.757,207016,891,310391
13.762,207027,890,310410
13.767,207034,886,310441
13.772,207027,899,310428
13.777,207034,896,310410
13.782,207030,897,310424
13.787,207034,888,310444
13.792,207032,900,310455
13.797,207038,897,310470
13.802,207040,896,310457
13.807,207044,894,310473
13.812,207047,891,310467
13.817,207057,889,310484
13.822,207043,887,310481
13.827,207063,899,310506
13.832,207078,896,310493
13.837,207057,887,310489
13.842,207049,884,310506
13.847,207078,884,310540
13.852,207079,897,310537
13.857,207092,897,310553
13.862,207093,894,310536
13.866,207105,893,310563
13.871,207104,892,310559
13.876,207115,889,310564
13.881,207128,888,310570
13.886,207121,891,310571
13.891,207134,890,310581
13.896,207144,889,310588
13.901,207145,887,310584
13.906,207155,886,310587
13.911,207178,885,310605
13.916,207154,895,310611
13.921,207167,893,310630
13.926,207187,890,310630
13.931,207173,890,310627
13.936,207176,893,310644
13.941,207191,892,310664
13.946,207189,890,310661
13.951,207194,887,310659
13.956,207195,884,310684
13.961,207198,896,310704
13.966,207209,893,310682
13.971,207209,892,310705
13.976,207225,890,310715
13.981,207212,888,310719
13.986,207232,894,310730
13.991,207231,890,310721
13.996,207237,889,310713
14.001,207266,887,310731
14.006,207251,886,310736
14.011,207256,884,310750
14.015,207259,881,310762
14.020,207270,894,310763
14.025,207252,892,310783
14.030,207285,884,310771
14.035,207300,881,310781
14.040,207289,891,310801
14.045,207306,892,310804
14.050,207309,889,310800
14.055,207301,889,310825
14.060,207288,888,310793
14.065,207300,887,310818
14.070,207328,884,310831
14.075,207313,883,310828
14.080,207325,866,310751
14.085,207321,893,310860
14.090,207346,891,310842
14.095,207368,890,310861
14.100,207363,888,310851
14.105,207370,888,310883
14.110,207348,883,310904
14.115,207383,883,310891
14.120,207351,477,310888
14.125,207387,563,310923
14.130,207386,604,310889
14.135,207390,629,310922
14.140,207398,648,310940
14.145,207411,665,310959
14.150,207415,675,310970
14.155,207402,685,310932
14.160,207428,693,310970
14.164,207428,703,310961
14.169,207423,708,310970
14.174,207452,713,310982
14.179,207450,723,310968
14.184,207468,728,311016
14.189,207473,731,311003
14.194,207475,732,311006
14.199,207459,733,311014
14.204,207496,734,311014
14.209,207486,748,311023
14.214,207505,749,311051
14.219,207511,748,311031
14.224,207531,1251,311094
14.229,207526,1113,311088
14.234,207523,1058,311102
14.239,207546,1025,311076
14.244,207543,1005,311099
14.249,207573,986,311122
14.254,207580,985,311100
14.259,207580,971,311111
14.264,207595,965,311122
14.269,207578,954,311154
14.274,207597,951,311141
14.279,207598,945,311138
14.284,207584,942,311118
14.289,207625,935,311132
14.294,207602,930,311134
14.299,207610,925,311159
14.304,207594,936,311141
14.309,207597,929,311132
14.313,207591,925,311080
14.318,207577,921,311091
14.323,207555,924,311037
14.328,207563,919,311019
14.333,207529,916,310974
14.338,207493,913,310919
14.343,207483,909,310939
14.348,207442,907,310923
14.353,207437,916,310914
14.358,207406,913,310878
14.363,207414,911,310874
14.368,207386,907,310865
14.373,207352,897,310865
14.378,207355,898,310840
14.383,207342,911,310831
14.388,207347,906,310827
14.393,207335,905,310838
14.398,207319,901,310842
14.403,207329,901,310807
14.408,207329,897,310827
14.413,207329,896,310817
14.418,207296,903,310800
14.423,207329,897,310792
14.428,207279,906,310827
14.433,207303,904,310844
14.438,207286,898,310827
14.443,207306,898,310802
14.448,207298,896,310826
14.453,207289,893,310813
14.458,207283,903,310815
14.462,207286,899,310827
14.467,207275,900,310826
14.472,207277,891,310806
14.477,207275,892,310788
14.482,207265,891,310788
14.487,207254,891,310803
14.492,207272,891,310792
14.497,207235,889,310769
14.502,207248,888,310790
14.507,207243,900,310762
14.512,207247,896,310762
14.517,207236,893,310785
14.522,207224,900,310774
14.527,207238,896,310769
14.532,207230,894,310763
14.537,207213,892,310758
14.542,207233,889,310783
14.547,207242,886,310795
14.552,207224,895,310797
14.557,207238,893,310817
14.562,207231,892,310818
14.567,207250,894,310864
14.572,207251,892,310857
14.577,207267,889,310852
14.582,207268,888,310863
14.587,207255,886,310859
14.592,207267,884,310865
14.597,207262,895,310892
14.602,207281,891,310869
14.607,207263,892,310871
14.611,207267,888,310867
14.616,207256,890,310877
14.621,207277,889,310850
14.626,207268,887,310857
14.631,207252,883,310870
14.636,207273,883,310882
14.641,207257,882,310878
14.646,207259,893,310887
14.651,207255,889,310884
14.656,207246,887,310861
14.661,207280,887,310903
14.666,207263,891,310896
14.671,207260,888,310879
14.676,207271,885,310871
14.681,207263,883,310923
14.686,207279,884,310902
14.691,207274,881,310923
14.696,207267,892,310899
14.701,207282,892,310885
14.706,207276,890,310914
14.711,207302,888,310914
14.716,207280,879,310924
14.721,207312,891,310915
14.726,207301,890,310953
14.731,207296,888,310940
14.736,207292,885,310958
14.741,207320,882,310964
14.746,207313,884,310966
14.751,207314,880,310981
14.756,207329,879,310964
14.760,207317,881,310973
14.765,207329,878,310983
14.770,207334,888,310991
14.775,207343,887,311001
14.780,207346,887,310999
14.785,207355,886,311001
14.790,207354,882,311009
14.795,207357,880,311017
14.800,207357,877,311043
14.805,207378,888,311033
14.810,207367,901,310974
14.815,207398,878,311047
14.820,207389,876,311064
14.825,207368,889,311048
14.830,207365,884,311075
14.835,207401,883,311063
14.840,207389,880,311079
14.845,207398,880,311081
14.850,207412,875,311070
14.855,207400,889,311105
14.860,207411,878,311111
14.865,207426,879,311095
14.870,207416,876,311138
14.875,207418,889,311132
14.880,207432,884,311146
14.885,207431,886,311130
14.890,207437,882,311140
14.895,207439,881,311128
14.900,207466,877,311117
14.905,207457,880,311124
14.909,207466,880,311133
14.914,207453,879,311139
14.919,207462,876,311165
14.924,207467,878,311182
14.929,207477,885,311156
14.934,207475,884,311165
14.939,207485,881,311174
14.944,207475,881,311171
14.949,207475,879,311166
14.954,207486,876,311196
14.959,207493,878,311186
14.964,207492,879,311190
14.969,207509,876,311206
14.974,207533,887,311234
14.979,207516,885,311219
14.984,207510,884,311219
14.989,207520,880,311228
14.994,207536,878,311232
14.999,207523,873,311241
15.004,207547,887,311206
15.009,207534,876,311244
15.014,207548,886,311243
15.019,207549,880,311259
15.024,207552,882,311221
15.029,207562,878,311230
15.034,207545,876,311236
15.039,207568,872,311260
15.044,207568,886,311275
15.049,207581,881,311276
15.054,207582,932,311283
15.058,207589,873,311257
15.063,207592,875,311266
15.068,207611,884,311257
15.073,207611,883,311294
15.078,207617,878,311280
15.083,207625,879,311308
15.088,207635,875,311322
15.093,207634,873,311312
15.098,207627,882,311311
15.103,207621,876,311318
15.108,207639,886,311354
15.113,207662,885,311346
15.118,207651,326,311347
15.123,207648,535,311338
15.128,207662,583,311327
15.133,207653,612,311333
15.138,207661,632,311329
15.143,207656,662,311328
15.148,207656,672,311300
15.153,207640,674,311313
15.158,207669,680,311303
15.163,207644,701,311296
15.168,207611,704,311250
15.173,207586,709,311222
15.178,207566,710,311200
15.183,207539,714,311166
15.188,207543,714,311135
15.193,207507,730,311118
15.198,207499,732,311117
15.203,207476,726,311071
15.207,207453,732,311047
15.212,207457,734,311049
15.217,207431,732,311031
15.222,207428,749,311036
15.227,207422,1145,311019
15.232,207414,1071,311032
15.237,207411,1030,311016
15.242,207386,1005,311021
15.247,207382,983,311017
15.252,207384,976,311002
15.257,207375,963,311008
15.262,207383,953,311023
15.267,207377,944,310993
15.272,207372,937,311003
15.277,207364,940,311001
15.282,207351,934,310976
15.287,207372,928,311010
15.292,207341,924,310997
15.297,207357,917,310898
15.302,207341,920,310991
15.307,207332,914,310978
15.312,207325,910,310982
15.317,207336,918,310969
15.322,207319,915,310980
15.327,207316,912,310960
15.332,207309,909,310959
15.337,207322,905,310961
15.342,207305,903,310966
15.347,207341,900,310974
15.352,207280,900,310951
15.356,207283,896,310947
15.361,207249,895,310954
15.366,207264,904,310951
15.371,207268,901,310959
15.376,207253,897,310934
15.381,207268,894,310937
15.386,207257,892,310918
15.391,207265,902,310951
15.396,207252,890,310959
15.401,207264,888,310964
15.406,207265,899,310968
15.411,207261,895,310968
15.416,207276,891,310975
15.421,207293,889,311009
15.426,207273,886,311014
15.431,207288,895,311001
15.436,207286,890,311035
15.441,207289,889,311038
15.446,207285,892,311011
15.451,207303,890,311034
15.456,207301,886,311012
15.461,207296,884,311035
15.466,207279,884,311043
15.471,207290,892,311021
15.476,207306,887,311044
15.481,207297,885,311022
15.486,207297,883,311015
15.491,207281,880,311009
15.496,207274,885,311021
15.501,207289,886,311037
15.505,207306,887,311053
15.510,207288,883,311054
15.515,207301,882,311048
15.520,207284,879,311059
15.525,207288,879,311066
15.530,207294,889,311064
15.535,207297,889,311074
15.540,207309,886,311090
15.545,207287,891,311082
15.550,207318,888,311086
15.555,207308,885,311087
15.560,207311,882,311092
15.565,207314,881,311073
15.570,207316,879,311108
15.575,207321,877,311113
15.580,207345,876,311142
15.585,207324,890,311120
15.590,207341,879,311178
15.595,207334,877,311120
15.600,207332,878,311127
15.605,207346,878,311152
15.610,207352,875,311139
15.615,207347,888,311140
15.620,207353,886,311152
15.625,207385,886,311152
15.630,207366,882,311192
15.635,207369,881,311201
15.640,207351,956,311180
15.645,207387,888,311189
15.650,207377,885,311238
15.654,207379,883,311213
15.659,207393,881,311210
15.664,207412,881,311222
15.669,207410,878,311221
15.674,207393,877,311234
15.679,207437,876,311241
15.684,207405,875,311246
15.689,207431,878,311244
15.694,207411,875,311249
15.699,207416,874,311284
15.704,207450,873,311258
15.709,207449,884,311274
15.714,207463,882,311298
15.719,207463,883,311277
15.724,207456,881,311296
15.729,207458,879,311304
15.734,207479,877,311307
15.739,207464,878,311290
15.744,207482,879,311334
15.749,207478,876,311340
15.754,207488,873,311329
15.759,207483,873,311334
15.764,207513,872,311330
15.769,207509,883,311346
15.774,207518,881,311371
15.779,207506,879,311379
15.784,207515,879,311380
15.789,207534,881,311379
15.794,207539,881,311372
15.799,207528,877,311395
15.803,207534,878,311389
15.808,207540,877,311384
15.813,207564,876,311405
15.818,207546,874,311421
15.823,207558,875,311397
15.828,207550,873,311432
15.833,207565,871,311434
15.838,207576,874,311419
15.843,207580,874,311429
15.848,207582,872,311471
15.853,207605,870,311458
15.858,207607,870,311465
15.863,207621,870,311484
15.868,207604,880,311468
15.873,207619,878,311475
15.878,207616,877,311493
15.883,207640,906,311494
15.888,207650,871,311480
15.893,207652,870,311514
15.898,207639,868,311503
15.903,207646,868,311513
15.908,207669,868,311531
15.913,207663,868,311546
15.918,207672,866,311526
15.923,207661,880,311549
15.928,207682,878,311539
15.933,207693,893,311531
15.938,207681,872,311554
15.943,207719,876,311589
15.948,207713,874,311592
15.952,207716,876,311600
15.957,207730,872,311579
15.962,207727,874,311593
15.967,207743,873,311616
15.972,207743,872,311647
15.977,207752,871,311661
15.982,207770,876,311647
15.987,207781,874,311665
15.992,207791,871,311677
15.997,207785,869,311676
16.002,207793,869,311667
16.007,207791,868,311657
16.012,207783,866,311661
16.017,207799,875,311663
16.022,207796,877,311643
16.027,207755,876,311612
16.032,207745,867,311616
16.037,207723,866,311573
16.042,207722,877,311536
16.047,207693,876,311536
16.052,207648,875,311483
16.057,207626,874,311481
16.062,207634,873,311444
16.067,207592,872,311439
16.072,207601,870,311435
16.077,207578,869,311402
16.082,207555,872,311389
16.087,207555,871,311396
16.092,207523,870,311367
16.097,207507,868,311377
16.101,207497,867,311357
16.106,207497,867,311363
16.111,207494,877,311351
16.116,207494,874,311357
16.121,207485,495,311354
16.126,207479,586,311361
16.131,207465,595,311394
16.136,207473,621,311373
16.141,207464,636,311363
16.146,207463,650,311369
16.151,207451,673,311345
16.156,207446,682,311361
16.161,207437,689,311351
16.166,207448,697,311344
16.171,207431,702,311343
16.176,207429,723,311350
16.181,207416,707,311339
16.186,207410,712,311343
16.191,207414,715,311347
16.196,207411,715,311327
16.201,207410,717,311336
16.206,207385,734,311328
16.211,207382,738,311330
16.216,207394,737,311328
16.221,207366,737,311324
16.226,207390,1187,311335
16.231,207384,1085,311324
16.236,207392,1039,311328
16.241,207369,1007,311333
16.246,207369,989,311326
16.250,207364,972,311364
16.255,207355,961,311337
16.260,207361,949,311330
16.265,207373,942,311365
16.270,207356,929,311360
16.275,207363,930,311357
16.280,207359,924,311362
16.285,207369,921,311365
16.290,207377,915,311394
16.295,207389,912,311393
16.300,207370,917,311387
16.305,207386,914,311417
16.310,207389,907,311418
16.315,207390,905,311427
16.320,207394,900,311417
16.325,207386,902,311420
16.330,207388,898,311421
16.335,207383,895,311430
16.340,207386,890,311447
16.345,207399,901,311432
16.350,207380,896,311422
16.355,207385,895,311454
16.360,207404,891,311456
16.365,207393,890,311463
16.370,207398,887,311449
16.375,207386,890,311456
16.380,207402,885,311470
16.385,207397,884,311486
16.390,207400,891,311508
16.395,207402,890,311490
16.399,207399,887,311512
16.404,207418,886,311508
16.409,207412,882,311536
16.414,207409,883,311516
16.419,207446,873,311536
16.424,207420,884,311568
16.429,207431,879,311555
16.434,207445,879,311573
16.439,207424,874,311580
16.444,207459,886,311602
16.449,207455,882,311599
16.454,207455,881,311568
16.459,207459,876,311600
16.464,207455,875,311591
16.469,207462,877,311622
16.474,207470,876,311634
16.479,207483,872,311631
16.484,207490,886,311655
16.489,207487,881,311636
16.494,207490,880,311672
16.499,207506,877,311668
16.504,207505,876,311680
16.509,207500,874,311685
16.514,207522,872,311692
16.519,207515,894,311719
16.524,207537,878,311702
16.529,207539,875,311718
16.534,207531,873,311733
16.539,207559,871,311728
16.544,207553,882,311723
16.548,207562,881,311760
16.553,207564,878,311774
16.558,207566,876,311770
16.563,207574,875,311782
16.568,207507,909,311755
16.573,207591,872,311791
16.578,207586,869,311791
16.583,207592,868,311817
16.588,207607,879,311818
16.593,207621,876,311829
16.598,207615,874,311817
16.603,207616,871,311823
16.608,207614,869,311845
16.613,207643,878,311846
16.618,207627,867,311857
16.623,207647,879,311867
16.628,207636,877,311863
16.633,207657,874,311887
16.638,207654,870,311892
16.643,207673,869,311927
16.648,207672,866,311889
16.653,207687,877,311895
16.658,207697,875,311922
16.663,207687,885,312042
16.668,207697,866,311930
16.673,207705,878,311944
16.678,207706,877,311961
16.683,207719,875,311950
16.688,207719,872,311974
16.693,207747,872,311984
16.697,207739,870,311988
16.702,207737,869,311978
16.707,207735,871,311992
16.712,207670,875,312017
16.717,207756,875,312033
16.722,207775,875,312037
16.727,207774,875,312042
16.732,207774,875,312056
16.737,207795,874,312068
16.742,207784,874,312070
16.747,207798,874,312069
16.752,207814,873,312097
16.757,207820,870,312095
16.762,207813,876,312116
16.767,207821,875,312124
16.772,207844,873,312130
16.777,207843,872,312129
16.782,207859,870,312154
16.787,207864,871,312158
16.792,207865,867,312167
16.797,207867,867,312179
16.802,207875,863,312181
16.807,207883,862,312210
16.812,207896,864,312218
16.817,207904,861,312215
16.822,207908,872,312217
16.827,207924,868,312238
16.832,207933,866,312217
16.837,207933,865,312245
16.842,207930,861,312246
16.846,207947,873,312272
16.851,207956,868,312293
16.856,207975,866,312296
16.861,207970,858,312312
16.866,207993,871,312306
16.871,207979,867,312333
16.876,207985,867,312320
16.881,207996,863,312322
16.886,208015,864,312344
16.891,207998,861,312313
16.896,207997,872,312316
16.901,207984,867,312315
16.906,207962,868,312277
16.911,207943,869,312274
16.916,207925,868,312230
16.921,207896,866,312214
16.926,207867,867,312196
16.931,207835,862,312160
16.936,207832,860,312128
16.941,207809,872,312107
16.946,207791,871,312091
16.951,207774,868,312065
16.956,207756,924,312084
16.961,207743,871,312078
16.966,207734,868,312067
16.971,207715,866,312068
16.976,207709,865,312043
16.981,207695,863,312049
16.986,207695,862,312040
16.991,207690,858,312041
16.995,207676,870,312024
17.000,207658,867,312027
17.005,207682,893,312011
17.010,207676,861,312015
17.015,207644,862,312008
17.020,207674,858,312042
17.025,207645,871,312008
17.030,207654,869,312026
17.035,207650,867,312020
17.040,207626,863,311991
17.045,207623,863,311994
17.050,207629,862,312004
17.055,207612,864,312008
17.060,207614,862,311995
17.065,207589,862,312002
17.070,207610,860,311992
17.075,207599,860,311992
17.080,207599,870,311979
17.085,207588,871,311996
17.090,207575,867,311979
17.095,207564,867,311989
17.100,207557,865,311999
17.105,207557,871,311995
17.110,207553,867,311992
17.115,207543,865,311971
17.120,207522,419,311951
17.125,207510,537,311940
17.130,207519,582,311940
17.135,207516,607,311937
17.140,207509,638,311954
17.144,207524,650,311954
17.149,207499,659,311984
17.154,207549,674,311982
17.159,207507,682,311985
17.164,207518,688,311978
17.169,207545,693,312016
17.174,207548,698,312031
17.179,207553,701,312036
17.184,207547,705,312040
17.189,207561,707,312078
17.194,207552,708,312067
17.199,207529,712,311978
17.204,207559,718,312071
17.209,207562,718,312081
17.214,207568,733,312076
17.219,207547,737,312068
17.224,207553,735,312048
17.229,207587,1103,312091
17.234,207559,1039,312075
17.239,207567,1003,312084
17.244,207578,976,312098
17.249,207607,951,312107
17.254,207561,950,312092
17.259,207571,939,312114
17.264,207572,943,312111
17.269,207571,933,312130
17.274,207570,925,312140
17.279,207579,917,312143
17.284,207577,913,312130
17.289,207578,909,312163
17.294,207564,904,312139
17.298,207596,927,312136
17.303,207579,907,312148
17.308,207587,902,312150
17.313,207595,898,312134
17.318,207585,895,312162
17.323,207591,892,312163
17.328,207590,889,312165
17.333,207599,887,312169
17.338,207610,885,312199
17.343,207600,893,312194
17.348,207597,885,312206
17.353,207610,881,312205
17.358,207621,879,312199
17.363,207612,890,312227
17.368,207632,887,312233
17.373,207634,881,312246
17.378,207636,878,312268
17.383,207644,886,312266
17.388,207645,883,312286
17.393,207656,888,312266
17.398,207635,883,312289
17.403,207672,882,312299
17.408,207687,879,312285
17.413,207667,874,312304
17.418,207672,873,312315
17.423,207668,883,312318
17.428,207676,881,312319
17.433,207700,877,312335
17.438,207711,876,312327
17.443,207711,873,312348
17.447,207713,869,312355
17.452,207727,867,312365
17.457,207722,879,312381
17.462,207748,876,312371
17.467,207737,876,312406
17.472,207741,873,312380
17.477,207747,871,312397
17.482,207754,869,312427
17.487,207759,869,312407
17.492,207748,871,312412
17.497,207744,870,312398
17.502,207759,867,312437
17.507,207763,866,312457
17.512,207771,873,312419
17.517,207776,873,312455
17.522,207777,867,312481
17.527,207788,867,312453
17.532,207785,864,312459
17.537,207788,876,312480
17.542,207790,864,312486
17.547,207802,865,312466
17.552,207809,875,312505
17.557,207812,874,312498
17.562,207817,870,312516
17.567,207833,868,312531
17.572,207814,865,312518
17.577,207827,862,312536
17.582,207851,872,312541
17.587,207845,870,312529
17.592,207837,872,312526
17.596,207867,871,312586
17.601,207865,867,312563
17.606,207872,866,312601
17.611,207880,862,312584
17.616,207880,874,312572
17.621,207894,872,312572
17.626,207894,871,312601
17.631,207916,867,312600
17.636,207913,865,312613
17.641,207911,869,312607
17.646,207924,869,312600
17.651,207936,865,312641
17.656,207943,862,312639
17.661,207946,857,312658
17.666,207947,871,312643
17.671,207933,867,312643
17.676,207950,865,312658
17.681,207960,862,312657
17.686,207967,861,312663
17.691,207956,867,312675
17.696,207971,866,312673
17.701,207971,864,312690
17.706,207992,862,312683
17.711,207977,859,312676
17.716,207999,871,312700
17.721,208002,867,312710
17.726,208000,867,312726
17.731,208011,863,312730
17.736,208026,860,312731
17.741,208015,866,312751
17.745,208045,864,312750
17.750,208052,862,312760
17.755,208054,861,312760
17.760,208069,858,312751
17.765,208064,859,312757
17.770,208057,857,312764
17.775,208053,869,312791
17.780,208075,867,312782
17.785,208082,851,312789
17.790,208073,857,312787
17.795,208063,868,312730
17.800,208039,863,312751
17.805,208039,864,312712
17.810,208013,860,312703
17.815,208003,858,312647
17.820,207970,868,312627
17.825,207950,867,312606
17.830,207939,864,312581
17.835,207908,866,312564
17.840,207893,865,312559
17.845,207871,862,312544
17.850,207847,860,312502
17.855,207830,858,312513
17.860,207819,856,312480
17.865,207818,868,312477
17.870,207798,865,312478
17.875,207815,865,312462
17.880,207778,863,312457
17.885,207768,867,312434
17.890,207768,867,312445
17.894,207765,866,312460
17.899,207747,862,312437
17.904,207743,859,312437
17.909,207733,857,312433
17.914,207728,857,312433
17.919,207728,855,312442
17.924,207731,866,312433
17.929,207730,865,312421
17.934,207708,856,312434
17.939,207730,865,312453
17.944,207707,865,312418
17.949,207697,863,312446
17.954,207693,860,312432
17.959,207687,857,312426
17.964,207694,856,312422
17.969,207680,855,312450
17.974,207659,866,312426
17.979,207664,863,312406
17.984,207654,857,312433
17.989,207639,857,312393
17.994,207645,855,312419
17.999,207635,866,312402
18.004,207629,862,312403
18.009,207619,860,312391
18.014,207631,856,312404
18.019,207633,853,312395
18.024,207599,865,312413
18.029,207603,872,312461
18.034,207608,859,312419
18.039,207622,857,312410
18.043,207602,855,312416
18.048,207613,853,312421
18.053,207629,864,312456
18.058,207622,863,312454
18.063,207626,861,312456
18.068,207649,859,312456
18.073,207645,854,312468
18.078,207587,857,312476
18.083,207655,856,312483
18.088,207662,857,312493
18.093,207649,853,312502
18.098,207632,863,312502
18.103,207652,861,312503
18.108,207645,860,312525
18.113,207657,858,312503
18.118,207645,855,312491
18.123,207648,495,312507
18.128,207643,562,312508
18.133,207648,593,312527
18.138,207649,614,312508
18.143,207647,643,312526
18.148,207655,654,312520
18.153,207641,662,312507
18.158,207652,668,312525
18.163,207668,674,312554
18.168,207649,678,312526
18.173,207650,696,312541
18.178,207668,692,312536
18.183,207670,694,312548
18.188,207665,713,312562
18.192,207665,713,312570
18.197,207656,715,312560
18.202,207654,716,312563
18.207,207678,718,312578
18.212,207667,716,312559
18.217,207676,718,312581
18.222,207675,733,312586
18.227,207672,727,312572
18.232,207686,1109,312612
18.237,207699,1038,312602
18.242,207702,1010,312597
18.247,207689,985,312617
18.252,207701,966,312646
18.257,207713,950,312628
18.262,207707,936,312625
18.267,207718,940,312636
18.272,207736,928,312664
18.277,207724,916,312659
18.282,207730,919,312639
18.287,207735,914,312651
18.292,207743,906,312685
18.297,207732,902,312669
18.302,207742,895,312679
18.307,207734,905,312655
18.312,207757,898,312686
18.317,207738,894,312672
18.322,207753,919,312698
18.327,207761,894,312704
18.332,207767,887,312698
18.337,207774,886,312700
18.341,207781,879,312731
18.346,207778,890,312732
18.351,207795,885,312731
18.356,207795,879,312758
18.361,207808,876,312747
18.366,207805,887,312755
18.371,207797,893,312751
18.376,207822,877,312768
18.381,207821,874,312755
18.386,207823,872,312800
18.391,207831,883,312791
18.396,207824,880,312770
18.401,207833,876,312773
18.406,207836,875,312798
18.411,207849,870,312777
18.416,207844,869,312817
18.421,207849,870,312811
18.426,207856,871,312815
18.431,207850,868,312835
18.436,207862,865,312829
18.441,207858,864,312815
18.446,207881,877,312839
18.451,207870,873,312835
18.456,207879,871,312840
18.461,207898,870,312876
18.466,207891,869,312878
18.471,207897,872,312862
18.476,207914,872,312890
18.481,207922,871,312894
18.486,207923,868,312901
18.490,207930,867,312884
18.495,207939,863,312920
18.500,207938,862,312903
18.505,207953,874,312920
18.510,207949,871,312958
18.515,207966,867,312946
18.520,207975,872,312934
18.525,207976,872,312932
18.530,207979,869,312958
18.535,207977,867,312982
18.540,207980,865,312949
18.545,207994,864,312970
18.550,208012,860,312967
18.555,208016,861,312989
18.560,208008,858,312971
18.565,208018,859,312933
18.570,208029,859,312987
18.575,208028,859,313017
18.580,208043,857,313008
18.585,208031,869,313027
18.590,208059,867,313042
18.595,208067,866,313061
18.600,208067,863,313060
18.605,208080,861,313054
18.610,208076,859,313094
18.615,208067,822,313092
18.620,208096,860,313100
18.625,208089,859,313102
18.630,208104,858,313100
18.635,208116,856,313121
18.639,208122,867,313125
18.644,208141,864,313119
18.649,208133,863,313123
18.654,208153,861,313132
18.659,208159,858,313140
18.664,208134,862,313155
18.669,208139,861,313114
18.674,208149,860,313138
18.679,208147,858,313137
18.684,208122,857,313096
18.689,208106,856,313066
18.694,208096,854,313042
18.699,208071,852,313071
18.704,208057,862,312981
18.709,208018,862,313002
18.714,208004,853,312956
18.719,208002,863,312941
18.724,207978,862,312931
18.729,207946,862,312903
18.734,207946,860,312885
18.739,207918,859,312878
18.744,207913,858,312876
18.749,207913,856,312884
18.754,207903,854,312879
18.759,207887,856,312896
18.764,207884,856,312867
18.769,207877,857,312868
18.774,207860,853,312861
18.779,207836,854,312871
18.784,207876,851,312866
18.788,207860,862,312865
18.793,207865,860,312851
18.798,207861,858,312846
18.803,207860,857,312894
18.808,207850,856,312850
18.813,207830,852,312857
18.818,207841,853,312846
18.823,207834,850,312861
18.828,207825,862,312855
18.833,207825,859,312863
18.838,207814,857,312844
18.843,207829,854,312856
18.848,207811,854,312849
18.853,207787,852,312859
18.858,207771,851,312847
18.863,207799,853,312866
18.868,207762,853,312840
18.873,207778,851,312829
18.878,207773,862,312840
18.883,207783,861,312840
18.888,207767,860,312854
18.893,207757,858,312861
18.898,207785,856,312846
18.903,207776,853,312814
18.908,207761,880,312863
18.913,207765,861,312858
18.918,207773,860,312886
18.923,207776,855,312881
18.928,207766,856,312912
18.933,207782,852,312927
18.937,207790,849,312927
18.942,207808,861,312931
18.947,207808,861,312933
18.952,207814,858,312946
18.957,207823,850,312941
18.962,207789,848,312927
18.967,207802,862,312937
18.972,207796,860,312948
18.977,207804,859,312934
18.982,207793,857,312965
18.987,207805,858,312960
18.992,207804,855,312982
18.997,207809,855,312964
19.002,207789,854,312943
19.007,207802,860,312967
19.012,207792,859,312971
19.017,207796,859,312987
19.022,207826,859,312958
19.027,207804,858,312985
19.032,207810,858,312966
19.037,207813,857,312979
19.042,207817,858,312990
19.047,207817,859,312996
19.052,207814,858,313001
19.057,207820,851,312988
19.062,207812,849,313015
19.067,207811,853,313009
19.072,207817,852,313025
19.077,207826,851,313016
19.082,207830,851,313064
19.086,207851,852,313007
19.091,207840,849,313021
19.096,207840,850,313048
19.101,207827,849,313030
19.106,207841,860,313065
19.111,207850,858,313050
19.116,207858,859,313073
19.121,207867,454,313080
19.126,207857,547,313073
19.131,207855,588,313101
19.136,207866,617,313109
19.141,207859,633,313079
19.146,207881,647,313127
19.151,207879,664,313128
19.156,207893,671,313134
19.161,207887,678,313141
19.166,207896,686,313116
19.171,207909,691,313163
19.176,207921,696,313145
19.181,207905,699,313160
19.186,207930,704,313169
19.191,207917,709,313170
19.196,207957,711,313167
19.201,207940,704,313162
19.206,207953,710,313178
19.211,207955,711,313190
19.216,207958,714,313215
19.221,207967,717,313199
19.226,207967,1252,313220
19.231,207967,1083,313214
19.235,207996,1028,313207
19.240,207979,993,313231
19.245,207989,973,313247
19.250,207997,948,313231
19.255,208010,936,313276
19.260,207993,928,313245
19.265,207994,921,313256
19.270,208004,913,313270
19.275,208039,909,313280
19.280,208026,904,313273
19.285,208026,900,313288
19.290,208029,894,313287
19.295,208032,885,313267
19.300,208046,891,313287
19.305,208063,890,313302
19.310,208058,887,313338
19.315,208053,885,313331
19.320,208051,881,313336
19.325,208076,879,313344
19.330,208071,874,313342
19.335,208101,888,313336
19.340,208076,885,313362
19.345,208088,886,313369
19.350,208068,876,313388
19.355,208111,875,313375
19.360,208092,874,313352
19.365,208096,872,313370
19.370,208107,870,313385
19.375,208088,868,313381
19.380,208105,865,313368
19.384,208116,865,313393
19.389,208125,865,313397
19.394,208133,879,313415
19.399,208126,867,313407
19.404,208137,867,313426
19.409,208143,868,313412
19.414,208163,867,313460
19.419,208166,866,313456
19.424,208182,865,313453
19.429,208182,864,313467
19.434,208195,863,313486
19.439,208171,863,313488
19.444,208192,868,313496
19.449,208197,867,313479
19.454,208219,866,313516
19.459,208228,866,313519
19.464,208219,865,313521
19.469,208233,866,313519
19.474,208241,868,313532
19.479,208237,869,313519
19.484,208256,856,313523
19.489,208267,857,313543
19.494,208174,855,313540
19.499,208270,865,313545
19.504,208273,867,313520
19.509,208255,867,313494
19.514,208245,865,313475
19.519,208197,867,313470
19.524,208183,865,313456
19.529,208170,866,313446
19.533,208162,866,313407
19.538,208124,853,313357
19.543,208108,880,313334
19.548,208081,853,313354
19.553,208089,851,313340
19.558,208070,853,313307
19.563,208064,853,313293
19.568,208058,853,313305
19.573,208037,851,313287
19.578,208010,852,313266
19.583,208009,853,313243
19.588,208000,854,313250
19.593,207980,858,313249
19.598,208001,859,313247
19.603,207973,858,313246
19.608,207983,860,313261
19.613,207986,860,313241
19.618,207968,862,313259
19.623,207972,861,313248
19.628,207974,862,313246
19.633,207942,862,313247
19.638,207947,855,313135
19.643,207947,854,313243
19.648,207953,856,313233
19.653,207939,855,313243
19.658,207937,856,313228
19.663,207943,856,313229
19.668,207925,859,313204
19.673,207923,856,313231
19.678,207926,856,313225
19.682,207926,855,313223
19.687,207940,861,313235
19.692,207912,860,313225
19.697,207900,861,313204
19.702,207902,859,313214
19.707,207911,862,313206
19.712,207884,861,313195
19.717,207887,861,313217
19.722,207876,859,313208
19.727,207890,861,313217
19.732,207882,860,313189
19.737,207890,852,313217
19.742,207880,849,313184
19.747,207904,849,313240
19.752,207891,862,313251
19.757,207925,850,313249
19.762,207901,861,313288
19.767,207915,861,313270
19.772,207935,859,313283
19.777,207931,859,313282
19.782,207926,856,313302
19.787,207934,851,313320
19.792,207932,861,313273
19.797,207932,859,313301
19.802,207935,857,313304
19.807,207917,860,313296
19.812,207917,857,313299
19.817,207940,856,313285
19.822,207942,856,313294
19.827,207942,856,313296
19.831,207936,855,313284
19.836,207935,851,313301
19.841,207926,849,313311
19.846,207938,850,313312
19.851,207938,850,313305
19.856,207930,850,313302
19.861,207922,850,313294
19.866,207926,851,313315
19.871,207934,852,313302
19.876,207937,852,313306
19.881,207942,852,313315
19.886,207930,855,313327
19.891,207940,856,313350
19.896,207954,857,313320
19.901,207938,856,313320
19.906,207948,858,313334
19.911,207942,857,313341
19.916,207951,858,313343
19.921,207965,858,313345
19.926,207953,857,313356
19.931,207935,871,313358
19.936,207974,853,313384
19.941,207972,855,313396
19.946,207971,856,313378
19.951,207991,857,313393
19.956,207988,857,313406
19.961,208009,858,313401
19.966,207979,858,313421
19.971,207994,858,313403
19.976,208015,858,313435
19.980,208004,850,313450
19.985,208010,850,313448
19.990,208011,848,313444
19.995,208041,849,313459
20.000,208018,849,313449
20.005,208034,848,313484
20.010,208031,848,313463
20.015,208036,846,313491
20.020,208051,848,313469
20.025,208053,847,313486
20.030,208059,852,313487
20.035,208066,852,313516
20.040,208070,851,313514
20.045,208082,852,313520
20.050,208093,853,313515
20.055,208091,853,313513
20.060,208098,851,313534
20.065,208104,851,313553
20.070,208106,850,313563
20.075,208126,856,313543
20.080,208119,855,313571
20.085,208120,857,313572
20.090,208125,856,313560
20.095,208143,857,313579
20.100,208135,855,313579
20.105,208139,856,313578
20.110,208154,857,313571
20.115,208146,855,313594
20.120,208301,347,313614
20.125,208159,526,313584
20.129,208165,567,313590
20.134,208171,597,313603
20.139,208163,630,313614
20.144,208177,646,313605
20.149,208160,658,313629
20.154,208187,668,313621
20.159,208178,675,313666
20.164,208185,680,313649
20.169,208197,689,313636
20.174,208208,676,313662
20.179,208219,695,313664
20.184,208212,702,313669
20.189,208218,706,313680
20.194,208207,709,313654
20.199,208214,712,313687
20.204,208227,714,313671
20.209,208247,717,313685
20.214,208255,719,313711
20.219,208255,721,313750
20.224,208279,728,313698
20.229,208291,1105,313735
20.234,208283,1034,313720
20.239,208291,999,313762
20.244,208291,974,313756
20.249,208308,958,313779
20.254,208315,944,313756
20.259,208315,934,313751
20.264,208316,923,313768
20.269,208303,920,313752
20.274,208295,906,313712
20.278,208270,900,313699
20.283,208244,896,313662
20.288,208225,893,313642
20.293,208206,902,313635
20.298,208194,896,313596
20.303,208169,890,313580
20.308,208135,887,313503
20.313,208133,880,313528
20.318,208113,889,313535
20.323,208126,876,313503
20.328,208091,885,313504
20.333,208082,881,313463
20.338,208053,875,313460
20.343,208070,871,313462
20.348,208042,881,313465
20.353,208044,877,313447
20.358,208043,874,313458
20.363,208035,869,313429
20.368,208022,869,313435
20.373,208013,869,313435
20.378,208010,865,313440
20.383,208022,873,313431
20.388,208001,871,313414
20.393,208000,865,313422
20.398,207993,865,313405
20.403,207992,860,313387
20.408,207978,873,313402
20.413,207968,867,313378
20.418,207980,866,313392
20.423,207967,856,313401
20.427,207938,869,313388
20.432,207951,865,313402
20.437,207944,862,313394
20.442,207945,855,313410
20.447,207928,868,313376
20.452,207919,863,313377
20.457,207921,861,313372
20.462,207917,857,313384
20.467,207861,849,313378
20.472,207935,856,313374
20.477,207918,868,313360
20.482,207902,863,313371
20.487,207916,860,313369
20.492,207921,856,313380
20.497,207913,853,313387
20.502,207912,863,313393
20.507,207922,861,313392
20.512,207931,857,313390
20.517,207919,860,313398
20.522,207922,855,313415
20.527,207943,853,313436
20.532,207938,862,313439
20.537,207951,859,313451
20.542,207938,855,313460
20.547,207932,854,313453
20.552,207962,862,313455
20.557,207949,861,313473
20.562,207951,855,313470
20.567,207966,859,313478
20.572,207983,855,313474
20.576,207947,853,313492
20.581,207976,848,313483
20.586,207958,860,313487
20.591,207964,857,313490
20.596,207982,856,313485
20.601,207960,852,313481
20.606,207977,850,313503
20.611,207959,859,313502
20.616,207963,852,313504
20.621,207964,850,313500
20.626,207982,861,313502
20.631,207955,858,313494
20.636,207970,857,313501
20.641,207990,852,313518
20.646,207972,852,313534
20.651,207985,860,313532
20.656,207987,859,313510
20.661,207989,855,313550
20.666,207984,859,313553
20.671,208004,855,313550
20.676,207986,854,313570
20.681,208024,851,313553
20.686,208009,850,313558
20.691,208029,857,313592
20.696,208016,856,313590
20.701,208022,852,313592
20.706,208043,852,313619
20.711,208057,855,313685
20.716,208057,854,313626
20.721,208069,849,313627
20.725,208066,850,313643
20.730,208071,846,313641
20.735,208074,856,313662
20.740,208069,852,313665
20.745,208095,851,313650
20.750,208091,849,313660
20.755,208098,847,313669
20.760,208079,853,313716
20.765,208099,850,313691
20.770,208126,847,313692
20.775,208121,857,313724
20.780,208101,853,313708
20.785,208123,851,313702
20.790,208134,848,313716
20.795,208152,844,313730
20.800,208155,854,313742
20.805,208153,851,313743
20.810,208162,854,313749
20.815,208146,853,313747
20.820,208164,847,313758
20.825,208178,846,313789
20.830,208191,857,313790
20.835,208204,853,313806
20.840,208217,851,313804
20.845,208200,848,313810
20.850,208187,848,313831
20.855,208216,844,313823
20.860,208215,847,313843
20.865,208219,845,313846
20.870,208232,856,313832
20.874,208230,852,313817
20.879,208254,851,313869
20.884,208246,846,313856
20.889,208259,855,313841
20.894,208272,850,313858
20.899,208248,848,313877
20.904,208280,846,313871
20.909,208284,851,313878
20.914,208277,848,313886
20.919,208294,843,313894
20.924,208283,852,313915
20.929,208311,849,313919
20.934,208317,845,313933
20.939,208312,855,313917
20.944,208320,850,313940
20.949,208332,848,313959
20.954,208337,843,313951
20.959,208338,846,313952
20.964,208327,843,313976
20.969,208363,855,313961
20.974,208361,848,313981
20.979,208378,846,313994
20.984,208373,841,313993
20.989,208377,853,314019
20.994,208398,848,314020
20.999,208402,843,314027
21.004,208402,842,314014
21.009,208381,851,314008
21.014,208401,848,313994
21.019,208383,845,313988
21.023,208398,842,314009
21.028,208357,854,313956
21.033,208362,847,313955
21.038,208332,845,313916
21.043,208286,840,313881
21.048,208300,852,313879
21.053,208277,854,313848
21.058,208254,851,313822
21.063,208247,845,313825
21.068,208250,844,313826
21.073,208202,853,313790
21.078,208217,850,313804
21.083,208204,844,313777
21.088,208191,844,313772
21.093,208171,841,313764
21.098,208185,852,313756
21.103,208167,841,313765
21.108,208181,853,313770
21.113,208156,850,313755
21.118,208155,848,313758
21.123,208145,475,313781
21.128,208132,546,313758
21.133,208144,593,313734
21.138,208134,613,313752
21.143,208127,629,313749
21.148,208117,640,313746
21.153,208119,655,313740
21.158,208114,663,313718
21.163,208107,667,313719
21.168,208114,673,313728
21.172,208089,689,313700
21.177,208086,692,313706
21.182,208083,694,313709
21.187,208076,698,313706
21.192,208059,699,313685
21.197,208052,700,313703
21.202,208062,705,313686
21.207,208058,708,313691
21.212,208049,710,313695
21.217,208053,712,313689
21.222,208063,714,313694
21.227,208044,1169,313712
21.232,208034,1058,313699
21.237,208047,1008,313697
21.242,208044,974,313691
21.247,208053,956,313678
21.252,208039,942,313694
21.257,208042,931,313702
21.262,208032,919,313709
21.267,208036,912,313727
21.272,208051,903,313709
21.277,208058,909,313740
21.282,208063,902,313732
21.287,208044,897,313731
21.292,208067,889,313742
21.297,208068,908,313788
21.302,208053,878,313763
21.307,208077,887,313782
21.312,208087,884,313783
21.317,208075,879,313790
21.321,208077,875,313797
21.326,208069,873,313793
21.331,208084,880,313798
21.336,208089,879,313786
21.341,208092,873,313824
21.346,208093,878,313804
21.351,208096,876,313798
21.356,208097,872,313810
21.361,208099,868,313807
21.366,208119,867,313826
21.371,208109,861,313833
21.376,208105,861,313859
21.381,208102,870,313849
21.386,208110,867,313846
21.391,208106,864,313867
21.396,208108,866,313851
21.401,208110,861,313875
21.406,208122,859,313872
21.411,208120,855,313878
21.416,208133,864,313888
21.421,208129,861,313867
21.426,208137,858,313889
21.431,208164,855,313908
21.436,208146,864,313880
21.441,208167,860,313903
21.446,208145,852,313912
21.451,208164,863,313911
21.456,208133,861,313927
21.461,208166,858,313942
21.466,208177,856,313939
21.470,208169,853,313932
21.475,208181,852,313943
21.480,208195,849,313946
21.485,208192,860,313950
21.490,208184,858,313966
21.495,208203,848,313959
21.500,208203,859,313954
21.505,208213,857,313955
21.510,208224,854,313975
21.515,208213,851,313993
21.520,208209,848,313966
21.525,208215,856,314003
21.530,208234,855,313995
21.535,208239,850,314012
21.540,208242,852,314035
21.545,208250,851,314006
21.550,208264,850,314051
21.555,208240,847,314066
21.560,208253,847,314065
21.565,208278,857,314048
21.570,208279,856,314060
21.575,208280,854,314060
21.580,208305,850,314057
21.585,208283,845,314072
21.590,208362,842,314068
21.595,208295,851,314086
21.600,208323,850,314105
21.605,208315,846,314086
21.610,208310,845,314105
21.615,208314,854,314103
21.619,208339,850,314120
21.624,208339,847,314134
21.629,208364,846,314126
21.634,208353,854,314129
21.639,208341,843,314141
21.644,208342,854,314135
21.649,208364,852,314129
21.654,208361,849,314153
21.659,208382,846,314148
21.664,208396,843,314192
21.669,208387,855,314169
21.674,208386,853,314165
21.679,208395,851,314189
21.684,208417,847,314202
21.689,208405,852,314192
21.694,208414,848,314214
21.699,208426,848,314221
21.704,208444,844,314197
21.709,208434,855,314231
21.714,208434,849,314217
21.719,208440,849,314222
21.724,208445,843,314227
21.729,208431,843,314247
21.734,208476,859,314239
21.739,208459,847,314260
21.744,208478,845,314283
21.749,208466,845,314266
21.754,208481,842,314284
21.759,208501,851,314273
21.764,208478,847,314276
21.768,208502,846,314298
21.773,208523,843,314315
21.778,208514,841,314305
21.783,208519,851,314306
21.788,208534,847,314322
21.793,208541,846,314340
21.798,208569,846,314345
21.803,208548,842,314346
21.808,208568,841,314358
21.813,208555,851,314355
21.818,208570,850,314339
21.823,208567,845,314359
21.828,208590,845,314348
21.833,208588,842,314368
21.838,208586,838,314391
21.843,208609,848,314395
21.848,208579,847,314395
21.853,208617,845,314385
21.858,208617,843,314392
21.863,208615,841,314409
21.868,208624,850,314406
21.873,208634,848,314434
21.878,208651,842,314431
21.883,208648,867,314450
21.888,208652,850,314466
21.893,208666,846,314448
21.898,208666,846,314466
21.903,208672,841,314466
21.908,208679,840,314486
21.913,208683,836,314496
21.917,208699,849,314493
21.922,208720,844,314496
21.927,208708,844,314503
21.932,208720,847,314525
21.937,208739,846,314554
21.942,208733,843,314525
21.947,208748,842,314529
21.952,208747,841,314550
21.957,208744,839,314526
21.962,208747,848,314514
21.967,208736,848,314506
21.972,208712,844,314503
21.977,208705,845,314451
21.982,208708,802,314428
21.987,208669,841,314377
21.992,208644,839,314380
21.997,208622,838,314373
22.002,208595,848,314322
22.007,208568,849,314305
22.012,208561,846,314271
22.017,208543,845,314277
22.022,208542,843,314245
22.027,208522,841,314226
22.032,208489,846,314222
22.037,208503,845,314201
22.042,208480,844,314218
22.047,208467,843,314179
22.052,208457,843,314215
22.057,208480,843,314223
22.062,208473,840,314199
22.066,208451,839,314189
22.071,208445,837,314201
22.076,208460,838,314239
22.081,208461,838,314191
22.086,208442,838,314182
22.091,208432,848,314159
22.096,208446,847,314192
22.101,208427,843,314182
22.106,208426,842,314151
22.111,208430,838,314192
22.116,208428,837,314174
22.121,207976,373,314197
22.126,208394,507,314169
22.131,208390,565,314169
22.136,208395,605,314142
22.141,208383,623,314119
22.146,208379,633,314137
22.151,208360,643,314125
22.156,208367,649,314138
22.161,208354,668,314131
22.166,208361,672,314132
22.171,208383,676,314136
22.176,208371,682,314117
22.181,208331,684,314098
22.186,208340,684,314100
22.191,208336,699,314100
22.196,208334,700,314107
22.201,208326,700,314094
22.206,208328,701,314122
22.211,208329,702,314130
22.215,208336,716,314108
22.220,208347,716,314095
22.225,208339,710,314092
22.230,208353,1091,314134
22.235,208362,1020,314160
22.240,208383,982,314168
22.245,208382,957,314165
22.250,208399,938,314189
22.255,208362,925,314215
22.260,208384,926,314175
22.265,208394,916,314192
22.270,208389,907,314180
22.275,208379,906,314201
22.280,208377,899,314183
22.285,208385,893,314195
22.290,208393,888,314195
22.295,208389,884,314203
22.300,208384,878,314193
22.305,208374,885,314180
22.310,208385,880,314179
22.315,208387,877,314181
22.320,208393,874,314193
22.325,208385,876,314181
22.330,208374,874,314177
22.335,208377,871,314189
22.340,208383,867,314181
22.345,208397,864,314208
22.350,208394,863,314213
22.355,208388,860,314218
22.360,208393,858,314207
22.364,208393,868,314205
22.369,208400,874,314314
22.374,208399,858,314220
22.379,208372,855,314222
22.384,208398,853,314228
22.389,208398,864,314245
22.394,208403,864,314224
22.399,208413,861,314215
22.404,208416,858,314222
22.409,208410,856,314214
22.414,208414,853,314245
22.419,208395,848,314239
22.424,208421,849,314262
22.429,208434,861,314258
22.434,208433,857,314253
22.439,208442,854,314262
22.444,208438,851,314269
22.449,208450,848,314283
22.454,208466,858,314275
22.459,208472,856,314274
22.464,208452,853,314284
22.469,208472,857,314283
22.474,208465,853,314304
22.479,208500,850,314298
22.484,208485,847,314303
22.489,208504,857,314296
22.494,208490,854,314304
22.499,208483,851,314313
22.504,208507,849,314312
22.509,208513,848,314352
22.513,208495,847,314315
22.518,208554,846,314345
22.523,208517,853,314348
22.528,208527,851,314350
22.533,208522,853,314352
22.538,208533,850,314372
22.543,208537,848,314349
22.548,208536,848,314353
22.553,208550,846,314379
22.558,208564,845,314353
22.563,208543,843,314367
22.568,208557,847,314379
22.573,208571,846,314360
22.578,208564,847,314368
22.583,208562,844,314374
22.588,208568,844,314384
22.593,208587,843,314387
22.598,208575,841,314381
22.603,208584,841,314402
22.608,208607,852,314398
22.613,208605,850,314384
22.618,208598,841,314401
22.623,208620,850,314386
22.628,208609,849,314412
22.633,208631,847,314395
22.638,208623,845,314411
22.643,208620,843,314417
22.648,208621,841,314431
22.653,208631,842,314440
22.658,208643,840,314443
22.662,208635,888,314444
22.667,208652,838,314443
22.672,208652,841,314460
22.677,208658,840,314452
22.682,208660,839,314461
22.687,208669,838,314452
22.692,208687,839,314464
22.697,208688,849,314505
22.702,208677,848,314484
22.707,208675,846,314496
22.712,208692,824,314451
22.717,208703,841,314489
22.722,208687,841,314489
22.727,208714,841,314506
22.732,208707,840,314512
22.737,208734,839,314517
22.742,208722,839,314517
22.747,208720,837,314533
22.752,208736,838,314537
22.757,208739,837,314501
22.762,208729,840,314539
22.767,208753,840,314538
22.772,208751,839,314534
22.777,208760,838,314540
22.782,208772,838,314559
22.787,208769,835,314558
22.792,208775,837,314557
22.797,208789,846,314560
22.802,208806,846,314573
22.807,208795,843,314565
22.811,208824,838,314583
22.816,208809,836,314575
22.821,208824,836,314593
22.826,208813,846,314618
22.831,208828,845,314597
22.836,208853,844,314625
22.841,208849,843,314621
22.846,208836,842,314608
22.851,208844,841,314623
22.856,208850,837,314650
22.861,208844,843,314628
22.866,208851,842,314607
22.871,208851,842,314611
22.876,208848,838,314595
22.881,208820,838,314569
22.886,208812,833,314533
22.891,208785,834,314515
22.896,208792,833,314510
22.901,208777,845,314458
22.906,208743,850,314526
22.911,208702,836,314425
22.916,208706,846,314381
22.921,208683,843,314363
22.926,208672,841,314375
22.931,208652,839,314357
22.936,208628,836,314331
22.941,208623,835,314328
22.946,208635,831,314337
22.951,208619,836,314303
22.956,208542,837,314322
22.960,208586,840,314305
22.965,208578,839,314298
22.970,208582,839,314304
22.975,208590,837,314294
22.980,208592,836,314302
22.985,208569,836,314317
22.990,208554,835,314269
22.995,208562,834,314269
23.000,208548,832,314283
23.005,208566,835,314247
23.010,208535,836,314243
23.015,208546,834,314254
23.020,208535,832,314239
23.025,208510,831,314260
23.030,208534,846,314254
23.035,208505,843,314226
23.040,208502,843,314221
23.045,208488,840,314206
23.050,208502,840,314227
23.055,208482,842,314180
23.060,208446,843,314191
23.065,208465,839,314188
23.070,208447,840,314182
23.075,208448,838,314184
23.080,208433,837,314162
23.085,208441,833,314171
23.090,208446,835,314171
23.095,208429,833,314148
23.100,208422,833,314171
23.105,208431,841,314185
23.109,208432,842,314160
23.114,208426,842,314150
23.119,208417,842,314170
23.124,208426,491,314172
23.129,208420,554,314176
23.134,208426,587,314176
23.139,208430,608,314189
23.144,208437,624,314198
23.149,208453,636,314198
23.154,208446,649,314195
23.159,208450,658,314191
23.164,208451,661,314221
23.169,208451,668,314212
23.174,208447,670,314210
23.179,208438,686,314213
23.184,208448,689,314202
23.189,208445,692,314207
23.194,208437,695,314210
23.199,208439,768,314216
23.204,208444,706,314211
23.209,208445,707,314205
23.214,208425,707,314199
23.219,208434,709,314190
23.224,208437,706,314200
23.229,208424,710,314196
23.234,208419,710,314199
23.239,208443,1081,314213
23.244,208443,1010,314213
23.249,208451,976,314210
23.254,208443,954,314223
23.258,208444,937,314207
23.263,208448,923,314225
23.268,208434,913,314209
23.273,208423,903,314252
23.278,208461,909,314212
23.283,208449,902,314226
23.288,208446,896,314228
23.293,208447,890,314251
23.298,208440,880,314241
23.303,208457,887,314227
23.308,208464,884,314267
23.313,208466,881,314274
23.318,208459,878,314276
23.323,208454,873,314278
23.328,208468,872,314267
23.333,208471,868,314269
23.338,208474,865,314275
23.343,208479,863,314244
23.348,208479,866,314275
23.353,208487,864,314264
23.358,208490,861,314294
23.363,208502,856,314293
23.368,208508,856,314290
23.373,208521,855,314303
23.378,208503,852,314304
23.383,208505,862,314308
23.388,208510,862,314321
23.393,208522,860,314315
23.398,208518,855,314336
23.403,208513,857,314302
23.407,208541,856,314334
23.412,208551,855,314331
23.417,208540,853,314344
23.422,208550,851,314355
23.427,208553,850,314358
23.432,208548,850,314357
23.437,208560,847,314357
23.442,208566,854,314477
23.447,208566,850,314364
23.452,208583,849,314386
23.457,208589,846,314391
23.462,208587,844,314376
23.467,208590,843,314396
23.472,208596,843,314394
23.477,208596,842,314392
23.482,208603,841,314420
23.487,208605,852,314414
23.492,208552,842,314424
23.497,208618,842,314409
23.502,208617,840,314436
23.507,208626,840,314435
23.512,208619,841,314425
23.517,208640,851,314443
23.522,208628,849,314436
23.527,208653,847,314440
23.532,208630,847,314462
23.537,208649,844,314437
23.542,208663,857,314450
23.547,208655,839,314451
23.552,208662,839,314467
23.556,208665,836,314473
23.561,208671,836,314462
23.566,208660,835,314483
23.571,208671,849,314473
23.576,208679,846,314494
23.581,208688,845,314505
23.586,208714,841,314506
23.591,208704,848,314471
23.596,208713,845,314503
23.601,208711,845,314503
23.606,208707,844,314505
23.611,208733,843,314533
23.616,208737,840,314527
23.621,208738,840,314540
23.626,208738,837,314530
23.631,208741,838,314555
23.636,208741,835,314565
23.641,208757,845,314554
23.646,208769,840,314593
23.651,208759,839,314564
23.656,208761,838,314586
23.661,208788,837,314575
23.666,208780,835,314592
23.671,208790,835,314573
23.676,208789,846,314583
23.681,208794,844,314608
23.686,208798,844,314610
23.691,208807,837,314606
23.696,208817,836,314602
23.701,208822,835,314636
23.705,208816,831,314605
23.710,208837,845,314610
23.715,208836,843,314644
23.720,208833,842,314622
23.725,208830,840,314668
23.730,208847,841,314650
23.735,208864,869,314655
23.740,208871,844,314664
23.745,208870,841,314678
23.750,208868,843,314661
23.755,208873,842,314705
23.760,208869,842,314674
23.765,208887,841,314684
23.770,208894,841,314685
23.775,208875,840,314678
23.780,208873,836,314675
23.785,208863,841,314640
23.790,208844,842,314598
23.795,208827,840,314604
23.800,208810,841,314560
23.805,208789,838,314524
23.810,208773,839,314518
23.815,208762,837,314471
23.820,208759,836,314471
23.825,208721,834,314446
23.830,208689,834,314426
23.835,208682,859,314417
23.840,208669,829,314405
23.845,208644,838,314401
23.850,208660,839,314411
23.854,208650,835,314376
23.859,208627,835,314375
23.864,208616,833,314375
23.869,208615,832,314383
23.874,208617,830,314371
23.879,208627,831,314356
23.884,208617,834,314363
23.889,208587,832,314351
23.894,208594,830,314360
23.899,208596,830,314331
23.904,208585,830,314343
23.909,208581,828,314339
23.914,208556,839,314336
23.919,208554,837,314331
23.924,208563,836,314334
23.929,208554,836,314323
23.934,208543,840,314301
23.939,208546,838,314318
23.944,208527,835,314321
23.949,208534,835,314290
23.954,208503,835,314299
23.959,208532,833,314305
23.964,208498,830,314289
23.969,208494,830,314296
23.974,208485,828,314293
23.979,208486,834,314374
23.984,208487,835,314252
23.989,208450,837,314263
23.994,208457,835,314269
23.999,208465,835,314260
24.003,208459,832,314245
24.008,208461,831,314250
24.013,208463,831,314240
24.018,208436,827,314254
24.023,208468,838,314261
24.028,208390,829,314291
24.033,208467,827,314289
24.038,208472,838,314301
24.043,208473,836,314286
24.048,208478,836,314320
24.053,208475,834,314311
24.058,208486,832,314317
24.063,208490,831,314314
24.068,208489,828,314328
24.073,208471,828,314341
24.078,208485,832,314328
24.083,208458,831,314335
24.088,208479,830,314337
24.093,208489,829,314349
24.098,208480,828,314317
24.103,208466,826,314319
24.108,208470,826,314337
24.113,208456,838,314316
24.118,208466,837,314315
24.123,208458,440,314317
24.128,208449,525,314305
24.133,208457,566,314335
24.138,208445,606,314316
24.143,208462,621,314327
24.148,208452,632,314344
24.152,208452,641,314319
24.157,208460,648,314326
24.162,208449,652,314327
24.167,208461,669,314334
24.172,208438,667,314340
24.177,208462,668,314346
24.182,208471,684,314327
24.187,208467,688,314349
24.192,208474,691,314328
24.197,208497,691,314340
24.202,208471,694,314375
24.207,208499,693,314368
24.212,208491,695,314360
24.217,208489,709,314357
24.222,208491,710,314352
24.227,208573,1242,314383
24.232,208499,1051,314384
24.237,208520,993,314410
24.242,208510,961,314400
24.247,208504,939,314401
24.252,208528,922,314423
24.257,208516,910,314402
24.262,208510,912,314410
24.267,208530,903,314428
24.272,208519,971,314442
24.277,208519,888,314415
24.282,208534,884,314404
24.287,208540,877,314456
24.292,208548,873,314466
24.297,208545,869,314448
24.301,208546,866,314456
24.306,208556,875,314463
24.311,208556,872,314471
24.316,208576,870,314464
24.321,208573,859,314479
24.326,208551,856,314488
24.331,208576,854,314474
24.336,208565,866,314463
24.341,208563,862,314476
24.346,208584,860,314485
24.351,208579,860,314483
24.356,208594,857,314498
24.361,208583,855,314509
24.366,208567,852,314519
24.371,208591,859,314505
24.376,208591,856,314516
24.381,208598,854,314522
24.386,208614,851,314524
24.391,208612,851,314529
24.396,208617,848,314542
24.401,208606,845,314536
24.406,208629,842,314509
24.411,208628,842,314533
24.416,208642,839,314521
24.421,208629,843,314547
24.426,208640,841,314534
24.431,208645,843,314550
24.436,208655,842,314564
24.441,208661,841,314533
24.446,208637,837,314572
24.450,208655,838,314559
24.455,208679,837,314571
24.460,208664,849,314564
24.465,208684,847,314596
24.470,208688,836,314583
24.475,208689,834,314600
24.480,208674,834,314590
24.485,208699,845,314576
24.490,208707,843,314592
24.495,208716,840,314588
24.500,208699,838,314588
24.505,208704,836,314611
24.510,208706,837,314600
24.515,208713,842,314711
24.520,208730,842,314613
24.525,208719,841,314614
24.530,208727,842,314640
24.535,208717,838,314639
24.540,208742,838,314640
24.545,208741,835,314647
24.550,208743,834,314663
24.555,208754,834,314646
24.560,208755,844,314658
24.565,208746,837,314693
24.570,208776,835,314667
24.575,208780,832,314687
24.580,208774,843,314695
24.585,208798,840,314705
24.590,208787,839,314706
24.595,208804,837,314719
24.599,208820,836,314731
24.604,208835,832,314731
24.609,208815,830,314720
24.614,208841,832,314739
24.619,208844,830,314754
24.624,208848,829,314751
24.629,208859,839,314744
24.634,208857,839,314762
24.639,208834,837,314770
24.644,208857,835,314733
24.649,208863,834,314758
24.654,208829,832,314750
24.659,208817,830,314712
24.664,208800,833,314706
24.669,208794,831,314659
24.674,208760,832,314662
24.679,208769,830,314639
24.684,208747,827,314589
24.689,208709,826,314573
24.694,208695,840,314562
24.699,208694,838,314523
24.704,208674,836,314513
24.709,208665,829,314496
24.714,208639,839,314519
24.719,208612,839,314496
24.724,208621,838,314480
24.729,208600,835,314454
24.734,208598,834,314441
24.739,208591,833,314446
24.744,208583,832,314465
24.748,208552,829,314445
24.753,208582,829,314460
24.758,208570,829,314447
24.763,208567,833,314466
24.768,208545,832,314445
24.773,208544,832,314440
24.778,208537,831,314451
24.783,208534,830,314419
24.788,208537,828,314416
24.793,208538,828,314449
24.798,208535,825,314412
24.803,208521,838,314444
24.808,208520,886,314425
24.813,208479,827,314387
24.818,208495,825,314413
24.823,208513,837,314398
24.828,208485,835,314394
24.833,208485,834,314371
24.838,208466,832,314374
24.843,208454,829,314359
24.848,208452,828,314380
24.853,208453,829,314357
24.858,208444,809,314356
24.863,208447,823,314386
24.868,208445,835,314366
24.873,208431,835,314407
24.878,208442,834,314385
24.883,208423,834,314409
24.888,208442,833,314394
24.893,208434,831,314405
24.897,208449,830,314428
24.902,208449,828,314402
24.907,208465,852,314412
24.912,208458,822,314444
24.917,208461,835,314451
24.922,208481,834,314478
24.927,208462,831,314466
24.932,208459,831,314452
24.937,208470,828,314467
24.942,208457,827,314448
24.947,208465,824,314449
24.952,208446,824,314438
24.957,208440,826,314456
24.962,208445,825,314436
24.967,208451,835,314456
24.972,208456,834,314435
24.977,208453,832,314438
24.982,208466,830,314453
24.987,208460,828,314474
24.992,208457,826,314476
24.997,208464,824,314458
25.002,208451,823,314454
25.007,208458,825,314455
25.012,208467,826,314481
25.017,208444,825,314456
25.022,208467,826,314446
25.027,208447,825,314472
25.032,208440,824,314483
25.037,208457,822,314493
25.042,208465,823,314491
25.046,208471,834,314492
25.051,208461,836,314489
25.056,208471,824,314508
25.061,208472,825,314496
25.066,208473,820,314517
25.071,208485,835,314523
25.076,208476,832,314534
25.081,208489,831,314522
25.086,208494,828,314529
25.091,208495,830,314529
25.096,208490,827,314556
25.101,208580,830,314551
25.106,208492,829,314554
25.111,208498,831,314563
25.116,208513,828,314571
25.121,208510,826,314141
25.126,208490,499,314580
25.131,208500,551,314559
25.136,208523,578,314584
25.141,208526,613,314578
25.146,208521,625,314601
25.151,208527,631,314600
25.156,208526,651,314612
25.161,208525,659,314620
25.166,208526,663,314598
25.171,208559,670,314607
25.176,208551,672,314653
25.181,208544,676,314656
25.186,208564,678,314659
25.191,208557,682,314643
25.195,208569,683,314661
25.200,208563,691,314652
25.205,208584,693,314650
25.210,208583,697,314668
25.215,208581,697,314659
25.220,208584,700,314688
25.225,208593,702,314682
25.230,208598,1081,314708
25.235,208614,1003,314679
25.240,208616,965,314695
25.245,208626,933,314697
25.250,208607,929,314692
25.255,208609,915,314695
25.260,208620,907,314726
25.265,208619,898,314730
25.270,208619,892,314730
25.275,208636,885,314706
25.280,208633,881,314721
25.285,208632,875,314711
25.290,208648,873,314720
25.295,208631,869,314723
25.300,208643,872,314705
25.305,208660,868,314749
25.310,208663,865,314761
25.315,208671,864,314730
25.320,208665,864,314737
25.325,208657,861,314757
25.330,208682,861,314756
25.335,208690,859,314731
25.340,208697,858,314765
25.344,208698,925,314776
25.349,208697,850,314765
25.354,208692,847,314767
25.359,208693,847,314768
25.364,208713,843,314798
25.369,208691,843,314774
25.374,208704,841,314770
25.379,208717,841,314783
25.384,208715,851,314777
25.389,208723,850,314772
25.394,208725,839,314804
25.399,208729,837,314790
25.404,208734,848,314795
25.409,208759,847,314832
25.414,208740,846,314803
25.419,208768,844,314820
25.424,208758,841,314816
25.429,208776,841,314838
25.434,208757,840,314832
25.439,208783,839,314861
25.444,208800,841,314831
25.449,208776,840,314856
25.454,208805,840,314867
25.459,208793,838,314848
25.464,208801,836,314865
25.469,208797,835,314856
25.474,208803,834,314848
25.479,208799,833,314847
25.484,208795,829,314824
25.489,208786,842,314791
25.493,208812,828,314800
25.498,208758,837,314798
25.503,208736,835,314748
25.508,208711,834,314720
25.513,208692,833,314706
25.518,208660,832,314664
25.523,208665,830,314631
25.528,208625,830,314632
25.533,208604,828,314602
25.538,208614,839,314588
25.543,208572,828,314579
25.548,208566,827,314587
25.553,208551,838,314567
25.558,208536,837,314557
25.563,208539,832,314547
25.568,208524,831,314551
25.573,208512,829,314536
25.578,208511,827,314550
25.583,208500,825,314570
25.588,208520,828,314647
25.593,208494,829,314531
25.598,208492,827,314549
25.603,208490,824,314518
25.608,208477,836,314528
25.613,208475,836,314507
25.618,208489,834,314519
25.623,208447,834,314502
25.628,208450,831,314513
25.633,208451,830,314515
25.638,208467,856,314524
25.642,208442,824,314529
25.647,208450,823,314506
25.652,208434,836,314492
25.657,208418,835,314514
25.662,208408,833,314512
25.667,208403,831,314495
25.672,208395,831,314500
25.677,208404,830,314476
25.682,208391,828,314470
25.687,208373,832,314467
25.692,208377,833,314495
25.697,208369,832,314467
25.702,208367,831,314474
25.707,208373,829,314467
25.712,208378,829,314452
25.717,208352,828,314479
25.722,208367,826,314481
25.727,208374,822,314512
25.732,208373,825,314532
25.737,208373,828,314541
25.742,208380,828,314529
25.747,208412,827,314544
25.752,208410,825,314551
25.757,208394,825,314533
25.762,208397,822,314562
25.767,208406,820,314554
25.772,208392,833,314589
25.777,208398,830,314580
25.782,208395,825,314579
25.787,208398,819,314562
25.791,208388,834,314554
25.796,208392,833,314581
25.801,208395,831,314564
25.806,208399,828,314562
25.811,208406,827,314574
25.816,208402,825,314568
25.821,208394,822,314587
25.826,208391,820,314587
25.831,208385,832,314571
25.836,208408,822,314562
25.841,208375,820,314554
25.846,208376,832,314566
25.851,208377,832,314568
25.856,208406,831,314576
25.861,208393,829,314565
25.866,208397,827,314579
25.871,208387,827,314586
25.876,208377,826,314582
25.881,208398,889,314584
25.886,208392,829,314591
25.891,208373,828,314577
25.896,208392,827,314601
25.901,208389,825,314611
25.906,208394,822,314632
25.911,208421,820,314618
25.916,208400,832,314620
25.921,208430,829,314638
25.926,208434,826,314647
25.931,208441,830,314667
25.936,208432,829,314679
25.940,208448,828,314660
25.945,208448,827,314668
25.950,208438,826,314683
25.955,208461,826,314707
25.960,208462,823,314723
25.965,208452,822,314698
25.970,208464,821,314717
25.975,208462,821,314715
25.980,208484,825,314723
25.985,208460,825,314730
25.990,208466,825,314718
25.995,208480,825,314742
26.000,208488,824,314757
26.005,208487,825,314732
26.010,208494,823,314736
26.015,208492,822,314744
26.020,208495,823,314755
26.025,208506,821,314735
26.030,208527,810,314785
26.035,208498,820,314778
26.040,208527,819,314778
26.045,208551,819,314795
26.050,208538,817,314808
26.055,208519,830,314796
26.060,208527,828,314782
26.065,208559,826,314808
26.070,208549,823,314810
26.075,208566,823,314833
26.080,208548,818,314844
26.085,208567,818,314816
26.089,208577,817,314871
26.094,208560,830,314828
26.099,208575,828,314859
26.104,208588,826,314868
26.109,208582,825,314871
26.114,208606,825,314860
26.119,208588,822,314897
26.124,208589,469,315005
26.129,208587,541,314889
26.134,208595,576,314912
26.139,208624,598,314912
26.144,208624,613,314964
26.149,208629,627,314895
26.154,208644,635,314921
26.159,208640,641,314940
26.164,208636,648,314943
26.169,208671,653,314957
26.174,208577,663,314954
26.179,208658,668,314972
26.184,208660,671,314969
26.189,208665,673,314980
26.194,208666,678,314960
26.199,208691,692,315006
26.204,208680,693,314982
26.209,208699,695,315004
26.214,208701,696,315000
26.219,208715,696,314995
26.224,208695,704,315016
26.229,208727,1137,315010
26.234,208730,1024,315017
26.238,208727,977,315027
26.243,208735,948,315027
26.248,208756,926,315036
26.253,208755,911,315044
26.258,208759,899,315066
26.263,208775,890,315080
26.268,208768,892,315076
26.273,208782,879,315084
26.278,208779,873,315077
26.283,208805,879,315095
26.288,208790,872,315089
26.293,208796,870,315121
26.298,208807,863,315121
26.303,208825,861,315148
26.308,208825,856,315146
26.313,208833,855,315152
26.318,208833,848,315115
26.323,208814,853,315119
26.328,208814,850,315128
26.333,208839,852,315136
26.338,208845,848,315117
26.343,208846,847,315097
26.348,208790,841,315070
26.353,208786,842,315042
26.358,208753,851,315019
26.363,208721,849,314984
26.368,208707,847,314977
26.373,208707,842,314945
26.378,208652,843,314923
26.383,208651,843,314892
26.387,208634,840,314905
26.392,208628,841,314883
26.397,208594,838,314862
26.402,208593,838,314854
26.407,208568,835,314836
26.412,208572,836,314841
26.417,208573,849,314846
26.422,208549,836,314840
26.427,208535,834,314818
26.432,208529,834,314801
26.437,208516,833,314817
26.442,208520,831,314798
26.447,208504,829,314791
26.452,208500,830,314790
26.457,208510,828,314812
26.462,208507,840,314799
26.467,208510,848,314795
26.472,208510,832,314809
26.477,208480,833,314792
26.482,208466,832,314781
26.487,208477,829,314813
26.492,208462,830,314795
26.497,208453,827,314798
26.502,208453,827,314776
26.507,208443,836,314771
26.512,208441,835,314749
26.517,208420,825,314787
26.522,208420,826,314774
26.527,208411,823,314759
26.532,208404,837,314767
26.536,208395,834,314763
26.541,208398,833,314752
26.546,208387,830,314767
26.551,208389,829,314756
26.556,208386,826,314759
26.561,208363,823,314758
26.566,208376,828,314744
26.571,208366,828,314736
26.576,208366,828,314753
26.581,208377,826,314782
26.586,208379,823,314761
26.591,208378,825,314768
26.596,208358,823,314778
26.601,208389,822,314795
26.606,208370,820,314812
26.611,208394,834,314831
26.616,208402,824,314854
26.621,208392,825,314820
26.626,208396,824,314849
26.631,208397,824,314846
26.636,208388,821,314853
26.641,208415,832,314848
26.646,208395,830,314845
26.651,208413,829,314844
26.656,208397,829,314861
26.661,208417,837,314953
26.666,208402,821,314870
26.671,208410,822,314865
26.676,208393,821,314859
26.681,208415,822,314874
26.685,208394,818,314880
26.690,208399,832,314881
26.695,208414,829,314861
26.700,208405,826,314882
26.705,208413,825,314904
26.710,208394,849,314900
26.715,208428,822,314893
26.720,208423,820,314935
26.725,208414,818,314905
26.730,208427,818,314920
26.735,208394,831,314927
26.740,208417,829,314920
26.745,208424,826,314929
26.750,208420,824,314943
26.755,208428,822,314961
26.760,208417,827,314944
26.765,208448,825,314956
26.770,208444,826,314970
26.775,208444,821,314990
26.780,208441,821,314973
26.785,208440,817,314976
26.790,208465,828,314992
26.795,208458,826,315003
26.800,208453,826,315023
26.805,208472,824,315020
26.810,208472,829,314995
26.815,208464,828,315029
26.820,208477,827,315039
26.825,208485,823,315054
26.830,208482,820,315068
26.834,208488,821,315054
26.839,208502,819,315054
26.844,208516,817,315092
26.849,208510,829,315075
26.854,208529,824,315116
26.859,208512,820,315084
26.864,208527,817,315127
26.869,208548,816,315097
26.874,208543,829,315133
26.879,208544,827,315128
26.884,208547,825,315134
26.889,208556,824,315143
26.894,208563,823,315130
26.899,208583,821,315161
26.904,208585,819,315183
26.909,208599,823,315167
26.914,208608,823,315177
26.919,208595,820,315193
26.924,208603,820,315200
26.929,208608,817,315203
26.934,208614,829,315208
26.939,208609,828,315220
26.944,208592,823,315227
26.949,208614,821,315213
26.954,208634,891,315254
26.959,208627,814,315253
26.964,208634,828,315241
26.969,208636,823,315241
26.974,208632,822,315234
26.979,208653,816,315255
26.983,208649,817,315250
26.988,208656,827,315241
26.993,208664,826,315269
26.998,208666,824,315274
27.003,208675,826,315267
27.008,208698,824,315292
27.013,208683,824,315305
27.018,208692,822,315291
27.023,208707,821,315334
27.028,208706,818,315323
27.033,208710,818,315336
27.038,208723,815,315334
27.043,208705,827,315338
27.048,208737,825,315369
27.053,208735,816,315358
27.058,208741,828,315351
27.063,208752,825,315376
27.068,208760,822,315386
27.073,208766,821,315376
27.078,208768,817,315400
27.083,208767,816,315434
27.088,208775,825,315411
27.093,208780,825,315437
27.098,208804,823,315454
27.103,208797,826,315423
27.108,208819,823,315433
27.113,208818,823,315478
27.118,208831,820,315487
27.123,208814,820,315794
27.128,208822,493,315499
27.132,208838,547,315487
27.137,208843,574,315493
27.142,208850,608,315488
27.147,208832,618,315501
27.152,208852,624,315493
27.157,208855,633,315522
27.162,208872,641,315524
27.167,208868,659,315515
27.172,208896,663,315567
27.177,208904,665,315565
27.182,208905,669,315553
27.187,208913,671,315557
27.192,208933,674,315611
27.197,208933,677,315496
27.202,208948,684,315584
27.207,208949,684,315632
27.212,208975,688,315619
27.217,208974,690,315648
27.222,208977,692,315630
27.227,208960,693,315626
27.232,208973,1072,315649
27.237,208987,994,315614
27.242,208955,955,315599
27.247,208952,922,315571
27.252,208920,917,315540
27.257,208903,902,315525
27.262,208871,892,315481
27.267,208860,883,315449
27.272,208825,888,315451
27.277,208815,881,315429
27.281,208787,877,315402
27.286,208782,871,315381
27.291,208753,866,315384
27.296,208737,868,315358
27.301,208745,865,315341
27.306,208711,861,315351
27.311,208701,858,315307
27.316,208680,857,315340
27.321,208663,854,315305
27.326,208668,850,315312
27.331,208678,848,315283
27.336,208661,845,315286
27.341,208664,844,315299
27.346,208656,846,315300
27.351,208662,846,315300
27.356,208658,843,315303
27.361,208635,843,315293
27.366,208609,838,315275
27.371,208612,838,315299
27.376,208599,837,315289
27.381,208611,834,315296
27.386,208595,832,315272
27.391,208618,851,315266
27.396,208590,836,315269
27.401,208591,832,315275
27.406,208586,827,315302
27.411,208587,828,315274
27.416,208565,839,315253
27.421,208574,838,315265
27.426,208562,834,315266
27.430,208576,833,315267
27.435,208571,831,315277
27.440,208547,828,315257
27.445,208554,822,315265
27.450,208526,823,315266
27.455,208541,834,315263
27.460,208535,832,315264
27.465,208556,830,315285
27.470,208544,828,315292
27.475,208542,826,315288
27.480,208532,825,315322
27.485,208549,833,315289
27.490,208547,832,315304
27.495,208545,822,315305
27.500,208545,833,315346
27.505,208560,830,315339
27.510,208556,829,315345
27.515,208570,829,315349
27.520,208578,826,315379
27.525,208583,826,315353
27.530,208582,823,315366
27.535,208586,821,315367
27.540,208572,827,315387
27.545,208573,825,315367
27.550,208551,823,315372
27.555,208577,823,315360
27.560,208562,822,315385
27.565,208550,821,315375
27.570,208556,820,315376
27.575,208566,821,315373
27.579,208554,821,315375
27.584,208548,820,315363
27.589,208551,825,315391
27.594,208542,827,315380
27.599,208558,826,315411
27.604,208578,823,315425
27.609,208570,822,315384
27.614,208579,822,315389
27.619,208560,820,315393
27.624,208561,819,315415
27.629,208581,818,315404
27.634,208590,819,315449
27.639,208594,820,315396
27.644,208574,820,315454
27.649,208581,818,315443
27.654,208592,818,315459
27.659,208571,817,315444
27.664,208579,816,315466
27.669,208617,815,315476
27.674,208609,829,315489
27.679,208618,828,315492
27.684,208595,827,315501
27.689,208621,817,315492
27.694,208620,817,315515
27.699,208621,816,315505
27.704,208627,828,315494
27.709,208631,825,315510
27.714,208632,826,315500
27.719,208623,823,315528
27.724,208642,822,315542
27.728,208642,821,315556
27.733,208652,821,315475
27.738,208648,825,315557
27.743,208658,824,315552
27.748,208665,823,315561
27.753,208679,822,315564
27.758,208670,821,315561
27.763,208686,821,315580
27.768,208675,819,315585
27.773,208678,820,315601
27.778,208705,818,315595
27.783,208802,820,315619
27.788,208699,822,315621
27.793,208731,822,315606
27.798,208730,818,315629
27.803,208732,818,315632
27.808,208743,814,315623
27.813,208747,812,315659
27.818,208729,814,315678
27.823,208754,827,315657
27.828,208734,825,315649
27.833,208750,838,315690
27.838,208757,822,315673
27.843,208771,821,315679
27.848,208779,817,315672
27.853,208784,819,315694
27.858,208787,818,315711
27.863,208786,817,315702
27.868,208784,815,315713
27.873,208790,814,315727
27.877,208786,812,315732
27.882,208808,810,315743
27.887,208810,820,315726
27.892,208827,825,315750
27.897,208817,821,315749
27.902,208845,822,315778
27.907,208842,820,315769
27.912,208851,820,315781
27.917,208862,819,315787
27.922,208849,818,315768
27.927,208844,810,315788
27.932,208867,821,315792
27.937,208883,820,315795
27.942,208877,818,315828
27.947,208880,814,315818
27.952,208911,813,315827
27.957,208917,814,315812
27.962,208889,815,315827
27.967,208912,812,315851
27.972,208932,826,315854
27.977,208933,823,315844
27.982,208929,815,315866
27.987,208913,813,315855
27.992,208946,812,315872
27.997,208948,811,315910
28.002,208955,824,315907
28.007,208943,823,315878
28.012,208975,823,315890
28.017,208969,819,315932
28.022,208968,819,315909
28.026,208965,870,315901
28.031,208982,822,315916
28.036,208991,821,315942
28.041,209008,819,315913
28.046,208987,819,315913
28.051,209015,815,315943
28.056,208993,813,315927
28.061,209012,811,315915
28.066,208996,823,315924
28.071,209012,822,315954
28.076,209021,812,315936
28.081,209012,812,315947
28.086,209024,822,315937
28.091,209050,819,315941
28.096,209044,819,315950
28.101,209052,818,315949
28.106,209052,815,315945
28.111,209059,813,315981
28.116,209065,812,315982
28.121,209078,822,315975
28.126,209062,483,315968
28.131,209069,555,316003
28.136,209080,581,315994
28.141,209078,599,315992
28.146,209087,611,316003
28.151,209099,623,315996
28.156,209118,632,316020
28.161,209106,637,316026
28.166,209133,656,316012
28.171,209131,660,316062
28.175,209117,654,316029
28.180,209138,673,316017
28.185,209128,675,316004
28.190,209127,677,315983
28.195,209108,679,315979
28.200,209088,679,315950
28.205,209073,680,315922
28.210,209037,681,315889
28.215,209026,696,315860
28.220,208993,696,315832
28.225,208975,689,315800
28.230,208972,1078,315791
28.235,208932,990,315795
28.240,208926,962,315793
28.245,208908,938,315752
28.250,208910,920,315737
28.255,208874,905,315732
28.260,208875,895,315697
28.265,208863,886,315713
28.270,208846,879,315637
28.275,208822,869,315695
28.280,208839,866,315711
28.285,208821,861,315700
28.290,208819,855,315681
28.295,208814,852,315681
28.300,208818,861,315663
28.305,208805,857,315682
28.310,208794,854,315673
28.315,208806,853,315677
28.320,208906,839,315705
28.324,208791,840,315673
28.329,208788,848,315671
28.334,208797,847,315666
28.339,208789,843,315662
28.344,208757,840,315691
28.349,208768,835,315660
28.354,208785,834,315639
28.359,208754,832,315641
28.364,208746,830,315631
28.369,208734,833,315662
28.374,208731,832,315649
28.379,208734,829,315643
28.384,208739,828,315639
28.389,208736,827,315638
28.394,208726,827,315628
28.399,208703,836,315617
28.404,208725,833,315625
28.409,208706,830,315643
28.414,208698,828,315619
28.419,208689,832,315635
28.424,208697,829,315619
28.429,208704,829,315658
28.434,208690,827,315646
28.439,208694,826,315652
28.444,208703,824,315663
28.449,208708,821,315646
28.454,208725,820,315700
28.459,208727,819,315695
28.464,208735,838,315694
28.469,208724,823,315706
28.473,208745,827,315703
28.478,208736,824,315733
28.483,208754,822,315743
28.488,208755,820,315737
28.493,208742,820,315750
28.498,208754,817,315750
28.503,208759,829,315772
28.508,208741,826,315749
28.513,208755,826,315761
28.518,208757,821,315752
28.523,208756,822,315757
28.528,208765,817,315749
28.533,208758,816,315749
28.538,208746,815,315769
28.543,208744,827,315748
28.548,208758,826,315746
28.553,208772,825,315774
28.558,208778,822,315775
28.563,208762,844,315768
28.568,208773,824,315783
28.573,208777,824,315775
28.578,208779,824,315799
28.583,208777,821,315815
28.588,208767,818,315777
28.593,208774,818,315817
28.598,208770,816,315817
28.603,208782,816,315833
28.608,208780,813,315815
28.613,208782,818,315813
28.618,208779,816,315846
28.622,208770,814,315851
28.627,208817,811,315860
28.632,208822,812,315881
28.637,208818,823,315871
28.642,208822,824,315868
28.647,208831,817,315879
28.652,208829,820,315908
28.657,208819,818,315901
28.662,208853,812,315919
28.667,208847,822,315901
28.672,208844,823,315897
28.677,208845,822,315948
28.682,208860,822,315936
28.687,208854,820,315922
28.692,208879,820,315966
28.697,208872,818,315953
28.702,208890,817,315949
28.707,208887,815,315951
28.712,208887,820,315960
28.717,208882,817,315983
28.722,208903,816,315960
28.727,208916,814,315999
28.732,208901,811,315992
28.737,208898,810,315976
28.742,208923,810,316013
28.747,208942,820,316023
28.752,208934,819,316006
28.757,208928,817,316026
28.762,208951,810,316018
28.767,208923,811,316024
28.771,208956,822,316019
28.776,208955,818,316050
28.781,208952,818,316041
28.786,208958,816,316082
28.791,208964,818,316057
28.796,208981,817,316074
28.801,208981,815,316081
28.806,208996,814,316050
28.811,208999,818,316077
28.816,209010,816,316099
28.821,209022,814,316102
28.826,209009,811,316114
28.831,209017,810,316126
28.836,209001,809,316120
28.841,209015,809,316127
28.846,209024,820,316142
28.851,209066,819,316162
28.856,209160,808,316146
28.861,209051,811,316166
28.866,209046,809,316150
28.871,209052,809,316166
28.876,209070,820,316175
28.881,209067,819,316158
28.886,209071,818,316156
28.891,209077,819,316176
28.896,209071,816,316195
28.901,209090,815,316186
28.906,209086,818,316195
28.911,209090,817,316197
28.916,209093,817,316178
28.920,209099,815,316186
28.925,209116,812,316219
28.930,209111,813,316197
28.935,209104,812,316200
28.940,209124,810,316238
28.945,209132,810,316208
28.950,209126,808,316210
28.955,209136,804,316196
28.960,209145,819,316235
28.965,209133,817,316227
28.970,209149,816,316207
28.975,209152,815,316202
28.980,209162,814,316205
28.985,209169,812,316236
28.990,209157,810,316206
28.995,209161,810,316198
29.000,209176,801,316222
29.005,209163,811,316208
29.010,209164,810,316192
29.015,209166,809,316183
29.020,209177,809,316176
29.025,209176,809,316150
29.030,209154,807,316142
29.035,209162,807,316125
29.040,209160,805,316109
29.045,209147,818,316106
29.050,209159,815,316115
29.055,209143,808,316099
29.060,209156,816,316103
29.065,209157,815,316086
29.069,209147,813,316069
29.074,209160,812,316064
29.079,209167,809,316067
29.084,209162,808,316068
29.089,209158,804,316098
29.094,209165,817,316065
29.099,209165,814,316085
29.104,209174,807,316087
29.109,209180,805,316084
29.114,209182,806,316067
29.119,209191,816,316068
