df_hash,22ZHK4.DV5PWR
device,HZ2X61
project_hash,29R7
project_name,istanbul_aydin_university
person_hash,29R7.EPNQ
person_label,V74 (2)
date_time_start,2025-11-03_13-31-17.499000_+03
date_time_start_unix,1762162277.499
date_time_end,2025-11-03_13-39-35.191000_+03
length_difference_noticed,no

time,ppg_med
5.529,582
5.554,669
5.579,807
5.604,882
5.629,853
5.654,822
5.679,902
5.704,1048
5.729,1104
5.754,1015
5.779,919
5.804,969
5.829,1104
5.854,1113
5.879,920
5.904,715
5.929,704
5.954,805
5.979,732
6.004,388
6.029,29
6.054,-73
6.079,-27
6.104,-208
6.129,-743
6.154,-1294
6.179,-1503
6.204,-1512
6.229,-1809
6.254,-2554
6.279,-3308
6.304,-3608
6.329,-3637
6.354,-4021
6.379,-4959
6.404,-5889
6.429,-6220
6.454,-6186
6.479,-6580
6.504,-7650
6.529,-8683
6.554,-8934
6.579,-8700
6.604,-8974
6.629,-10068
6.654,-11086
6.679,-11097
6.704,-10470
6.729,-10452
6.754,-11428
6.779,-12281
6.804,-11852
6.829,-10604
6.854,-10090
6.879,-10796
6.904,-11330
6.929,-10246
6.954,-8124
6.979,-6909
7.004,-7217
7.029,-7307
7.054,-5365
7.079,-2116
7.104,-21
7.129,126
7.154,527
7.179,3497
7.204,8116
7.229,11219
7.254,11754
7.279,12559
7.304,16679
7.329,22936
7.354,27117
7.379,27749
7.404,28640
7.429,32767
7.454,32767
7.479,32767
7.504,32767
7.529,32767
7.554,32767
7.579,32767
7.604,32767
7.629,32767
7.654,32767
7.679,32767
7.704,32767
7.729,32767
7.754,32767
7.779,15543
7.804,-32768
7.829,-32768
7.854,-32768
7.879,-32768
7.904,-32768
7.929,-32768
7.954,-32768
7.979,-32768
8.004,-32768
8.029,-32768
8.054,-32768
8.079,-32768
8.104,-32768
8.129,-32768
8.154,-30073
8.179,-27583
8.204,-27443
8.229,-24799
8.254,-18868
8.279,-13453
8.304,-11477
8.329,-11287
8.354,-9320
8.379,-4958
8.404,-1029
8.429,252
8.454,134
8.479,1362
8.504,4425
8.529,7129
8.554,7731
8.579,7205
8.604,7721
8.629,9683
8.654,11363
8.679,11376
8.704,10492
8.729,10439
8.754,11541
8.779,12423
8.804,11987
8.829,10857
8.854,10419
8.879,10926
8.904,11264
8.929,10554
8.954,9317
8.979,8693
9.004,8897
9.029,9023
9.054,8329
9.079,7196
9.104,6520
9.129,6490
9.154,6411
9.179,5713
9.204,4700
9.229,4069
9.254,3959
9.279,3824
9.304,3228
9.329,2412
9.354,1917
9.379,1840
9.404,1747
9.429,1298
9.454,685
9.479,328
9.504,301
9.529,272
9.554,-17
9.579,-420
9.604,-624
9.629,-584
9.654,-552
9.679,-718
9.704,-963
9.729,-1052
9.754,-959
9.779,-881
9.804,-950
9.829,-1060
9.854,-1024
9.879,-826
9.904,-639
9.929,-590
9.954,-615
9.979,-567
10.004,-409
10.029,-253
10.054,-194
10.079,-200
10.104,-169
10.129,-68
10.154,33
10.179,74
10.204,77
10.229,112
10.254,196
10.279,273
10.304,297
10.329,291
10.354,292
10.379,268
10.404,238
10.429,209
10.454,188
10.479,171
10.504,149
10.529,120
10.554,91
10.579,68
10.604,51
10.629,27
10.654,-7
10.679,-36
10.704,-32
10.729,18
10.754,102
10.779,180
10.804,226
10.829,244
10.854,260
10.879,296
10.904,344
10.929,383
10.954,396
10.979,389
11.004,381
11.029,380
11.054,384
11.079,383
11.104,373
11.129,358
11.154,344
11.179,332
11.204,318
11.229,300
11.254,280
11.279,257
11.304,236
11.329,218
11.354,202
11.379,182
11.404,153
11.429,118
11.454,86
11.479,66
11.504,53
11.529,34
11.554,-2
11.579,-44
11.604,-61
11.629,-27
11.654,52
11.679,145
11.704,219
11.729,260
11.754,284
11.779,309
11.804,340
11.829,367
11.854,382
11.879,381
11.904,375
11.929,372
11.954,372
11.979,375
12.004,374
12.029,367
12.054,354
12.079,336
12.104,319
12.129,304
12.154,288
12.179,269
12.204,246
12.229,222
12.254,202
12.279,184
12.304,163
12.329,135
12.354,104
12.379,76
12.404,50
12.429,20
12.454,-12
12.479,-36
12.504,-27
12.529,26
12.554,109
12.579,191
12.604,245
12.629,271
12.654,286
12.679,310
12.704,340
12.729,365
12.754,372
12.779,365
12.804,354
12.829,350
12.854,352
12.879,353
12.904,347
12.929,336
12.954,323
12.979,309
13.004,291
13.029,270
13.054,246
13.079,225
13.104,205
13.129,184
13.154,161
13.179,138
13.204,118
13.229,100
13.254,73
13.279,34
13.304,-6
13.329,-22
13.354,8
13.379,83
13.404,171
13.429,237
13.454,269
13.479,280
13.504,297
13.529,329
13.554,360
13.579,372
13.604,359
13.629,338
13.654,330
13.679,339
13.704,351
13.729,353
13.754,339
13.779,319
13.804,299
13.829,280
13.854,255
13.879,228
13.904,205
13.929,188
13.954,173
13.979,150
14.004,117
14.029,87
14.054,72
14.079,67
14.104,54
14.129,22
14.154,-14
14.179,-23
14.204,17
14.229,99
14.254,188
14.279,249
14.304,277
14.329,293
14.354,318
14.379,354
14.404,386
14.429,401
14.454,400
14.479,394
14.504,391
14.529,392
14.554,392
14.579,387
14.604,375
14.629,357
14.654,336
14.679,316
14.704,299
14.729,284
14.754,265
14.779,239
14.804,207
14.829,176
14.854,148
14.879,122
14.904,96
14.929,72
14.954,53
14.979,34
15.004,6
15.029,-30
15.054,-59
15.079,-52
15.104,6
15.129,98
15.154,183
15.179,233
15.204,253
15.229,273
15.254,311
15.279,360
15.304,391
15.329,392
15.354,376
15.379,367
15.404,373
15.429,384
15.454,386
15.479,374
15.504,360
15.529,352
15.554,348
15.579,339
15.604,321
15.629,298
15.654,276
15.679,256
15.704,238
15.729,222
15.754,206
15.779,186
15.804,155
15.829,113
15.854,73
15.879,48
15.904,37
15.929,20
15.954,-16
15.979,-61
16.004,-79
16.029,-43
16.054,42
16.079,139
16.104,210
16.129,248
16.154,272
16.179,305
16.204,347
16.229,380
16.254,392
16.279,387
16.304,379
16.329,378
16.354,383
16.379,389
16.404,391
16.429,388
16.454,377
16.479,356
16.504,329
16.529,304
16.554,287
16.579,274
16.604,258
16.629,235
16.654,212
16.679,194
16.704,177
16.729,157
16.754,130
16.779,102
16.804,78
16.829,51
16.854,14
16.879,-28
16.904,-54
16.929,-33
16.954,38
16.979,136
17.004,218
17.029,264
17.054,281
17.079,295
17.104,322
17.129,352
17.154,369
17.179,364
17.204,349
17.229,340
17.254,344
17.279,352
17.304,352
17.329,340
17.354,320
17.379,300
17.404,284
17.429,267
17.454,246
17.479,224
17.504,203
17.529,187
17.554,170
17.579,149
17.604,126
17.629,105
17.654,87
17.679,67
17.704,37
17.729,2
17.754,-15
17.779,5
17.804,69
17.829,155
17.854,229
17.879,271
17.904,289
17.929,305
17.954,333
17.979,369
18.004,394
18.029,398
18.054,386
18.079,373
18.104,369
18.129,375
18.154,378
18.179,370
18.204,352
18.229,332
18.254,316
18.279,300
18.304,281
18.329,254
18.354,226
18.379,204
18.404,188
18.429,170
18.454,144
18.479,112
18.504,85
18.529,67
18.554,46
18.579,10
18.604,-34
18.629,-62
18.654,-41
18.679,33
18.704,133
18.729,218
18.754,267
18.779,292
18.804,315
18.829,348
18.854,382
18.879,403
18.904,407
18.929,402
18.954,399
18.979,399
19.004,399
19.029,395
19.054,384
19.079,368
19.104,347
19.129,325
19.154,304
19.179,285
19.204,264
19.229,238
19.254,209
19.279,183
19.304,162
19.329,140
19.354,112
19.379,80
19.404,50
19.429,21
19.454,-13
19.479,-57
19.504,-92
19.529,-88
19.554,-27
19.579,73
19.604,172
19.629,234
19.654,259
19.679,276
19.704,308
19.729,356
19.754,398
19.779,416
19.804,410
19.829,396
19.854,385
19.879,380
19.904,378
19.929,376
19.954,372
19.979,363
20.004,347
20.029,323
20.054,297
20.079,271
20.104,247
20.129,226
20.154,207
20.179,191
20.204,172
20.229,145
20.254,110
20.279,76
20.304,53
20.329,37
20.354,14
20.379,-23
20.404,-61
20.429,-65
20.454,-15
20.479,76
20.504,172
20.529,238
20.554,269
20.579,290
20.604,320
20.629,361
20.654,395
20.679,408
20.704,402
20.729,389
20.754,381
20.779,380
20.804,382
20.829,380
20.854,371
20.879,356
20.904,339
20.929,323
20.954,307
20.979,289
21.004,267
21.029,244
21.054,226
21.079,211
21.104,193
21.129,165
21.154,130
21.179,100
21.204,80
21.229,60
21.254,28
21.279,-14
21.304,-42
21.329,-23
21.354,47
21.379,141
21.404,217
21.429,257
21.454,275
21.479,296
21.504,331
21.529,364
21.554,377
21.579,367
21.604,352
21.629,348
21.654,355
21.679,361
21.704,356
21.729,344
21.754,333
21.779,322
21.804,307
21.829,282
21.854,251
21.879,224
21.904,205
21.929,189
21.954,168
21.979,143
22.004,122
22.029,109
22.054,94
22.079,64
22.104,20
22.129,-15
22.154,-11
22.179,41
22.204,124
22.229,202
22.254,253
22.279,278
22.304,297
22.329,320
22.354,346
22.379,361
22.404,359
22.429,345
22.454,331
22.479,325
22.504,328
22.529,333
22.554,331
22.579,318
22.604,296
22.629,272
22.654,252
22.679,232
22.704,206
22.729,170
22.754,134
22.779,112
22.804,105
22.829,96
22.854,67
22.879,20
22.904,-13
22.929,0
22.954,65
22.979,155
23.004,229
23.029,271
23.054,294
23.079,321
23.104,357
23.129,387
23.154,395
23.179,381
23.204,359
23.229,346
23.254,346
23.279,348
23.304,343
23.329,327
23.354,302
23.379,276
23.404,251
23.429,229
23.454,206
23.479,179
23.504,149
23.529,123
23.554,102
23.579,81
23.604,52
23.629,15
23.654,-11
23.679,-4
23.704,46
23.729,124
23.754,199
23.779,249
23.804,277
23.829,303
23.854,338
23.879,376
23.904,400
23.929,402
23.954,392
23.979,383
24.004,382
24.029,382
24.054,376
24.079,364
24.104,353
24.129,344
24.154,334
24.179,317
24.204,296
24.229,275
24.254,257
24.279,240
24.304,220
24.329,198
24.354,179
24.379,164
24.404,148
24.429,122
24.454,91
24.479,65
24.504,48
24.529,34
24.554,8
24.579,-32
24.604,-67
24.629,-64
24.654,-9
24.679,79
24.704,168
24.729,231
24.754,271
24.779,304
24.804,340
24.829,372
24.854,389
24.879,386
24.904,374
24.929,365
24.954,363
24.979,365
25.004,366
25.029,367
25.054,367
25.079,362
25.104,345
25.129,320
25.154,294
25.179,274
25.204,260
25.229,243
25.254,222
25.279,200
25.304,181
25.329,163
25.354,143
25.379,117
25.404,92
25.429,72
25.454,50
25.479,17
25.504,-21
25.529,-44
25.554,-24
25.579,43
25.604,132
25.629,204
25.654,241
25.679,259
25.704,285
25.729,327
25.754,370
25.779,394
25.804,393
25.829,381
25.854,377
25.879,382
25.904,388
25.929,389
25.954,383
25.979,374
26.004,364
26.029,348
26.054,327
26.079,304
26.104,283
26.129,263
26.154,243
26.179,221
26.204,200
26.229,180
26.254,156
26.279,128
26.304,98
26.329,74
26.354,53
26.379,29
26.404,-4
26.429,-36
26.454,-39
26.479,3
26.504,82
26.529,164
26.554,219
26.579,244
26.604,263
26.629,295
26.654,340
26.679,375
26.704,383
26.729,370
26.754,356
26.779,358
26.804,372
26.829,384
26.854,380
26.879,360
26.904,337
26.929,319
26.954,307
26.979,294
27.004,278
27.029,259
27.054,241
27.079,225
27.104,205
27.129,179
27.154,152
27.179,129
27.204,114
27.229,99
27.254,70
27.279,27
27.304,-13
27.329,-24
27.354,12
27.379,88
27.404,171
27.429,230
27.454,261
27.479,280
27.504,306
27.529,341
27.554,369
27.579,375
27.604,361
27.629,346
27.654,345
27.679,354
27.704,359
27.729,347
27.754,326
27.779,307
27.804,296
27.829,286
27.854,267
27.879,239
27.904,212
27.929,192
27.954,176
27.979,155
28.004,128
28.029,103
28.054,87
28.079,72
28.104,43
28.129,3
28.154,-25
28.179,-12
28.204,51
28.229,143
28.254,222
28.279,267
28.304,288
28.329,307
28.354,340
28.379,376
28.404,396
28.429,391
28.454,372
28.479,359
28.504,360
28.529,371
28.554,378
28.579,372
28.604,353
28.629,329
28.654,309
28.679,291
28.704,271
28.729,248
28.754,222
28.779,199
28.804,180
28.829,160
28.854,134
28.879,105
28.904,77
28.929,49
28.954,16
28.979,-24
29.004,-59
29.029,-61
29.054,-12
29.079,76
29.104,169
29.129,233
29.154,264
29.179,285
29.204,318
29.229,363
29.254,400
29.279,414
29.304,406
29.329,393
29.354,388
29.379,390
29.404,392
29.429,387
29.454,379
29.479,368
29.504,354
29.529,333
29.554,308
29.579,280
29.604,254
29.629,231
29.654,212
29.679,195
29.704,177
29.729,152
29.754,120
29.779,89
29.804,65
29.829,48
29.854,24
29.879,-16
29.904,-64
29.929,-86
29.954,-52
29.979,34
30.004,138
30.029,219
30.054,260
30.079,282
30.104,309
30.129,347
30.154,380
30.179,391
30.204,381
30.229,371
30.254,375
30.279,391
30.304,400
30.329,396
30.354,382
30.379,371
30.404,364
30.429,353
30.454,330
30.479,300
30.504,274
30.529,258
30.554,246
30.579,229
30.604,202
30.629,173
30.654,148
30.679,126
30.704,102
30.729,77
30.754,56
30.779,44
30.804,32
30.829,8
30.854,-27
30.879,-50
30.904,-29
30.929,44
30.954,144
30.979,228
31.004,274
31.029,290
31.054,308
31.079,345
31.104,389
31.129,417
31.154,417
31.179,398
31.204,381
31.229,376
31.254,378
31.279,377
31.304,369
31.329,356
31.354,341
31.379,321
31.404,296
31.429,270
31.454,249
31.479,233
31.504,212
31.529,181
31.554,147
31.579,121
31.604,109
31.629,100
31.654,81
31.679,54
31.704,33
31.729,34
31.754,47
31.779,54
31.804,44
31.829,36
31.854,63
31.879,138
31.904,236
31.929,315
31.954,350
31.979,353
32.004,355
32.029,373
32.054,395
32.079,402
32.104,387
32.129,365
32.154,353
32.179,356
32.204,363
32.229,364
32.254,357
32.279,345
32.304,332
32.329,316
32.354,296
32.379,276
32.404,256
32.429,239
32.454,221
32.479,204
32.504,188
32.529,171
32.554,149
32.579,122
32.604,97
32.629,79
32.654,64
32.679,38
32.704,-1
32.729,-37
32.754,-39
32.779,11
32.804,100
32.829,190
32.854,250
32.879,277
32.904,293
32.929,315
32.954,342
32.979,360
33.004,361
33.029,351
33.054,344
33.079,349
33.104,361
33.129,371
33.154,369
33.179,355
33.204,333
33.229,310
33.254,289
33.279,269
33.304,249
33.329,230
33.354,213
33.379,196
33.404,176
33.429,150
33.454,121
33.479,95
33.504,76
33.529,58
33.554,31
33.579,-5
33.604,-31
33.629,-17
33.654,46
33.679,141
33.704,228
33.729,281
33.754,303
33.779,318
33.804,344
33.829,375
33.854,397
33.879,399
33.904,388
33.929,378
33.954,377
33.979,383
34.004,387
34.029,381
34.054,365
34.079,345
34.104,323
34.129,301
34.154,279
34.179,255
34.204,231
34.229,207
34.254,185
34.279,163
34.304,137
34.329,108
34.354,80
34.379,56
34.404,30
34.429,-4
34.454,-48
34.479,-80
34.504,-72
34.529,-9
34.554,90
34.579,187
34.604,250
34.629,281
34.654,303
34.679,337
34.704,380
34.729,412
34.754,421
34.779,413
34.804,403
34.829,401
34.854,405
34.879,406
34.904,403
34.929,395
34.954,382
34.979,362
35.004,336
35.029,308
35.054,281
35.079,259
35.104,237
35.129,214
35.154,189
35.179,162
35.204,133
35.229,101
35.254,71
35.279,44
35.304,20
35.329,-12
35.354,-57
35.379,-100
35.404,-110
35.429,-64
35.454,32
35.479,142
35.504,226
35.529,271
35.554,295
35.579,324
35.604,366
35.629,406
35.654,426
35.679,422
35.704,407
35.729,397
35.754,398
35.779,404
35.804,407
35.829,402
35.854,391
35.879,378
35.904,360
35.929,338
35.954,312
35.979,284
36.004,255
36.029,228
36.054,204
36.079,184
36.104,163
36.129,135
36.154,100
36.179,64
36.204,37
36.229,17
36.254,-9
36.279,-51
36.304,-102
36.329,-129
36.354,-103
36.379,-20
36.404,90
36.429,187
36.454,246
36.479,277
36.504,306
36.529,348
36.554,394
36.579,424
36.604,427
36.629,414
36.654,405
36.679,409
36.704,422
36.729,430
36.754,427
36.779,417
36.804,403
36.829,388
36.854,370
36.879,350
36.904,327
36.929,303
36.954,279
36.979,254
37.004,228
37.029,204
37.054,181
37.079,155
37.104,122
37.129,84
37.154,51
37.179,28
37.204,8
37.229,-20
37.254,-63
37.279,-104
37.304,-111
37.329,-62
37.354,36
37.379,147
37.404,231
37.429,273
37.454,291
37.479,313
37.504,348
37.529,386
37.554,406
37.579,402
37.604,390
37.629,386
37.654,394
37.679,404
37.704,404
37.729,393
37.754,379
37.779,367
37.804,355
37.829,338
37.854,317
37.879,296
37.904,278
37.929,260
37.954,236
37.979,207
38.004,178
38.029,153
38.054,132
38.079,110
38.104,89
38.129,70
38.154,49
38.179,17
38.204,-27
38.229,-65
38.254,-65
38.279,-11
38.304,84
38.329,184
38.354,252
38.379,284
38.404,301
38.429,322
38.454,348
38.479,364
38.504,364
38.529,353
38.554,346
38.579,349
38.604,358
38.629,362
38.654,358
38.679,349
38.704,338
38.729,325
38.754,309
38.779,288
38.804,267
38.829,246
38.854,226
38.879,206
38.904,187
38.929,167
38.954,145
38.979,118
39.004,93
39.029,70
39.054,46
39.079,15
39.104,-23
39.129,-51
39.154,-39
39.179,25
39.204,127
39.229,225
39.254,289
39.279,318
39.304,336
39.329,362
39.354,394
39.379,415
39.404,415
39.429,403
39.454,394
39.479,396
39.504,402
39.529,402
39.554,393
39.579,382
39.604,370
39.629,355
39.654,332
39.679,303
39.704,271
39.729,243
39.754,219
39.779,199
39.804,179
39.829,157
39.854,132
39.879,104
39.904,77
39.929,54
39.954,29
39.979,-6
40.004,-57
40.029,-103
40.054,-112
40.079,-58
40.104,46
40.129,161
40.154,244
40.179,283
40.204,302
40.229,326
40.254,365
40.279,400
40.304,416
40.329,412
40.354,401
40.379,395
40.404,397
40.429,399
40.454,398
40.479,394
40.504,386
40.529,372
40.554,349
40.579,321
40.604,293
40.629,269
40.654,244
40.679,216
40.704,190
40.729,168
40.754,149
40.779,124
40.804,90
40.829,55
40.854,30
40.879,11
40.904,-16
40.929,-58
40.954,-93
40.979,-86
41.004,-17
41.029,93
41.054,199
41.079,264
41.104,291
41.129,311
41.154,344
41.179,384
41.204,411
41.229,412
41.254,399
41.279,392
41.304,396
41.329,404
41.354,406
41.379,400
41.404,389
41.429,375
41.454,355
41.479,331
41.504,305
41.529,281
41.554,256
41.579,229
41.604,199
41.629,175
41.654,156
41.679,136
41.704,108
41.729,74
41.754,44
41.779,23
41.804,-1
41.829,-38
41.854,-77
41.879,-82
41.904,-25
41.929,82
41.954,197
41.979,272
42.004,300
42.029,311
42.054,337
42.079,381
42.104,418
42.129,428
42.154,413
42.179,394
42.204,387
42.229,391
42.254,396
42.279,393
42.304,382
42.329,368
42.354,349
42.379,327
42.404,301
42.429,276
42.454,253
42.479,231
42.504,210
42.529,192
42.554,172
42.579,147
42.604,114
42.629,81
42.654,55
42.679,36
42.704,10
42.729,-29
42.754,-69
42.779,-76
42.804,-28
42.829,67
42.854,172
42.879,250
42.904,291
42.929,313
42.954,336
42.979,365
43.004,386
43.029,390
43.054,382
43.079,374
43.104,374
43.129,380
43.154,385
43.179,383
43.204,373
43.229,358
43.254,340
43.279,320
43.304,299
43.329,276
43.354,251
43.379,227
43.404,207
43.429,190
43.454,172
43.479,149
43.504,124
43.529,99
43.554,75
43.579,44
43.604,3
43.629,-36
43.654,-48
43.679,-7
43.704,80
43.729,180
43.754,255
43.779,291
43.804,304
43.829,319
43.854,347
43.879,372
43.904,378
43.929,366
43.954,350
43.979,344
44.004,348
44.029,352
44.054,348
44.079,337
44.104,325
44.129,311
44.154,291
44.179,264
44.204,235
44.229,214
44.254,199
44.279,181
44.304,151
44.329,115
44.354,88
44.379,74
44.404,60
44.429,28
44.454,-18
44.479,-52
44.504,-36
44.529,36
44.554,140
44.579,231
44.604,285
44.629,308
44.654,327
44.679,358
44.704,393
44.729,415
44.754,415
44.779,401
44.804,387
44.829,384
44.854,389
44.879,391
44.904,385
44.929,370
44.954,352
44.979,335
45.004,317
45.029,292
45.054,259
45.079,223
45.104,193
45.129,171
45.154,152
45.179,127
45.204,97
45.229,70
45.254,47
45.279,20
45.304,-19
45.329,-63
45.354,-83
45.379,-50
45.404,37
45.429,145
45.454,231
45.479,276
45.504,296
45.529,320
45.554,359
45.579,397
45.604,415
45.629,408
45.654,392
45.679,382
45.704,383
45.729,388
45.754,387
45.779,376
45.804,358
45.829,337
45.854,317
45.879,297
45.904,275
45.929,249
45.954,222
45.979,196
46.004,172
46.029,147
46.054,116
46.079,82
46.104,53
46.129,33
46.154,11
46.179,-21
46.204,-66
46.229,-94
46.254,-74
46.279,5
46.304,116
46.329,211
46.354,264
46.379,284
46.404,304
46.429,342
46.454,386
46.479,413
46.504,413
46.529,399
46.554,389
46.579,392
46.604,402
46.629,408
46.654,406
46.679,396
46.704,382
46.729,364
46.754,342
46.779,317
46.804,290
46.829,261
46.854,232
46.879,206
46.904,185
46.929,167
46.954,143
46.979,111
47.004,77
47.029,46
47.054,17
47.079,-17
47.104,-60
47.129,-91
47.154,-81
47.179,-13
47.204,91
47.229,194
47.254,261
47.279,293
47.304,315
47.329,348
47.354,391
47.379,423
47.404,429
47.429,415
47.454,398
47.479,393
47.504,398
47.529,402
47.554,400
47.579,390
47.604,375
47.629,357
47.654,337
47.679,315
47.704,294
47.729,274
47.754,252
47.779,228
47.804,204
47.829,181
47.854,156
47.879,128
47.904,97
47.929,71
47.954,53
47.979,35
48.004,2
48.029,-47
48.054,-91
48.079,-93
48.104,-32
48.129,71
48.154,173
48.179,238
48.204,267
48.229,285
48.254,315
48.279,352
48.304,375
48.329,374
48.354,361
48.379,354
48.404,359
48.429,368
48.454,371
48.479,365
48.504,357
48.529,348
48.554,333
48.579,311
48.604,288
48.629,271
48.654,259
48.679,241
48.704,216
48.729,189
48.754,171
48.779,160
48.804,144
48.829,114
48.854,80
48.879,59
48.904,54
48.929,46
48.954,16
48.979,-25
49.004,-42
49.029,-1
49.054,91
49.079,192
49.104,260
49.129,287
49.154,303
49.179,335
49.204,380
49.229,415
49.254,420
49.279,403
49.304,388
49.329,391
49.354,404
49.379,413
49.404,407
49.429,392
49.454,378
49.479,367
49.504,353
49.529,331
49.554,305
49.579,279
49.604,257
49.629,237
49.654,216
49.679,194
49.704,174
49.729,152
49.754,126
49.779,94
49.804,60
49.829,32
49.854,10
49.879,-14
49.904,-49
49.929,-86
49.954,-100
49.979,-66
50.004,16
50.029,123
50.054,217
50.079,274
50.104,301
50.129,321
50.154,350
50.179,384
50.204,408
50.229,410
50.254,396
50.279,382
50.304,380
50.329,390
50.354,403
50.379,406
50.404,398
50.429,383
50.454,370
50.479,358
50.504,344
50.529,324
50.554,300
50.579,277
50.604,259
50.629,242
50.654,222
50.679,197
50.704,173
50.729,151
50.754,129
50.779,100
50.804,66
50.829,38
50.854,19
50.879,4
50.904,-22
50.929,-62
50.954,-94
50.979,-84
51.004,-20
51.029,80
51.054,176
51.079,239
51.104,270
51.129,292
51.154,326
51.179,368
51.204,401
51.229,413
51.254,406
51.279,395
51.304,390
51.329,393
51.354,400
51.379,406
51.404,406
51.429,401
51.454,388
51.479,368
51.504,344
51.529,321
51.554,302
51.579,285
51.604,266
51.629,243
51.654,217
51.679,192
51.704,172
51.729,151
51.754,127
51.779,97
51.804,68
51.829,47
51.854,29
51.879,3
51.904,-35
51.929,-67
51.954,-61
51.979,1
52.004,104
52.029,204
52.054,263
52.079,284
52.104,295
52.129,323
52.154,363
52.179,391
52.204,392
52.229,374
52.254,361
52.279,364
52.304,378
52.329,387
52.354,385
52.379,375
52.404,363
52.429,347
52.454,325
52.479,300
52.504,276
52.529,254
52.554,234
52.579,214
52.604,197
52.629,181
52.654,163
52.679,139
52.704,111
52.729,85
52.754,63
52.779,36
52.804,-2
52.829,-41
52.854,-49
52.879,-3
52.904,87
52.929,185
52.954,252
52.979,283
53.004,299
53.029,324
53.054,357
53.079,381
53.104,382
53.129,367
53.154,353
53.179,354
53.204,364
53.229,372
53.254,368
53.279,352
53.304,333
53.329,316
53.354,302
53.379,288
53.404,269
53.429,243
53.454,216
53.479,191
53.504,171
53.529,151
53.554,128
53.579,102
53.604,79
53.629,57
53.654,28
53.679,-11
53.704,-47
53.729,-51
53.754,0
53.779,95
53.804,194
53.829,259
53.854,286
53.879,304
53.904,336
53.929,382
53.954,416
53.979,419
54.004,400
54.029,381
54.054,379
54.079,390
54.104,398
54.129,394
54.154,380
54.179,363
54.204,346
54.229,327
54.254,306
54.279,283
54.304,260
54.329,237
54.354,214
54.379,192
54.404,168
54.429,140
54.454,109
54.479,81
54.504,57
54.529,33
54.554,-2
54.579,-50
54.604,-88
54.629,-83
54.654,-18
54.679,82
54.704,176
54.729,234
54.754,258
54.779,279
54.804,317
54.829,366
54.854,403
54.879,414
54.904,404
54.929,393
54.954,389
54.979,393
55.004,396
55.029,394
55.054,386
55.079,372
55.104,351
55.129,325
55.154,299
55.179,277
55.204,258
55.229,239
55.254,220
55.279,200
55.304,177
55.329,148
55.354,111
55.379,75
55.404,48
55.429,29
55.454,5
55.479,-30
55.504,-62
55.529,-61
55.554,-6
55.579,86
55.604,178
55.629,237
55.654,262
55.679,281
55.704,315
55.729,361
55.754,396
55.779,405
55.804,394
55.829,382
55.854,383
55.879,391
55.904,398
55.929,396
55.954,386
55.979,374
56.004,359
56.029,340
56.054,319
56.079,294
56.104,268
56.129,240
56.154,215
56.179,195
56.204,181
56.229,163
56.254,135
56.279,97
56.304,61
56.329,36
56.354,16
56.379,-13
56.404,-56
56.429,-91
56.454,-81
56.479,-13
56.504,91
56.529,188
56.554,246
56.579,273
56.604,295
56.629,333
56.654,378
56.679,409
56.704,415
56.729,404
56.754,397
56.779,400
56.804,408
56.829,410
56.854,403
56.879,391
56.904,378
56.929,361
56.954,340
56.979,318
57.004,299
57.029,284
57.054,264
57.079,236
57.104,205
57.129,179
57.154,159
57.179,137
57.204,108
57.229,74
57.254,46
57.279,26
57.304,5
57.329,-27
57.354,-66
57.379,-83
57.404,-49
57.429,34
57.454,135
57.479,214
57.504,254
57.529,272
57.554,296
57.579,336
57.604,378
57.629,401
57.654,398
57.679,383
57.704,375
57.729,381
57.754,393
57.779,399
57.804,397
57.829,387
57.854,374
57.879,357
57.904,338
57.929,320
57.954,305
57.979,290
58.004,271
58.029,243
58.054,213
58.079,188
58.104,169
58.129,149
58.154,123
58.179,95
58.204,74
58.229,60
58.254,39
58.279,1
58.304,-45
58.329,-66
58.354,-32
58.379,52
58.404,152
58.429,225
58.454,260
58.479,278
58.504,303
58.529,339
58.554,368
58.579,375
58.604,364
58.629,354
58.654,358
58.679,370
58.704,379
58.729,380
58.754,375
58.779,367
58.804,353
58.829,333
58.854,310
58.879,290
58.904,273
58.929,254
58.954,227
58.979,200
59.004,178
59.029,163
59.054,146
59.079,120
59.104,91
59.129,66
59.154,44
59.179,12
59.204,-28
59.229,-55
59.254,-36
59.279,36
59.304,137
59.329,219
59.354,258
59.379,270
59.404,287
59.429,322
59.454,361
59.479,380
59.504,373
59.529,358
59.554,354
59.579,366
59.604,382
59.629,388
59.654,380
59.679,364
59.704,348
59.729,333
59.754,318
59.779,298
59.804,273
59.829,246
59.854,221
59.879,201
59.904,183
59.929,161
59.954,134
59.979,105
60.004,80
60.029,57
60.054,27
60.079,-14
60.104,-49
60.129,-47
60.154,8
60.179,101
60.204,192
60.229,249
60.254,272
60.279,288
60.304,319
60.329,361
60.354,395
60.379,407
60.404,401
60.429,391
60.454,388
60.479,388
60.504,388
60.529,384
60.554,377
60.579,365
60.604,347
60.629,323
60.654,299
60.679,278
60.704,257
60.729,233
60.754,206
60.779,180
60.804,158
60.829,135
60.854,107
60.879,77
60.904,52
60.929,29
60.954,0
60.979,-41
61.004,-83
61.029,-94
61.054,-49
61.079,43
61.104,147
61.129,224
61.154,261
61.179,280
61.204,309
61.229,354
61.254,399
61.279,424
61.304,423
61.329,412
61.354,404
61.379,405
61.404,408
61.429,406
61.454,397
61.479,383
61.504,367
61.529,348
61.554,327
61.579,303
61.604,279
61.629,256
61.654,232
61.679,209
61.704,188
61.729,167
61.754,144
61.779,115
61.804,82
61.829,53
61.854,31
61.879,7
61.904,-26
61.929,-67
61.954,-94
61.979,-76
62.004,-5
62.029,97
62.054,192
62.079,253
62.104,282
62.129,304
62.154,338
62.179,380
62.204,409
62.229,414
62.254,403
62.279,395
62.304,399
62.329,413
62.354,423
62.379,422
62.404,411
62.429,397
62.454,381
62.479,362
62.504,342
62.529,319
62.554,296
62.579,272
62.604,247
62.629,223
62.654,196
62.679,164
62.704,127
62.729,93
62.754,69
62.779,54
62.804,34
62.829,-3
62.854,-51
62.879,-80
62.904,-62
62.929,4
62.954,89
62.979,157
63.004,196
63.029,222
63.054,258
63.079,308
63.104,355
63.129,378
63.154,376
63.179,363
63.204,357
63.229,362
63.254,371
63.279,376
63.304,373
63.329,364
63.354,350
63.379,333
63.404,315
63.429,296
63.454,277
63.479,257
63.504,236
63.529,213
63.554,190
63.579,165
63.604,139
63.629,116
63.654,97
63.679,80
63.704,52
63.729,11
63.754,-25
63.779,-30
63.804,16
63.829,106
63.854,201
63.879,265
63.904,293
63.929,304
63.954,324
63.979,357
64.004,386
64.029,393
64.054,381
64.079,365
64.104,360
64.129,367
64.154,374
64.179,371
64.204,356
64.229,337
64.254,319
64.279,302
64.304,280
64.329,253
64.354,225
64.379,202
64.404,183
64.429,163
64.454,136
64.479,104
64.504,76
64.529,55
64.554,32
64.579,-3
64.604,-45
64.629,-66
64.654,-39
64.679,38
64.704,138
64.729,221
64.754,269
64.779,295
64.804,322
64.829,359
64.854,393
64.879,409
64.904,405
64.929,394
64.954,388
64.979,390
65.004,395
65.029,395
65.054,390
65.079,378
65.104,359
65.129,335
65.154,309
65.179,283
65.204,258
65.229,234
65.254,211
65.279,191
65.304,170
65.329,145
65.354,111
65.379,76
65.404,50
65.429,32
65.454,11
65.479,-24
65.504,-65
65.529,-82
65.554,-43
65.579,46
65.604,150
65.629,227
65.654,265
65.679,285
65.704,314
65.729,359
65.754,402
65.779,423
65.804,419
65.829,404
65.854,395
65.879,397
65.904,404
65.929,407
65.954,399
65.979,381
66.004,359
66.029,340
66.054,326
66.079,309
66.104,279
66.129,237
66.154,194
66.179,165
66.204,154
66.229,146
66.254,126
66.279,95
66.304,64
66.329,41
66.354,17
66.379,-18
66.404,-59
66.429,-75
66.454,-39
66.479,44
66.504,141
66.529,213
66.554,251
66.579,275
66.604,310
66.629,358
66.654,399
66.679,415
66.704,407
66.729,393
66.754,387
66.779,388
66.804,390
66.829,386
66.854,378
66.879,367
66.904,353
66.929,332
66.954,307
66.979,281
67.004,259
67.029,240
67.054,222
67.079,203
67.104,182
67.129,158
67.154,128
67.179,99
67.204,75
67.229,58
67.254,38
67.279,4
67.304,-38
67.329,-64
67.354,-44
67.379,29
67.404,128
67.429,212
67.454,257
67.479,277
67.504,300
67.529,342
67.554,387
67.579,413
67.604,411
67.629,395
67.654,386
67.679,389
67.704,395
67.729,393
67.754,381
67.779,368
67.804,356
67.829,342
67.854,322
67.879,299
67.904,276
67.929,257
67.954,238
67.979,215
68.004,189
68.029,164
68.054,141
68.079,119
68.104,96
68.129,75
68.154,53
68.179,24
68.204,-14
68.229,-51
68.254,-61
68.279,-24
68.304,55
68.329,149
68.354,220
68.379,259
68.404,282
68.429,311
68.454,350
68.479,384
68.504,395
68.529,384
68.554,367
68.579,361
68.604,367
68.629,376
68.654,376
68.679,366
68.704,352
68.729,338
68.754,323
68.779,306
68.804,287
68.829,265
68.854,242
68.879,220
68.904,200
68.929,180
68.954,157
68.979,129
69.004,101
69.029,77
69.054,56
69.079,30
69.104,-3
69.129,-35
69.154,-42
69.179,-3
69.204,75
69.229,162
69.254,225
69.279,258
69.304,281
69.329,315
69.354,359
69.379,394
69.404,403
69.429,390
69.454,376
69.479,375
69.504,385
69.529,392
69.554,387
69.579,374
69.604,360
69.629,347
69.654,332
69.679,314
69.704,294
69.729,276
69.754,258
69.779,236
69.804,210
69.829,184
69.854,161
69.879,140
69.904,115
69.929,86
69.954,59
69.979,37
70.004,14
70.029,-16
70.054,-51
70.079,-66
70.104,-37
70.129,39
70.154,135
70.179,212
70.204,254
70.229,275
70.254,303
70.279,346
70.304,390
70.329,411
70.354,405
70.379,389
70.404,385
70.429,395
70.454,408
70.479,410
70.504,398
70.529,383
70.554,369
70.579,355
70.604,335
70.629,311
70.654,288
70.679,271
70.704,254
70.729,230
70.754,202
70.779,177
70.804,158
70.829,141
70.854,117
70.879,87
70.904,58
70.929,38
70.954,18
70.979,-14
71.004,-58
71.029,-86
71.054,-66
71.079,9
71.104,114
71.129,205
71.154,255
71.179,276
71.204,296
71.229,333
71.254,376
71.279,404
71.304,406
71.329,394
71.354,386
71.379,391
71.404,402
71.429,406
71.454,399
71.479,387
71.504,374
71.529,362
71.554,348
71.579,329
71.604,306
71.629,282
71.654,257
71.679,233
71.704,212
71.729,195
71.754,179
71.779,155
71.804,120
71.829,82
71.854,51
71.879,34
71.904,17
71.929,-12
71.954,-58
71.979,-93
72.004,-86
72.029,-21
72.054,79
72.079,178
72.104,245
72.129,281
72.154,307
72.179,339
72.204,376
72.229,399
72.254,400
72.279,389
72.304,381
72.329,387
72.354,402
72.379,412
72.404,409
72.429,398
72.454,384
72.479,372
72.504,358
72.529,340
72.554,318
72.579,295
72.604,275
72.629,256
72.654,236
72.679,215
72.704,193
72.729,169
72.754,142
72.779,111
72.804,81
72.829,56
72.854,36
72.879,12
72.904,-24
72.929,-69
72.954,-103
72.979,-96
73.004,-36
73.029,60
73.054,160
73.079,234
73.104,277
73.129,304
73.154,336
73.179,374
73.204,405
73.229,416
73.254,409
73.279,398
73.304,396
73.329,404
73.354,413
73.379,416
73.404,411
73.429,402
73.454,390
73.479,374
73.504,351
73.529,325
73.554,301
73.579,281
73.604,261
73.629,238
73.654,214
73.679,190
73.704,169
73.729,144
73.754,113
73.779,79
73.804,49
73.829,28
73.854,5
73.879,-31
73.904,-78
73.929,-108
73.954,-88
73.979,-9
74.004,102
74.029,201
74.054,259
74.079,283
74.104,303
74.129,337
74.154,377
74.179,403
74.204,402
74.229,387
74.254,377
74.279,380
74.304,390
74.329,394
74.354,388
74.379,376
74.404,363
74.429,348
74.454,328
74.479,306
74.504,284
74.529,264
74.554,244
74.579,222
74.604,202
74.629,185
74.654,167
74.679,144
74.704,113
74.729,85
74.754,65
74.779,49
74.804,21
74.829,-22
74.854,-62
74.879,-60
74.904,3
74.929,111
74.954,216
74.979,282
75.004,308
75.029,322
75.054,347
75.079,381
75.104,406
75.129,408
75.154,394
75.179,381
75.204,379
75.229,385
75.254,388
75.279,386
75.304,377
75.329,363
75.354,345
75.379,321
75.404,297
75.429,273
75.454,249
75.479,221
75.504,191
75.529,164
75.554,143
75.579,123
75.604,96
75.629,64
75.654,36
75.679,18
75.704,2
75.729,-28
75.754,-73
75.779,-107
75.804,-91
75.829,-11
75.854,108
75.879,220
75.904,288
75.929,316
75.954,334
75.979,365
76.004,408
76.029,439
76.054,444
76.079,430
76.104,417
76.129,417
76.154,427
76.179,435
76.204,435
76.229,425
76.254,410
76.279,390
76.304,362
76.329,331
76.354,301
76.379,273
76.404,247
76.429,220
76.454,193
76.479,169
76.504,147
76.529,119
76.554,82
76.579,44
76.604,16
76.629,0
76.654,-19
76.679,-56
76.704,-103
76.729,-126
76.754,-92
76.779,2
76.804,123
76.829,224
76.854,280
76.879,307
76.904,333
76.929,370
76.954,409
76.979,428
77.004,425
77.029,413
77.054,408
77.079,414
77.104,421
77.129,421
77.154,412
77.179,401
77.204,388
77.229,369
77.254,343
77.279,313
77.304,286
77.329,265
77.354,246
77.379,227
77.404,204
77.429,182
77.454,160
77.479,132
77.504,98
77.529,65
77.554,40
77.579,24
77.604,2
77.629,-34
77.654,-78
77.679,-95
77.704,-56
77.729,36
77.754,146
77.779,232
77.804,277
77.829,297
77.854,320
77.879,353
77.904,383
77.929,391
77.954,379
77.979,365
78.004,364
78.029,375
78.054,385
78.079,384
78.104,375
78.129,363
78.154,352
78.179,339
78.204,319
78.229,292
78.254,262
78.279,234
78.304,211
78.329,191
78.354,171
78.379,149
78.404,127
78.429,107
78.454,88
78.479,62
78.504,21
78.529,-25
78.554,-55
78.579,-40
78.604,29
78.629,128
78.654,218
78.679,274
78.704,300
78.729,322
78.754,354
78.779,386
78.804,401
78.829,393
78.854,375
78.879,366
78.904,371
78.929,383
78.954,388
78.979,383
79.004,371
79.029,355
79.054,336
79.079,311
79.104,285
79.129,260
79.154,239
79.179,218
79.204,197
79.229,172
79.254,143
79.279,112
79.304,83
79.329,58
79.354,33
79.379,2
79.404,-38
79.429,-75
79.454,-80
79.479,-30
79.504,64
79.529,170
79.554,247
79.579,284
79.604,302
79.629,326
79.654,363
79.679,396
79.704,408
79.729,400
79.754,388
79.779,385
79.804,392
79.829,397
79.854,395
79.879,385
79.904,371
79.929,354
79.954,334
79.979,313
80.004,291
80.029,268
80.054,241
80.079,212
80.104,184
80.129,161
80.154,140
80.179,117
80.204,88
80.229,57
80.254,26
80.279,-7
80.304,-47
80.329,-85
80.354,-94
80.379,-51
80.404,38
80.429,142
80.454,219
80.479,260
80.504,285
80.529,319
80.554,368
80.579,410
80.604,425
80.629,415
80.654,402
80.679,401
80.704,411
80.729,418
80.754,414
80.779,403
80.804,392
80.829,379
80.854,360
80.879,334
80.904,307
80.929,284
80.954,264
80.979,241
81.004,214
81.029,188
81.054,167
81.079,145
81.104,115
81.129,79
81.154,49
81.179,31
81.204,16
81.229,-14
81.254,-63
81.279,-106
81.304,-104
81.329,-39
81.354,68
81.379,172
81.404,238
81.429,265
81.454,284
81.479,317
81.504,364
81.529,403
81.554,419
81.579,413
81.604,404
81.629,405
81.654,416
81.679,425
81.704,424
81.729,414
81.754,401
81.779,385
81.804,365
81.829,338
81.854,309
81.879,284
81.904,268
81.929,255
81.954,238
81.979,212
82.004,183
82.029,154
82.054,128
82.079,101
82.104,75
82.129,51
82.154,29
82.179,2
82.204,-34
82.229,-69
82.254,-76
82.279,-31
82.304,58
82.329,158
82.354,231
82.379,267
82.404,286
82.429,314
82.454,354
82.479,387
82.504,393
82.529,376
82.554,357
82.579,354
82.604,367
82.629,380
82.654,383
82.679,374
82.704,362
82.729,348
82.754,333
82.779,313
82.804,289
82.829,263
82.854,237
82.879,213
82.904,192
82.929,174
82.954,155
82.979,130
83.004,103
83.029,81
83.054,67
83.079,51
83.104,21
83.129,-19
83.154,-46
83.179,-27
83.204,45
83.229,144
83.254,225
83.279,266
83.304,281
83.329,300
83.354,338
83.379,381
83.404,403
83.429,396
83.454,375
83.479,364
83.504,371
83.529,388
83.554,399
83.579,396
83.604,382
83.629,362
83.654,341
83.679,320
83.704,300
83.729,279
83.754,258
83.779,237
83.804,215
83.829,193
83.854,172
83.879,148
83.904,121
83.929,94
83.954,69
83.979,41
84.004,5
84.029,-39
84.054,-75
84.079,-74
84.104,-21
84.129,71
84.154,168
84.179,238
84.204,275
84.229,299
84.254,331
84.279,372
84.304,404
84.329,410
84.354,395
84.379,377
84.404,370
84.429,376
84.454,383
84.479,383
84.504,375
84.529,362
84.554,346
84.579,325
84.604,301
84.629,279
84.654,260
84.679,242
84.704,224
84.729,204
84.754,185
84.779,166
84.804,143
84.829,114
84.854,85
84.879,60
84.904,38
84.929,11
84.954,-29
84.979,-71
85.004,-85
85.029,-49
85.054,34
85.079,135
85.104,214
85.129,260
85.154,285
85.179,315
85.204,357
85.229,399
85.254,424
85.279,428
85.304,419
85.329,413
85.354,414
85.379,418
85.404,418
85.429,410
85.454,396
85.479,379
85.504,361
85.529,340
85.554,316
85.579,290
85.604,265
85.629,242
85.654,218
85.679,194
85.704,169
85.729,142
85.754,114
85.779,83
85.804,48
85.829,14
85.854,-15
85.879,-43
85.904,-78
85.929,-119
85.954,-153
85.979,-154
86.004,-104
86.029,-12
86.054,88
86.079,162
86.104,202
86.129,228
86.154,265
86.179,315
86.204,361
86.229,381
86.254,376
86.279,364
86.304,362
86.329,374
86.354,390
86.379,400
86.404,404
86.429,406
86.454,406
86.479,402
86.504,395
86.529,391
86.554,390
86.579,392
86.604,391
86.629,386
86.654,379
86.679,377
86.704,377
86.729,372
86.754,355
86.779,320
86.804,263
86.829,186
86.854,103
86.879,43
86.904,31
86.929,73
86.954,143
86.979,199
87.004,216
87.029,202
87.054,186
87.079,190
87.104,210
87.129,224
87.154,224
87.179,221
87.204,233
87.229,264
87.254,293
87.279,298
87.304,274
87.329,241
87.354,228
87.379,246
87.404,281
87.429,312
87.454,326
87.479,321
87.504,304
87.529,277
87.554,241
87.579,198
87.604,156
87.629,116
87.654,69
87.679,8
87.704,-57
87.729,-99
87.754,-90
87.779,-30
87.804,49
87.829,108
87.854,133
87.879,152
87.904,201
87.929,292
87.954,395
87.979,465
88.004,481
88.029,459
88.054,429
88.079,408
88.104,391
88.129,365
88.154,327
88.179,288
88.204,253
88.229,223
88.254,194
88.279,170
88.304,154
88.329,146
88.354,138
88.379,123
88.404,104
88.429,89
88.454,74
88.479,47
88.504,3
88.529,-39
88.554,-47
88.579,1
88.604,92
88.629,184
88.654,240
88.679,260
88.704,269
88.729,291
88.754,323
88.779,350
88.804,359
88.829,357
88.854,357
88.879,364
88.904,371
88.929,371
88.954,363
88.979,352
89.004,338
89.029,316
89.054,286
89.079,253
89.104,226
89.129,207
89.154,182
89.179,142
89.204,93
89.229,60
89.254,68
89.279,119
89.304,192
89.329,255
89.354,290
89.379,307
89.404,326
89.429,359
89.454,394
89.479,413
89.504,408
89.529,388
89.554,373
89.579,371
89.604,376
89.629,378
89.654,370
89.679,357
89.704,343
89.729,329
89.754,312
89.779,288
89.804,261
89.829,234
89.854,208
89.879,183
89.904,160
89.929,138
89.954,116
89.979,92
90.004,66
90.029,41
90.054,19
90.079,-5
90.104,-41
90.129,-84
90.154,-111
90.179,-92
90.204,-19
90.229,83
90.254,175
90.279,230
90.304,255
90.329,277
90.354,315
90.379,361
90.404,394
90.429,400
90.454,389
90.479,378
90.504,379
90.529,391
90.554,401
90.579,401
90.604,394
90.629,383
90.654,372
90.679,358
90.704,342
90.729,324
90.754,307
90.779,291
90.804,275
90.829,255
90.854,233
90.879,209
90.904,184
90.929,157
90.954,124
90.979,89
91.004,58
91.029,35
91.054,15
91.079,-12
91.104,-50
91.129,-82
91.154,-81
91.179,-30
91.204,59
91.229,155
91.254,224
91.279,262
91.304,288
91.329,323
91.354,370
91.379,411
91.404,428
91.429,422
91.454,410
91.479,407
91.504,413
91.529,418
91.554,413
91.579,401
91.604,389
91.629,379
91.654,367
91.679,347
91.704,323
91.729,299
91.754,280
91.779,264
91.804,244
91.829,219
91.854,193
91.879,172
91.904,154
91.929,132
91.954,102
91.979,68
92.004,41
92.029,21
92.054,0
92.079,-33
92.104,-70
92.129,-87
92.154,-58
92.179,18
92.204,115
92.229,198
92.254,246
92.279,272
92.304,297
92.329,333
92.354,370
92.379,390
92.404,389
92.429,380
92.454,379
92.479,390
92.504,405
92.529,408
92.554,398
92.579,382
92.604,370
92.629,359
92.654,342
92.679,318
92.704,291
92.729,269
92.754,253
92.779,236
92.804,214
92.829,191
92.854,171
92.879,155
92.904,137
92.929,112
92.954,85
92.979,65
93.004,51
93.029,30
93.054,-7
93.079,-53
93.104,-74
93.129,-39
93.154,50
93.179,157
93.204,238
93.229,279
93.254,298
93.279,325
93.304,366
93.329,401
93.354,411
93.379,398
93.404,384
93.429,387
93.454,406
93.479,423
93.504,425
93.529,413
93.554,397
93.579,382
93.604,365
93.629,344
93.654,319
93.679,297
93.704,278
93.729,256
93.754,229
93.779,202
93.804,179
93.829,159
93.854,134
93.879,100
93.904,62
93.929,31
93.954,8
93.979,-17
94.004,-55
94.029,-98
94.054,-117
94.079,-85
94.104,0
94.129,104
94.154,190
94.179,241
94.204,267
94.229,295
94.254,336
94.279,380
94.304,409
94.329,415
94.354,406
94.379,399
94.404,404
94.429,416
94.454,425
94.479,425
94.504,417
94.529,405
94.554,389
94.579,370
94.604,348
94.629,324
94.654,303
94.679,283
94.704,263
94.729,239
94.754,214
94.779,188
94.804,160
94.829,127
94.854,91
94.879,56
94.904,31
94.929,14
94.954,-8
94.979,-47
95.004,-96
95.029,-126
95.054,-105
95.079,-27
95.104,81
95.129,178
95.154,238
95.179,268
95.204,293
95.229,333
95.254,381
95.279,417
95.304,426
95.329,417
95.354,409
95.379,415
95.404,429
95.429,438
95.454,435
95.479,421
95.504,406
95.529,393
95.554,379
95.579,359
95.604,334
95.629,310
95.654,291
95.679,274
95.704,253
95.729,226
95.754,195
95.779,165
95.804,138
95.829,110
95.854,80
95.879,51
95.904,25
95.929,-1
95.954,-38
95.979,-82
96.004,-115
96.029,-106
96.054,-40
96.079,65
96.104,172
96.129,243
96.154,275
96.179,293
96.204,321
96.229,361
96.254,395
96.279,405
96.304,396
96.329,386
96.354,387
96.379,396
96.404,400
96.429,395
96.454,384
96.479,374
96.504,361
96.529,342
96.554,317
96.579,294
96.604,278
96.629,263
96.654,243
96.679,216
96.704,190
96.729,171
96.754,154
96.779,129
96.804,93
96.829,58
96.854,33
96.879,14
96.904,-14
96.929,-55
96.954,-84
96.979,-67
97.004,9
97.029,120
97.054,217
97.079,271
97.104,292
97.129,313
97.154,351
97.179,395
97.204,419
97.229,414
97.254,396
97.279,389
97.304,402
97.329,422
97.354,432
97.379,426
97.404,411
97.429,396
97.454,381
97.479,362
97.504,337
97.529,310
97.554,287
97.579,265
97.604,242
97.629,216
97.654,188
97.679,162
97.704,133
97.729,99
97.754,61
97.779,28
97.804,7
97.829,-10
97.854,-40
97.879,-84
97.904,-123
97.929,-121
97.954,-59
97.979,47
98.004,158
98.029,236
98.054,275
98.079,299
98.104,332
98.129,376
98.154,416
98.179,431
98.204,423
98.229,409
98.254,408
98.279,421
98.304,434
98.329,436
98.354,424
98.379,405
98.404,385
98.429,366
98.454,344
98.479,318
98.504,292
98.529,267
98.554,245
98.579,222
98.604,197
98.629,171
98.654,148
98.679,125
98.704,98
98.729,68
98.754,40
98.779,15
98.804,-11
98.829,-49
98.854,-93
98.879,-118
98.904,-98
98.929,-22
98.954,85
98.979,185
99.004,252
99.029,287
99.054,313
99.079,348
99.104,388
99.129,417
99.154,426
99.179,420
99.204,414
99.229,419
99.254,431
99.279,441
99.304,442
99.329,432
99.354,414
99.379,392
99.404,367
99.429,342
99.454,320
99.479,299
99.504,280
99.529,260
99.554,239
99.579,217
99.604,193
99.629,166
99.654,134
99.679,99
99.704,65
99.729,38
99.754,17
99.779,-5
99.804,-39
99.829,-80
99.854,-107
99.879,-91
99.904,-21
99.929,82
99.954,180
99.979,240
100.004,266
100.029,285
100.054,319
100.079,363
100.104,394
100.129,397
100.154,384
100.179,378
100.204,392
100.229,412
100.254,421
100.279,414
100.304,399
100.329,387
100.354,377
100.379,360
100.404,333
100.429,303
100.454,279
100.479,259
100.504,239
100.529,217
100.554,194
100.579,172
100.604,149
100.629,120
100.654,92
100.679,70
100.704,53
100.729,27
100.754,-12
100.779,-53
100.804,-59
100.829,-9
100.854,83
100.879,179
100.904,241
100.929,267
100.954,281
100.979,307
101.004,342
101.029,366
101.054,368
101.079,357
101.104,350
101.129,356
101.154,369
101.179,380
101.204,383
101.229,378
101.254,367
101.279,348
101.304,324
101.329,301
101.354,282
101.379,263
101.404,240
101.429,213
101.454,189
101.479,171
101.504,153
101.529,129
101.554,98
101.579,68
101.604,44
101.629,19
101.654,-13
101.679,-47
101.704,-57
101.729,-18
101.754,66
101.779,163
101.804,235
101.829,272
101.854,295
101.879,326
101.904,369
101.929,405
101.954,417
101.979,410
102.004,400
102.029,400
102.054,407
102.079,410
102.104,405
102.129,395
102.154,385
102.179,371
102.204,351
102.229,325
102.254,300
102.279,282
102.304,265
102.329,244
102.354,217
102.379,190
102.404,167
102.429,145
102.454,117
102.479,82
102.504,50
102.529,26
102.554,5
102.579,-24
102.604,-65
102.629,-97
102.654,-90
102.679,-30
102.704,66
102.729,162
102.754,229
102.779,264
102.804,287
102.829,319
102.854,363
102.879,400
102.904,417
102.929,413
102.954,403
102.979,402
103.004,411
103.029,419
103.054,416
103.079,402
103.104,383
103.129,366
103.154,349
103.179,326
103.204,298
103.229,270
103.254,251
103.279,242
103.304,234
103.329,219
103.354,192
103.379,156
103.404,117
103.429,83
103.454,57
103.479,35
103.504,8
103.529,-28
103.554,-69
103.579,-89
103.604,-63
103.629,11
103.654,111
103.679,195
103.704,243
103.729,267
103.754,293
103.779,337
103.804,386
103.829,415
103.854,415
103.879,399
103.904,390
103.929,396
103.954,407
103.979,410
104.004,403
104.029,392
104.054,380
104.079,364
104.104,342
104.129,317
104.154,297
104.179,283
104.204,266
104.229,242
104.254,214
104.279,190
104.304,172
104.329,151
104.354,121
104.379,87
104.404,59
104.429,38
104.454,13
104.479,-24
104.504,-65
104.529,-76
104.554,-34
104.579,52
104.604,146
104.629,212
104.654,247
104.679,269
104.704,300
104.729,339
104.754,370
104.779,378
104.804,369
104.829,360
104.854,361
104.879,369
104.904,377
104.929,377
104.954,369
104.979,356
105.004,339
105.029,320
105.054,299
105.079,279
105.104,259
105.129,237
105.154,216
105.179,197
105.204,179
105.229,159
105.254,134
105.279,110
105.304,92
105.329,78
105.354,57
105.379,23
105.404,-13
105.429,-24
105.454,13
105.479,95
105.504,187
105.529,254
105.554,287
105.579,304
105.604,327
105.629,360
105.654,390
105.679,400
105.704,392
105.729,380
105.754,377
105.779,383
105.804,390
105.829,390
105.854,382
105.879,366
105.904,346
105.929,324
105.954,303
105.979,282
106.004,260
106.029,234
106.054,208
106.079,185
106.104,165
106.129,144
106.154,116
106.179,84
106.204,54
106.229,31
106.254,11
106.279,-19
106.304,-61
106.329,-94
106.354,-87
106.379,-25
106.404,74
106.429,171
106.454,237
106.479,271
106.504,295
106.529,330
106.554,375
106.579,411
106.604,422
106.629,412
106.654,399
106.679,398
106.704,409
106.729,420
106.754,421
106.779,411
106.804,396
106.829,378
106.854,360
106.879,338
106.904,316
106.929,295
106.954,275
106.979,252
107.004,225
107.029,199
107.054,178
107.079,159
107.104,134
107.129,101
107.154,65
107.179,35
107.204,15
107.229,-6
107.254,-43
107.279,-88
107.304,-112
107.329,-83
107.354,0
107.379,106
107.404,192
107.429,240
107.454,262
107.479,289
107.504,333
107.529,383
107.554,417
107.579,425
107.604,417
107.629,409
107.654,410
107.679,418
107.704,423
107.729,422
107.754,414
107.779,402
107.804,386
107.829,369
107.854,350
107.879,329
107.904,307
107.929,286
107.954,269
107.979,254
108.004,236
108.029,213
108.054,185
108.079,156
108.104,129
108.129,102
108.154,72
108.179,43
108.204,19
108.229,-2
108.254,-31
108.279,-71
108.304,-112
108.329,-122
108.354,-76
108.379,20
108.404,132
108.429,218
108.454,262
108.479,282
108.504,307
108.529,348
108.554,390
108.579,413
108.604,412
108.629,400
108.654,397
108.679,408
108.704,424
108.729,432
108.754,426
108.779,412
108.804,395
108.829,379
108.854,360
108.879,339
108.904,317
108.929,297
108.954,279
108.979,260
109.004,237
109.029,214
109.054,191
109.079,171
109.104,147
109.129,119
109.154,89
109.179,64
109.204,45
109.229,21
109.254,-17
109.279,-63
109.304,-87
109.329,-57
109.354,27
109.379,135
109.404,220
109.429,263
109.454,277
109.479,294
109.504,325
109.529,358
109.554,371
109.579,363
109.604,350
109.629,349
109.654,362
109.679,376
109.704,380
109.729,374
109.754,363
109.779,351
109.804,335
109.829,314
109.854,290
109.879,267
109.904,245
109.929,223
109.954,202
109.979,185
110.004,170
110.029,153
110.054,127
110.079,96
110.104,70
110.129,49
110.154,25
110.179,-11
110.204,-50
110.229,-60
110.254,-15
110.279,79
110.304,186
110.329,266
110.354,305
110.379,327
110.404,356
110.429,396
110.454,428
110.479,436
110.504,426
110.529,416
110.554,420
110.579,433
110.604,439
110.629,434
110.654,421
110.679,408
110.704,394
110.729,371
110.754,341
110.779,311
110.804,288
110.829,271
110.854,250
110.879,220
110.904,187
110.929,159
110.954,134
110.979,106
111.004,70
111.029,31
111.054,2
111.079,-20
111.104,-49
111.129,-97
111.154,-150
111.179,-173
111.204,-134
111.229,-36
111.254,81
111.279,173
111.304,223
111.329,250
111.354,281
111.379,327
111.404,371
111.429,391
111.454,385
111.479,368
111.504,362
111.529,369
111.554,379
111.579,379
111.604,370
111.629,359
111.654,350
111.679,336
111.704,314
111.729,288
111.754,268
111.779,259
111.804,254
111.829,245
111.854,229
111.879,212
111.904,198
111.929,183
111.954,159
111.979,130
112.004,103
112.029,82
112.054,58
112.079,22
112.104,-18
112.129,-31
112.154,10
112.179,107
112.204,223
112.229,319
112.254,381
112.279,425
112.304,471
112.329,522
112.354,564
112.379,583
112.404,575
112.429,542
112.454,484
112.479,409
112.504,343
112.529,316
112.554,341
112.579,395
112.604,431
112.629,419
112.654,364
112.679,297
112.704,240
112.729,192
112.754,143
112.779,93
112.804,60
112.829,50
112.854,51
112.879,40
112.904,9
112.929,-28
112.954,-63
112.979,-95
113.004,-133
113.029,-168
113.054,-170
113.079,-112
113.104,0
113.129,124
113.154,217
113.179,267
113.204,289
113.229,304
113.254,315
113.279,314
113.304,300
113.329,289
113.354,297
113.379,321
113.404,346
113.429,354
113.454,347
113.479,334
113.504,326
113.529,322
113.554,314
113.579,297
113.604,275
113.629,255
113.654,247
113.679,254
113.704,271
113.729,284
113.754,280
113.779,254
113.804,218
113.829,187
113.854,165
113.879,137
113.904,90
113.929,33
113.954,-2
113.979,14
114.004,82
114.029,171
114.054,244
114.079,285
114.104,304
114.129,317
114.154,333
114.179,344
114.204,347
114.229,344
114.254,345
114.279,354
114.304,369
114.329,382
114.354,386
114.379,380
114.404,365
114.429,344
114.454,321
114.479,297
114.504,271
114.529,243
114.554,214
114.579,191
114.604,175
114.629,159
114.654,139
114.679,116
114.704,95
114.729,78
114.754,54
114.779,14
114.804,-27
114.829,-39
114.854,5
114.879,102
114.904,210
114.929,286
114.954,319
114.979,329
115.004,343
115.029,367
115.054,384
115.079,381
115.104,365
115.129,353
115.154,355
115.179,365
115.204,371
115.229,368
115.254,358
115.279,343
115.304,320
115.329,291
115.354,259
115.379,230
115.404,206
115.429,181
115.454,152
115.479,124
115.504,100
115.529,76
115.554,42
115.579,0
115.604,-26
115.629,-9
115.654,57
115.679,147
115.704,219
115.729,251
115.754,257
115.779,265
115.804,288
115.829,314
115.854,325
115.879,313
115.904,294
115.929,283
115.954,283
115.979,284
116.004,278
116.029,264
116.054,246
116.079,225
116.104,198
116.129,166
116.154,137
116.179,115
116.204,97
116.229,71
116.254,32
116.279,-6
116.304,-17
116.329,19
116.354,98
116.379,190
116.404,265
116.429,312
116.454,341
116.479,369
116.504,406
116.529,441
116.554,459
116.579,455
116.604,439
116.629,426
116.654,425
116.679,429
116.704,428
116.729,417
116.754,400
116.779,383
116.804,368
116.829,349
116.854,324
116.879,296
116.904,270
116.929,249
116.954,227
116.979,200
117.004,169
117.029,139
117.054,110
117.079,79
117.104,44
117.129,11
117.154,-13
117.179,-35
117.204,-67
117.229,-113
117.254,-154
117.279,-152
117.304,-87
117.329,22
117.354,133
117.379,208
117.404,245
117.429,272
117.454,314
117.479,365
117.504,405
117.529,419
117.554,414
117.579,406
117.604,408
117.629,415
117.654,418
117.679,414
117.704,407
117.729,399
117.754,386
117.779,366
117.804,342
117.829,318
117.854,295
117.879,270
117.904,241
117.929,214
117.954,191
117.979,169
118.004,142
118.029,107
118.054,71
118.079,43
118.104,20
118.129,-10
118.154,-53
118.179,-91
118.204,-93
118.229,-41
118.254,52
118.279,151
118.304,220
118.329,255
118.354,277
118.379,312
118.404,363
118.429,409
118.454,431
118.479,425
118.504,408
118.529,400
118.554,405
118.579,415
118.604,417
118.629,406
118.654,389
118.679,372
118.704,356
118.729,338
118.754,316
118.779,294
118.804,274
118.829,254
118.854,230
118.879,203
118.904,178
118.929,158
118.954,139
118.979,113
119.004,78
119.029,44
119.054,17
119.079,-5
119.104,-36
119.129,-79
119.154,-114
119.179,-109
119.204,-47
119.229,54
119.254,155
119.279,222
119.304,255
119.329,280
119.354,319
119.379,369
119.404,409
119.429,423
119.454,417
119.479,409
119.504,411
119.529,420
119.554,428
119.579,426
119.604,418
119.629,407
119.654,395
119.679,382
119.704,368
119.729,351
119.754,332
119.779,309
119.804,285
119.829,264
119.854,246
119.879,229
119.904,206
119.929,178
119.954,149
119.979,124
120.004,100
120.029,71
120.054,36
120.079,4
120.104,-19
120.129,-41
120.154,-73
120.179,-114
120.204,-139
120.229,-115
120.254,-31
120.279,83
120.304,185
120.329,245
120.354,272
120.379,297
120.404,338
120.429,387
120.454,421
120.479,429
120.504,421
120.529,415
120.554,422
120.579,434
120.604,442
120.629,443
120.654,436
120.679,425
120.704,408
120.729,386
120.754,364
120.779,344
120.804,327
120.829,310
120.854,291
120.879,273
120.904,255
120.929,233
120.954,207
120.979,179
121.004,154
121.029,132
121.054,107
121.079,76
121.104,41
121.129,12
121.154,-11
121.179,-38
121.204,-76
121.229,-111
121.254,-113
121.279,-58
121.304,45
121.329,158
121.354,238
121.379,273
121.404,286
121.429,307
121.454,344
121.479,379
121.504,393
121.529,385
121.554,372
121.579,371
121.604,384
121.629,396
121.654,396
121.679,385
121.704,370
121.729,355
121.754,340
121.779,322
121.804,304
121.829,287
121.854,272
121.879,252
121.904,228
121.929,203
121.954,183
121.979,169
122.004,150
122.029,122
122.054,89
122.079,59
122.104,38
122.129,14
122.154,-22
122.179,-64
122.204,-82
122.229,-47
122.254,41
122.279,153
122.304,243
122.329,292
122.354,312
122.379,332
122.404,366
122.429,405
122.454,427
122.479,425
122.504,411
122.529,405
122.554,414
122.579,429
122.604,433
122.629,420
122.654,397
122.679,374
122.704,358
122.729,343
122.754,324
122.779,300
122.804,278
122.829,261
122.854,246
122.879,228
122.904,202
122.929,173
122.954,145
122.979,117
123.004,86
123.029,51
123.054,18
123.079,-7
123.104,-29
123.129,-61
123.154,-105
123.179,-142
123.204,-141
123.229,-78
123.254,33
123.279,153
123.304,240
123.329,283
123.354,304
123.379,332
123.404,374
123.429,414
123.454,435
123.479,432
123.504,422
123.529,418
123.554,425
123.579,435
123.604,439
123.629,434
123.654,425
123.679,411
123.704,394
123.729,372
123.754,344
123.779,317
123.804,293
123.829,274
123.854,257
123.879,236
123.904,210
123.929,182
123.954,155
123.979,130
124.004,101
124.029,69
124.054,35
124.079,7
124.104,-16
124.129,-44
124.154,-84
124.179,-126
124.204,-143
124.229,-107
124.254,-16
124.279,100
124.304,202
124.329,267
124.354,300
124.379,327
124.404,361
124.429,400
124.454,427
124.479,436
124.504,431
124.529,425
124.554,426
124.579,434
124.604,441
124.629,441
124.654,432
124.679,415
124.704,395
124.729,374
124.754,353
124.779,330
124.804,305
124.829,280
124.854,260
124.879,243
124.904,224
124.929,200
124.954,172
124.979,144
125.004,118
125.029,90
125.054,56
125.079,22
125.104,-5
125.129,-29
125.154,-60
125.179,-103
125.204,-141
125.229,-140
125.254,-77
125.279,38
125.304,161
125.329,251
125.354,297
125.379,320
125.404,347
125.429,383
125.454,416
125.479,432
125.504,430
125.529,425
125.554,424
125.579,428
125.604,429
125.629,424
125.654,416
125.679,408
125.704,398
125.729,382
125.754,360
125.779,334
125.804,308
125.829,286
125.854,266
125.879,244
125.904,219
125.929,192
125.954,165
125.979,142
126.004,120
126.029,96
126.054,68
126.079,39
126.104,13
126.129,-15
126.154,-52
126.179,-97
126.204,-130
126.229,-120
126.254,-50
126.279,64
126.304,183
126.329,269
126.354,311
126.379,329
126.404,350
126.429,381
126.454,410
126.479,423
126.504,418
126.529,408
126.554,406
126.579,413
126.604,421
126.629,423
126.654,415
126.679,400
126.704,381
126.729,361
126.754,339
126.779,316
126.804,293
126.829,270
126.854,247
126.879,222
126.904,197
126.929,172
126.954,151
126.979,132
127.004,112
127.029,88
127.054,62
127.079,39
127.104,18
127.129,-7
127.154,-43
127.179,-79
127.204,-90
127.229,-51
127.254,41
127.279,159
127.304,259
127.329,315
127.354,336
127.379,348
127.404,370
127.429,397
127.454,410
127.479,405
127.504,393
127.529,392
127.554,402
127.579,413
127.604,412
127.629,401
127.654,389
127.679,377
127.704,362
127.729,336
127.754,305
127.779,279
127.804,260
127.829,242
127.854,218
127.879,190
127.904,166
127.929,147
127.954,127
127.979,97
128.004,59
128.029,28
128.054,8
128.079,-11
128.104,-48
128.129,-99
128.154,-133
128.179,-111
128.204,-22
128.229,102
128.254,214
128.279,283
128.304,313
128.329,332
128.354,361
128.379,397
128.404,424
128.429,432
128.454,424
128.479,416
128.504,418
128.529,428
128.554,437
128.579,436
128.604,424
128.629,405
128.654,384
128.679,362
128.704,339
128.729,315
128.754,291
128.779,269
128.804,247
128.829,225
128.854,200
128.879,175
128.904,151
128.929,124
128.954,92
128.979,58
129.004,27
129.029,2
129.054,-23
129.079,-59
129.104,-107
129.129,-147
129.154,-144
129.179,-76
129.204,42
129.229,169
129.254,262
129.279,307
129.304,325
129.329,349
129.354,389
129.379,429
129.404,448
129.429,436
129.454,412
129.479,400
129.504,409
129.529,428
129.554,439
129.579,433
129.604,415
129.629,396
129.654,376
129.679,353
129.704,323
129.729,293
129.754,270
129.779,253
129.804,236
129.829,212
129.854,182
129.879,154
129.904,131
129.929,106
129.954,76
129.979,44
130.004,15
130.029,-10
130.054,-46
130.079,-96
130.104,-143
130.129,-151
130.154,-92
130.179,22
130.204,149
130.229,244
130.254,292
130.279,315
130.304,343
130.329,384
130.354,420
130.379,436
130.404,430
130.429,419
130.454,419
130.479,430
130.504,439
130.529,439
130.554,430
130.579,418
130.604,404
130.629,385
130.654,358
130.679,327
130.704,299
130.729,277
130.754,258
130.779,237
130.804,214
130.829,189
130.854,163
130.879,135
130.904,101
130.929,65
130.954,33
130.979,10
131.004,-12
131.029,-47
131.054,-93
131.079,-129
131.104,-119
131.129,-45
131.154,73
131.179,192
131.204,273
131.229,308
131.254,323
131.279,343
131.304,374
131.329,398
131.354,404
131.379,397
131.404,392
131.429,398
131.454,408
131.479,411
131.504,404
131.529,392
131.554,379
131.579,362
131.604,338
131.629,310
131.654,284
131.679,263
131.704,242
131.729,217
131.754,192
131.779,173
131.804,159
131.829,141
131.854,112
131.879,77
131.904,49
131.929,32
131.954,11
131.979,-25
132.004,-69
132.029,-85
132.054,-39
132.079,63
132.104,182
132.129,272
132.154,315
132.179,331
132.204,347
132.229,372
132.254,392
132.279,397
132.304,391
132.329,388
132.354,396
132.379,408
132.404,415
132.429,410
132.454,399
132.479,384
132.504,366
132.529,344
132.554,317
132.579,292
132.604,268
132.629,245
132.654,219
132.679,191
132.704,166
132.729,141
132.754,113
132.779,82
132.804,53
132.829,29
132.854,5
132.879,-29
132.904,-80
132.929,-125
132.954,-128
132.979,-66
133.004,47
133.029,167
133.054,253
133.079,294
133.104,314
133.129,341
133.154,380
133.179,416
133.204,429
133.229,420
133.254,405
133.279,401
133.304,409
133.329,417
133.354,416
133.379,405
133.404,390
133.429,373
133.454,353
133.479,330
133.504,306
133.529,283
133.554,262
133.579,239
133.604,213
133.629,189
133.654,168
133.679,146
133.704,117
133.729,80
133.754,45
133.779,19
133.804,-2
133.829,-33
133.854,-77
133.879,-113
133.904,-106
133.929,-36
133.954,77
133.979,188
134.004,258
134.029,287
134.054,304
134.079,336
134.104,382
134.129,420
134.154,431
134.179,419
134.204,405
134.229,403
134.254,412
134.279,419
134.304,414
134.329,400
134.354,382
134.379,363
134.404,342
134.429,320
134.454,296
134.479,273
134.504,250
134.529,225
134.554,201
134.579,179
134.604,159
134.629,134
134.654,101
134.679,64
134.704,35
134.729,17
134.754,0
134.779,-33
134.804,-78
134.829,-109
134.854,-89
134.879,-7
134.904,108
134.929,214
134.954,276
134.979,300
135.004,314
135.029,342
135.054,381
135.079,413
135.104,423
135.129,417
135.154,408
135.179,409
135.204,416
135.229,420
135.254,415
135.279,404
135.304,394
135.329,383
135.354,369
135.379,348
135.404,322
135.429,295
135.454,270
135.479,246
135.504,221
135.529,198
135.554,177
135.579,155
135.604,127
135.629,92
135.654,58
135.679,34
135.704,16
135.729,-8
135.754,-49
135.779,-94
135.804,-110
135.829,-68
135.854,27
135.879,138
135.904,221
135.929,263
135.954,281
135.979,305
136.004,342
136.029,376
136.054,389
136.079,382
136.104,369
136.129,366
136.154,371
136.179,376
136.204,374
136.229,369
136.254,361
136.279,350
136.304,331
136.329,307
136.354,285
136.379,268
136.404,252
136.429,232
136.454,208
136.479,188
136.504,173
136.529,157
136.554,132
136.579,100
136.604,72
136.629,54
136.654,36
136.679,4
136.704,-32
136.729,-44
136.754,0
136.779,95
136.804,207
136.829,288
136.854,323
136.879,330
136.904,342
136.929,369
136.954,396
136.979,406
137.004,397
137.029,384
137.054,382
137.079,390
137.104,397
137.129,393
137.154,380
137.179,362
137.204,346
137.229,329
137.254,309
137.279,285
137.304,257
137.329,228
137.354,202
137.379,180
137.404,161
137.429,140
137.454,113
137.479,82
137.504,54
137.529,33
137.554,14
137.579,-16
137.604,-63
137.629,-106
137.654,-111
137.679,-57
137.704,46
137.729,161
137.754,246
137.779,289
137.804,308
137.829,331
137.854,368
137.879,405
137.904,424
137.929,420
137.954,407
137.979,401
138.004,406
138.029,415
138.054,417
138.079,408
138.104,392
138.129,373
138.154,353
138.179,333
138.204,311
138.229,289
138.254,266
138.279,240
138.304,212
138.329,187
138.354,166
138.379,145
138.404,118
138.429,86
138.454,53
138.479,26
138.504,1
138.529,-32
138.554,-76
138.579,-112
138.604,-110
138.629,-51
138.654,52
138.679,162
138.704,242
138.729,285
138.754,312
138.779,344
138.804,385
138.829,419
138.854,430
138.879,420
138.904,406
138.929,404
138.954,414
138.979,424
139.004,423
139.029,413
139.054,399
139.079,385
139.104,365
139.129,337
139.154,305
139.179,278
139.204,260
139.229,244
139.254,225
139.279,200
139.304,176
139.329,154
139.354,130
139.379,101
139.404,66
139.429,34
139.454,9
139.479,-15
139.504,-51
139.529,-91
139.554,-106
139.579,-67
139.604,28
139.629,145
139.654,238
139.679,283
139.704,295
139.729,308
139.754,337
139.779,370
139.804,387
139.829,382
139.854,370
139.879,367
139.904,376
139.929,386
139.954,388
139.979,383
140.004,375
140.029,364
140.054,346
140.079,323
140.104,299
140.129,279
140.154,262
140.179,241
140.204,216
140.229,194
140.254,177
140.279,160
140.304,134
140.329,99
140.354,68
140.379,49
140.404,31
140.429,0
140.454,-47
140.479,-82
140.504,-67
140.529,10
140.554,126
140.579,231
140.604,296
140.629,325
140.654,344
140.679,372
140.704,401
140.729,417
140.754,413
140.779,400
140.804,391
140.829,396
140.854,406
140.879,411
140.904,406
140.929,393
140.954,378
140.979,363
141.004,346
141.029,323
141.054,296
141.079,269
141.104,247
141.129,228
141.154,208
141.179,185
141.204,160
141.229,137
141.254,116
141.279,90
141.304,58
141.329,26
141.354,2
141.379,-16
141.404,-43
141.429,-86
141.454,-130
141.479,-137
141.504,-74
141.529,47
141.554,183
141.579,278
141.604,315
141.629,318
141.654,328
141.679,361
141.704,400
141.729,422
141.754,418
141.779,405
141.804,401
141.829,412
141.854,425
141.879,428
141.904,419
141.929,405
141.954,392
141.979,377
142.004,355
142.029,325
142.054,294
142.079,272
142.104,257
142.129,242
142.154,222
142.179,197
142.204,172
142.229,147
142.254,121
142.279,91
142.304,58
142.329,31
142.354,10
142.379,-13
142.404,-48
142.429,-87
142.454,-102
142.479,-66
142.504,25
142.529,139
142.554,234
142.579,286
142.604,307
142.629,326
142.654,358
142.679,394
142.704,413
142.729,407
142.754,390
142.779,383
142.804,392
142.829,405
142.854,408
142.879,397
142.904,381
142.929,367
142.954,356
142.979,342
143.004,320
143.029,294
143.054,272
143.079,252
143.104,233
143.129,211
143.154,191
143.179,173
143.204,154
143.229,129
143.254,99
143.279,72
143.304,51
143.329,31
143.354,0
143.379,-44
143.404,-73
143.429,-55
143.454,21
143.479,131
143.504,227
143.529,281
143.554,297
143.579,306
143.604,326
143.629,352
143.654,366
143.679,362
143.704,353
143.729,353
143.754,363
143.779,372
143.804,371
143.829,362
143.854,350
143.879,339
143.904,323
143.929,303
143.954,281
143.979,261
144.004,243
144.029,224
144.054,204
144.079,184
144.104,166
144.129,145
144.154,120
144.179,94
144.204,74
144.229,58
144.254,33
144.279,-6
144.304,-47
144.329,-54
144.354,-1
144.379,101
144.404,210
144.429,283
144.454,313
144.479,324
144.504,344
144.529,377
144.554,404
144.579,411
144.604,401
144.629,390
144.654,390
144.679,397
144.704,400
144.729,395
144.754,384
144.779,371
144.804,357
144.829,338
144.854,315
144.879,289
144.904,261
144.929,232
144.954,204
144.979,180
145.004,161
145.029,142
145.054,115
145.079,83
145.104,52
145.129,29
145.154,7
145.179,-25
145.204,-68
145.229,-100
145.254,-88
145.279,-18
145.304,86
145.329,185
145.354,247
145.379,273
145.404,291
145.429,323
145.454,368
145.479,404
145.504,417
145.529,409
145.554,397
145.579,395
145.604,402
145.629,410
145.654,411
145.679,403
145.704,388
145.729,369
145.754,345
145.779,320
145.804,297
145.829,277
145.854,258
145.879,235
145.904,208
145.929,181
145.954,155
145.979,130
146.004,103
146.029,75
146.054,50
146.079,26
146.104,-4
146.129,-48
146.154,-93
146.179,-109
146.204,-68
146.229,24
146.254,135
146.279,223
146.304,269
146.329,292
146.354,320
146.379,364
146.404,405
146.429,423
146.454,414
146.479,396
146.504,390
146.529,400
146.554,412
146.579,415
146.604,406
146.629,393
146.654,382
146.679,369
146.704,347
146.729,318
146.754,288
146.779,263
146.804,242
146.829,220
146.854,198
146.879,176
146.904,154
146.929,128
146.954,95
146.979,62
147.004,34
147.029,13
147.054,-12
147.079,-51
147.104,-92
147.129,-106
147.154,-64
147.179,29
147.204,141
147.229,227
147.254,270
147.279,286
147.304,307
147.329,347
147.354,390
147.379,412
147.404,406
147.429,390
147.454,387
147.479,400
147.504,415
147.529,417
147.554,404
147.579,389
147.604,381
147.629,375
147.654,360
147.679,333
147.704,302
147.729,276
147.754,257
147.779,237
147.804,213
147.829,188
147.854,167
147.879,146
147.904,119
147.929,85
147.954,53
147.979,29
148.004,7
148.029,-22
148.054,-63
148.079,-90
148.104,-70
148.129,7
148.154,114
148.179,206
148.204,254
148.229,270
148.254,284
148.279,316
148.304,354
148.329,378
148.354,379
148.379,370
148.404,368
148.429,378
148.454,391
148.479,396
148.504,391
148.529,383
148.554,372
148.579,357
148.604,336
148.629,312
148.654,291
148.679,274
148.704,255
148.729,233
148.754,210
148.779,189
148.804,171
148.829,148
148.854,119
148.879,89
148.904,66
148.929,47
148.954,22
148.979,-17
149.004,-59
149.029,-75
149.054,-38
149.079,48
149.104,153
149.129,234
149.154,275
149.179,290
149.204,308
149.229,342
149.254,380
149.279,402
149.304,398
149.329,381
149.354,373
149.379,383
149.404,403
149.429,414
149.454,408
149.479,392
149.504,372
149.529,354
149.554,333
149.579,307
149.604,282
149.629,261
149.654,245
149.679,228
149.704,207
149.729,183
149.754,161
149.779,138
149.804,110
149.829,77
149.854,46
149.879,22
149.904,0
149.929,-31
149.954,-72
149.979,-99
150.004,-80
150.029,-4
150.054,105
150.079,206
150.104,267
150.129,292
150.154,307
150.179,333
150.204,369
150.229,397
150.254,405
150.279,399
150.304,392
150.329,396
150.354,405
150.379,411
150.404,408
150.429,399
150.454,387
150.479,373
150.504,355
150.529,331
150.554,306
150.579,282
150.604,260
150.629,239
150.654,213
150.679,184
150.704,153
150.729,124
150.754,97
150.779,74
150.804,55
150.829,39
150.854,17
150.879,-17
150.904,-63
150.929,-99
150.954,-97
150.979,-40
151.004,60
151.029,167
151.054,245
151.079,286
151.104,307
151.129,332
151.154,369
151.179,403
151.204,417
151.229,410
151.254,397
151.279,396
151.304,408
151.329,421
151.354,424
151.379,414
151.404,398
151.429,382
151.454,365
151.479,344
151.504,320
151.529,297
151.554,277
151.579,258
151.604,235
151.629,209
151.654,182
151.679,159
151.704,136
151.729,109
151.754,78
151.779,49
151.804,26
151.829,0
151.854,-36
151.879,-78
151.904,-97
151.929,-66
151.954,18
151.979,126
152.004,217
152.029,268
152.054,290
152.079,310
152.104,338
152.129,367
152.154,379
152.179,373
152.204,363
152.229,365
152.254,379
152.279,393
152.304,395
152.329,384
152.354,367
152.379,350
152.404,334
152.429,316
152.454,296
152.479,273
152.504,250
152.529,226
152.554,204
152.579,185
152.604,167
152.629,145
152.654,118
152.679,89
152.704,63
152.729,39
152.754,9
152.779,-29
152.804,-60
152.829,-52
152.854,9
152.879,111
152.904,213
152.929,280
152.954,308
152.979,321
153.004,343
153.029,377
153.054,402
153.079,406
153.104,393
153.129,383
153.154,387
153.179,398
153.204,404
153.229,399
153.254,386
153.279,370
153.304,353
153.329,331
153.354,306
153.379,279
153.404,255
153.429,232
153.454,210
153.479,187
153.504,166
153.529,145
153.554,119
153.579,86
153.604,54
153.629,29
153.654,8
153.679,-20
153.704,-62
153.729,-99
153.754,-97
153.779,-37
153.804,69
153.829,178
153.854,252
153.879,284
153.904,301
153.929,329
153.954,369
153.979,405
154.004,418
154.029,411
154.054,398
154.079,393
154.104,397
154.129,401
154.154,398
154.179,389
154.204,374
154.229,357
154.254,337
154.279,316
154.304,294
154.329,272
154.354,247
154.379,221
154.404,197
154.429,177
154.454,158
154.479,133
154.504,100
154.529,66
154.554,41
154.579,23
154.604,0
154.629,-37
154.654,-76
154.679,-85
154.704,-37
154.729,60
154.754,170
154.779,250
154.804,287
154.829,302
154.854,325
154.879,363
154.904,400
154.929,413
154.954,401
154.979,386
155.004,385
155.029,400
155.054,413
155.079,410
155.104,394
155.129,378
155.154,367
155.179,355
155.204,336
155.229,310
155.254,287
155.279,273
155.304,261
155.329,242
155.354,215
155.379,188
155.404,167
155.429,148
155.454,122
155.479,92
155.504,66
155.529,50
155.554,32
155.579,-2
155.604,-49
155.629,-79
155.654,-56
155.679,23
155.704,125
155.729,205
155.754,245
155.779,261
155.804,285
155.829,323
155.854,357
155.879,369
155.904,357
155.929,343
155.954,345
155.979,360
156.004,374
156.029,377
156.054,369
156.079,356
156.104,341
156.129,324
156.154,305
156.179,286
156.204,270
156.229,253
156.254,233
156.279,211
156.304,192
156.329,177
156.354,158
156.379,130
156.404,99
156.429,75
156.454,62
156.479,49
156.504,19
156.529,-22
156.554,-46
156.579,-20
156.604,62
156.629,171
156.654,261
156.679,307
156.704,321
156.729,330
156.754,353
156.779,381
156.804,396
156.829,394
156.854,384
156.879,382
156.904,391
156.929,402
156.954,404
156.979,393
157.004,378
157.029,363
157.054,348
157.079,329
157.104,306
157.129,285
157.154,269
157.179,255
157.204,237
157.229,214
157.254,191
157.279,171
157.304,152
157.329,129
157.354,96
157.379,63
157.404,37
157.429,22
157.454,3
157.479,-29
157.504,-71
157.529,-97
157.554,-76
157.579,-3
157.604,96
157.629,186
157.654,242
157.679,271
157.704,293
157.729,325
157.754,363
157.779,394
157.804,405
157.829,400
157.854,391
157.879,390
157.904,398
157.929,408
157.954,413
157.979,408
158.004,394
158.029,374
158.054,354
158.079,336
158.104,318
158.129,299
158.154,277
158.179,254
158.204,230
158.229,208
158.254,189
158.279,169
158.304,143
158.329,110
158.354,75
158.379,46
158.404,24
158.429,3
158.454,-27
158.479,-66
158.504,-89
158.529,-71
158.554,0
158.579,101
158.604,193
158.629,248
158.654,271
158.679,291
158.704,326
158.729,370
158.754,400
158.779,404
158.804,392
158.829,385
158.854,394
158.879,409
158.904,416
158.929,408
158.954,395
158.979,382
159.004,368
159.029,350
159.054,326
159.079,303
159.104,285
159.129,269
159.154,248
159.179,222
159.204,199
159.229,182
159.254,164
159.279,138
159.304,105
159.329,75
159.354,54
159.379,33
159.404,0
159.429,-40
159.454,-63
159.479,-35
159.504,44
159.529,145
159.554,224
159.579,264
159.604,278
159.629,293
159.654,320
159.679,346
159.704,357
159.729,351
159.754,342
159.779,342
159.804,351
159.829,359
159.854,360
159.879,353
159.904,342
159.929,328
159.954,312
159.979,293
160.004,274
160.029,255
160.054,235
160.079,214
160.104,193
160.129,171
160.154,148
160.179,124
160.204,103
160.229,85
160.254,66
160.279,37
160.304,-2
160.329,-36
160.354,-32
160.379,26
160.404,124
160.429,221
160.454,282
160.479,305
160.504,316
160.529,339
160.554,373
160.579,398
160.604,400
160.629,386
160.654,377
160.679,384
160.704,397
160.729,402
160.754,394
160.779,379
160.804,364
160.829,348
160.854,327
160.879,303
160.904,282
160.929,266
160.954,249
160.979,225
161.004,195
161.029,165
161.054,140
161.079,117
161.104,90
161.129,60
161.154,33
161.179,11
161.204,-15
161.229,-54
161.254,-94
161.279,-107
161.304,-66
161.329,24
161.354,132
161.379,215
161.404,259
161.429,278
161.454,303
161.479,343
161.504,387
161.529,415
161.554,417
161.579,406
161.604,397
161.629,398
161.654,407
161.679,412
161.704,408
161.729,398
161.754,385
161.779,371
161.804,353
161.829,331
161.854,308
161.879,287
161.904,270
161.929,251
161.954,229
161.979,205
162.004,183
162.029,163
162.054,142
162.079,114
162.104,80
162.129,50
162.154,28
162.179,6
162.204,-28
162.229,-73
162.254,-107
162.279,-95
162.304,-26
162.329,79
162.354,179
162.379,241
162.404,268
162.429,285
162.454,314
162.479,356
162.504,393
162.529,410
162.554,407
162.579,398
162.604,398
162.629,407
162.654,417
162.679,417
162.704,405
162.729,386
162.754,369
162.779,354
162.804,339
162.829,319
162.854,296
162.879,275
162.904,260
162.929,248
162.954,232
162.979,210
163.004,185
163.029,163
163.054,142
163.079,117
163.104,88
163.129,61
163.154,41
163.179,22
163.204,-6
163.229,-48
163.254,-80
163.279,-72
163.304,-8
163.329,90
163.354,182
163.379,238
163.404,263
163.429,282
163.454,315
163.479,354
163.504,381
163.529,386
163.554,376
163.579,370
163.604,374
163.629,384
163.654,389
163.679,386
163.704,378
163.729,368
163.754,359
163.779,345
163.804,326
163.829,305
163.854,285
163.879,267
163.904,251
163.929,234
163.954,215
163.979,196
164.004,177
164.029,156
164.054,134
164.079,110
164.104,91
164.129,75
164.154,55
164.179,22
164.204,-17
164.229,-40
164.254,-22
164.279,45
164.304,139
164.329,219
164.354,263
164.379,278
164.404,291
164.429,316
164.454,344
164.479,359
164.504,353
164.529,341
164.554,340
164.579,355
164.604,373
164.629,382
164.654,378
164.679,366
164.704,352
164.729,335
164.754,313
164.779,290
164.804,271
164.829,255
164.854,240
164.879,220
164.904,198
164.929,178
164.954,160
164.979,140
165.004,116
165.029,89
165.054,61
165.079,30
165.104,-4
165.129,-36
165.154,-45
165.179,-10
165.204,64
165.229,153
165.254,223
165.279,259
165.304,278
165.329,301
165.354,340
165.379,378
165.404,399
165.429,397
165.454,385
165.479,379
165.504,383
165.529,391
165.554,393
165.579,389
165.604,380
165.629,368
165.654,350
165.679,326
165.704,301
165.729,281
165.754,264
165.779,246
165.804,223
165.829,198
165.854,175
165.879,152
165.904,125
165.929,93
165.954,62
165.979,38
166.004,19
166.029,-6
166.054,-46
166.079,-82
166.104,-84
166.129,-31
166.154,64
166.179,163
166.204,230
166.229,262
166.254,280
166.279,311
166.304,356
166.329,394
166.354,408
166.379,400
166.404,386
166.429,383
166.454,394
166.479,406
166.504,411
166.529,405
166.554,393
166.579,378
166.604,358
166.629,333
166.654,306
166.679,283
166.704,263
166.729,246
166.754,228
166.779,208
166.804,185
166.829,160
166.854,129
166.879,96
166.904,66
166.929,44
166.954,23
166.979,-5
167.004,-46
167.029,-82
167.054,-86
167.079,-36
167.104,58
167.129,161
167.154,236
167.179,272
167.204,291
167.229,316
167.254,355
167.279,392
167.304,407
167.329,400
167.354,387
167.379,386
167.404,397
167.429,408
167.454,408
167.479,398
167.504,385
167.529,372
167.554,355
167.579,332
167.604,305
167.629,282
167.654,262
167.679,241
167.704,217
167.729,193
167.754,174
167.779,157
167.804,135
167.829,105
167.854,74
167.879,49
167.904,27
167.929,-3
167.954,-46
167.979,-78
168.004,-63
168.029,9
168.054,118
168.079,215
168.104,270
168.129,287
168.154,297
168.179,321
168.204,353
168.229,374
168.254,376
168.279,367
168.304,364
168.329,370
168.354,379
168.379,382
168.404,376
168.429,365
168.454,349
168.479,330
168.504,308
168.529,286
168.554,263
168.579,241
168.604,217
168.629,196
168.654,180
168.679,165
168.704,144
168.729,113
168.754,81
168.779,54
168.804,32
168.829,4
168.854,-33
168.879,-65
168.904,-59
168.929,4
168.954,109
168.979,211
169.004,277
169.029,304
169.054,320
169.079,348
169.104,387
169.129,415
169.154,419
169.179,407
169.204,398
169.229,402
169.254,413
169.279,418
169.304,412
169.329,399
169.354,383
169.379,365
169.404,342
169.429,315
169.454,289
169.479,267
169.504,245
169.529,219
169.554,192
169.579,169
169.604,149
169.629,129
169.654,101
169.679,69
169.704,40
169.729,20
169.754,0
169.779,-33
169.804,-79
169.829,-113
169.854,-100
169.879,-25
169.904,87
169.929,192
169.954,256
169.979,280
170.004,294
170.029,321
170.054,362
170.079,396
170.104,407
170.129,400
170.154,393
170.179,396
170.204,407
170.229,412
170.254,407
170.279,396
170.304,385
170.329,371
170.354,349
170.379,319
170.404,289
170.429,269
170.454,255
170.479,241
170.504,220
170.529,193
170.554,167
170.579,142
170.604,115
170.629,84
170.654,56
170.679,36
170.704,16
170.729,-14
170.754,-56
170.779,-82
170.804,-58
170.829,24
170.854,137
170.879,230
170.904,275
170.929,287
170.954,302
170.979,339
171.004,384
171.029,409
171.054,403
171.079,386
171.104,378
171.129,386
171.154,397
171.179,399
171.204,392
171.229,383
171.254,373
171.279,357
171.304,331
171.329,304
171.354,284
171.379,270
171.404,254
171.429,229
171.454,202
171.479,180
171.504,163
171.529,141
171.554,111
171.579,81
171.604,60
171.629,42
171.654,14
171.679,-28
171.704,-65
171.729,-60
171.754,1
171.779,100
171.804,194
171.829,253
171.854,279
171.879,296
171.904,317
171.929,340
171.954,352
171.979,348
172.004,337
172.029,332
172.054,336
172.079,346
172.104,354
172.129,355
172.154,347
172.179,333
172.204,316
172.229,299
172.254,280
172.279,258
172.304,235
172.329,213
172.354,197
172.379,182
172.404,163
172.429,137
172.454,113
172.479,97
172.504,82
172.529,55
172.554,14
172.579,-14
172.604,0
172.629,71
172.654,171
172.679,254
172.704,293
172.729,304
172.754,317
172.779,349
172.804,385
172.829,402
172.854,393
172.879,377
172.904,373
172.929,384
172.954,394
172.979,393
173.004,380
173.029,363
173.054,346
173.079,327
173.104,304
173.129,280
173.154,259
173.179,238
173.204,213
173.229,187
173.254,165
173.279,149
173.304,134
173.329,111
173.354,79
173.379,47
173.404,23
173.429,1
173.454,-30
173.479,-67
173.504,-85
173.529,-55
173.554,24
173.579,124
173.604,203
173.629,243
173.654,261
173.679,287
173.704,330
173.729,373
173.754,398
173.779,399
173.804,391
173.829,389
173.854,395
173.879,400
173.904,398
173.929,392
173.954,384
173.979,373
174.004,355
174.029,330
174.054,304
174.079,284
174.104,267
174.129,248
174.154,228
174.179,209
174.204,193
174.229,175
174.254,146
174.279,108
174.304,73
174.329,50
174.354,34
174.379,8
174.404,-31
174.429,-67
174.454,-67
174.479,-13
174.504,78
174.529,168
174.554,228
174.579,257
174.604,280
174.629,316
174.654,361
174.679,397
174.704,409
174.729,402
174.754,394
174.779,398
174.804,411
174.829,420
174.854,416
174.879,402
174.904,386
174.929,372
174.954,355
174.979,332
175.004,304
175.029,278
175.054,257
175.079,241
175.104,224
175.129,205
175.154,184
175.179,161
175.204,134
175.229,102
175.254,70
175.279,44
175.304,21
175.329,-6
175.354,-42
175.379,-73
175.404,-69
175.429,-13
175.454,78
175.479,170
175.504,228
175.529,252
175.554,267
175.579,294
175.604,332
175.629,360
175.654,365
175.679,352
175.704,342
175.729,346
175.754,362
175.779,376
175.804,378
175.829,369
175.854,352
175.879,334
175.904,316
175.929,298
175.954,279
175.979,259
176.004,238
176.029,218
176.054,198
176.079,178
176.104,155
176.129,130
176.154,109
176.179,91
176.204,69
176.229,33
176.254,-9
176.279,-33
176.304,-9
176.329,65
176.354,163
176.379,243
176.404,286
176.429,306
176.454,330
176.479,367
176.504,399
176.529,407
176.554,392
176.579,371
176.604,364
176.629,371
176.654,380
176.679,380
176.704,372
176.729,359
176.754,344
176.779,325
176.804,302
176.829,279
176.854,257
176.879,235
176.904,211
176.929,188
176.954,168
176.979,148
177.004,123
177.029,90
177.054,58
177.079,32
177.104,10
177.129,-20
177.154,-61
177.179,-91
177.204,-76
177.229,-3
177.254,103
177.279,200
177.304,256
177.329,278
177.354,295
177.379,327
177.404,364
177.429,388
177.454,392
177.479,385
177.504,383
177.529,390
177.554,397
177.579,399
177.604,396
177.629,387
177.654,373
177.679,352
177.704,326
177.729,302
177.754,285
177.779,267
177.804,244
177.829,216
177.854,193
177.879,176
177.904,158
177.929,130
177.954,93
177.979,62
178.004,41
178.029,22
178.054,-10
178.079,-52
178.104,-71
178.129,-35
178.154,54
178.179,160
178.204,238
178.229,276
178.254,294
178.279,322
178.304,363
178.329,399
178.354,409
178.379,396
178.404,380
178.429,376
178.454,381
178.479,386
178.504,383
178.529,371
178.554,356
178.579,339
178.604,321
178.629,303
178.654,285
178.679,266
178.704,244
178.729,217
178.754,192
178.779,170
178.804,149
178.829,127
178.854,104
178.879,83
178.904,63
178.929,36
178.954,-1
178.979,-36
179.004,-42
179.029,2
179.054,90
179.079,187
179.104,255
179.129,285
179.154,295
179.179,308
179.204,330
179.229,349
179.254,352
179.279,341
179.304,329
179.329,328
179.354,337
179.379,344
179.404,342
179.429,332
179.454,319
179.479,303
179.504,284
179.529,260
179.554,237
179.579,218
179.604,204
179.629,192
179.654,173
179.679,149
179.704,126
179.729,108
179.754,93
179.779,69
179.804,32
179.829,-4
179.854,-12
179.879,29
179.904,114
179.929,207
179.954,273
179.979,301
180.004,312
180.029,330
180.054,362
180.079,392
180.104,402
180.129,391
180.154,377
180.179,375
180.204,384
180.229,392
180.254,389
180.279,376
180.304,359
180.329,343
180.354,325
180.379,303
180.404,277
180.429,253
180.454,231
180.479,210
180.504,188
180.529,165
180.554,139
180.579,109
180.604,79
180.629,52
180.654,32
180.679,11
180.704,-18
180.729,-58
180.754,-87
180.779,-74
180.804,-6
180.829,96
180.854,195
180.879,256
180.904,281
180.929,297
180.954,325
180.979,364
181.004,394
181.029,403
181.054,395
181.079,387
181.104,387
181.129,390
181.154,390
181.179,384
181.204,377
181.229,370
181.254,355
181.279,331
181.304,302
181.329,277
181.354,259
181.379,242
181.404,220
181.429,194
181.454,170
181.479,150
181.504,130
181.529,105
181.554,78
181.579,55
181.604,35
181.629,7
181.654,-32
181.679,-67
181.704,-62
181.729,0
181.754,104
181.779,204
181.804,264
181.829,284
181.854,296
181.879,326
181.904,370
181.929,405
181.954,414
181.979,403
182.004,392
182.029,391
182.054,398
182.079,401
182.104,396
182.129,386
182.154,372
182.179,354
182.204,330
182.229,307
182.254,288
182.279,272
182.304,252
182.329,226
182.354,201
182.379,183
182.404,172
182.429,155
182.454,124
182.479,87
182.504,57
182.529,38
182.554,16
182.579,-19
182.604,-59
182.629,-70
182.654,-27
182.679,63
182.704,162
182.729,228
182.754,256
182.779,270
182.804,295
182.829,333
182.854,364
182.879,371
182.904,360
182.929,349
182.954,351
182.979,361
183.004,367
183.029,364
183.054,353
183.079,342
183.104,331
183.129,317
183.154,299
183.179,280
183.204,263
183.229,246
183.254,227
183.279,206
183.304,187
183.329,170
183.354,154
183.379,135
183.404,114
183.429,90
183.454,62
183.479,25
183.504,-12
183.529,-33
183.554,-14
183.579,53
183.604,146
183.629,230
183.654,280
183.679,301
183.704,317
183.729,343
183.754,375
183.779,394
183.804,392
183.829,380
183.854,374
183.879,380
183.904,392
183.929,397
183.954,390
183.979,376
184.004,359
184.029,342
184.054,322
184.079,302
184.104,282
184.129,262
184.154,240
184.179,216
184.204,192
184.229,172
184.254,152
184.279,128
184.304,95
184.329,60
184.354,32
184.379,11
184.404,-12
184.429,-49
184.454,-91
184.479,-105
184.504,-65
184.529,28
184.554,140
184.579,226
184.604,268
184.629,283
184.654,303
184.679,343
184.704,389
184.729,416
184.754,416
184.779,400
184.804,392
184.829,399
184.854,412
184.879,416
184.904,406
184.929,389
184.954,373
184.979,358
185.004,338
185.029,312
185.054,285
185.079,265
185.104,249
185.129,232
185.154,210
185.179,187
185.204,166
185.229,146
185.254,120
185.279,88
185.304,55
185.329,31
185.354,13
185.379,-12
185.404,-51
185.429,-89
185.454,-92
185.479,-38
185.504,63
185.529,170
185.554,246
185.579,281
185.604,298
185.629,324
185.654,365
185.679,403
185.704,420
185.729,414
185.754,400
185.779,395
185.804,403
185.829,415
185.854,420
185.879,416
185.904,406
185.929,393
185.954,376
185.979,355
186.004,330
186.029,303
186.054,279
186.079,257
186.104,235
186.129,211
186.154,190
186.179,173
186.204,157
186.229,136
186.254,106
186.279,73
186.304,45
186.329,25
186.354,3
186.379,-31
186.404,-75
186.429,-99
186.454,-71
186.479,12
186.504,123
186.529,214
186.554,261
186.579,277
186.604,291
186.629,320
186.654,353
186.679,371
186.704,368
186.729,357
186.754,358
186.779,372
186.804,388
186.829,393
186.854,387
186.879,376
186.904,365
186.929,352
186.954,333
186.979,310
187.004,286
187.029,263
187.054,242
187.079,220
187.104,200
187.129,182
187.154,161
187.179,134
187.204,104
187.229,78
187.254,58
187.279,34
187.304,-2
187.329,-44
187.354,-62
187.379,-28
187.404,58
187.429,164
187.454,248
187.479,291
187.504,307
187.529,323
187.554,351
187.579,380
187.604,392
187.629,388
187.654,379
187.679,380
187.704,389
187.729,396
187.754,394
187.779,385
187.804,373
187.829,360
187.854,342
187.879,319
187.904,294
187.929,271
187.954,252
187.979,231
188.004,207
188.029,183
188.054,161
188.079,140
188.104,115
188.129,87
188.154,60
188.179,40
188.204,20
188.229,-10
188.254,-54
188.279,-91
188.304,-88
188.329,-27
188.354,77
188.379,183
188.404,254
188.429,285
188.454,300
188.479,323
188.504,360
188.529,393
188.554,404
188.579,396
188.604,385
188.629,385
188.654,396
188.679,405
188.704,404
188.729,395
188.754,383
188.779,371
188.804,355
188.829,332
188.854,307
188.879,283
188.904,263
188.929,244
188.954,222
188.979,200
189.004,179
189.029,157
189.054,130
189.079,98
189.104,69
189.129,47
189.154,24
189.179,-9
189.204,-54
189.229,-85
189.254,-69
189.279,6
189.304,115
189.329,212
189.354,267
189.379,288
189.404,302
189.429,328
189.454,360
189.479,378
189.504,374
189.529,360
189.554,352
189.579,357
189.604,367
189.629,372
189.654,369
189.679,360
189.704,346
189.729,329
189.754,309
189.779,288
189.804,269
189.829,250
189.854,229
189.879,208
189.904,190
189.929,174
189.954,154
189.979,128
190.004,103
190.029,87
190.054,76
190.079,56
190.104,20
190.129,-12
190.154,-9
190.179,47
190.204,144
190.229,236
190.254,294
190.279,316
190.304,328
190.329,345
190.354,363
190.379,366
190.404,353
190.429,338
190.454,336
190.479,347
190.504,360
190.529,364
190.554,357
190.579,345
190.604,330
190.629,312
190.654,290
190.679,268
190.704,249
190.729,230
190.754,211
190.779,189
190.804,168
190.829,147
190.854,126
190.879,106
190.904,90
190.929,74
190.954,50
190.979,11
191.004,-29
191.029,-45
191.054,-9
191.079,77
191.104,179
191.129,255
191.154,288
191.179,299
191.204,315
191.229,345
191.254,375
191.279,387
191.304,382
191.329,372
191.354,369
191.379,373
191.404,375
191.429,371
191.454,361
191.479,349
191.504,334
191.529,315
191.554,294
191.579,274
191.604,256
191.629,236
191.654,214
191.679,192
191.704,173
191.729,155
191.754,133
191.779,105
191.804,80
191.829,62
191.854,42
191.879,10
191.904,-32
191.929,-58
191.954,-34
191.979,46
192.004,153
192.029,237
192.054,275
192.079,285
192.104,300
192.129,335
192.154,375
192.179,396
192.204,392
192.229,378
192.254,372
192.279,378
192.304,384
192.329,382
192.354,372
192.379,360
192.404,348
192.429,333
192.454,314
192.479,293
192.504,272
192.529,250
192.554,226
192.579,202
192.604,182
192.629,165
192.654,144
192.679,116
192.704,89
192.729,67
192.754,51
192.779,26
192.804,-14
192.829,-53
192.854,-57
192.879,-5
192.904,87
192.929,182
192.954,243
192.979,271
193.004,288
193.029,317
193.054,353
193.079,377
193.104,380
193.129,371
193.154,365
193.179,367
193.204,373
193.229,375
193.254,371
193.279,363
193.304,351
193.329,334
193.354,313
193.379,293
193.404,278
193.429,263
193.454,243
193.479,220
193.504,197
193.529,179
193.554,159
193.579,133
193.604,105
193.629,82
193.654,64
193.679,40
193.704,5
193.729,-27
193.754,-27
193.779,27
193.804,124
193.829,219
193.854,277
193.879,297
193.904,306
193.929,328
193.954,358
193.979,378
194.004,374
194.029,357
194.054,346
194.079,351
194.104,363
194.129,368
194.154,362
194.179,349
194.204,335
194.229,322
194.254,307
194.279,286
194.304,262
194.329,236
194.354,212
194.379,192
194.404,174
194.429,155
194.454,131
194.479,104
194.504,81
194.529,62
194.554,39
194.579,4
194.604,-34
194.629,-50
194.654,-15
194.679,69
194.704,170
194.729,244
194.754,277
194.779,291
194.804,314
194.829,354
194.854,390
194.879,401
194.904,388
194.929,371
194.954,368
194.979,378
195.004,387
195.029,386
195.054,376
195.079,364
195.104,350
195.129,331
195.154,310
195.179,290
195.204,272
195.229,250
195.254,221
195.279,190
195.304,165
195.329,147
195.354,128
195.379,102
195.404,71
195.429,45
195.454,25
195.479,0
195.504,-37
195.529,-75
195.554,-78
195.579,-24
195.604,75
195.629,177
195.654,243
195.679,271
195.704,287
195.729,317
195.754,361
195.779,396
195.804,405
195.829,392
195.854,379
195.879,379
195.904,390
195.929,398
195.954,397
195.979,387
196.004,374
196.029,358
196.054,339
196.079,319
196.104,301
196.129,285
196.154,267
196.179,244
196.204,219
196.229,197
196.254,180
196.279,160
196.304,131
196.329,94
196.354,62
196.379,41
196.404,24
196.429,-3
196.454,-42
196.479,-70
196.504,-56
196.529,10
196.554,107
196.579,193
196.604,245
196.629,269
196.654,287
196.679,317
196.704,354
196.729,381
196.754,388
196.779,381
196.804,372
196.829,370
196.854,376
196.879,386
196.904,394
196.929,396
196.954,386
196.979,361
197.004,329
197.029,301
197.054,284
197.079,271
197.104,254
197.129,228
197.154,202
197.179,184
197.204,174
197.229,161
197.254,135
197.279,104
197.304,79
197.329,62
197.354,42
197.379,6
197.404,-32
197.429,-45
197.454,-4
197.479,82
197.504,179
197.529,246
197.554,275
197.579,287
197.604,306
197.629,333
197.654,354
197.679,356
197.704,343
197.729,333
197.754,338
197.779,353
197.804,365
197.829,365
197.854,356
197.879,344
197.904,332
197.929,318
197.954,300
197.979,279
198.004,256
198.029,233
198.054,212
198.079,192
198.104,173
198.129,152
198.154,129
198.179,108
198.204,90
198.229,72
198.254,42
198.279,0
198.304,-37
198.329,-42
198.354,4
198.379,94
198.404,192
198.429,260
198.454,289
198.479,299
198.504,316
198.529,349
198.554,383
198.579,399
198.604,393
198.629,379
198.654,373
198.679,379
198.704,388
198.729,386
198.754,373
198.779,355
198.804,338
198.829,323
198.854,306
198.879,288
198.904,270
198.929,255
198.954,240
198.979,220
199.004,198
199.029,176
199.054,158
199.079,137
199.104,108
199.129,75
199.154,46
199.179,27
199.204,9
199.229,-19
199.254,-59
199.279,-87
199.304,-69
199.329,3
199.354,107
199.379,198
199.404,252
199.429,277
199.454,297
199.479,331
199.504,372
199.529,400
199.554,405
199.579,396
199.604,388
199.629,390
199.654,398
199.679,404
199.704,404
199.729,398
199.754,387
199.779,374
199.804,359
199.829,341
199.854,321
199.879,300
199.904,278
199.929,259
199.954,244
199.979,231
200.004,214
200.029,190
200.054,160
200.079,129
200.104,102
200.129,80
200.154,62
200.179,43
200.204,14
200.229,-25
200.254,-67
200.279,-86
200.304,-58
200.329,20
200.354,125
200.379,213
200.404,260
200.429,276
200.454,290
200.479,320
200.504,359
200.529,383
200.554,380
200.579,362
200.604,351
200.629,358
200.654,373
200.679,380
200.704,374
200.729,364
200.754,354
200.779,343
200.804,326
200.829,303
200.854,281
200.879,264
200.904,248
200.929,228
200.954,206
200.979,187
201.004,173
201.029,159
201.054,138
201.079,112
201.104,90
201.129,73
201.154,53
201.179,21
201.204,-12
201.229,-17
201.254,29
201.279,119
201.304,212
201.329,271
201.354,291
201.379,299
201.404,318
201.429,348
201.454,370
201.479,370
201.504,356
201.529,348
201.554,354
201.579,367
201.604,373
201.629,367
201.654,355
201.679,342
201.704,327
201.729,308
201.754,286
201.779,265
201.804,247
201.829,228
201.854,206
201.879,182
201.904,162
201.929,143
201.954,123
201.979,100
202.004,78
202.029,58
202.054,33
202.079,-3
202.104,-44
202.129,-59
202.154,-21
202.179,68
202.204,175
202.229,254
202.254,288
202.279,298
202.304,314
202.329,347
202.354,381
202.379,394
202.404,386
202.429,374
202.454,375
202.479,387
202.504,395
202.529,390
202.554,375
202.579,360
202.604,347
202.629,332
202.654,313
202.679,289
202.704,266
202.729,244
202.754,223
202.779,203
202.804,184
202.829,165
202.854,142
202.879,114
202.904,85
202.929,62
202.954,44
202.979,17
203.004,-24
203.029,-66
203.054,-77
203.079,-31
203.104,60
203.129,162
203.154,233
203.179,265
203.204,281
203.229,307
203.254,348
203.279,385
203.304,401
203.329,395
203.354,383
203.379,380
203.404,386
203.429,392
203.454,390
203.479,380
203.504,368
203.529,356
203.554,343
203.579,326
203.604,304
203.629,280
203.654,254
203.679,230
203.704,209
203.729,191
203.754,174
203.779,154
203.804,128
203.829,101
203.854,78
203.879,57
203.904,32
203.929,-3
203.954,-42
203.979,-59
204.004,-29
204.029,46
204.054,142
204.079,221
204.104,264
204.129,281
204.154,296
204.179,325
204.204,360
204.229,382
204.254,382
204.279,369
204.304,361
204.329,364
204.354,372
204.379,374
204.404,366
204.429,352
204.454,339
204.479,326
204.504,310
204.529,291
204.554,271
204.579,250
204.604,230
204.629,210
204.654,192
204.679,180
204.704,169
204.729,152
204.754,127
204.779,100
204.804,79
204.829,63
204.854,43
204.879,10
204.904,-20
204.929,-18
204.954,36
204.979,129
205.004,221
205.029,277
205.054,297
205.079,306
205.104,325
205.129,352
205.154,370
205.179,368
205.204,357
205.229,354
205.254,362
205.279,373
205.304,375
205.329,367
205.354,357
205.379,348
205.404,335
205.429,316
205.454,292
205.479,270
205.504,253
205.529,237
205.554,218
205.579,196
205.604,174
205.629,152
205.654,125
205.679,97
205.704,72
205.729,54
205.754,34
205.779,2
205.804,-36
205.829,-56
205.854,-27
205.879,53
205.904,154
205.929,232
205.954,268
205.979,279
206.004,297
206.029,335
206.054,375
206.079,395
206.104,388
206.129,371
206.154,362
206.179,366
206.204,375
206.229,379
206.254,374
206.279,365
206.304,353
206.329,335
206.354,313
206.379,288
206.404,267
206.429,248
206.454,229
206.479,209
206.504,191
206.529,174
206.554,155
206.579,130
206.604,101
206.629,75
206.654,53
206.679,28
206.704,-6
206.729,-47
206.754,-65
206.779,-35
206.804,46
206.829,148
206.854,228
206.879,266
206.904,278
206.929,296
206.954,332
206.979,372
207.004,393
207.029,387
207.054,372
207.079,368
207.104,380
207.129,396
207.154,401
207.179,392
207.204,377
207.229,362
207.254,348
207.279,329
207.304,308
207.329,288
207.354,270
207.379,251
207.404,228
207.429,206
207.454,186
207.479,166
207.504,139
207.529,107
207.554,76
207.579,54
207.604,36
207.629,7
207.654,-31
207.679,-58
207.704,-40
207.729,31
207.754,128
207.779,206
207.804,243
207.829,257
207.854,278
207.879,317
207.904,356
207.929,371
207.954,362
207.979,348
208.004,349
208.029,360
208.054,364
208.079,354
208.104,339
208.129,330
208.154,328
208.179,323
208.204,306
208.229,283
208.254,264
208.279,251
208.304,239
208.329,221
208.354,201
208.379,182
208.404,162
208.429,140
208.454,116
208.479,97
208.504,81
208.529,57
208.554,20
208.579,-15
208.604,-18
208.629,30
208.654,121
208.679,213
208.704,271
208.729,294
208.754,308
208.779,332
208.804,364
208.829,382
208.854,378
208.879,363
208.904,355
208.929,360
208.954,369
208.979,373
209.004,370
209.029,362
209.054,352
209.079,336
209.104,312
209.129,285
209.154,261
209.179,242
209.204,225
209.229,207
209.254,189
209.279,169
209.304,146
209.329,118
209.354,89
209.379,66
209.404,46
209.429,20
209.454,-21
209.479,-63
209.504,-76
209.529,-33
209.554,58
209.579,162
209.604,237
209.629,272
209.654,287
209.679,310
209.704,347
209.729,381
209.754,396
209.779,391
209.804,380
209.829,377
209.854,383
209.879,388
209.904,387
209.929,379
209.954,368
209.979,354
210.004,335
210.029,314
210.054,295
210.079,279
210.104,262
210.129,239
210.154,212
210.179,187
210.204,167
210.229,148
210.254,122
210.279,89
210.304,59
210.329,34
210.354,10
210.379,-23
210.404,-62
210.429,-81
210.454,-50
210.479,32
210.504,140
210.529,227
210.554,274
210.579,291
210.604,309
210.629,342
210.654,379
210.679,399
210.704,398
210.729,388
210.754,388
210.779,399
210.804,410
210.829,409
210.854,397
210.879,381
210.904,368
210.929,355
210.954,338
210.979,316
211.004,293
211.029,273
211.054,252
211.079,229
211.104,205
211.129,183
211.154,162
211.179,137
211.204,108
211.229,78
211.254,53
211.279,29
211.304,-4
211.329,-45
211.354,-74
211.379,-63
211.404,0
211.429,96
211.454,188
211.479,248
211.504,274
211.529,288
211.554,309
211.579,337
211.604,357
211.629,360
211.654,350
211.679,339
211.704,338
211.729,347
211.754,356
211.779,358
211.804,349
211.829,334
211.854,320
211.879,311
211.904,299
211.929,278
211.954,248
211.979,218
212.004,198
212.029,188
212.054,178
212.079,159
212.104,132
212.129,106
212.154,85
212.179,59
212.204,22
212.229,-12
212.254,-15
212.279,35
212.304,126
212.329,218
212.354,277
212.379,299
212.404,309
212.429,331
212.454,361
212.479,380
212.504,378
212.529,364
212.554,358
212.579,365
212.604,376
212.629,377
212.654,367
212.679,352
212.704,340
212.729,327
212.754,308
212.779,284
212.804,256
212.829,231
212.854,209
212.879,188
212.904,165
212.929,141
212.954,115
212.979,90
213.004,67
213.029,45
213.054,18
213.079,-19
213.104,-58
213.129,-71
213.154,-36
213.179,48
213.204,152
213.229,234
213.254,277
213.279,295
213.304,314
213.329,349
213.354,385
213.379,403
213.404,397
213.429,381
213.454,376
213.479,383
213.504,393
213.529,395
213.554,385
213.579,370
213.604,353
213.629,336
213.654,314
213.679,289
213.704,263
213.729,236
213.754,210
213.779,186
213.804,164
213.829,141
213.854,115
213.879,88
213.904,66
213.929,49
213.954,26
213.979,-9
214.004,-53
214.029,-74
214.054,-43
214.079,42
214.104,150
214.129,235
214.154,279
214.179,295
214.204,313
214.229,345
214.254,379
214.279,397
214.304,396
214.329,389
214.354,390
214.379,396
214.404,401
214.429,397
214.454,387
214.479,375
214.504,358
214.529,336
214.554,311
214.579,289
214.604,270
214.629,251
214.654,228
214.679,203
214.704,180
214.729,159
214.754,135
214.779,107
214.804,80
214.829,59
214.854,39
214.879,6
214.904,-38
214.929,-70
214.954,-56
214.979,17
215.004,124
215.029,216
215.054,264
215.079,278
215.104,288
215.129,314
215.154,346
215.179,364
215.204,360
215.229,347
215.254,344
215.279,356
215.304,372
215.329,378
215.354,369
215.379,351
215.404,332
215.429,318
215.454,304
215.479,285
215.504,259
215.529,232
215.554,208
215.579,186
215.604,163
215.629,139
215.654,117
215.679,102
215.704,88
215.729,63
215.754,23
215.779,-17
215.804,-26
215.829,17
215.854,105
215.879,199
215.904,262
215.929,291
215.954,305
215.979,328
216.004,358
216.029,380
216.054,382
216.079,371
216.104,363
216.129,366
216.154,375
216.179,378
216.204,371
216.229,358
216.254,341
216.279,324
216.304,304
216.329,281
216.354,257
216.379,232
216.404,208
216.429,188
216.454,172
216.479,156
216.504,134
216.529,104
216.554,73
216.579,49
216.604,25
216.629,-6
216.654,-44
216.679,-68
216.704,-45
216.729,31
216.754,135
216.779,223
216.804,270
216.829,289
216.854,311
216.879,348
216.904,389
216.929,408
216.954,402
216.979,386
217.004,379
217.029,385
217.054,393
217.079,393
217.104,382
217.129,367
217.154,349
217.179,329
217.204,307
217.229,286
217.254,267
217.279,246
217.304,223
217.329,202
217.354,185
217.379,170
217.404,149
217.429,117
217.454,81
217.479,54
217.504,37
217.529,14
217.554,-20
217.579,-54
217.604,-52
217.629,5
217.654,103
217.679,196
217.704,250
217.729,269
217.754,283
217.779,314
217.804,354
217.829,379
217.854,379
217.879,363
217.904,353
217.929,354
217.954,359
217.979,359
218.004,351
218.029,340
218.054,326
218.079,306
218.104,283
218.129,261
218.154,244
218.179,227
218.204,207
218.229,185
218.254,172
218.279,169
218.304,168
218.329,158
218.354,138
218.379,116
218.404,97
218.429,77
218.454,46
218.479,15
218.504,10
218.529,53
218.554,135
218.579,220
218.604,275
218.629,297
218.654,309
218.679,332
218.704,361
218.729,379
218.754,374
218.779,359
218.804,350
218.829,355
218.854,364
218.879,364
218.904,350
218.929,331
218.954,312
218.979,298
219.004,284
219.029,269
219.054,251
219.079,231
219.104,210
219.129,191
219.154,173
219.179,154
219.204,132
219.229,109
219.254,89
219.279,69
219.304,43
219.329,10
219.354,-16
219.379,-11
219.404,40
219.429,125
219.454,208
219.479,260
219.504,280
219.529,292
219.554,316
219.579,351
219.604,376
219.629,379
219.654,368
219.679,360
219.704,362
219.729,369
219.754,368
219.779,359
219.804,346
219.829,331
219.854,314
219.879,293
219.904,271
219.929,253
219.954,239
219.979,224
220.004,204
220.029,182
220.054,164
220.079,147
220.104,126
220.129,100
220.154,75
220.179,54
220.204,31
220.229,-1
220.254,-40
220.279,-58
220.304,-30
220.329,46
220.354,143
220.379,220
220.404,260
220.429,277
220.454,300
220.479,339
220.504,378
220.529,398
220.554,394
220.579,380
220.604,372
220.629,377
220.654,387
220.679,393
220.704,390
220.729,382
220.754,370
220.779,356
220.804,338
220.829,317
220.854,296
220.879,275
220.904,255
220.929,236
220.954,215
220.979,195
221.004,176
221.029,156
221.054,133
221.079,107
221.104,81
221.129,60
221.154,43
221.179,23
221.204,-9
221.229,-51
221.254,-82
221.279,-72
221.304,-11
221.329,82
221.354,173
221.379,233
221.404,264
221.429,287
221.454,321
221.479,362
221.504,392
221.529,399
221.554,390
221.579,382
221.604,385
221.629,398
221.654,409
221.679,411
221.704,403
221.729,390
221.754,376
221.779,361
221.804,346
221.829,329
221.854,311
221.879,293
221.904,276
221.929,261
221.954,246
221.979,227
222.004,204
222.029,180
222.054,157
222.079,135
222.104,110
222.129,81
222.154,54
222.179,31
222.204,7
222.229,-24
222.254,-62
222.279,-82
222.304,-59
222.329,14
222.354,114
222.379,200
222.404,249
222.429,267
222.454,281
222.479,308
222.504,343
222.529,366
222.554,369
222.579,360
222.604,358
222.629,367
222.654,380
222.679,386
222.704,381
222.729,370
222.754,357
222.779,345
222.804,330
222.829,313
222.854,295
222.879,278
222.904,263
222.929,247
222.954,227
222.979,208
223.004,190
223.029,173
223.054,153
223.079,128
223.104,103
223.129,84
223.154,69
223.179,46
223.204,11
223.229,-25
223.254,-36
223.279,1
223.304,84
223.329,180
223.354,251
223.379,284
223.404,295
223.429,311
223.454,341
223.479,370
223.504,380
223.529,368
223.554,352
223.579,352
223.604,370
223.629,389
223.654,394
223.679,383
223.704,365
223.729,349
223.754,337
223.779,321
223.804,301
223.829,278
223.854,259
223.879,242
223.904,225
223.929,208
223.954,189
223.979,169
224.004,146
224.029,117
224.054,86
224.079,61
224.104,43
224.129,26
224.154,-4
224.179,-48
224.204,-82
224.229,-76
224.254,-13
224.279,87
224.304,188
224.329,253
224.354,281
224.379,294
224.404,316
224.429,353
224.454,387
224.479,401
224.504,395
224.529,383
224.554,381
224.579,391
224.604,402
224.629,404
224.654,396
224.679,382
224.704,368
224.729,351
224.754,329
224.779,306
224.804,285
224.829,268
224.854,253
224.879,233
224.904,209
224.929,184
224.954,163
224.979,143
225.004,118
225.029,89
225.054,62
225.079,44
225.104,27
225.129,-2
225.154,-48
225.179,-92
225.204,-99
225.229,-47
225.254,52
225.279,159
225.304,236
225.329,273
225.354,290
225.379,312
225.404,344
225.429,376
225.454,393
225.479,395
225.504,391
225.529,393
225.554,400
225.579,410
225.604,415
225.629,414
225.654,407
225.679,393
225.704,373
225.729,351
225.754,330
225.779,310
225.804,292
225.829,273
225.854,255
225.879,237
225.904,219
225.929,198
225.954,175
225.979,147
226.004,115
226.029,84
226.054,58
226.079,38
226.104,18
226.129,-11
226.154,-53
226.179,-91
226.204,-95
226.229,-44
226.254,55
226.279,165
226.304,244
226.329,279
226.354,287
226.379,300
226.404,328
226.429,360
226.454,377
226.479,373
226.504,365
226.529,366
226.554,379
226.579,390
226.604,389
226.629,378
226.654,364
226.679,352
226.704,337
226.729,315
226.754,292
226.779,273
226.804,262
226.829,250
226.854,231
226.879,204
226.904,180
226.929,163
226.954,150
226.979,131
227.004,107
227.029,85
227.054,71
227.079,55
227.104,27
227.129,-10
227.154,-31
227.179,-2
227.204,81
227.229,188
227.254,274
227.279,317
227.304,332
227.329,344
227.354,370
227.379,399
227.404,412
227.429,406
227.454,394
227.479,393
227.504,405
227.529,420
227.554,426
227.579,420
227.604,407
227.629,393
227.654,378
227.679,360
227.704,336
227.729,307
227.754,277
227.779,250
227.804,229
227.829,213
227.854,198
227.879,179
227.904,156
227.929,133
227.954,114
227.979,98
228.004,86
228.029,75
228.054,61
228.079,41
228.104,13
228.129,-14
228.154,-25
228.179,-1
228.204,58
228.229,134
228.254,195
228.279,225
228.304,225
228.329,215
228.354,212
228.379,217
228.404,223
228.429,223
228.454,222
228.479,230
228.504,252
228.529,277
228.554,290
228.579,279
228.604,246
228.629,198
228.654,143
228.679,84
228.704,25
228.729,-16
228.754,-20
228.779,25
228.804,109
228.829,200
228.854,278
228.879,339
228.904,397
228.929,449
228.954,474
228.979,449
229.004,376
229.029,287
229.054,217
229.079,178
229.104,155
229.129,135
229.154,125
229.179,142
229.204,188
229.229,237
229.254,264
229.279,273
229.304,296
229.329,362
229.354,464
229.379,563
229.404,616
229.429,612
229.454,571
229.479,522
229.504,484
229.529,462
229.554,450
229.579,442
229.604,427
229.629,394
229.654,338
229.679,268
229.704,200
229.729,141
229.754,86
229.779,24
229.804,-44
229.829,-109
229.854,-150
229.879,-159
229.904,-144
229.929,-118
229.954,-90
229.979,-59
230.004,-30
230.029,-15
230.054,-29
230.079,-66
230.104,-92
230.129,-65
230.154,28
230.179,160
230.204,273
230.229,335
230.254,359
230.279,387
230.304,441
230.329,503
230.354,533
230.379,517
230.404,480
230.429,465
230.454,490
230.479,535
230.504,561
230.529,543
230.554,483
230.579,403
230.604,328
230.629,274
230.654,247
230.679,244
230.704,252
230.729,254
230.754,239
230.779,211
230.804,181
230.829,156
230.854,137
230.879,128
230.904,137
230.929,166
230.954,197
230.979,201
231.004,161
231.029,94
231.054,39
231.079,32
231.104,69
231.129,111
231.154,121
231.179,89
231.204,43
231.229,16
231.254,25
231.279,59
231.304,93
231.329,111
231.354,113
231.379,114
231.404,122
231.429,135
231.454,141
231.479,134
231.504,116
231.529,97
231.554,83
231.579,73
231.604,67
231.629,76
231.654,119
231.679,207
231.704,326
231.729,443
231.754,521
231.779,547
231.804,535
231.829,504
231.854,465
231.879,414
231.904,347
231.929,274
231.954,223
231.979,223
232.004,277
232.029,361
232.054,436
232.079,471
232.104,462
232.129,428
232.154,390
232.179,359
232.204,330
232.229,299
232.254,266
232.279,240
232.304,228
232.329,228
232.354,230
232.379,227
232.404,218
232.429,209
232.454,203
232.479,198
232.504,188
232.529,168
232.554,143
232.579,121
232.604,107
232.629,99
232.654,82
232.679,49
232.704,3
232.729,-33
232.754,-34
232.779,10
232.804,89
232.829,169
232.854,225
232.879,251
232.904,262
232.929,275
232.954,291
232.979,304
233.004,305
233.029,300
233.054,296
233.079,301
233.104,312
233.129,320
233.154,321
233.179,314
233.204,303
233.229,286
233.254,265
233.279,242
233.304,223
233.329,207
233.354,189
233.379,166
233.404,140
233.429,120
233.454,109
233.479,97
233.504,72
233.529,37
233.554,15
233.579,32
233.604,93
233.629,177
233.654,251
233.679,296
233.704,318
233.729,336
233.754,358
233.779,375
233.804,378
233.829,367
233.854,355
233.879,354
233.904,363
233.929,373
233.954,372
233.979,357
234.004,332
234.029,305
234.054,282
234.079,264
234.104,250
234.129,238
234.154,225
234.179,210
234.204,192
234.229,172
234.254,151
234.279,133
234.304,123
234.329,116
234.354,103
234.379,73
234.404,29
234.429,-2
234.454,6
234.479,64
234.504,152
234.529,232
234.554,280
234.579,299
234.604,307
234.629,322
234.654,339
234.679,350
234.704,347
234.729,339
234.754,335
234.779,339
234.804,345
234.829,340
234.854,317
234.879,278
234.904,233
234.929,195
234.954,169
234.979,148
235.004,126
235.029,101
235.054,86
235.079,97
235.104,136
235.129,185
235.154,213
235.179,202
235.204,152
235.229,80
235.254,7
235.279,-45
235.304,-62
235.329,-31
235.354,43
235.379,135
235.404,212
235.429,257
235.454,277
235.479,293
235.504,317
235.529,343
235.554,358
235.579,362
235.604,363
235.629,370
235.654,380
235.679,387
235.704,385
235.729,380
235.754,376
235.779,374
235.804,366
235.829,350
235.854,328
235.879,305
235.904,283
235.929,262
235.954,240
235.979,214
236.004,185
236.029,155
236.054,128
236.079,107
236.104,88
236.129,64
236.154,33
236.179,11
236.204,22
236.229,78
236.254,164
236.279,245
236.304,296
236.329,319
236.354,337
236.379,367
236.404,402
236.429,426
236.454,431
236.479,427
236.504,428
236.529,438
236.554,449
236.579,451
236.604,444
236.629,435
236.654,426
236.679,417
236.704,406
236.729,395
236.754,382
236.779,368
236.804,350
236.829,327
236.854,303
236.879,280
236.904,254
236.929,224
236.954,194
236.979,167
237.004,139
237.029,104
237.054,64
237.079,34
237.104,32
237.129,63
237.154,104
237.179,123
237.204,106
237.229,63
237.254,17
237.279,-19
237.304,-49
237.329,-77
237.354,-100
237.379,-106
237.404,-93
237.429,-69
237.454,-52
237.479,-48
237.504,-50
237.529,-46
237.554,-26
237.579,7
237.604,47
237.629,85
237.654,119
237.679,150
237.704,183
237.729,213
237.754,232
237.779,232
237.804,220
237.829,209
237.854,205
237.879,198
237.904,172
237.929,132
237.954,119
237.979,180
238.004,324
238.029,502
238.054,638
238.079,684
238.104,654
238.129,597
238.154,554
238.179,529
238.204,513
238.229,502
238.254,509
238.279,533
238.304,553
238.329,540
238.354,492
238.379,436
238.404,405
238.429,403
238.454,405
238.479,387
238.504,346
238.529,307
238.554,289
238.579,290
238.604,293
238.629,281
238.654,254
238.679,223
238.704,197
238.729,176
238.754,157
238.779,140
238.804,135
238.829,154
238.854,200
238.879,262
238.904,316
238.929,333
238.954,299
238.979,221
239.004,125
239.029,35
239.054,-42
239.079,-116
239.104,-194
239.129,-267
239.154,-322
239.179,-352
239.204,-366
239.229,-375
239.254,-377
239.279,-353
239.304,-285
239.329,-178
239.354,-62
239.379,35
239.404,105
239.429,160
239.454,218
239.479,282
239.504,343
239.529,392
239.554,424
239.579,444
239.604,454
239.629,458
239.654,463
239.679,481
239.704,517
239.729,559
239.754,583
239.779,572
239.804,532
239.829,487
239.854,456
239.879,440
239.904,420
239.929,384
239.954,338
239.979,300
240.004,283
240.029,282
240.054,282
240.079,277
240.104,271
240.129,269
240.154,267
240.179,256
240.204,232
240.229,205
240.254,186
240.279,175
240.304,168
240.329,163
240.354,167
240.379,190
240.404,222
240.429,238
240.454,226
240.479,200
240.504,195
240.529,232
240.554,299
240.579,357
240.604,377
240.629,363
240.654,340
240.679,326
240.704,317
240.729,299
240.754,270
240.779,243
240.804,225
240.829,211
240.854,186
240.879,144
240.904,100
240.929,76
240.954,81
240.979,105
241.004,124
241.029,117
241.054,84
241.079,40
241.104,4
241.129,-16
241.154,-32
241.179,-58
241.204,-93
241.229,-112
241.254,-84
241.279,-3
241.304,94
241.329,161
241.354,172
241.379,156
241.404,165
241.429,229
241.454,328
241.479,410
241.504,440
241.529,421
241.554,385
241.579,359
241.604,347
241.629,334
241.654,310
241.679,276
241.704,239
241.729,208
241.754,187
241.779,175
241.804,170
241.829,170
241.854,169
241.879,166
241.904,157
241.929,140
241.954,114
241.979,95
242.004,105
242.029,159
242.054,245
242.079,324
242.104,361
242.129,348
242.154,319
242.179,309
242.204,328
242.229,353
242.254,355
242.279,330
242.304,303
242.329,294
242.354,304
242.379,314
242.404,314
242.429,308
242.454,306
242.479,308
242.504,303
242.529,281
242.554,246
242.579,211
242.604,184
242.629,164
242.654,151
242.679,145
242.704,149
242.729,151
242.754,139
242.779,113
242.804,94
242.829,110
242.854,168
242.879,245
242.904,306
242.929,337
242.954,343
242.979,335
243.004,312
243.029,269
243.054,215
243.079,179
243.104,182
243.129,215
243.154,243
243.179,238
243.204,204
243.229,172
243.254,162
243.279,166
243.304,158
243.329,126
243.354,80
243.379,40
243.404,15
243.429,0
243.454,-11
243.479,-9
243.504,17
243.529,65
243.554,116
243.579,146
243.604,147
243.629,132
243.654,120
243.679,129
243.704,161
243.729,209
243.754,263
243.779,313
243.804,353
243.829,386
243.854,414
243.879,441
243.904,466
243.929,487
243.954,503
243.979,514
244.004,519
244.029,519
244.054,517
244.079,519
244.104,529
244.129,542
244.154,554
244.179,560
244.204,561
244.229,553
244.254,524
244.279,458
244.304,357
244.329,248
244.354,163
244.379,119
244.404,98
244.429,76
244.454,46
244.479,29
244.504,51
244.529,109
244.554,167
244.579,179
244.604,130
244.629,48
244.654,-16
244.679,-39
244.704,-28
244.729,-17
244.754,-32
244.779,-69
244.804,-108
244.829,-137
244.854,-160
244.879,-193
244.904,-241
244.929,-294
244.954,-336
244.979,-365
245.004,-392
245.029,-427
245.054,-463
245.079,-475
245.104,-429
245.129,-312
245.154,-142
245.179,32
245.204,159
245.229,209
245.254,203
245.279,202
245.304,263
245.329,395
245.354,551
245.379,674
245.404,746
245.429,800
245.454,871
245.479,954
245.504,1004
245.529,997
245.554,961
245.579,956
245.604,997
245.629,1023
245.654,954
245.679,779
245.704,591
245.729,516
245.754,603
245.779,787
245.804,945
245.829,998
245.854,955
245.879,874
245.904,797
245.929,714
245.954,600
245.979,445
246.004,268
246.029,93
246.054,-72
246.079,-229
246.104,-371
246.129,-485
246.154,-559
246.179,-601
246.204,-628
246.229,-651
246.254,-671
246.279,-678
246.304,-657
246.329,-583
246.354,-423
246.379,-166
246.404,149
246.429,432
246.454,583
246.479,561
246.504,416
246.529,249
246.554,145
246.579,125
246.604,155
246.629,195
246.654,229
246.679,258
246.704,276
246.729,267
246.754,225
246.779,168
246.804,126
246.829,117
246.854,129
246.879,137
246.904,125
246.929,99
246.954,74
246.979,57
247.004,50
247.029,50
247.054,51
247.079,44
247.104,19
247.129,-17
247.154,-44
247.179,-32
247.204,24
247.229,107
247.254,182
247.279,236
247.304,281
247.329,336
247.354,404
247.379,466
247.404,500
247.429,509
247.454,513
247.479,529
247.504,558
247.529,585
247.554,598
247.579,598
247.604,595
247.629,588
247.654,569
247.679,527
247.704,464
247.729,394
247.754,333
247.779,282
247.804,235
247.829,182
247.854,127
247.879,80
247.904,46
247.929,17
247.954,-20
247.979,-61
248.004,-85
248.029,-67
248.054,-4
248.079,80
248.104,153
248.129,198
248.154,225
248.179,250
248.204,279
248.229,303
248.254,313
248.279,311
248.304,311
248.329,318
248.354,329
248.379,338
248.404,342
248.429,347
248.454,357
248.479,368
248.504,376
248.529,379
248.554,378
248.579,370
248.604,346
248.629,304
248.654,252
248.679,206
248.704,170
248.729,131
248.754,74
248.779,5
248.804,-48
248.829,-57
248.854,-18
248.879,43
248.904,92
248.929,112
248.954,112
248.979,113
249.004,126
249.029,147
249.054,167
249.079,183
249.104,197
249.129,211
249.154,224
249.179,230
249.204,230
249.229,225
249.254,223
249.279,226
249.304,232
249.329,235
249.354,229
249.379,218
249.404,211
249.429,214
249.454,218
249.479,207
249.504,175
249.529,133
249.554,111
249.579,129
249.604,183
249.629,245
249.654,290
249.679,311
249.704,319
249.729,329
249.754,340
249.779,345
249.804,335
249.829,316
249.854,296
249.879,283
249.904,275
249.929,268
249.954,255
249.979,237
250.004,215
250.029,192
250.054,171
250.079,155
250.104,140
250.129,124
250.154,106
250.179,90
250.204,79
250.229,69
250.254,53
250.279,30
250.304,12
250.329,21
250.354,67
250.379,139
250.404,210
250.429,258
250.454,282
250.479,294
250.504,308
250.529,323
250.554,331
250.579,328
250.604,321
250.629,321
250.654,331
250.679,345
250.704,352
250.729,350
250.754,345
250.779,342
250.804,338
250.829,325
250.854,303
250.879,277
250.904,254
250.929,239
250.954,224
250.979,206
251.004,184
251.029,163
251.054,141
251.079,111
251.104,73
251.129,41
251.154,37
251.179,74
251.204,138
251.229,200
251.254,236
251.279,246
251.304,250
251.329,268
251.354,296
251.379,318
251.404,320
251.429,307
251.454,295
251.479,294
251.504,299
251.529,300
251.554,291
251.579,278
251.604,267
251.629,256
251.654,243
251.679,224
251.704,203
251.729,185
251.754,170
251.779,153
251.804,131
251.829,107
251.854,85
251.879,67
251.904,49
251.929,29
251.954,14
251.979,21
252.004,61
252.029,126
252.054,194
252.079,240
252.104,260
252.129,267
252.154,282
252.179,313
252.204,348
252.229,372
252.254,377
252.279,373
252.304,370
252.329,373
252.354,379
252.379,381
252.404,377
252.429,370
252.454,358
252.479,342
252.504,321
252.529,298
252.554,281
252.579,269
252.604,256
252.629,233
252.654,199
252.679,163
252.704,135
252.729,113
252.754,89
252.779,54
252.804,14
252.829,-12
252.854,-8
252.879,26
252.904,76
252.929,117
252.954,137
252.979,140
253.004,137
253.029,135
253.054,130
253.079,113
253.104,82
253.129,48
253.154,28
253.179,32
253.204,54
253.229,81
253.254,101
253.279,118
253.304,147
253.329,195
253.354,256
253.379,305
253.404,325
253.429,320
253.454,311
253.479,317
253.504,344
253.529,376
253.554,396
253.579,400
253.604,391
253.629,375
253.654,355
253.679,336
253.704,328
253.729,344
253.754,384
253.779,430
253.804,461
253.829,467
253.854,456
253.879,442
253.904,430
253.929,413
253.954,379
253.979,331
254.004,285
254.029,254
254.054,241
254.079,234
254.104,222
254.129,203
254.154,183
254.179,167
254.204,154
254.229,137
254.254,115
254.279,91
254.304,72
254.329,59
254.354,48
254.379,32
254.404,13
254.429,-3
254.454,-13
254.479,-21
254.504,-36
254.529,-61
254.554,-85
254.579,-89
254.604,-56
254.629,9
254.654,89
254.679,163
254.704,220
254.729,265
254.754,307
254.779,345
254.804,373
254.829,386
254.854,387
254.879,385
254.904,388
254.929,394
254.954,397
254.979,393
255.004,384
255.029,377
255.054,372
255.079,362
255.104,343
255.129,318
255.154,291
255.179,267
255.204,243
255.229,215
255.254,184
255.279,156
255.304,135
255.329,114
255.354,85
255.379,48
255.404,18
255.429,20
255.454,62
255.479,128
255.504,190
255.529,225
255.554,236
255.579,241
255.604,255
255.629,275
255.654,288
255.679,285
255.704,274
255.729,267
255.754,269
255.779,274
255.804,274
255.829,267
255.854,257
255.879,251
255.904,246
255.929,238
255.954,228
255.979,220
256.004,218
256.029,222
256.054,223
256.079,216
256.104,201
256.129,181
256.154,151
256.179,105
256.204,46
256.229,-11
256.254,-43
256.279,-31
256.304,20
256.329,90
256.354,150
256.379,187
256.404,206
256.429,220
256.454,241
256.479,266
256.504,287
256.529,298
256.554,303
256.579,310
256.604,325
256.629,344
256.654,355
256.679,351
256.704,336
256.729,319
256.754,307
256.779,297
256.804,283
256.829,263
256.854,242
256.879,225
256.904,210
256.929,192
256.954,169
256.979,146
257.004,127
257.029,109
257.054,84
257.079,53
257.104,33
257.129,43
257.154,90
257.179,157
257.204,216
257.229,251
257.254,269
257.279,288
257.304,318
257.329,351
257.354,375
257.379,385
257.404,388
257.429,394
257.454,408
257.479,425
257.504,436
257.529,438
257.554,430
257.579,415
257.604,396
257.629,375
257.654,354
257.679,334
257.704,312
257.729,290
257.754,266
257.779,238
257.804,203
257.829,163
257.854,122
257.879,80
257.904,39
257.929,-2
257.954,-41
257.979,-63
258.004,-54
258.029,-11
258.054,44
258.079,90
258.104,116
258.129,131
258.154,152
258.179,184
258.204,216
258.229,233
258.254,235
258.279,236
258.304,246
258.329,262
258.354,272
258.379,269
258.404,258
258.429,248
258.454,244
258.479,238
258.504,224
258.529,205
258.554,188
258.579,175
258.604,164
258.629,149
258.654,130
258.679,111
258.704,91
258.729,65
258.754,35
258.779,12
258.804,18
258.829,59
258.854,125
258.879,188
258.904,231
258.929,256
258.954,276
258.979,301
259.004,323
259.029,330
259.054,321
259.079,307
259.104,305
259.129,317
259.154,334
259.179,342
259.204,340
259.229,331
259.254,321
259.279,310
259.304,295
259.329,275
259.354,254
259.379,235
259.404,218
259.429,203
259.454,190
259.479,184
259.504,181
259.529,171
259.554,148
259.579,117
259.604,98
259.629,111
259.654,157
259.679,215
259.704,265
259.729,298
259.754,324
259.779,352
259.804,382
259.829,403
259.854,407
259.879,397
259.904,384
259.929,374
259.954,367
259.979,358
260.004,343
260.029,327
260.054,309
260.079,291
260.104,268
260.129,241
260.154,212
260.179,185
260.204,162
260.229,141
260.254,125
260.279,113
260.304,102
260.329,84
260.354,56
260.379,22
260.404,0
260.429,4
260.454,36
260.479,84
260.504,129
260.529,162
260.554,184
260.579,204
260.604,232
260.629,263
260.654,289
260.679,299
260.704,291
260.729,276
260.754,270
260.779,276
260.804,286
260.829,288
260.854,276
260.879,257
260.904,242
260.929,234
260.954,225
260.979,208
261.004,182
261.029,157
261.054,134
261.079,108
261.104,77
261.129,52
261.154,53
261.179,90
261.204,148
261.229,199
261.254,227
261.279,240
261.304,260
261.329,296
261.354,331
261.379,345
261.404,333
261.429,311
261.454,297
261.479,291
261.504,284
261.529,266
261.554,240
261.579,214
261.604,193
261.629,174
261.654,154
261.679,135
261.704,118
261.729,96
261.754,69
261.779,41
261.804,30
261.829,48
261.854,93
261.879,146
261.904,190
261.929,222
261.954,246
261.979,269
262.004,289
262.029,304
262.054,314
262.079,327
262.104,345
262.129,361
262.154,365
262.179,353
262.204,329
262.229,301
262.254,277
262.279,264
262.304,257
262.329,249
262.354,230
262.379,197
262.404,159
262.429,138
262.454,147
262.479,186
262.504,238
262.529,284
262.554,317
262.579,343
262.604,363
262.629,375
262.654,372
262.679,357
262.704,338
262.729,327
262.754,324
262.779,322
262.804,312
262.829,294
262.854,270
262.879,243
262.904,215
262.929,182
262.954,146
262.979,111
263.004,78
263.029,50
263.054,24
263.079,-5
263.104,-38
263.129,-68
263.154,-82
263.179,-68
263.204,-26
263.229,31
263.254,88
263.279,133
263.304,171
263.329,211
263.354,256
263.379,297
263.404,324
263.429,337
263.454,342
263.479,348
263.504,360
263.529,373
263.554,382
263.579,387
263.604,386
263.629,379
263.654,367
263.679,357
263.704,351
263.729,352
263.754,350
263.779,337
263.804,314
263.829,288
263.854,263
263.879,238
263.904,208
263.929,171
263.954,130
263.979,88
264.004,44
264.029,-3
264.054,-44
264.079,-59
264.104,-37
264.129,10
264.154,62
264.179,100
264.204,126
264.229,153
264.254,189
264.279,228
264.304,254
264.329,262
264.354,257
264.379,253
264.404,256
264.429,266
264.454,274
264.479,276
264.504,273
264.529,267
264.554,264
264.579,266
264.604,272
264.629,276
264.654,276
264.679,274
264.704,273
264.729,272
264.754,263
264.779,243
264.804,215
264.829,191
264.854,180
264.879,172
264.904,156
264.929,131
264.954,117
264.979,136
265.004,194
265.029,268
265.054,330
265.079,366
265.104,384
265.129,398
265.154,418
265.179,436
265.204,442
265.229,429
265.254,396
265.279,347
265.304,287
265.329,228
265.354,185
265.379,165
265.404,164
