df_hash,22ZHK4.QEBF70
device,HZ2X61
project_hash,29R7
project_name,istanbul_aydin_university
person_hash,29R7.12ZE
person_label,v128
date_time_start,2026-04-07_17-29-37.024000_+03
date_time_start_unix,1775564977.024
date_time_end,2026-04-07_17-38-24.003000_+03
length_difference_noticed,no

time,ppg_ir,ppg_ambient,ppg_red
5.028,201637,183,257449
5.033,201653,186,257414
5.038,201651,182,257431
5.043,201655,185,257438
5.048,201640,182,257417
5.053,201651,184,257398
5.058,201668,181,257399
5.063,201649,189,257371
5.068,201646,187,257401
5.073,201653,188,257374
5.078,201685,181,257380
5.083,201685,186,257393
5.088,201683,183,257433
5.093,201708,185,257461
5.098,201738,182,257495
5.103,201760,184,257555
5.108,201766,181,257589
5.113,201791,183,257636
5.117,201782,187,257632
5.122,201776,189,257639
5.127,201756,181,257658
5.132,201723,183,257647
5.137,201690,188,257657
5.142,201676,189,257650
5.147,201652,187,257668
5.152,201647,187,257655
5.157,201629,184,257657
5.162,201608,184,257658
5.167,201569,182,257637
5.172,201539,189,257620
5.177,201533,183,257620
5.182,201516,183,257595
5.187,201511,181,257599
5.192,201486,189,257567
5.197,201485,188,257571
5.202,201499,188,257564
5.207,201466,187,257554
5.212,201458,187,257564
5.217,201468,186,257535
5.222,201442,184,257552
5.227,201447,188,257547
5.232,201446,187,257547
5.237,201453,186,257529
5.241,201459,185,257540
5.246,201448,184,257525
5.251,201439,183,257519
5.256,201464,182,257537
5.261,201454,182,257529
5.266,201458,182,257523
5.271,201457,188,257518
5.276,201450,187,257507
5.281,201481,186,257525
5.286,201474,187,257510
5.291,201471,185,257518
5.296,201471,185,257506
5.301,201461,184,257511
5.306,201463,184,257495
5.311,201479,182,257506
5.316,201476,182,257519
5.321,201503,185,257526
5.326,201509,184,257545
5.331,201504,182,257563
5.336,201503,191,257557
5.341,201520,188,257553
5.346,201513,188,257587
5.351,201504,185,257571
5.356,201499,185,257562
5.361,201524,182,257553
5.365,201514,182,257583
5.370,201517,183,257585
5.375,201513,184,257573
5.380,201521,181,257604
5.385,201502,190,257616
5.390,201498,187,257610
5.395,201490,188,257629
5.400,201501,185,257624
5.405,201498,186,257619
5.410,201496,183,257620
5.415,201484,184,257630
5.420,201480,185,257623
5.425,201484,186,257618
5.430,201492,183,257634
5.435,201499,185,257636
5.440,201498,183,257622
5.445,201504,184,257636
5.450,201496,180,257632
5.455,201503,189,257656
5.460,201503,185,257630
5.465,201523,187,257612
5.470,201512,186,257627
5.475,201532,188,257662
5.480,201537,184,257628
5.485,201529,186,257648
5.490,201520,182,257648
5.494,201546,184,257638
5.499,201542,181,257646
5.504,201540,183,257655
5.509,201553,187,257654
5.514,201564,189,257667
5.519,201579,185,257669
5.524,201561,187,257666
5.529,201579,183,257674
5.534,201584,184,257687
5.539,201583,180,257668
5.544,201580,183,257667
5.549,201588,187,257674
5.554,201605,188,257672
5.559,201597,185,257687
5.564,201613,188,257724
5.569,201617,186,257686
5.574,201637,188,257720
5.579,201625,183,257704
5.584,201626,185,257736
5.589,201624,180,257730
5.594,201638,189,257720
5.599,201655,185,257732
5.604,201663,187,257747
5.609,201680,182,257791
5.614,201728,186,257793
5.618,201710,182,257817
5.623,201718,184,257846
5.628,201726,187,257855
5.633,201725,189,257880
5.638,201746,185,257892
5.643,201765,186,257911
5.648,201770,182,257924
5.653,201795,185,257949
5.658,201800,181,257958
5.663,201813,186,257968
5.668,201836,182,257973
5.673,201839,184,258028
5.678,201866,180,258015
5.683,201857,190,258045
5.688,201877,186,258038
5.693,201892,188,258039
5.698,201884,184,258063
5.703,201896,186,258067
5.708,201908,182,258072
5.713,201923,187,258083
5.718,201922,183,258093
5.723,201947,184,258124
5.728,201956,181,258135
5.733,201976,189,258149
5.738,201994,187,258173
5.742,202024,187,258231
5.747,202039,184,258274
5.752,202049,184,258310
5.757,202078,182,258362
5.762,202081,185,258417
5.767,202063,183,258427
5.772,202036,183,258456
5.777,202051,181,258460
5.782,202023,190,258467
5.787,201994,188,258455
5.792,201967,188,258453
5.797,201934,185,258449
5.802,201914,186,258457
5.807,201892,184,258415
5.812,201873,187,258405
5.817,201824,185,258404
5.822,201805,185,258402
5.827,201797,183,258375
5.832,201778,183,258370
5.837,201764,181,258344
5.842,201743,189,258359
5.847,201756,187,258335
5.852,201728,186,258340
5.857,201735,182,258348
5.862,201732,186,258359
5.866,201725,184,258346
5.871,201717,183,258341
5.876,201716,182,258324
5.881,201682,189,258330
5.886,201688,187,258313
5.891,201689,186,258276
5.896,201703,184,258313
5.901,201715,183,258317
5.906,201724,186,258291
5.911,201707,185,258305
5.916,201689,183,258297
5.921,201704,183,258296
5.926,201708,189,258283
5.931,201715,187,258293
5.936,201697,186,258263
5.941,201688,185,258275
5.946,201677,185,258260
5.951,201693,184,258254
5.956,201682,187,258239
5.961,201687,185,258243
5.966,201686,185,258217
5.971,201695,183,258226
5.976,201701,183,258239
5.981,201704,181,258240
5.986,201703,189,258237
5.991,201732,186,258257
5.995,201726,186,258259
6.000,201736,183,258252
6.005,201713,187,258236
6.010,201715,184,258246
6.015,201730,185,258255
6.020,201728,183,258258
6.025,201731,184,258257
6.030,201730,181,258250
6.035,201736,183,258266
6.040,201756,187,258264
6.045,201758,188,258259
6.050,201744,186,258276
6.055,201725,183,258285
6.060,201732,187,258262
6.065,201743,188,258279
6.070,201744,184,258292
6.075,201755,185,258311
6.080,201723,181,258295
6.085,201746,184,258306
6.090,201737,187,258284
6.095,201741,189,258301
6.100,201741,185,258316
6.105,201761,190,258291
6.110,201736,186,258285
6.115,201730,187,258306
6.119,201769,183,258296
6.124,201756,186,258276
6.129,201756,182,258296
6.134,201765,183,258290
6.139,201757,188,258276
6.144,201763,190,258281
6.149,201736,179,258305
6.154,201764,184,258279
6.159,201757,181,258286
6.164,201781,184,258310
6.169,201784,181,258313
6.174,201784,183,258289
6.179,201772,180,258308
6.184,201786,190,258289
6.189,201800,186,258290
6.194,201800,189,258283
6.199,201819,177,258308
6.204,201785,190,258297
6.209,201787,186,258294
6.214,201809,189,258275
6.219,201817,186,258282
6.224,201832,188,258308
6.229,201834,185,258290
6.234,201849,188,258289
6.239,201845,184,258295
6.243,201855,187,258299
6.248,201861,187,258293
6.253,201874,189,258321
6.258,201869,186,258316
6.263,201877,188,258297
6.268,201878,184,258317
6.273,201883,187,258322
6.278,201893,183,258329
6.283,201901,187,258334
6.288,201917,182,258316
6.293,201926,186,258310
6.298,201930,184,258326
6.303,201923,187,258326
6.308,201935,183,258329
6.313,201953,186,258321
6.318,201958,182,258319
6.323,201963,185,258348
6.328,201975,181,258349
6.333,201980,184,258366
6.338,201999,181,258369
6.343,201996,191,258382
6.348,202016,183,258355
6.353,201998,184,258379
6.358,202013,181,258366
6.363,202010,183,258378
6.368,202031,180,258395
6.372,202033,190,258398
6.377,202060,187,258442
6.382,202099,189,258463
6.387,202100,185,258525
6.392,202109,189,258543
6.397,202110,181,258590
6.402,202134,190,258605
6.407,202115,187,258615
6.412,202108,188,258648
6.417,202064,185,258610
6.422,202040,186,258620
6.427,202017,184,258635
6.432,201979,185,258604
6.437,201953,183,258566
6.442,201945,187,258576
6.447,201905,184,258577
6.452,201882,185,258554
6.457,201858,183,258554
6.462,201853,183,258552
6.467,201834,180,258548
6.472,201818,188,258532
6.477,201818,185,258551
6.482,201815,186,258563
6.487,201805,184,258563
6.492,201815,188,258566
6.496,201815,186,258562
6.501,201807,186,258569
6.506,201813,184,258561
6.511,201805,184,258571
6.516,201776,183,258560
6.521,201791,183,258561
6.526,201790,181,258548
6.531,201784,190,258568
6.536,201792,188,258548
6.541,201791,183,258574
6.546,201800,182,258583
6.551,201804,189,258598
6.556,201824,188,258597
6.561,201821,187,258601
6.566,201816,186,258616
6.571,201803,186,258629
6.576,201822,186,258638
6.581,201817,185,258617
6.586,201838,185,258628
6.591,201817,187,258637
6.596,201809,186,258618
6.601,201811,185,258601
6.606,201839,185,258600
6.611,201833,184,258619
6.616,201847,184,258611
6.620,201844,184,258620
6.625,201854,184,258633
6.630,201867,183,258641
6.635,201862,184,258651
6.640,201866,181,258658
6.645,201865,189,258654
6.650,201876,188,258653
6.655,201891,189,258680
6.660,201864,187,258679
6.665,201877,187,258675
6.670,201888,186,258683
6.675,201874,186,258699
6.680,201877,185,258700
6.685,201875,186,258702
6.690,201889,186,258716
6.695,201891,187,258700
6.700,201874,185,258701
6.705,201877,185,258682
6.710,201898,183,258717
6.715,201888,184,258688
6.720,201894,182,258723
6.725,201898,183,258699
6.730,201898,181,258713
6.735,201908,186,258711
6.740,201896,183,258696
6.745,201910,185,258713
6.749,201909,183,258700
6.754,201894,184,258690
6.759,201908,181,258691
6.764,201904,183,258708
6.769,201912,187,258700
6.774,201913,188,258687
6.779,201917,185,258697
6.784,201944,181,258703
6.789,201921,182,258705
6.794,201916,184,258711
6.799,201933,181,258707
6.804,201934,184,258706
6.809,201934,181,258713
6.814,201959,184,258735
6.819,201947,181,258719
6.824,201965,184,258734
6.829,201958,183,258722
6.834,201978,187,258728
6.839,201976,184,258731
6.844,201979,188,258738
6.849,201971,185,258763
6.854,201988,189,258742
6.859,201978,186,258762
6.864,202002,189,258756
6.869,201998,180,258765
6.873,202019,184,258770
6.878,202008,181,258757
6.883,202012,184,258763
6.888,202032,181,258765
6.893,202033,184,258771
6.898,202043,181,258776
6.903,202042,185,258774
6.908,202060,182,258789
6.913,202077,185,258791
6.918,202072,181,258804
6.923,202074,184,258807
6.928,202088,184,258833
6.933,202094,186,258816
6.938,202111,182,258830
6.943,202124,184,258831
6.948,202121,181,258833
6.953,202147,183,258842
6.958,202125,186,258860
6.963,202151,189,258852
6.968,202158,185,258857
6.973,202169,187,258854
6.978,202192,187,258861
6.983,202172,189,258869
6.988,202174,185,258879
6.993,202200,188,258871
6.997,202206,184,258886
7.002,202218,187,258900
7.007,202213,183,258901
7.012,202229,184,258898
7.017,202242,181,258914
7.022,202244,183,258943
7.027,202264,183,258929
7.032,202264,185,258924
7.037,202274,182,258942
7.042,202273,185,258939
7.047,202314,182,258937
7.052,202299,184,258941
7.057,202313,180,258953
7.062,202329,190,258974
7.067,202346,186,258997
7.072,202364,189,259059
7.077,202403,181,259104
7.082,202409,183,259142
7.087,202429,181,259192
7.092,202431,190,259224
7.097,202414,187,259230
7.102,202401,189,259253
7.107,202368,186,259243
7.112,202351,187,259229
7.117,202308,183,259211
7.122,202252,185,259205
7.126,202263,186,259191
7.131,202227,187,259182
7.136,202199,185,259178
7.141,202194,185,259202
7.146,202184,184,259144
7.151,202163,184,259163
7.156,202139,182,259151
7.161,202137,183,259145
7.166,202099,181,259141
7.171,202106,183,259128
7.176,202112,180,259164
7.181,202097,183,259133
7.186,202097,183,259136
7.191,202088,184,259137
7.196,202088,183,259148
7.201,202071,184,259117
7.206,202071,183,259101
7.211,202062,183,259121
7.216,202074,183,259105
7.221,202135,185,259114
7.226,202082,186,259111
7.231,202094,186,259116
7.236,202087,185,259112
7.241,202071,185,259136
7.246,202091,184,259125
7.250,202082,184,259120
7.255,202089,183,259126
7.260,202067,184,259148
7.265,202079,184,259125
7.270,202093,187,259114
7.275,202077,186,259157
7.280,202089,186,259119
7.285,202077,186,259137
7.290,202085,186,259121
7.295,202088,186,259095
7.300,202074,185,259124
7.305,202095,185,259110
7.310,202108,184,259120
7.315,202124,184,259105
7.320,202130,182,259132
7.325,202108,183,259138
7.330,202128,182,259150
7.335,202137,190,259139
7.340,202130,188,259137
7.345,202144,188,259136
7.350,202129,186,259149
7.355,202132,185,259151
7.360,202134,184,259155
7.365,202137,182,259182
7.370,202121,182,259174
7.374,202121,189,259184
7.379,202144,187,259186
7.384,202138,187,259173
7.389,202148,185,259164
7.394,202144,185,259175
7.399,202140,183,259179
7.404,202149,184,259198
7.409,202151,182,259190
7.414,202134,190,259209
7.419,202160,183,259227
7.424,202150,183,259201
7.429,202174,189,259220
7.434,202149,188,259200
7.439,202149,185,259201
7.444,202168,186,259225
7.449,202167,183,259189
7.454,202162,184,259192
7.459,202159,181,259194
7.464,202140,184,259189
7.469,202156,181,259189
7.474,202175,183,259181
7.479,202170,187,259181
7.484,202168,188,259181
7.489,202179,184,259166
7.494,202176,185,259174
7.498,202179,181,259182
7.503,202166,191,259174
7.508,202200,187,259183
7.513,202179,184,259170
7.518,202185,181,259168
7.523,202191,190,259158
7.528,202196,186,259147
7.533,202190,188,259134
7.538,202198,184,259153
7.543,202217,185,259160
7.548,202206,181,259150
7.553,202222,183,259160
7.558,202206,187,259152
7.563,202231,185,259151
7.568,202243,181,259161
7.573,202243,184,259145
7.578,202250,188,259154
7.583,202247,190,259144
7.588,202250,185,259152
7.593,202255,187,259157
7.598,202273,184,259143
7.603,202271,186,259139
7.608,202251,182,259158
7.613,202288,188,259134
7.618,202282,185,259119
7.623,202280,188,259139
7.627,202289,184,259130
7.632,202302,187,259117
7.637,202296,183,259115
7.642,202318,186,259112
7.647,202332,182,259117
7.652,202329,185,259135
7.657,202291,181,259119
7.662,202316,187,259112
7.667,202338,184,259118
7.672,202352,186,259113
7.677,202353,183,259117
7.682,202362,185,259095
7.687,202357,180,259099
7.692,202367,189,259101
7.697,202359,186,259090
7.702,202343,188,259082
7.707,202368,185,259082
7.712,202381,185,259073
7.717,202391,182,259088
7.722,202398,184,259108
7.727,202390,181,259100
7.732,202418,190,259074
7.737,202406,186,259098
7.742,202421,187,259067
7.747,202425,184,259063
7.751,202453,185,259068
7.756,202482,183,259094
7.761,202428,187,259089
7.766,202466,183,259149
7.771,202494,185,259176
7.776,202511,182,259204
7.781,202539,184,259258
7.786,202550,181,259289
7.791,202542,190,259285
7.796,202517,186,259281
7.801,202494,187,259288
7.806,202470,187,259259
7.811,202447,188,259236
7.816,202405,185,259257
7.821,202376,186,259237
7.826,202351,183,259228
7.831,202357,185,259212
7.836,202321,183,259208
7.841,202300,184,259217
7.846,202292,182,259191
7.851,202250,183,259188
7.856,202250,184,259153
7.861,202226,184,259147
7.866,202235,182,259140
7.871,202222,183,259145
7.875,202202,181,259142
7.880,202217,190,259128
7.885,202207,188,259132
7.890,202182,189,259114
7.895,202179,187,259111
7.900,202161,190,259091
7.905,202164,181,259078
7.910,202167,190,259072
7.915,202161,188,259076
7.920,202166,188,259069
7.925,202174,187,259072
7.930,202155,187,259059
7.935,202161,186,259079
7.940,202180,186,259072
7.945,202184,185,259061
7.950,202187,185,259070
7.955,202185,188,259041
7.960,202192,188,259064
7.965,202182,187,259068
7.970,202189,187,259047
7.975,202185,187,259046
7.980,202175,186,259037
7.985,202187,187,259030
7.990,202200,186,259053
7.995,202198,186,259040
8.000,202212,186,259050
8.004,202226,185,259057
8.009,202235,184,259058
8.014,202257,184,259052
8.019,202217,182,259070
8.024,202246,183,259062
8.029,202226,189,259056
8.034,202237,189,259055
8.039,202233,188,259064
8.044,202240,189,259051
8.049,202239,183,259061
8.054,202259,184,259069
8.059,202230,183,259071
8.064,202249,184,259065
8.069,202238,182,259088
8.074,202245,183,259087
8.079,202239,189,259090
8.084,202234,190,259077
8.089,202231,187,259064
8.094,202232,187,259066
8.099,202233,189,259045
8.104,202235,189,259060
8.109,202228,185,259059
8.114,202236,187,259054
8.119,202221,183,259059
8.124,202233,184,259025
8.128,202221,182,259040
8.133,202244,183,259042
8.138,202227,188,259043
8.143,202230,188,259028
8.148,202218,181,259038
8.153,202218,189,259042
8.158,202218,186,259027
8.163,202216,186,259039
8.168,202234,183,259027
8.173,202227,184,259021
8.178,202239,188,259015
8.183,202243,189,259021
8.188,202245,186,259005
8.193,202239,187,259007
8.198,202256,187,259011
8.203,202269,188,259024
8.208,202274,184,259016
8.213,202269,187,259018
8.218,202255,182,259010
8.223,202278,184,259005
8.228,202293,188,259000
8.233,202279,188,258977
8.238,202298,185,259001
8.243,202287,187,259001
8.248,202308,182,259005
8.252,202294,184,258987
8.257,202307,180,258995
8.262,202294,191,259007
8.267,202317,186,258971
8.272,202312,188,258997
8.277,202317,184,258985
8.282,202316,187,258980
8.287,202318,183,258986
8.292,202308,183,258988
8.297,202346,183,258983
8.302,202326,185,258973
8.307,202320,188,258954
8.312,202351,189,258977
8.317,202347,184,258934
8.322,202331,186,258967
8.327,202349,182,258969
8.332,202347,184,258933
8.337,202353,187,258953
8.342,202355,185,258950
8.347,202367,180,258947
8.352,202389,190,258938
8.357,202376,186,258940
8.362,202385,187,258940
8.367,202373,183,258924
8.372,202384,185,258924
8.377,202398,181,258923
8.381,202393,184,258908
8.386,202396,187,258906
8.391,202437,185,258939
8.396,202413,181,258933
8.401,202414,183,258920
8.406,202428,186,258935
8.411,202419,187,258913
8.416,202446,183,258924
8.421,202425,185,258879
8.426,202433,181,258869
8.431,202425,191,258871
8.436,202425,186,258859
8.441,202435,188,258872
8.446,202469,185,258903
8.451,202480,186,258968
8.456,202489,183,258981
8.461,202503,184,259010
8.466,202533,181,259035
8.471,202523,190,259070
8.476,202516,187,259054
8.481,202501,186,259060
8.486,202467,184,259068
8.491,202465,188,259041
8.496,202437,185,259020
8.501,202418,186,259012
8.505,202368,184,259005
8.510,202366,184,258990
8.515,202340,182,258964
8.520,202299,190,258947
8.525,202287,187,258931
8.530,202282,187,258918
8.535,202244,190,258861
8.540,202242,189,258876
8.545,202236,187,258862
8.550,202217,188,258840
8.555,202214,186,258833
8.560,202204,187,258835
8.565,202196,186,258834
8.570,202188,186,258805
8.575,202185,184,258801
8.580,202171,184,258783
8.585,202175,185,258788
8.590,202169,185,258776
8.595,202181,185,258779
8.600,202163,184,258760
8.605,202172,182,258763
8.610,202167,189,258739
8.615,202160,188,258750
8.620,202158,187,258736
8.625,202157,186,258744
8.629,202139,185,258740
8.634,202144,188,258727
8.639,202150,187,258731
8.644,202144,187,258720
8.649,202157,186,258747
8.654,202166,185,258746
8.659,202169,185,258753
8.664,202173,184,258776
8.669,202197,183,258831
8.674,202226,182,258875
8.679,202262,182,258901
8.684,202283,185,258944
8.689,202297,183,258981
8.694,202306,183,259037
8.699,202328,182,259078
8.704,202359,183,259121
8.709,202378,188,259153
8.714,202377,189,259200
8.719,202393,187,259259
8.724,202425,188,259273
8.729,202427,186,259309
8.734,202442,190,259350
8.739,202456,187,259368
8.744,202448,188,259385
8.749,202451,186,259397
8.754,202457,187,259408
8.758,202457,185,259409
8.763,202479,186,259400
8.768,202469,183,259398
8.773,202471,185,259400
8.778,202462,183,259375
8.783,202442,187,259345
8.788,202450,184,259306
8.793,202442,185,259260
8.798,202404,183,259239
8.803,202403,184,259212
8.808,202393,181,259188
8.813,202396,190,259179
8.818,202385,187,259156
8.823,202373,189,259127
8.828,202371,182,259105
8.833,202362,187,259106
8.838,202359,185,259084
8.843,202359,188,259050
8.848,202355,184,259039
8.853,202350,186,259008
8.858,202344,182,258981
8.863,202319,185,258966
8.868,202310,182,258922
8.873,202292,184,258908
8.878,202322,184,258883
8.882,202281,189,258852
8.887,202271,185,258836
8.892,202258,187,258784
8.897,202267,183,258756
8.902,202246,185,258728
8.907,202230,182,258689
8.912,202229,185,258668
8.917,202226,181,258631
8.922,202203,191,258618
8.927,202189,183,258570
8.932,202164,188,258522
8.937,202150,183,258492
8.942,202159,185,258491
8.947,202143,181,258454
8.952,202143,191,258459
8.957,202125,187,258435
8.962,202115,189,258435
8.967,202123,185,258437
8.972,202140,187,258433
8.977,202125,186,258431
8.982,202145,188,258452
8.987,202133,184,258448
8.992,202134,186,258416
8.997,202143,182,258441
9.002,202129,185,258431
9.006,202135,180,258413
9.011,202124,191,258393
9.016,202130,187,258387
9.021,202120,190,258385
9.026,202146,182,258405
9.031,202134,184,258354
9.036,202133,188,258361
9.041,202129,190,258342
9.046,202121,186,258320
9.051,202120,189,258303
9.056,202135,185,258281
9.061,202134,187,258280
9.066,202111,184,258259
9.071,202120,188,258206
9.076,202106,186,258225
9.081,202141,188,258267
9.086,202144,185,258277
9.091,202156,188,258291
9.096,202174,185,258334
9.101,202187,188,258336
9.106,202166,185,258347
9.111,202147,187,258337
9.116,202135,183,258341
9.121,202120,188,258336
9.126,202058,182,258312
9.130,202024,184,258285
9.135,201986,189,258243
9.140,201967,190,258250
9.145,201928,187,258224
9.150,201899,189,258188
9.155,201864,187,258176
9.160,201848,188,258157
9.165,201814,185,258144
9.170,201795,190,258104
9.175,201770,186,258076
9.180,201773,188,258068
9.185,201733,186,258039
9.190,201720,186,258040
9.195,201731,183,258004
9.200,201703,184,258011
9.205,201702,182,257966
9.210,201682,184,257945
9.215,201666,181,257946
9.220,201654,186,257935
9.225,201661,183,257888
9.230,201659,183,257889
9.235,201642,182,257871
9.240,201655,190,257867
9.245,201631,188,257874
9.250,201646,188,257871
9.255,201652,186,257857
9.259,201647,187,257861
9.264,201636,187,257849
9.269,201633,183,257855
9.274,201650,182,257861
9.279,201605,192,257849
9.284,201619,190,257806
9.289,201635,190,257821
9.294,201622,189,257779
9.299,201602,189,257796
9.304,201626,188,257771
9.309,201610,187,257772
9.314,201616,186,257761
9.319,201615,189,257776
9.324,201628,189,257788
9.329,201637,188,257787
9.334,201629,187,257773
9.339,201641,186,257776
9.344,201637,186,257795
9.349,201657,185,257770
9.354,201630,185,257772
9.359,201638,184,257774
9.364,201695,182,257787
9.369,201667,185,257783
9.374,201643,185,257793
9.379,201648,184,257779
9.383,201661,184,257803
9.388,201650,182,257784
9.393,201645,191,257777
9.398,201640,188,257758
9.403,201641,189,257764
9.408,201635,186,257743
9.413,201623,191,257767
9.418,201636,188,257755
9.423,201645,189,257752
9.428,201619,187,257731
9.433,201629,187,257739
9.438,201636,185,257725
9.443,201648,186,257724
9.448,201625,183,257716
9.453,201639,184,257735
9.458,201636,182,257725
9.463,201649,186,257727
9.468,201642,183,257721
9.473,201657,184,257716
9.478,201626,189,257728
9.483,201638,190,257730
9.488,201666,186,257731
9.493,201656,187,257736
9.498,201661,184,257713
9.503,201663,185,257736
9.507,201678,182,257711
9.512,201655,186,257729
9.517,201695,184,257706
9.522,201677,186,257693
9.527,201681,183,257725
9.532,201670,185,257713
9.537,201678,181,257702
9.542,201691,190,257705
9.547,201696,186,257703
9.552,201687,188,257706
9.557,201692,183,257702
9.562,201703,185,257689
9.567,201698,181,257680
9.572,201728,191,257685
9.577,201742,188,257713
9.582,201727,190,257682
9.587,201730,186,257655
9.592,201721,187,257667
9.597,201725,182,257666
9.602,201732,184,257697
9.607,201759,182,257625
9.612,201741,186,257667
9.617,201753,181,257677
9.622,201762,191,257644
9.627,201776,186,257667
9.632,201784,189,257678
9.636,201793,184,257666
9.641,201793,187,257672
9.646,201808,182,257677
9.651,201817,184,257655
9.656,201786,183,257664
9.661,201803,186,257702
9.666,201817,182,257677
9.671,201837,184,257680
9.676,201836,187,257683
9.681,201842,190,257670
9.686,201839,185,257649
9.691,201851,187,257646
9.696,201849,183,257684
9.701,201860,185,257647
9.706,201889,184,257655
9.711,201871,186,257659
9.716,201896,180,257714
9.721,201921,191,257728
9.726,201928,187,257787
9.731,201942,188,257795
9.736,201925,184,257852
9.741,201944,186,257880
9.746,201925,182,257859
9.751,201892,184,257843
9.756,201886,186,257826
9.760,201831,189,257830
9.765,201811,185,257795
9.770,201755,187,257791
9.775,201729,183,257759
9.780,201718,186,257761
9.785,201647,182,257762
9.790,201649,185,257702
9.795,201636,189,257692
9.800,201619,187,257707
9.805,201592,181,257699
9.810,201589,191,257690
9.815,201573,187,257686
9.820,201582,189,257680
9.825,201557,187,257659
9.830,201575,188,257683
9.835,201571,185,257664
9.840,201561,187,257657
9.845,201558,184,257651
9.850,201543,185,257637
9.855,201539,185,257623
9.860,201528,186,257632
9.865,201542,184,257641
9.870,201534,183,257635
9.875,201542,189,257638
9.880,201538,189,257663
9.884,201537,186,257631
9.889,201551,187,257656
9.894,201549,184,257677
9.899,201571,195,257696
9.904,201553,185,257664
9.909,201535,186,257684
9.914,201543,183,257685
9.919,201540,184,257665
9.924,201547,181,257688
9.929,201544,190,257673
9.934,201535,188,257646
9.939,201542,188,257651
9.944,201525,187,257650
9.949,201561,184,257695
9.954,201558,184,257681
9.959,201561,184,257696
9.964,201581,183,257705
9.969,201560,184,257698
9.974,201583,183,257720
9.979,201589,190,257728
9.984,201592,189,257716
9.989,201589,188,257744
9.994,201613,187,257748
9.999,201568,185,257754
10.004,201591,186,257760
10.009,201592,186,257769
10.013,201608,186,257768
10.018,201613,185,257770
10.023,201614,185,257762
10.028,201611,184,257764
10.033,201608,185,257776
10.038,201619,184,257769
10.043,201621,185,257764
10.048,201617,188,257783
10.053,201607,188,257800
10.058,201629,186,257774
10.063,201630,186,257754
10.068,201628,185,257777
10.073,201617,185,257767
10.078,201603,184,257771
10.083,201596,185,257768
10.088,201633,183,257779
10.093,201639,184,257763
10.098,201621,185,257763
10.103,201648,186,257769
10.108,201637,184,257771
10.113,201648,186,257768
10.118,201647,183,257754
10.123,201635,186,257776
10.128,201650,184,257762
10.133,201630,184,257777
10.137,201644,182,257728
10.142,201648,186,257772
10.147,201636,184,257741
10.152,201634,186,257743
10.157,201640,183,257748
10.162,201647,185,257722
10.167,201659,182,257727
10.172,201678,185,257736
10.177,201660,182,257716
10.182,201665,184,257726
10.187,201686,188,257725
10.192,201649,185,257753
10.197,201686,182,257742
10.202,201684,184,257727
10.207,201715,182,257744
10.212,201718,184,257748
10.217,201714,182,257762
10.222,201707,185,257762
10.227,201723,182,257764
10.232,201750,184,257771
10.237,201741,181,257774
10.242,201783,188,257780
10.247,201774,186,257778
10.252,201767,189,257795
10.257,201765,185,257801
10.261,201776,188,257805
10.266,201803,184,257824
10.271,201796,186,257826
10.276,201813,183,257827
10.281,201811,186,257856
10.286,201831,182,257864
10.291,201824,188,257862
10.296,201822,185,257879
10.301,201846,187,257877
10.306,201841,183,257889
10.311,201857,186,257881
10.316,201859,182,257884
10.321,201874,184,257895
10.326,201897,187,257938
10.331,201907,189,257915
10.336,201914,185,257934
10.341,201915,187,257940
10.346,201917,183,257949
10.351,201946,185,257960
10.356,201930,182,257960
10.361,201953,185,258005
10.366,201953,188,258001
10.371,201968,190,258037
10.376,201990,187,258078
10.381,202016,189,258122
10.385,202040,185,258150
10.390,202066,187,258211
10.395,202067,182,258258
10.400,202053,184,258280
10.405,202034,188,258281
10.410,202006,190,258276
10.415,201992,187,258258
10.420,201970,189,258261
10.425,201932,185,258253
10.430,201898,187,258237
10.435,201891,183,258223
10.440,201860,189,258218
10.445,201835,185,258199
10.450,201805,187,258209
10.455,201800,183,258178
10.460,201764,185,258183
10.465,201767,181,258177
10.470,201752,190,258184
10.475,201753,186,258188
10.480,201759,187,258193
10.485,201744,187,258193
10.490,201733,189,258183
10.495,201727,186,258183
10.500,201747,188,258180
10.505,201722,185,258161
10.510,201707,187,258157
10.514,201697,183,258146
10.519,201706,185,258142
10.524,201697,182,258140
10.529,201706,183,258142
10.534,201702,183,258137
10.539,201691,185,258149
10.544,201698,181,258162
10.549,201705,189,258165
10.554,201719,186,258168
10.559,201702,187,258177
10.564,201712,184,258163
10.569,201705,185,258162
10.574,201703,183,258180
10.579,201701,183,258153
10.584,201711,184,258167
10.589,201712,184,258146
10.594,201692,189,258146
10.599,201701,189,258159
10.604,201704,186,258164
10.609,201726,186,258168
10.614,201736,185,258170
10.619,201750,184,258204
10.624,201736,183,258201
10.629,201748,191,258218
10.634,201768,188,258209
10.638,201769,188,258213
10.643,201768,187,258223
10.648,201770,187,258258
10.653,201792,186,258254
10.658,201784,185,258260
10.663,201776,185,258273
10.668,201790,183,258283
10.673,201801,190,258284
10.678,201798,190,258332
10.683,201798,184,258319
10.688,201818,189,258302
10.693,201815,188,258305
10.698,201810,187,258322
10.703,201813,186,258349
10.708,201815,185,258337
10.713,201815,184,258335
10.718,201829,183,258353
10.723,201828,183,258384
10.728,201877,184,258359
10.733,201843,184,258391
10.738,201840,183,258379
10.743,201837,191,258381
10.748,201860,189,258395
10.753,201867,188,258381
10.758,201875,186,258435
10.762,201872,186,258429
10.767,201891,184,258439
10.772,201905,184,258480
10.777,201934,186,258492
10.782,201948,186,258513
10.787,201935,184,258538
10.792,201946,185,258537
10.797,201947,182,258567
10.802,201967,191,258583
10.807,201980,188,258592
10.812,201977,188,258584
10.817,201988,186,258623
10.822,201991,187,258620
10.827,202005,187,258627
10.832,202019,188,258635
10.837,202011,187,258634
10.842,202040,188,258652
10.847,202047,185,258660
10.852,202050,187,258663
10.857,202051,184,258681
10.862,202058,187,258691
10.867,202073,183,258684
10.872,202087,186,258703
10.877,202087,186,258701
10.882,202097,188,258680
10.887,202095,184,258703
10.891,202106,187,258700
10.896,202120,182,258717
10.901,202116,184,258695
10.906,202118,181,258697
10.911,202116,191,258692
10.916,202127,187,258705
10.921,202133,188,258678
10.926,202123,181,258652
10.931,202123,191,258661
10.936,202138,187,258672
10.941,202130,190,258678
10.946,202132,187,258670
10.951,202141,188,258647
10.956,202164,183,258653
10.961,202158,187,258645
10.966,202157,183,258647
10.971,202161,185,258663
10.976,202163,184,258642
10.981,202167,187,258649
10.986,202164,184,258642
10.991,202170,185,258636
10.996,202187,181,258635
11.001,202174,191,258632
11.006,202193,186,258629
11.011,202186,188,258629
11.015,202232,184,258615
11.020,202212,189,258621
11.025,202219,185,258611
11.030,202236,187,258630
11.035,202231,183,258620
11.040,202237,185,258646
11.045,202242,181,258635
11.050,202250,191,258645
11.055,202261,187,258630
11.060,202249,188,258638
11.065,202261,184,258638
11.070,202286,184,258609
11.075,202274,181,258620
11.080,202274,191,258620
11.085,202300,187,258649
11.090,202281,188,258626
11.095,202308,185,258679
11.100,202327,186,258711
11.105,202342,182,258738
11.110,202345,184,258767
11.115,202352,189,258791
11.120,202331,186,258798
11.125,202312,183,258769
11.130,202290,185,258776
11.135,202269,182,258754
11.139,202249,191,258731
11.144,202220,188,258721
11.149,202185,189,258727
11.154,202159,186,258709
11.159,202139,187,258720
11.164,202123,183,258696
11.169,202097,188,258686
11.174,202096,184,258671
11.179,202081,186,258606
11.184,202062,182,258629
11.189,202064,184,258639
11.194,202045,188,258626
11.199,202049,188,258614
11.204,202046,185,258617
11.209,202038,187,258635
11.214,202054,183,258585
11.219,202029,187,258579
11.224,202029,184,258564
11.229,202014,185,258562
11.234,202006,182,258536
11.239,202026,189,258550
11.244,202036,186,258544
11.249,202032,186,258533
11.254,202025,184,258529
11.259,202032,185,258539
11.264,201987,185,258531
11.268,202048,189,258531
11.273,202025,187,258512
11.278,202038,186,258508
11.283,202044,184,258504
11.288,202044,184,258490
11.293,202047,189,258482
11.298,202044,189,258486
11.303,202049,187,258478
11.308,202060,187,258471
11.313,202080,189,258472
11.318,202078,187,258489
11.323,202070,187,258488
11.328,202086,185,258508
11.333,202124,184,258562
11.338,202125,183,258566
11.343,202116,190,258548
11.348,202134,188,258561
11.353,202135,187,258568
11.358,202135,185,258581
11.363,202165,183,258557
11.368,202137,183,258594
11.373,202153,191,258616
11.378,202156,188,258607
11.383,202147,188,258608
11.388,202164,186,258615
11.392,202159,187,258606
11.397,202162,184,258593
11.402,202164,184,258588
11.407,202164,182,258600
11.412,202140,185,258609
11.417,202158,183,258608
11.422,202167,184,258612
11.427,202153,182,258578
11.432,202159,190,258598
11.437,202153,187,258615
11.442,202167,188,258620
11.447,202173,185,258606
11.452,202164,185,258625
11.457,202168,184,258636
11.462,202193,187,258606
11.467,202190,184,258630
11.472,202210,185,258637
11.477,202188,182,258648
11.482,202201,190,258639
11.487,202216,187,258646
11.492,202208,187,258644
11.497,202216,185,258636
11.502,202224,186,258630
11.507,202229,188,258626
11.512,202227,189,258634
11.516,202238,186,258631
11.521,202243,188,258618
11.526,202239,184,258623
11.531,202256,186,258627
11.536,202241,182,258629
11.541,202258,184,258629
11.546,202272,188,258650
11.551,202259,190,258662
11.556,202292,182,258694
11.561,202298,185,258674
11.566,202310,182,258712
11.571,202324,184,258710
11.576,202331,187,258728
11.581,202355,189,258756
11.586,202383,185,258783
11.591,202385,187,258821
11.596,202382,183,258825
11.601,202411,185,258863
11.606,202408,185,258902
11.611,202450,187,258898
11.616,202464,183,258929
11.621,202468,185,258953
11.626,202486,181,258997
11.631,202493,191,258985
11.636,202490,187,258976
11.641,202522,188,258994
11.645,202531,184,259023
11.650,202510,187,259016
11.655,202526,185,259018
11.660,202545,188,259031
11.665,202540,184,259062
11.670,202554,186,259058
11.675,202580,182,259089
11.680,202588,186,259065
11.685,202598,183,259092
11.690,202613,188,259082
11.695,202613,185,259122
11.700,202639,190,259139
11.705,202659,182,259164
11.710,202676,186,259234
11.715,202687,182,259296
11.720,202751,187,259366
11.725,202789,184,259440
11.730,202851,187,259573
11.735,202893,185,259684
11.740,202955,189,259813
11.745,203015,186,259965
11.750,203083,190,260149
11.755,203169,184,260313
11.760,203225,188,260442
11.765,203279,186,260592
11.769,203342,189,260740
11.774,203407,186,260891
11.779,203461,189,261027
11.784,203517,187,261133
11.789,203555,190,261261
11.794,203603,187,261374
11.799,203591,182,261464
11.804,203624,183,261527
11.809,203660,186,261592
11.814,203642,184,261589
11.819,203618,188,261630
11.824,203591,187,261651
11.829,203548,191,261664
11.834,203553,182,261690
11.839,203533,185,261698
11.844,203525,183,261727
11.849,203505,191,261732
11.854,203487,183,261696
11.859,203456,187,261713
11.864,203437,186,261701
11.869,203448,188,261695
11.874,203420,187,261652
11.879,203426,191,261630
11.884,203416,182,261645
11.889,203403,186,261633
11.893,203392,186,261593
11.898,203373,184,261566
11.903,203368,183,261569
11.908,203364,186,261524
11.913,203331,184,261476
11.918,203326,187,261470
11.923,203299,186,261421
11.928,203298,189,261378
11.933,203292,188,261363
11.938,203272,191,261330
11.943,203276,181,261322
11.948,203265,187,261306
11.953,203254,187,261275
11.958,203235,189,261260
11.963,203226,189,261207
11.968,203210,183,261187
11.973,203192,183,261143
11.978,203180,185,261100
11.983,203165,185,261029
11.988,203138,186,260999
11.993,203131,186,261031
11.998,203131,191,261003
12.003,203158,183,260999
12.008,203151,184,260973
12.013,203147,184,260941
12.017,203146,186,260919
12.022,203130,186,260923
12.027,203122,187,260914
12.032,203146,188,260913
12.037,203139,190,260936
12.042,203179,187,260960
12.047,203157,183,260973
12.052,203163,184,260968
12.057,203150,185,260984
12.062,203139,186,260963
12.067,203134,187,260971
12.072,203111,188,260963
12.077,203110,190,260954
12.082,203097,183,260938
12.087,203083,185,260912
12.092,203043,189,260874
12.097,203029,189,260884
12.102,203038,191,260862
12.107,203009,185,260861
12.112,203017,186,260858
12.117,203023,188,260856
12.122,203021,190,260849
12.127,203002,184,260856
12.132,203019,185,260833
12.137,203017,186,260818
12.142,203003,190,260761
12.146,202992,190,260754
12.151,203003,185,260732
12.156,203014,184,260707
12.161,203013,186,260714
12.166,203033,185,260687
12.171,203030,186,260673
12.176,203027,186,260664
12.181,203049,188,260630
12.186,203049,188,260616
12.191,203066,186,260626
12.196,203071,185,260608
12.201,203093,189,260578
12.206,203105,189,260594
12.211,203108,192,260566
12.216,203114,184,260546
12.221,203121,187,260550
12.226,203133,185,260530
12.231,203143,189,260505
12.236,203141,187,260505
12.241,203151,193,260498
12.246,203167,185,260483
12.251,203152,188,260482
12.256,203185,186,260467
12.261,203174,190,260463
12.266,203184,189,260452
12.270,203158,193,260425
12.275,203164,191,260382
12.280,203138,188,260361
12.285,203144,192,260356
12.290,203130,193,260320
12.295,203126,184,260295
12.300,203143,189,260272
12.305,203139,187,260259
12.310,203134,192,260207
12.315,203122,190,260168
12.320,203111,187,260143
12.325,203081,185,260085
12.330,203081,188,260062
12.335,203089,189,260038
12.340,203102,193,260017
12.345,203089,184,259992
12.350,203074,188,259949
12.355,203077,186,259937
12.360,203089,191,259938
12.365,203069,188,259898
12.370,203070,192,259863
12.375,203055,190,259826
12.380,203060,187,259807
12.385,203058,187,259800
12.390,203075,191,259794
12.394,203092,188,259800
12.399,203071,193,259791
12.404,203093,190,259781
12.409,203081,193,259808
12.414,203098,190,259793
12.419,203103,195,259778
12.424,203108,191,259792
12.429,203093,193,259775
12.434,203128,184,259779
12.439,203112,192,259783
12.444,203101,187,259778
12.449,203110,191,259795
12.454,203117,186,259796
12.459,203129,189,259854
12.464,203157,184,259889
12.469,203150,189,259927
12.474,203166,184,259962
12.479,203154,188,259991
12.484,203162,186,260014
12.489,203159,191,260047
12.494,203130,186,260048
12.499,203124,191,260051
12.504,203121,186,260082
12.509,203074,189,260077
12.514,203066,185,260091
12.519,203073,189,260103
12.523,203052,184,260106
12.528,203033,191,260091
12.533,203025,186,260127
12.538,203002,190,260132
12.543,202997,185,260116
12.548,202977,188,260115
12.553,202959,184,260109
12.558,202980,187,260124
12.563,202977,190,260138
12.568,202958,193,260135
12.573,202969,189,260121
12.578,202979,187,260148
12.583,202960,183,260132
12.588,202959,194,260137
12.593,202966,190,260132
12.598,202956,194,260131
12.603,202945,191,260109
12.608,202947,194,260103
12.613,202953,190,260103
12.618,202948,193,260103
12.623,202964,190,260102
12.628,202967,188,260106
12.633,202958,184,260089
12.638,202965,194,260093
12.643,202964,190,260083
12.647,202967,191,260085
12.652,202971,188,260066
12.657,202970,190,260049
12.662,202932,187,260047
12.667,202955,188,260035
12.672,202961,185,260018
12.677,202969,189,260003
12.682,202980,187,260014
12.687,203001,188,260022
12.692,202994,186,260045
12.697,202985,187,260039
12.702,203016,184,260040
12.707,203016,187,260006
12.712,203004,192,260032
12.717,203027,193,260027
12.722,203005,190,260034
12.727,203044,188,260020
12.732,203020,186,260014
12.737,203018,188,260017
12.742,203030,185,260035
12.747,203049,194,260018
12.752,203035,191,260042
12.757,203025,191,260064
12.762,203032,189,260060
12.767,203040,189,260039
12.771,203058,188,260048
12.776,203054,191,260047
12.781,203038,189,260021
12.786,203034,189,260048
12.791,203052,187,260042
12.796,203058,188,260053
12.801,203066,186,260044
12.806,203055,187,260044
12.811,203047,186,260051
12.816,203066,193,260041
12.821,203080,182,260057
12.826,203059,186,260058
12.831,203057,192,260056
12.836,203073,191,260056
12.841,203073,189,260093
12.846,203078,189,260063
12.851,203076,188,260089
12.856,203095,187,260069
12.861,203104,187,260099
12.866,203085,186,260081
12.871,203094,189,260066
12.876,203109,188,260066
12.881,203137,188,260067
12.886,203124,186,260073
12.891,203125,187,260068
12.896,203141,184,260085
12.900,203132,193,260054
12.905,203136,191,260057
12.910,203131,192,260078
12.915,203139,190,260038
12.920,203149,187,260058
12.925,203133,185,260053
12.930,203139,187,260043
12.935,203142,185,260062
12.940,203154,186,260044
12.945,203165,191,260046
12.950,203151,194,260046
12.955,203174,191,260023
12.960,203168,193,260028
12.965,203174,189,260020
12.970,203152,188,260054
12.975,203178,184,260026
12.980,203194,186,260057
12.985,203200,184,260050
12.990,203206,193,260053
12.995,203220,190,260068
13.000,203232,192,260066
13.005,203229,189,260078
13.010,203230,191,260071
13.015,203228,187,260064
13.020,203238,192,260073
13.024,203252,188,260065
13.029,203263,190,260078
13.034,203267,187,260056
13.039,203246,189,260046
13.044,203262,185,260057
13.049,203278,188,260066
13.054,203266,184,260056
13.059,203282,187,260049
13.064,203278,186,260021
13.069,203306,189,260058
13.074,203280,185,260062
13.079,203304,187,260046
13.084,203332,184,260077
13.089,203325,187,260082
13.094,203355,190,260086
13.099,203376,193,260141
13.104,203388,189,260187
13.109,203411,193,260196
13.114,203418,184,260231
13.119,203416,187,260256
13.124,203401,184,260249
13.129,203389,187,260271
13.134,203366,183,260226
13.139,203352,193,260226
13.144,203301,188,260212
13.148,203294,192,260213
13.153,203258,187,260211
13.158,203243,190,260203
13.163,203234,183,260221
13.168,203199,188,260198
13.173,203177,184,260226
13.178,203155,187,260213
13.183,203159,183,260208
13.188,203153,187,260226
13.193,203161,189,260228
13.198,203123,192,260247
13.203,203144,188,260241
13.208,203135,191,260260
13.213,203129,183,260269
13.218,203159,193,260270
13.223,203135,189,260291
13.228,203142,192,260310
13.233,203168,188,260318
13.238,203145,192,260291
13.243,203151,188,260330
13.248,203166,191,260343
13.253,203157,186,260340
13.258,203145,189,260361
13.263,203164,189,260346
13.268,203165,192,260359
13.273,203175,188,260366
13.277,203194,192,260394
13.282,203185,188,260386
13.287,203189,192,260392
13.292,203184,189,260412
13.297,203188,192,260415
13.302,203196,189,260393
13.307,203183,193,260396
13.312,203182,188,260399
13.317,203183,192,260394
13.322,203187,189,260373
13.327,203189,191,260384
13.332,203195,188,260375
13.337,203218,191,260402
13.342,203228,188,260421
13.347,203220,190,260435
13.352,203232,188,260430
13.357,203226,190,260425
13.362,203245,184,260418
13.367,203232,186,260414
13.372,203242,190,260396
13.377,203244,192,260400
13.382,203210,188,260387
13.387,203208,190,260382
13.392,203213,187,260374
13.397,203214,189,260386
13.401,203202,187,260341
13.406,203206,192,260369
13.411,203221,190,260375
13.416,203206,191,260339
13.421,203196,189,260340
13.426,203199,190,260312
13.431,203176,187,260309
13.436,203194,188,260307
13.441,203177,186,260286
13.446,203195,186,260287
13.451,203164,185,260246
13.456,203179,189,260277
13.461,203162,186,260269
13.466,203168,188,260262
13.471,203167,186,260260
13.476,203169,187,260276
13.481,203181,186,260271
13.486,203194,187,260288
13.491,203190,185,260259
13.496,203175,186,260279
13.501,203185,185,260296
13.506,203208,188,260301
13.511,203187,187,260301
13.516,203179,188,260292
13.521,203201,187,260288
13.525,203199,187,260278
13.530,203198,187,260298
13.535,203209,187,260292
13.540,203212,187,260300
13.545,203223,187,260284
13.550,203241,187,260275
13.555,203235,186,260290
13.560,203236,186,260271
13.565,203234,185,260292
13.570,203251,186,260269
13.575,203250,185,260270
13.580,203266,186,260278
13.585,203277,185,260260
13.590,203270,193,260271
13.595,203289,190,260288
13.600,203275,191,260260
13.605,203286,184,260262
13.610,203291,193,260262
13.615,203298,190,260281
13.620,203308,192,260279
13.625,203295,190,260294
13.630,203325,192,260305
13.635,203319,190,260287
13.640,203352,192,260300
13.645,203348,190,260290
13.649,203347,186,260279
13.654,203337,184,260273
13.659,203343,186,260263
13.664,203332,191,260250
13.669,203356,186,260265
13.674,203349,184,260239
13.679,203356,193,260228
13.684,203354,191,260221
13.689,203382,193,260235
13.694,203370,184,260213
13.699,203355,189,260169
13.704,203377,186,260166
13.709,203373,188,260196
13.714,203396,186,260186
13.719,203407,188,260205
13.724,203419,186,260199
13.729,203413,188,260206
13.734,203398,184,260219
13.739,203380,186,260219
13.744,203352,191,260203
13.749,203308,188,260176
13.754,203274,185,260153
13.759,203230,188,260108
13.764,203204,184,260076
13.769,203174,187,260060
13.774,203147,183,260009
13.778,203126,194,260009
13.783,203095,190,259991
13.788,203065,192,259959
13.793,203021,189,259952
13.798,203019,187,259949
13.803,203002,184,259910
13.808,202990,187,259915
13.813,202963,183,259900
13.818,202959,186,259880
13.823,202937,183,259870
13.828,202925,194,259850
13.833,202910,189,259863
13.838,202907,192,259850
13.843,202887,189,259792
13.848,202887,191,259812
13.853,202885,187,259816
13.858,202872,190,259817
13.863,202870,186,259821
13.868,202851,190,259790
13.873,202850,185,259796
13.878,202855,189,259813
13.883,202826,184,259772
13.888,202845,187,259801
13.893,202886,185,259798
13.898,202814,189,259803
13.902,202793,185,259795
13.907,202797,188,259753
13.912,202769,183,259771
13.917,202790,187,259743
13.922,202785,190,259721
13.927,202771,192,259730
13.932,202751,188,259702
13.937,202769,191,259696
13.942,202758,189,259680
13.947,202766,193,259684
13.952,202769,188,259693
13.957,202793,192,259697
13.962,202768,187,259690
13.967,202788,191,259683
13.972,202789,186,259680
13.977,202778,189,259666
13.982,202802,185,259683
13.987,202805,188,259682
13.992,202793,187,259672
13.997,202783,191,259654
14.002,202793,187,259663
14.007,202780,190,259661
14.012,202794,186,259647
14.017,202770,189,259650
14.022,202791,185,259631
14.026,202791,188,259645
14.031,202782,183,259619
14.036,202783,185,259600
14.041,202759,186,259633
14.046,202770,188,259620
14.051,202775,185,259618
14.056,202744,188,259618
14.061,202771,185,259644
14.066,202784,187,259633
14.071,202789,184,259625
14.076,202781,186,259656
14.081,202781,184,259641
14.086,202784,193,259659
14.091,202801,185,259650
14.096,202788,187,259644
14.101,202801,184,259661
14.106,202796,185,259648
14.111,202790,190,259657
14.116,202781,192,259653
14.121,202789,190,259643
14.126,202805,191,259645
14.131,202808,189,259646
14.136,202804,189,259659
14.141,202815,184,259667
14.146,202808,186,259675
14.151,202824,191,259673
14.155,202834,192,259644
14.160,202833,190,259665
14.165,202826,191,259674
14.170,202833,189,259682
14.175,202853,190,259706
14.180,202863,188,259716
14.185,202877,185,259712
14.190,202897,192,259751
14.195,202894,192,259739
14.200,202892,190,259732
14.205,202886,190,259736
14.210,202916,189,259766
14.215,202910,189,259772
14.220,202934,187,259792
14.225,202954,186,259810
14.230,202955,185,259807
14.235,202975,190,259899
14.240,202968,191,259846
14.245,202992,190,259859
14.250,202992,189,259870
14.255,203007,189,259891
14.260,203013,188,259890
14.265,203027,188,259900
14.270,203036,188,259915
14.275,203040,188,259945
14.279,203055,188,259965
14.284,203032,180,259977
14.289,203083,188,259983
14.294,203102,188,260010
14.299,203131,188,260005
14.304,203134,187,260000
14.309,203144,187,260006
14.314,203137,186,260029
14.319,203146,186,260029
14.324,203179,192,260040
14.329,203163,191,260050
14.334,203178,185,260057
14.339,203173,186,260084
14.344,203220,184,260093
14.349,203202,186,260120
14.354,203212,191,260117
14.359,203242,192,260160
14.364,203213,189,260173
14.369,203193,189,260171
14.374,203156,187,260139
14.379,203119,189,260120
14.384,203100,189,260084
14.389,203039,190,260058
14.394,202983,188,260033
14.399,202962,190,260002
14.403,202950,188,259993
14.408,202917,190,259987
14.413,202889,187,259968
14.418,202857,190,259950
14.423,202835,186,259930
14.428,202834,192,259905
14.433,202778,189,259909
14.438,202767,191,259902
14.443,202761,187,259898
14.448,202757,189,259888
14.453,202726,186,259880
14.458,202720,188,259881
14.463,202697,185,259865
14.468,202724,188,259865
14.473,202706,184,259856
14.478,202693,190,259852
14.483,202677,186,259830
14.488,202678,189,259865
14.493,202664,185,259834
14.498,202657,188,259823
14.503,202657,184,259835
14.508,202653,187,259822
14.513,202620,184,259831
14.518,202633,187,259817
14.523,202654,183,259828
14.528,202636,189,259837
14.532,202630,185,259815
14.537,202629,188,259825
14.542,202635,185,259808
14.547,202618,187,259795
14.552,202593,184,259776
14.557,202604,187,259780
14.562,202587,183,259779
14.567,202597,186,259760
14.572,202608,187,259755
14.577,202627,188,259774
14.582,202610,184,259760
14.587,202614,187,259756
14.592,202609,183,259765
14.597,202605,193,259765
14.602,202610,189,259751
14.607,202613,191,259742
14.612,202614,187,259750
14.617,202626,190,259743
14.622,202608,185,259733
14.627,202618,192,259735
14.632,202592,188,259738
14.637,202612,192,259718
14.642,202611,188,259721
14.647,202587,191,259743
14.652,202586,187,259716
14.656,202600,190,259699
14.661,202567,185,259680
14.666,202579,187,259689
14.671,202567,194,259673
14.676,202581,192,259678
14.681,202550,188,259659
14.686,202551,191,259650
14.691,202551,187,259656
14.696,202562,191,259631
14.701,202552,186,259640
14.706,202547,189,259624
14.711,202540,185,259615
14.716,202547,187,259602
14.721,202539,186,259582
14.726,202532,188,259579
14.731,202527,185,259541
14.736,202526,188,259563
14.741,202502,185,259522
14.746,202497,187,259508
14.751,202511,183,259481
14.756,202498,187,259452
14.761,202485,184,259421
14.766,202512,187,259411
14.771,202505,187,259418
14.776,202482,190,259384
14.780,202491,187,259380
14.785,202494,189,259363
14.790,202482,185,259340
14.795,202476,187,259374
14.800,202486,184,259331
14.805,202504,186,259310
14.810,202505,190,259300
14.815,202485,192,259312
14.820,202552,187,259310
14.825,202508,191,259302
14.830,202515,187,259284
14.835,202536,189,259284
14.840,202534,187,259301
14.845,202530,188,259298
14.850,202528,186,259289
14.855,202550,187,259297
14.860,202537,185,259273
14.865,202571,193,259286
14.870,202548,186,259293
14.875,202573,187,259270
14.880,202563,185,259274
14.885,202567,192,259283
14.890,202587,190,259265
14.895,202565,191,259274
14.900,202575,189,259260
14.905,202569,189,259262
14.909,202591,187,259274
14.914,202604,190,259320
14.919,202589,188,259255
14.924,202604,187,259242
14.929,202614,187,259255
14.934,202620,186,259254
14.939,202610,185,259249
14.944,202609,192,259244
14.949,202627,191,259233
14.954,202620,190,259252
14.959,202628,189,259261
14.964,202649,191,259294
14.969,202670,191,259319
14.974,202674,189,259357
14.979,202694,189,259385
14.984,202689,187,259404
14.989,202688,187,259423
14.994,202657,185,259412
14.999,202634,192,259432
15.004,202623,190,259397
15.009,202585,190,259392
15.014,202556,185,259378
15.019,202516,187,259362
15.024,202481,185,259343
15.029,202445,186,259337
15.033,202441,191,259319
15.038,202393,192,259298
15.043,202376,190,259315
15.048,202357,189,259292
15.053,202332,187,259290
15.058,202329,187,259288
15.063,202333,188,259279
15.068,202319,189,259289
15.073,202300,187,259271
15.078,202291,187,259285
15.083,202289,185,259288
15.088,202285,192,259278
15.093,202293,189,259314
15.098,202269,190,259297
15.103,202283,188,259286
15.108,202290,187,259277
15.113,202271,190,259270
15.118,202266,192,259297
15.123,202276,188,259305
15.128,202271,189,259276
15.133,202260,186,259288
15.138,202267,188,259280
15.143,202252,185,259273
15.148,202277,186,259288
15.153,202264,190,259297
15.157,202260,191,259295
15.162,202264,191,259292
15.167,202244,190,259280
15.172,202235,187,259277
15.177,202231,189,259287
15.182,202243,185,259275
15.187,202247,188,259270
15.192,202253,184,259280
15.197,202248,193,259316
15.202,202259,188,259298
15.207,202259,196,259306
15.212,202271,183,259315
15.217,202281,193,259334
15.222,202280,188,259332
15.227,202272,191,259356
15.232,202277,186,259347
15.237,202274,189,259357
15.242,202278,184,259338
15.247,202273,187,259372
15.252,202263,190,259358
15.257,202277,189,259355
15.262,202262,184,259368
15.267,202270,187,259364
15.272,202287,184,259356
15.277,202269,187,259370
15.281,202254,190,259363
15.286,202270,193,259377
15.291,202270,187,259361
15.296,202278,191,259381
15.301,202276,185,259383
15.306,202273,192,259408
15.311,202287,187,259388
15.316,202270,190,259385
15.321,202271,185,259408
15.326,202282,190,259413
15.331,202287,185,259416
15.336,202282,189,259403
15.341,202286,183,259407
15.346,202272,188,259407
15.351,202298,183,259404
15.356,202319,193,259392
15.361,202317,189,259408
15.366,202316,192,259415
15.371,202321,189,259408
15.376,202306,192,259387
15.381,202309,189,259402
15.386,202324,193,259409
15.391,202325,188,259395
15.396,202327,192,259412
15.401,202322,188,259392
15.406,202330,187,259397
15.410,202339,190,259403
15.415,202326,192,259395
15.420,202345,188,259376
15.425,202343,191,259391
15.430,202341,187,259389
15.435,202349,190,259384
15.440,202357,186,259388
15.445,202362,188,259391
15.450,202367,184,259407
15.455,202368,189,259394
15.460,202367,186,259404
15.465,202373,188,259373
15.470,202384,185,259400
15.475,202384,187,259416
15.480,202403,183,259385
15.485,202408,186,259424
15.490,202388,190,259408
15.495,202405,192,259404
15.500,202467,180,259419
15.505,202419,187,259390
15.510,202450,185,259403
15.515,202435,188,259399
15.520,202436,186,259397
15.525,202450,187,259396
15.530,202464,185,259384
15.534,202451,187,259390
15.539,202457,185,259414
15.544,202473,186,259389
15.549,202465,187,259411
15.554,202475,189,259408
15.559,202462,187,259394
15.564,202487,188,259388
15.569,202494,186,259388
15.574,202504,187,259389
15.579,202501,184,259368
15.584,202492,193,259374
15.589,202528,190,259385
15.594,202520,192,259376
15.599,202520,186,259378
15.604,202534,187,259379
15.609,202531,185,259374
15.614,202524,187,259387
15.619,202568,185,259382
15.624,202552,187,259402
15.629,202562,185,259385
15.634,202558,186,259383
15.639,202570,184,259396
15.644,202573,183,259386
15.649,202584,187,259378
15.654,202584,187,259384
15.658,202595,186,259380
15.663,202604,187,259412
15.668,202615,186,259391
15.673,202633,186,259450
15.678,202674,186,259508
15.683,202670,187,259530
15.688,202694,187,259556
15.693,202667,187,259582
15.698,202657,186,259591
15.703,202624,186,259566
15.708,202599,186,259562
15.713,202570,186,259540
15.718,202527,186,259512
15.723,202481,187,259513
15.728,202477,187,259487
15.733,202437,187,259483
15.738,202401,187,259484
15.743,202379,192,259485
15.748,202369,189,259453
15.753,202358,188,259441
15.758,202330,189,259439
15.763,202298,188,259437
15.768,202294,189,259426
15.773,202301,188,259420
15.778,202273,190,259421
15.783,202267,188,259397
15.787,202262,190,259426
15.792,202272,185,259409
15.797,202266,188,259408
15.802,202250,186,259370
15.807,202251,188,259381
15.812,202241,185,259399
15.817,202213,188,259374
15.822,202229,185,259382
15.827,202231,187,259381
15.832,202240,190,259341
15.837,202207,192,259355
15.842,202235,184,259374
15.847,202230,186,259378
15.852,202238,190,259389
15.857,202238,193,259380
15.862,202248,189,259392
15.867,202219,191,259390
15.872,202238,187,259363
15.877,202220,189,259364
15.882,202233,185,259373
15.887,202219,188,259358
15.892,202229,187,259365
15.897,202222,188,259360
15.902,202237,184,259367
15.907,202240,187,259361
15.911,202257,189,259374
15.916,202250,192,259391
15.921,202265,187,259393
15.926,202268,190,259415
15.931,202262,185,259394
15.936,202273,188,259398
15.941,202266,186,259398
15.946,202251,189,259399
15.951,202274,185,259406
15.956,202277,188,259423
15.961,202273,183,259393
15.966,202270,193,259406
15.971,202263,189,259417
15.976,202281,192,259416
15.981,202270,187,259430
15.986,202289,193,259471
15.991,202274,188,259432
15.996,202282,192,259439
16.001,202284,188,259416
16.006,202294,191,259457
16.011,202274,187,259453
16.016,202287,192,259448
16.021,202300,188,259456
16.026,202285,190,259445
16.031,202297,186,259454
16.035,202260,192,259453
16.040,202297,189,259465
16.045,202291,192,259454
16.050,202316,188,259457
16.055,202304,192,259430
16.060,202298,188,259434
16.065,202323,192,259425
16.070,202307,189,259456
16.075,202324,192,259424
16.080,202311,187,259462
16.085,202375,188,259488
16.090,202338,186,259487
16.095,202359,189,259522
16.100,202378,185,259530
16.105,202407,188,259518
16.110,202373,184,259519
16.115,202394,187,259533
16.120,202404,184,259548
16.125,202389,187,259552
16.130,202396,183,259552
16.135,202409,191,259525
16.140,202402,187,259534
16.145,202399,191,259537
16.150,202409,187,259535
16.155,202392,190,259508
16.160,202410,186,259518
16.164,202414,189,259517
16.169,202405,185,259517
16.174,202408,187,259510
16.179,202425,184,259518
16.184,202405,192,259509
16.189,202410,188,259516
16.194,202443,191,259484
16.199,202432,186,259509
16.204,202438,189,259495
16.209,202439,185,259514
16.214,202436,188,259495
16.219,202464,185,259504
16.224,202461,187,259527
16.229,202477,184,259495
16.234,202468,189,259499
16.239,202479,186,259515
16.244,202500,188,259527
16.249,202500,184,259537
16.254,202521,187,259518
16.259,202536,184,259520
16.264,202525,193,259542
16.269,202541,191,259510
16.274,202538,193,259539
16.279,202563,187,259498
16.284,202563,191,259530
16.288,202565,189,259543
16.293,202566,191,259543
16.298,202590,189,259559
16.303,202590,190,259539
16.308,202599,189,259562
16.313,202617,189,259579
16.318,202610,188,259553
16.323,202615,189,259540
16.328,202623,190,259551
16.333,202636,191,259536
16.338,202648,189,259533
16.343,202640,189,259524
16.348,202648,188,259549
16.353,202651,189,259552
16.358,202669,189,259567
16.363,202686,189,259594
16.368,202679,188,259568
16.373,202683,189,259578
16.378,202697,185,259578
16.383,202714,192,259589
16.388,202738,191,259625
16.393,202736,191,259641
16.398,202776,190,259686
16.403,202804,191,259732
16.408,202826,191,259774
16.412,202840,191,259831
16.417,202849,192,259871
16.422,202859,192,259899
16.427,202838,187,259893
16.432,202825,187,259912
16.437,202812,188,259911
16.442,202783,188,259906
16.447,202752,188,259885
16.452,202724,187,259902
16.457,202709,188,259889
16.462,202679,186,259875
16.467,202668,186,259878
16.472,202651,185,259861
16.477,202638,192,259847
16.482,202606,190,259862
16.487,202598,191,259836
16.492,202598,189,259837
16.497,202598,189,259831
16.502,202600,188,259843
16.507,202598,188,259834
16.512,202588,187,259853
16.517,202574,187,259846
16.522,202594,190,259843
16.527,202580,190,259855
16.532,202584,187,259852
16.537,202598,188,259842
16.541,202587,186,259839
16.546,202598,187,259879
16.551,202602,185,259875
16.556,202597,187,259853
16.561,202619,185,259881
16.566,202631,187,259884
16.571,202638,187,259875
16.576,202633,189,259888
16.581,202653,186,259903
16.586,202657,189,259888
16.591,202654,185,259905
16.596,202674,188,259893
16.601,202684,185,259884
16.606,202677,187,259890
16.611,202697,191,259865
16.616,202698,193,259873
16.621,202679,185,259864
16.626,202690,188,259884
16.631,202705,191,259897
16.636,202731,193,259924
16.641,202739,189,259930
16.646,202726,191,259938
16.651,202763,186,259956
16.656,202764,189,259970
16.661,202781,184,259972
16.665,202784,188,259976
16.670,202790,186,259974
16.675,202801,188,259974
16.680,202804,184,259988
16.685,202814,194,260006
16.690,202825,188,260016
16.695,202834,192,260018
16.700,202818,187,260022
16.705,202840,190,260043
16.710,202842,185,260059
16.715,202851,187,260066
16.720,202866,185,260076
16.725,202858,189,260069
16.730,202879,184,260073
16.735,202906,189,260082
16.740,202897,184,260094
16.745,202917,195,260113
16.750,202917,190,260104
16.755,202955,194,260133
16.760,202941,187,260120
16.765,202957,191,260161
16.770,202980,188,260152
16.775,202989,192,260182
16.780,202997,186,260174
16.785,203037,190,260194
16.789,203044,185,260221
16.794,203062,189,260232
16.799,203078,184,260237
16.804,203090,188,260299
16.809,203113,191,260290
16.814,203131,185,260327
16.819,203152,186,260337
16.824,203175,189,260341
16.829,203183,186,260360
16.834,203222,189,260379
16.839,203231,185,260406
16.844,203249,189,260440
16.849,203278,192,260439
16.854,203317,194,260468
16.859,203349,189,260486
16.864,203348,188,260507
16.869,203368,191,260506
16.874,203394,193,260526
16.879,203406,189,260544
16.884,203421,191,260571
16.889,203445,186,260609
16.894,203464,189,260588
16.899,203497,185,260632
16.904,203511,194,260658
16.909,203536,190,260675
16.913,203595,190,260686
16.918,203597,191,260711
16.923,203624,192,260765
16.928,203641,189,260767
16.933,203663,191,260806
16.938,203699,188,260811
16.943,203725,189,260834
16.948,203739,186,260855
16.953,203771,194,260892
16.958,203814,190,260925
16.963,203812,188,260928
16.968,203838,185,260950
16.973,203856,194,260945
16.978,203876,190,260952
16.983,203875,191,260978
16.988,203909,188,260988
16.993,203938,189,260985
16.998,203932,186,260993
17.003,203966,188,261002
17.008,203979,185,260994
17.013,204003,190,260989
17.018,203983,186,260977
17.023,203990,187,260972
17.028,204008,192,260990
17.033,204031,193,261004
17.038,204034,189,261001
17.042,204036,190,261011
17.047,204068,188,261044
17.052,204067,188,261031
17.057,204100,188,261077
17.062,204108,189,261030
17.067,204107,187,261051
17.072,204114,187,261032
17.077,204102,192,261040
17.082,204135,192,261068
17.087,204140,191,261104
17.092,204157,191,261121
17.097,204187,189,261138
17.102,204191,188,261181
17.107,204163,189,261229
17.112,204185,188,261213
17.117,204162,187,261220
17.122,204162,193,261213
17.127,204126,191,261201
17.132,204079,191,261187
17.137,204063,191,261153
17.142,204018,189,261128
17.147,203999,189,261119
17.152,203988,188,261071
17.157,203965,192,261054
17.162,203912,192,261015
17.166,203903,192,260996
17.171,203876,190,260967
17.176,203883,190,260941
17.181,203856,188,260927
17.186,203838,188,260923
17.191,203839,192,260914
17.196,203811,192,260896
17.201,203822,189,260868
17.206,203840,188,260890
17.211,203807,186,260873
17.216,203826,188,260864
17.221,203797,193,260843
17.226,203821,194,260822
17.231,203823,192,260846
17.236,203812,193,260824
17.241,203824,190,260808
17.246,203829,191,260794
17.251,203813,186,260792
17.256,203831,193,260786
17.261,203833,189,260771
17.266,203835,192,260746
17.271,203843,189,260757
17.276,203848,190,260763
17.281,203844,186,260744
17.286,203853,188,260736
17.290,203854,192,260737
17.295,203874,194,260709
17.300,203855,190,260693
17.305,203847,189,260663
17.310,203841,193,260634
17.315,203866,195,260646
17.320,203870,190,260647
17.325,203867,192,260624
17.330,203846,188,260626
17.335,203854,191,260615
17.340,203879,186,260584
17.345,203857,189,260579
17.350,203856,195,260539
17.355,203868,190,260530
17.360,203842,186,260492
17.365,203841,188,260468
17.370,203831,192,260444
17.375,203842,195,260422
17.380,203836,191,260404
17.385,203816,194,260343
17.390,203794,190,260309
17.395,203774,193,260269
17.400,203775,192,260219
17.405,203767,195,260195
17.410,203746,190,260161
17.415,203749,192,260129
17.419,203723,188,260092
17.424,203717,190,260056
17.429,203682,186,260005
17.434,203658,189,259970
17.439,203617,185,259897
17.444,203598,196,259839
17.449,203578,186,259758
17.454,203561,190,259698
17.459,203531,186,259617
17.464,203525,189,259567
17.469,203502,185,259536
17.474,203499,195,259482
17.479,203465,191,259451
17.484,203450,194,259399
17.489,203449,190,259388
17.494,203423,194,259367
17.499,203417,185,259342
17.504,203438,195,259322
17.509,203405,190,259293
17.514,203443,194,259273
17.519,203405,189,259274
17.524,203409,192,259246
17.529,203417,188,259253
17.534,203423,190,259245
17.539,203417,186,259243
17.543,203411,189,259233
17.548,203436,187,259194
17.553,203443,190,259202
17.558,203442,186,259216
17.563,203450,188,259220
17.568,203469,191,259233
17.573,203469,195,259217
17.578,203496,189,259235
17.583,203500,192,259218
17.588,203505,187,259236
17.593,203491,190,259239
17.598,203491,186,259240
17.603,203509,189,259236
17.608,203527,192,259250
17.613,203504,194,259238
17.618,203508,189,259226
17.623,203531,192,259250
17.628,203527,187,259231
17.633,203543,190,259226
17.638,203546,186,259207
17.643,203588,191,259203
17.648,203543,187,259187
17.653,203548,189,259174
17.658,203568,186,259163
17.663,203564,188,259150
17.667,203559,192,259131
17.672,203554,194,259119
17.677,203551,190,259099
17.682,203546,192,259095
17.687,203556,188,259060
17.692,203559,194,259052
17.697,203565,190,259036
17.702,203562,192,259036
17.707,203561,188,259011
17.712,203559,190,258979
17.717,203568,187,258961
17.722,203542,189,258938
17.727,203545,187,258912
17.732,203546,189,258907
17.737,203541,187,258886
17.742,203556,191,258886
17.747,203544,189,258873
17.752,203568,191,258872
17.757,203557,188,258853
17.762,203576,189,258886
17.767,203548,187,258879
17.772,203546,187,258882
17.777,203530,194,258901
17.782,203512,193,258884
17.787,203502,193,258892
17.792,203479,192,258863
17.796,203451,190,258857
17.801,203439,190,258880
17.806,203404,189,258870
17.811,203369,188,258859
17.816,203363,188,258862
17.821,203344,188,258831
17.826,203317,193,258839
17.831,203315,192,258851
17.836,203286,192,258843
17.841,203301,187,258852
17.846,203265,193,258855
17.851,203273,191,258840
17.856,203271,190,258854
17.861,203275,188,258855
17.866,203268,188,258844
17.871,203268,186,258847
17.876,203281,194,258843
17.881,203276,193,258851
17.886,203281,188,258834
17.891,203290,191,258844
17.896,203284,192,258859
17.901,203306,190,258880
17.906,203311,191,258868
17.911,203302,189,258856
17.916,203319,191,258872
17.920,203316,189,258877
17.925,203330,190,258889
17.930,203313,188,258878
17.935,203344,192,258884
17.940,203332,187,258856
17.945,203320,188,258881
17.950,203336,186,258876
17.955,203318,195,258872
17.960,203331,192,258883
17.965,203347,193,258898
17.970,203344,190,258863
17.975,203316,191,258894
17.980,203337,188,258877
17.985,203321,193,258873
17.990,203350,191,258873
17.995,203373,192,258907
18.000,203357,190,258916
18.005,203381,192,258919
18.010,203380,190,258926
18.015,203377,192,258914
18.020,203376,188,258911
18.025,203387,191,258893
18.030,203387,188,258922
18.035,203385,193,258910
18.040,203367,191,258898
18.044,203391,193,258898
18.049,203376,190,258889
18.054,203367,193,258892
18.059,203368,190,258913
18.064,203374,192,258893
18.069,203372,188,258905
18.074,203370,192,258893
18.079,203368,189,258907
18.084,203370,195,258908
18.089,203380,191,258919
18.094,203357,195,258908
18.099,203386,192,258924
18.104,203375,195,258929
18.109,203401,191,258918
18.114,203359,194,258933
18.119,203401,189,258928
18.124,203403,193,258920
18.129,203395,191,258948
18.134,203376,196,258917
18.139,203403,192,258928
18.144,203395,195,258914
18.149,203405,190,258924
18.154,203401,194,258921
18.159,203412,189,258923
18.164,203432,190,258928
18.169,203418,189,258940
18.173,203428,193,258946
18.178,203417,191,258936
18.183,203425,195,258955
18.188,203425,190,258931
18.193,203427,194,258948
18.198,203435,189,258944
18.203,203410,193,258924
18.208,203405,188,258939
18.213,203400,192,258922
18.218,203383,187,258919
18.223,203404,190,258942
18.228,203389,188,258918
18.233,203391,193,258952
18.238,203397,188,258940
18.243,203388,194,258927
18.248,203403,188,258965
18.253,203410,194,258981
18.258,203422,189,258998
18.263,203427,195,259000
18.268,203447,190,259028
18.273,203431,195,259030
18.278,203473,188,259009
18.283,203481,196,259042
18.288,203487,192,259075
18.293,203492,190,259087
18.297,203505,185,259086
18.302,203520,190,259080
18.307,203504,186,259093
18.312,203522,190,259111
18.317,203512,186,259107
18.322,203530,190,259120
18.327,203540,189,259114
18.332,203545,193,259114
18.337,203574,189,259121
18.342,203552,193,259106
18.347,203584,189,259130
18.352,203565,192,259111
18.357,203583,188,259142
18.362,203576,191,259124
18.367,203594,187,259131
18.372,203601,191,259138
18.377,203615,189,259150
18.382,203610,192,259158
18.387,203623,188,259178
18.392,203628,191,259152
18.397,203629,187,259190
18.402,203644,191,259188
18.407,203648,188,259203
18.412,203666,191,259195
18.417,203691,189,259194
18.421,203680,188,259243
18.426,203692,193,259264
18.431,203694,189,259270
18.436,203692,187,259275
18.441,203685,189,259295
18.446,203664,186,259297
18.451,203646,188,259300
18.456,203617,186,259287
18.461,203567,188,259258
18.466,203553,186,259237
18.471,203535,191,259216
18.476,203485,188,259200
18.481,203463,189,259165
18.486,203441,187,259173
18.491,203408,195,259162
18.496,203379,193,259149
18.501,203354,192,259114
18.506,203338,189,259104
18.511,203311,190,259109
18.516,203295,188,259105
18.521,203271,191,259097
18.526,203248,190,259062
18.531,203252,191,259048
18.536,203237,189,259039
18.541,203207,190,259013
18.545,203190,188,259016
18.550,203181,188,259018
18.555,203168,187,258999
18.560,203164,187,258989
18.565,203154,193,258985
18.570,203130,188,258971
18.575,203133,187,258983
18.580,203148,188,258977
18.585,203122,186,258966
18.590,203127,193,258980
18.595,203145,192,258972
18.600,203117,191,258966
18.605,203106,191,258992
18.610,203130,190,258987
18.615,203125,189,258978
18.620,203109,191,258961
18.625,203114,191,258971
18.630,203091,189,258948
18.635,203090,189,258925
18.640,203082,188,258924
18.645,203094,188,258902
18.650,203079,186,258896
18.655,203086,187,258894
18.660,203089,192,258922
18.665,203072,194,258954
18.670,203086,189,258923
18.674,203082,189,258933
18.679,203067,189,258928
18.684,203061,190,258914
18.689,203061,189,258925
18.694,203054,190,258936
18.699,203057,187,258941
18.704,203059,188,258958
18.709,203042,186,258951
18.714,203081,190,258939
18.719,203046,191,258957
18.724,203042,192,258973
18.729,203032,190,258966
18.734,203022,192,258939
18.739,203025,189,258966
18.744,203020,190,258956
18.749,203014,186,258967
18.754,203008,188,258968
18.759,203022,185,258996
18.764,203010,190,258980
18.769,203009,186,258985
18.774,203008,188,258979
18.779,202995,184,258989
18.784,203007,192,259021
18.789,202992,189,259016
18.794,203016,190,259040
18.798,203008,186,259051
18.803,203014,188,259062
18.808,203014,184,259071
18.813,203008,190,259059
18.818,203010,186,259114
18.823,203007,188,259092
18.828,203024,184,259117
18.833,203027,187,259140
18.838,203032,189,259124
18.843,203033,192,259130
18.848,203025,189,259161
18.853,203022,192,259163
18.858,203043,187,259184
18.863,203049,194,259186
18.868,203058,189,259217
18.873,203071,193,259213
18.878,203072,189,259218
18.883,203081,191,259238
18.888,203087,186,259262
18.893,203100,189,259270
18.898,203096,184,259284
18.903,203125,187,259308
18.908,203123,189,259334
18.913,203138,188,259325
18.918,203152,184,259325
18.922,203150,193,259334
18.927,203158,188,259360
18.932,203176,192,259331
18.937,203174,187,259349
18.942,203162,189,259359
18.947,203192,184,259344
18.952,203203,188,259372
18.957,203209,187,259340
18.962,203209,188,259383
18.967,203217,184,259368
18.972,203237,187,259391
18.977,203237,189,259387
18.982,203230,192,259420
18.987,203262,187,259420
18.992,203266,190,259430
18.997,203276,185,259438
19.002,203288,187,259465
19.007,203309,185,259429
19.012,203321,192,259453
19.017,203313,189,259468
19.022,203322,192,259486
19.027,203357,187,259503
19.032,203372,190,259550
19.037,203383,186,259588
19.042,203413,188,259597
19.047,203433,184,259631
19.051,203458,187,259701
19.056,203483,186,259734
19.061,203509,188,259796
19.066,203555,185,259888
19.071,203593,187,259943
19.076,203626,184,260007
19.081,203676,193,260096
19.086,203712,189,260153
19.091,203740,191,260229
19.096,203776,188,260305
19.101,203799,191,260371
19.106,203834,191,260431
19.111,203822,192,260477
19.116,203840,188,260542
19.121,203829,190,260580
19.126,203831,187,260622
19.131,203827,190,260638
19.136,203802,187,260669
19.141,203809,190,260690
19.146,203790,187,260715
19.151,203799,190,260749
19.156,203804,190,260741
19.161,203789,192,260759
19.166,203789,189,260805
19.171,203772,191,260789
19.175,203768,189,260823
19.180,203766,191,260849
19.185,203774,189,260834
19.190,203766,191,260854
19.195,203750,190,260869
19.200,203769,195,260867
19.205,203753,185,260851
19.210,203774,186,260855
19.215,203771,191,260876
19.220,203762,193,260885
19.225,203776,190,260901
19.230,203802,190,260938
19.235,203796,188,260931
19.240,203811,189,260958
19.245,203804,187,260984
19.250,203817,190,261003
19.255,203825,189,261008
19.260,203848,190,261017
19.265,203860,187,261033
19.270,203854,188,261019
19.275,203851,186,261006
19.280,203855,187,260996
19.285,203826,185,260949
19.290,203829,192,260919
19.295,203830,191,260899
19.299,203852,189,260888
19.304,203836,190,260885
19.309,203828,190,260868
19.314,203842,190,260843
19.319,203837,190,260855
19.324,203834,189,260850
19.329,203843,190,260841
19.334,203832,189,260845
19.339,203831,188,260822
19.344,203842,188,260830
19.349,203822,191,260797
19.354,203828,190,260805
19.359,203825,190,260816
19.364,203811,189,260804
19.369,203817,188,260797
19.374,203782,189,260787
19.379,203803,188,260792
19.384,203793,188,260753
19.389,203791,187,260781
19.394,203765,189,260743
19.399,203778,186,260745
19.404,203769,187,260743
19.409,203748,185,260712
19.414,203768,186,260699
19.419,203752,185,260684
19.424,203754,187,260688
19.428,203735,185,260667
19.433,203730,186,260633
19.438,203716,192,260639
19.443,203716,193,260609
19.448,203707,185,260585
19.453,203696,187,260576
19.458,203697,184,260537
19.463,203687,186,260518
19.468,203675,191,260524
19.473,203682,186,260472
19.478,203677,191,260492
19.483,203688,193,260467
19.488,203669,191,260458
19.493,203678,185,260443
19.498,203655,186,260435
19.503,203631,188,260404
19.508,203661,186,260382
19.513,203663,188,260371
19.518,203642,185,260357
19.523,203650,187,260332
19.528,203641,191,260311
19.533,203638,193,260286
19.538,203620,189,260258
19.543,203630,187,260245
19.548,203615,184,260215
19.552,203610,194,260205
19.557,203579,190,260135
19.562,203590,192,260129
19.567,203571,189,260123
19.572,203589,191,260080
19.577,203572,188,260051
19.582,203574,190,260039
19.587,203565,187,259996
19.592,203560,192,259985
19.597,203552,189,259960
19.602,203552,191,259920
19.607,203545,188,259898
19.612,203530,190,259837
19.617,203537,186,259821
19.622,203520,189,259803
19.627,203516,185,259771
19.632,203495,187,259721
19.637,203487,191,259692
19.642,203488,189,259644
19.647,203475,183,259622
19.652,203447,186,259553
19.657,203432,190,259535
19.662,203445,192,259514
19.667,203440,188,259472
19.672,203415,191,259448
19.676,203433,186,259445
19.681,203422,189,259433
19.686,203429,185,259422
19.691,203419,191,259393
19.696,203424,187,259371
19.701,203433,189,259362
19.706,203442,185,259391
19.711,203448,188,259405
19.716,203470,183,259456
19.721,203476,187,259469
19.726,203488,183,259474
19.731,203488,193,259471
19.736,203475,186,259465
19.741,203452,188,259493
19.746,203432,184,259480
19.751,203410,188,259453
19.756,203384,183,259437
19.761,203338,193,259402
19.766,203300,188,259392
19.771,203273,191,259382
19.776,203253,187,259346
19.781,203230,191,259331
19.786,203192,189,259292
19.791,203160,193,259279
19.796,203121,188,259269
19.800,203107,191,259250
19.805,203105,186,259218
19.810,203062,189,259219
19.815,203056,184,259227
19.820,203049,187,259205
19.825,203033,189,259194
19.830,203038,191,259181
19.835,203044,184,259226
19.840,203023,189,259172
19.845,203020,185,259172
19.850,203010,188,259157
19.855,203007,184,259147
19.860,202999,193,259149
19.865,202996,189,259143
19.870,202997,192,259138
19.875,203004,188,259129
19.880,202991,189,259141
19.885,203002,189,259123
19.890,203007,191,259134
19.895,203006,188,259116
19.900,202989,190,259119
19.905,203014,187,259149
19.910,203011,188,259128
19.915,203017,185,259122
19.920,202997,187,259137
19.925,203008,191,259130
19.929,203006,192,259121
19.934,203016,186,259134
19.939,203020,187,259127
19.944,203047,184,259135
19.949,203041,192,259135
19.954,203033,190,259147
19.959,203048,190,259148
19.964,203057,187,259127
19.969,203046,188,259108
19.974,203037,185,259115
19.979,203058,187,259149
19.984,203044,187,259119
19.989,203057,187,259127
19.994,203050,185,259105
19.999,203024,192,259121
20.004,203039,190,259101
20.009,203034,190,259097
20.014,203025,188,259085
20.019,203038,187,259068
20.024,203029,185,259069
20.029,203008,180,259053
20.034,203011,186,259057
20.039,203013,186,259054
20.044,203000,192,259048
20.049,203006,191,259039
20.053,203014,189,259033
20.058,202996,188,259038
20.063,202999,187,259036
20.068,202979,186,259020
20.073,202977,185,259031
20.078,203018,188,259006
20.083,202986,191,259011
20.088,202995,190,258997
20.093,203005,189,259018
20.098,203001,188,258995
20.103,202986,186,259003
20.108,203007,192,259000
20.113,203001,191,258982
20.118,203023,188,259006
20.123,203004,187,258996
20.128,203028,189,258998
20.133,203030,188,258998
20.138,203020,185,258986
20.143,203024,192,258984
20.148,203017,188,258981
20.153,203024,189,258983
20.158,203038,187,258971
20.163,203035,186,258977
20.168,203018,191,258962
20.173,203040,190,258964
20.177,203041,186,258964
20.182,203046,187,258977
20.187,203058,191,258969
20.192,203055,190,258982
20.197,203055,187,258962
20.202,203086,188,258995
20.207,203072,184,259000
20.212,203070,192,258989
20.217,203071,188,258987
20.222,203080,188,258994
20.227,203095,189,258983
20.232,203099,190,259005
20.237,203115,186,258997
20.242,203104,188,258992
20.247,203104,184,258986
20.252,203121,193,258974
20.257,203119,188,258958
20.262,203115,190,258985
20.267,203135,189,258979
20.272,203127,189,258968
20.277,203113,188,258955
20.282,203138,190,258944
20.287,203144,185,258935
20.292,203133,188,258927
20.297,203127,191,258914
20.302,203139,192,258926
20.306,203150,187,258892
20.311,203161,189,258912
20.316,203151,184,258900
20.321,203241,188,258945
20.326,203177,184,258978
20.331,203197,194,259000
20.336,203210,188,259034
20.341,203211,190,259032
20.346,203208,186,259048
20.351,203182,189,259043
20.356,203149,183,259043
20.361,203125,194,259026
20.366,203092,188,259027
20.371,203078,188,259013
20.376,203038,190,259005
20.381,203002,193,258989
20.386,202983,187,258949
20.391,202954,190,258930
20.396,202936,185,258894
20.401,202887,188,258881
20.406,202855,190,258860
20.411,202842,193,258856
20.416,202822,187,258837
20.421,202809,194,258843
20.426,202816,188,258835
20.430,202773,191,258813
20.435,202793,186,258812
20.440,202785,189,258799
20.445,202755,184,258787
20.450,202764,187,258784
20.455,202748,190,258773
20.460,202736,192,258762
20.465,202769,189,258747
20.470,202762,194,258746
20.475,202723,189,258752
20.480,202737,190,258770
20.485,202742,186,258760
20.490,202748,189,258758
20.495,202740,185,258762
20.500,202753,188,258740
20.505,202762,191,258740
20.510,202765,193,258736
20.515,202777,188,258751
20.520,202791,191,258762
20.525,202787,186,258756
20.530,202781,188,258764
20.535,202793,191,258740
20.540,202791,193,258745
20.545,202803,188,258760
20.550,202816,190,258761
20.554,202818,186,258789
20.559,202839,188,258803
20.564,202842,185,258823
20.569,202862,189,258831
20.574,202874,186,258846
20.579,202907,187,258841
20.584,202897,184,258846
20.589,202902,186,258857
20.594,202904,191,258874
20.599,202896,191,258871
20.604,202911,188,258874
20.609,202917,189,258874
20.614,202916,189,258895
20.619,202918,191,258898
20.624,202909,188,258863
20.629,202930,190,258888
20.634,202913,187,258878
20.639,202918,188,258906
20.644,202933,185,258911
20.649,202924,186,258884
20.654,202925,191,258891
20.659,202926,192,258900
20.664,202908,186,258904
20.669,202922,186,258928
20.674,202900,192,258943
20.679,202936,192,258940
20.683,202936,189,258958
20.688,202925,190,258976
20.693,202926,187,258985
20.698,202943,188,258981
20.703,202960,186,258993
20.708,202943,186,258997
20.713,202952,188,258983
20.718,202952,188,258985
20.723,202970,187,259007
20.728,202974,186,259004
20.733,202962,193,259007
20.738,202957,192,258977
20.743,202955,190,258980
20.748,202947,189,258999
20.753,202967,188,258988
20.758,202956,188,258991
20.763,202942,186,258976
20.768,202963,185,258989
20.773,202957,192,258977
20.778,202961,192,258978
20.783,202964,190,258986
20.788,202965,189,258978
20.793,202956,188,258994
20.798,202990,188,258998
20.803,202970,187,258980
20.807,202980,187,258993
20.812,202993,189,258968
20.817,202988,188,258957
20.822,202983,188,258937
20.827,202986,187,258945
20.832,202999,187,258948
20.837,203006,185,258953
20.842,203014,193,258937
20.847,203006,192,258940
20.852,203013,192,258910
20.857,202981,190,258956
20.862,203001,187,258932
20.867,203007,192,258913
20.872,203008,193,258931
20.877,203012,192,258918
20.882,203024,192,258929
20.887,203026,189,258961
20.892,203056,191,259004
20.897,203084,187,259048
20.902,203091,189,259112
20.907,203172,190,259164
20.912,203167,187,259225
20.917,203198,184,259279
20.922,203241,193,259345
20.927,203277,191,259417
20.931,203297,192,259484
20.936,203342,188,259561
20.941,203392,190,259655
20.946,203437,186,259725
20.951,203489,189,259845
20.956,203524,188,259910
20.961,203546,191,260016
20.966,203592,186,260077
20.971,203598,188,260133
20.976,203588,184,260183
20.981,203595,193,260217
20.986,203574,189,260247
20.991,203548,192,260263
20.996,203536,187,260280
21.001,203519,190,260312
21.006,203513,189,260338
21.011,203504,191,260374
21.016,203488,187,260392
21.021,203479,190,260407
21.026,203472,186,260421
21.031,203455,189,260431
21.036,203457,185,260450
21.041,203457,189,260458
21.046,203456,184,260467
21.051,203443,187,260488
21.056,203439,186,260500
21.060,203450,188,260490
21.065,203463,184,260496
21.070,203406,188,260469
21.075,203420,191,260457
21.080,203413,194,260426
21.085,203431,189,260416
21.090,203403,192,260408
21.095,203396,187,260371
21.100,203383,195,260359
21.105,203384,188,260338
21.110,203382,192,260329
21.115,203364,187,260338
21.120,203370,189,260336
21.125,203363,185,260298
21.130,203356,188,260294
21.135,203372,184,260300
21.140,203378,187,260280
21.145,203357,190,260278
21.150,203344,189,260252
21.155,203340,184,260238
21.160,203352,188,260251
21.165,203361,183,260246
21.170,203360,193,260243
21.175,203380,189,260245
21.180,203368,193,260236
21.184,203395,188,260230
21.189,203381,190,260229
21.194,203369,186,260216
21.199,203372,195,260179
21.204,203365,185,260169
21.209,203358,189,260140
21.214,203347,184,260130
21.219,203352,187,260145
21.224,203352,189,260115
21.229,203332,193,260118
21.234,203348,187,260102
21.239,203331,191,260108
21.244,203335,186,260113
21.249,203340,193,260111
21.254,203321,187,260101
21.259,203318,190,260092
21.264,203320,185,260090
21.269,203334,189,260105
21.274,203319,185,260089
21.279,203320,188,260087
21.284,203334,184,260110
21.289,203311,193,260089
21.294,203312,190,260071
21.299,203329,188,260056
21.304,203318,183,260072
21.308,203324,193,260075
21.313,203325,188,260056
21.318,203308,191,260037
21.323,203322,187,260035
21.328,203306,190,260039
21.333,203319,186,260028
21.338,203299,188,260001
21.343,203306,185,259999
21.348,203320,189,259967
21.353,203300,185,259952
21.358,203302,187,259946
21.363,203287,191,259900
21.368,203286,191,259898
21.373,203297,188,259884
21.378,203295,188,259856
21.383,203270,185,259853
21.388,203272,187,259801
21.393,203275,182,259794
21.398,203267,187,259762
21.403,203229,184,259747
21.408,203241,192,259728
21.413,203251,189,259702
21.418,203223,189,259675
21.423,203242,187,259650
21.428,203238,187,259644
21.432,203235,185,259631
21.437,203242,192,259629
21.442,203238,187,259623
21.447,203246,186,259599
21.452,203236,192,259573
21.457,203227,191,259556
21.462,203241,189,259540
21.467,203250,188,259535
21.472,203243,187,259538
21.477,203234,186,259510
21.482,203229,190,259504
21.487,203252,189,259515
21.492,203252,192,259464
21.497,203237,191,259471
21.502,203234,191,259448
21.507,203240,189,259466
21.512,203246,189,259441
21.517,203259,187,259423
21.522,203235,187,259434
21.527,203254,193,259444
21.532,203270,192,259426
21.537,203263,190,259427
21.542,203275,186,259425
21.547,203270,190,259396
21.552,203279,190,259410
21.557,203285,188,259386
21.561,203294,187,259393
21.566,203303,185,259395
21.571,203303,193,259396
21.576,203313,190,259428
21.581,203317,191,259436
21.586,203356,188,259448
21.591,203359,193,259464
21.596,203353,189,259459
21.601,203311,190,259476
21.606,203295,187,259454
21.611,203258,188,259439
21.616,203235,185,259393
21.621,203191,186,259365
21.626,203151,190,259359
21.631,203131,191,259324
21.636,203100,190,259323
21.641,203092,188,259265
21.646,203052,190,259245
21.651,203008,191,259237
21.656,203016,188,259231
21.661,202978,190,259207
21.666,202982,186,259203
21.671,202958,188,259197
21.676,202944,185,259162
21.681,202946,187,259171
21.685,202908,186,259141
21.690,202934,189,259140
21.695,202925,185,259116
21.700,202911,187,259114
21.705,202905,183,259073
21.710,202910,193,259062
21.715,202906,189,259069
21.720,202879,191,259057
21.725,202895,186,259045
21.730,202893,188,259057
21.735,202904,187,259026
21.740,202907,190,259024
21.745,202900,185,259012
21.750,202911,188,259004
21.755,202896,184,258981
21.760,202897,187,258979
21.765,202898,190,258977
21.770,202879,192,258970
21.775,202891,188,258945
21.780,202890,190,258942
21.785,202885,189,258934
21.790,202898,192,258933
21.795,202906,187,258945
21.800,202909,191,258952
21.805,202924,186,258941
21.809,202950,190,258918
21.814,202934,185,258934
21.819,202935,188,258936
21.824,202941,184,258925
21.829,202904,186,258926
21.834,202929,185,258928
21.839,202924,188,258929
21.844,202920,184,258918
21.849,202923,188,258908
21.854,202929,190,258901
21.859,202909,194,258885
21.864,202909,188,258875
21.869,202899,191,258898
21.874,202888,187,258870
21.879,202904,190,258868
21.884,202887,188,258852
21.889,202894,192,258847
21.894,202891,187,258863
21.899,202874,190,258858
21.904,202896,186,258842
21.909,202861,189,258829
21.914,202875,185,258840
21.919,202871,188,258825
21.924,202878,184,258807
21.929,202883,199,258822
21.934,202861,187,258794
21.938,202884,190,258791
21.943,202876,185,258801
21.948,202858,189,258800
21.953,202859,184,258774
21.958,202874,187,258757
21.963,202870,190,258769
21.968,202864,193,258780
21.973,202873,189,258783
21.978,202861,187,258780
21.983,202881,184,258771
21.988,202886,186,258780
21.993,202888,191,258756
21.998,202889,193,258761
22.003,202896,189,258757
22.008,202897,192,258742
22.013,202912,188,258760
22.018,202902,191,258727
22.023,202910,187,258731
22.028,202940,187,258723
22.033,202912,187,258723
22.038,202920,188,258711
22.043,202924,186,258738
22.048,202930,188,258701
22.053,202942,185,258746
22.058,202946,187,258733
22.062,202950,191,258720
22.067,202966,192,258720
22.072,202942,190,258721
22.077,202979,187,258718
22.082,202956,191,258717
22.087,202963,193,258697
22.092,202971,191,258712
22.097,202968,192,258706
22.102,202980,190,258697
22.107,202982,192,258695
22.112,202974,191,258685
22.117,202998,192,258695
22.122,203008,191,258685
22.127,203007,187,258688
22.132,203008,185,258695
22.137,203011,187,258672
22.142,203015,184,258679
22.147,203029,194,258673
22.152,203019,192,258656
22.157,203025,192,258649
22.162,203028,189,258637
22.167,203040,190,258631
22.172,203033,190,258675
22.177,203028,191,258641
22.182,203050,190,258632
22.186,203050,191,258656
22.191,203083,190,258672
22.196,203114,190,258726
22.201,203120,189,258742
22.206,203135,188,258799
22.211,203126,187,258818
22.216,203130,186,258843
22.221,203089,188,258809
22.226,203089,188,258830
22.231,203064,187,258790
22.236,203048,186,258777
22.241,202996,185,258786
22.246,202990,192,258769
22.251,202968,191,258762
22.256,202947,189,258750
22.261,202935,190,258747
22.266,202908,190,258752
22.271,202914,187,258731
22.276,202885,189,258719
22.281,202873,189,258717
22.286,202880,188,258720
22.291,202864,190,258705
22.296,202849,188,258738
22.301,202850,188,258704
22.306,202873,187,258701
22.311,202859,188,258720
22.315,202854,185,258699
22.320,202866,192,258708
22.325,202854,192,258699
22.330,202871,193,258719
22.335,202866,190,258702
22.340,202862,191,258706
22.345,202866,188,258716
22.350,202861,189,258702
22.355,202863,186,258695
22.360,202868,188,258715
22.365,202883,184,258737
22.370,202878,189,258700
22.375,202859,186,258697
22.380,202888,188,258716
22.385,202876,184,258700
22.390,202880,193,258696
22.395,202874,190,258680
22.400,202881,192,258689
22.405,202890,188,258679
22.410,202901,190,258679
22.415,202911,186,258690
22.420,202908,192,258699
22.425,202918,188,258719
22.430,202908,189,258692
22.435,202927,185,258700
22.439,202937,188,258694
22.444,202937,184,258715
22.449,202922,194,258716
22.454,202937,190,258710
22.459,202955,193,258716
22.464,202948,200,258717
22.469,202958,187,258740
22.474,202957,190,258728
22.479,202941,193,258723
22.484,202938,188,258741
22.489,202938,191,258748
22.494,202936,187,258714
22.499,202934,190,258765
22.504,202957,185,258732
22.509,202965,188,258753
22.514,202959,187,258745
22.519,202965,190,258780
22.524,202961,185,258746
22.529,202965,188,258751
22.534,202954,191,258757
22.539,202973,192,258746
22.544,202983,188,258746
22.549,202979,190,258736
22.554,202971,187,258742
22.559,202976,189,258751
22.563,202974,188,258760
22.568,202998,191,258758
22.573,203018,187,258745
22.578,203018,189,258754
22.583,203004,185,258765
22.588,202999,188,258759
22.593,203018,184,258773
22.598,203026,194,258776
22.603,203009,188,258761
22.608,203015,191,258773
22.613,203018,190,258775
22.618,203030,193,258754
22.623,203043,188,258765
22.628,203042,192,258777
22.633,203049,187,258774
22.638,203061,190,258765
22.643,203041,186,258785
22.648,203064,189,258760
22.653,203065,184,258755
22.658,203056,188,258740
22.663,203083,187,258773
22.668,203088,190,258759
22.673,203083,185,258769
22.678,203089,189,258787
22.683,203100,184,258785
22.688,203109,194,258789
22.692,203102,189,258784
22.697,203117,191,258797
22.702,203137,186,258780
22.707,203141,190,258803
22.712,203150,189,258820
22.717,203150,191,258811
22.722,203151,187,258831
22.727,203177,190,258809
22.732,203159,186,258820
22.737,203178,188,258838
22.742,203194,184,258847
22.747,203215,193,258869
22.752,203228,189,258861
22.757,203290,194,258867
22.762,203239,186,258907
22.767,203238,188,258883
22.772,203270,184,258902
22.777,203272,193,258924
22.782,203293,190,258961
22.787,203301,192,258990
22.792,203330,188,259038
22.797,203357,190,259058
22.802,203362,186,259106
22.807,203348,191,259122
22.812,203363,188,259121
22.816,203358,189,259159
22.821,203351,186,259135
22.826,203314,187,259146
22.831,203304,185,259127
22.836,203279,193,259120
22.841,203251,190,259132
22.846,203217,192,259111
22.851,203203,189,259090
22.856,203167,186,259064
22.861,203148,192,259056
22.866,203115,192,259022
22.871,203111,190,258995
22.876,203099,190,258982
22.881,203088,188,258985
22.886,203081,188,258988
22.891,203084,187,258993
22.896,203077,187,259009
22.901,203098,184,259008
22.906,203073,188,259011
22.911,203078,186,259011
22.916,203070,186,259000
22.921,203061,192,258994
22.926,203065,192,258979
22.931,203065,190,258985
22.936,203057,189,258986
22.940,203059,188,258996
22.945,203069,187,258994
22.950,203075,186,259011
22.955,203085,189,259008
22.960,203102,188,259005
22.965,203092,187,259026
22.970,203099,187,259003
22.975,203084,186,258997
22.980,203087,185,259006
22.985,203071,192,259012
22.990,203087,191,258982
22.995,203084,189,258999
23.000,203084,189,258959
23.005,203064,189,258973
23.010,203086,190,258980
23.015,203102,188,258981
23.020,203096,188,258993
23.025,203102,187,259015
23.030,203129,186,258988
23.035,203125,192,259028
23.040,203114,192,259022
23.045,203118,191,259025
23.050,203128,186,259024
23.055,203131,185,259039
23.060,203137,193,259021
23.064,203132,190,259001
23.069,203121,192,259024
23.074,203137,189,259008
23.079,203140,189,259032
23.084,203136,187,259035
23.089,203119,188,259011
23.094,203129,186,259003
23.099,203128,190,259033
23.104,203127,187,259012
23.109,203130,189,259009
23.114,203142,185,259010
23.119,203132,187,259002
23.124,203138,184,259011
23.129,203138,194,258986
23.134,203122,190,258987
23.139,203143,191,258988
23.144,203109,187,258979
23.149,203142,185,258960
23.154,203142,186,258949
23.159,203079,187,258975
23.164,203128,184,258947
23.169,203127,188,258945
23.174,203117,185,258951
23.179,203132,188,258938
23.184,203127,184,258960
23.189,203124,188,258939
23.193,203119,184,258961
23.198,203128,191,258945
23.203,203131,187,258921
23.208,203130,190,258921
23.213,203145,185,258937
23.218,203138,187,258934
23.223,203134,183,258926
23.228,203154,194,258922
23.233,203150,190,258918
23.238,203160,192,258933
23.243,203152,188,258881
23.248,203154,194,258901
23.253,203169,190,258924
23.258,203172,192,258901
23.263,203178,188,258916
23.268,203177,192,258911
23.273,203204,187,258906
23.278,203169,191,258915
23.283,203193,186,258893
23.288,203182,190,258895
23.293,203206,181,258871
23.298,203202,188,258889
23.303,203195,184,258891
23.308,203193,194,258865
23.313,203200,189,258855
23.317,203210,193,258851
23.322,203208,188,258832
23.327,203214,192,258828
23.332,203200,187,258807
23.337,203207,191,258801
23.342,203208,191,258795
23.347,203210,194,258775
23.352,203229,189,258777
23.357,203209,192,258762
23.362,203232,188,258747
23.367,203250,191,258719
23.372,203221,187,258727
23.377,203232,189,258709
23.382,203227,186,258682
23.387,203235,189,258691
23.392,203229,188,258659
23.397,203241,190,258696
23.402,203244,187,258701
23.407,203251,190,258735
23.412,203267,186,258765
23.417,203273,190,258784
23.422,203255,186,258777
23.427,203271,188,258789
23.432,203237,184,258792
23.437,203217,189,258786
23.441,203153,189,258771
23.446,203155,192,258741
23.451,203129,188,258731
23.456,203084,191,258720
23.461,203052,186,258713
23.466,203031,190,258662
23.471,203025,186,258666
23.476,202985,189,258642
23.481,202979,185,258635
23.486,202955,187,258604
23.491,202931,187,258607
23.496,202909,189,258598
23.501,202915,186,258580
23.506,202912,188,258583
23.511,202887,184,258578
23.516,202892,187,258581
23.521,202880,184,258574
23.526,202880,187,258574
23.531,202869,184,258536
23.536,202862,188,258533
23.541,202875,187,258537
23.546,202863,190,258538
23.551,202876,187,258523
23.556,202871,189,258543
23.561,202863,186,258526
23.566,202863,188,258501
23.570,202850,185,258523
23.575,202874,187,258520
23.580,202864,184,258504
23.585,202840,189,258517
23.590,202870,186,258509
23.595,202863,187,258505
23.600,202879,185,258508
23.605,202866,193,258500
23.610,202854,192,258487
23.615,202852,192,258472
23.620,202854,190,258501
23.625,202869,191,258469
23.630,202896,189,258508
23.635,202888,186,258467
23.640,202894,192,258492
23.645,202866,192,258500
23.650,202869,190,258510
23.655,202899,189,258517
23.660,202903,188,258493
23.665,202909,187,258504
23.670,202901,186,258501
23.675,202907,185,258496
23.680,202891,193,258502
23.685,202904,187,258472
23.690,202888,187,258488
23.694,202890,186,258475
23.699,202885,185,258476
23.704,202884,192,258472
23.709,202886,192,258472
23.714,202881,192,258469
23.719,202888,191,258468
23.724,202866,191,258485
23.729,202868,190,258489
23.734,202872,189,258482
23.739,202876,188,258487
23.744,202874,189,258458
23.749,202886,189,258469
23.754,202869,188,258435
23.759,202868,188,258470
23.764,202878,187,258454
23.769,202864,188,258458
23.774,202873,187,258460
23.779,202888,188,258458
23.784,202882,189,258461
23.789,202903,189,258449
23.794,202889,187,258467
23.799,202903,188,258462
23.804,202895,186,258470
23.809,202902,194,258462
23.814,202896,191,258468
23.818,202903,192,258478
23.823,202910,191,258458
23.828,202973,185,258459
23.833,202916,189,258449
23.838,202934,191,258483
23.843,202923,188,258478
23.848,202925,191,258472
23.853,202953,189,258463
23.858,202950,190,258473
23.863,202942,188,258473
23.868,202951,190,258478
23.873,202966,187,258474
23.878,202967,192,258472
23.883,202969,189,258480
23.888,202969,191,258472
23.893,202966,189,258488
23.898,202995,191,258484
23.903,202977,187,258504
23.908,202976,190,258504
23.913,203004,187,258503
23.918,202998,190,258489
23.923,203007,186,258490
23.928,203012,192,258500
23.933,203026,189,258470
23.938,203038,192,258483
23.943,203028,188,258490
23.947,203023,191,258491
23.952,203054,187,258502
23.957,203045,190,258483
23.962,203046,185,258500
23.967,203049,189,258514
23.972,203075,183,258532
23.977,203074,191,258540
23.982,203082,187,258549
23.987,203093,191,258551
23.992,203100,187,258540
23.997,203129,190,258551
24.002,203120,187,258563
24.007,203114,191,258530
24.012,203119,186,258559
24.017,203116,189,258548
24.022,203126,184,258535
24.027,203124,190,258553
24.032,203144,186,258557
24.037,203152,189,258567
24.042,203163,185,258598
24.047,203168,188,258638
24.052,203179,184,258664
24.057,203175,195,258697
24.062,203186,190,258695
24.067,203177,193,258703
24.071,203138,191,258686
24.076,203122,188,258661
24.081,203085,191,258663
24.086,203066,194,258636
24.091,203025,189,258604
24.096,203002,193,258571
24.101,202995,188,258551
24.106,202996,192,258556
24.111,202960,188,258575
24.116,202939,191,258542
24.121,202961,190,258542
24.126,202920,189,258519
24.131,202936,184,258538
24.136,202906,188,258547
24.141,202926,190,258532
24.146,202913,193,258536
24.151,202916,188,258541
24.156,202915,191,258533
24.161,202927,185,258528
24.166,202912,188,258519
24.171,202909,188,258508
24.176,202924,191,258489
24.181,202897,186,258453
24.186,202909,190,258451
24.191,202900,185,258447
24.195,202902,188,258393
24.200,202879,183,258389
24.205,202878,194,258357
24.210,202842,190,258304
24.215,202853,193,258268
24.220,202823,184,258179
24.225,202809,188,258100
24.230,202793,191,257999
24.235,202756,194,257879
24.240,202740,190,257779
24.245,202680,192,257639
24.250,202646,188,257493
24.255,202641,191,257359
24.260,202643,186,257278
24.265,202632,189,257184
24.270,202653,189,257105
24.275,202674,191,257037
24.280,202717,188,256988
24.285,202750,190,256964
24.290,202765,187,256923
24.295,202818,189,256869
24.300,202833,186,256858
24.305,202863,189,256826
24.310,202917,187,256823
24.315,202959,189,256778
24.320,202972,189,256720
24.324,202999,189,256692
24.329,203022,187,256627
24.334,203027,188,256574
24.339,203050,185,256492
24.344,203057,187,256427
24.349,203065,185,256387
24.354,203084,186,256338
24.359,203106,191,256262
24.364,203172,187,256237
24.369,203136,185,256170
24.374,203111,186,256082
24.379,203124,192,256016
24.384,203122,191,255976
24.389,203138,189,255902
24.394,203145,189,255817
24.399,203130,188,255748
24.404,203145,188,255679
24.409,203129,187,255572
24.414,203132,190,255522
24.419,203151,189,255457
24.424,203164,189,255383
24.429,203154,188,255318
24.434,203164,187,255250
24.439,203157,187,255161
24.444,203157,194,255094
24.448,203140,192,255010
24.453,203152,192,254950
24.458,203164,191,254876
24.463,203184,193,254802
24.468,203184,192,254749
24.473,203193,190,254660
24.478,203190,189,254585
24.483,203183,189,254527
24.488,203215,188,254461
24.493,203232,188,254417
24.498,203264,187,254333
24.503,203281,186,254313
24.508,203340,192,254281
24.513,203389,186,254249
24.518,203410,192,254240
24.523,203456,190,254246
24.528,203502,189,254232
24.533,203550,187,254261
24.538,203579,186,254279
24.543,203626,191,254275
24.548,203690,191,254297
24.553,203703,188,254321
24.558,203753,188,254330
24.563,203783,186,254345
24.568,203824,187,254348
24.572,203830,192,254362
24.577,203860,192,254345
24.582,203884,190,254359
24.587,203903,191,254368
24.592,203929,188,254333
24.597,203926,190,254326
24.602,203943,187,254302
24.607,203926,187,254260
24.612,203929,188,254259
24.617,203941,189,254216
24.622,203936,185,254193
24.627,203929,194,254149
24.632,203943,190,254126
24.637,203906,191,254066
24.642,203950,187,254046
24.647,203923,189,254028
24.652,203931,191,253962
24.657,203930,189,253954
24.662,203906,189,253895
24.667,203922,191,253869
24.672,203909,187,253839
24.677,203909,189,253812
24.682,203904,185,253751
24.687,203892,188,253713
24.692,203879,191,253713
24.696,203888,193,253672
24.701,203897,188,253680
24.706,203892,193,253686
24.711,203899,189,253660
24.716,203914,191,253671
24.721,203886,186,253632
24.726,203883,189,253619
24.731,203834,184,253571
24.736,203833,193,253548
24.741,203791,188,253511
24.746,203751,190,253489
24.751,203699,185,253453
24.756,203680,191,253436
24.761,203622,186,253381
24.766,203616,188,253394
24.771,203593,191,253394
24.776,203574,194,253427
24.781,203580,188,253455
24.786,203583,189,253510
24.791,203617,185,253564
24.796,203620,188,253644
24.801,203663,190,253724
24.806,203679,188,253807
24.811,203718,191,253906
24.816,203742,193,253995
24.821,203743,187,254076
24.825,203767,189,254132
24.830,203790,183,254173
24.835,203803,193,254240
24.840,203795,188,254271
24.845,203799,191,254308
24.850,203827,186,254361
24.855,203811,192,254404
24.860,203837,187,254463
24.865,203830,190,254504
24.870,203868,185,254606
24.875,203887,189,254677
24.880,203906,183,254785
24.885,203931,193,254885
24.890,203994,189,254974
24.895,204030,191,255110
24.900,204075,185,255239
24.905,204112,193,255352
24.910,204149,189,255512
24.915,204182,193,255638
24.920,204251,187,255785
24.925,204297,189,255929
24.930,204318,184,256064
24.935,204357,194,256135
24.940,204394,188,256228
24.945,204391,191,256318
24.949,204423,191,256373
24.954,204410,187,256401
24.959,204413,190,256466
24.964,204419,193,256484
24.969,204413,188,256514
24.974,204409,190,256541
24.979,204392,185,256556
24.984,204408,194,256564
24.989,204399,190,256612
24.994,204415,192,256621
24.999,204413,191,256648
25.004,204415,193,256689
25.009,204410,188,256716
25.014,204433,190,256744
25.019,204425,186,256784
25.024,204428,188,256802
25.029,204438,192,256839
25.034,204424,192,256860
25.039,204434,188,256866
25.044,204434,189,256881
25.049,204446,189,256884
25.054,204430,190,256860
25.059,204425,186,256858
25.064,204400,187,256864
25.069,204391,185,256857
25.073,204370,193,256839
25.078,204375,190,256815
25.083,204362,190,256782
25.088,204351,187,256773
25.093,204328,188,256736
25.098,204314,188,256710
25.103,204293,188,256689
25.108,204281,186,256664
25.113,204273,186,256633
25.118,204259,185,256626
25.123,204259,193,256624
25.128,204245,191,256655
25.133,204241,192,256614
25.138,204242,190,256642
25.143,204229,191,256666
25.148,204233,191,256685
25.153,204230,189,256715
25.158,204253,188,256764
25.163,204277,187,256844
25.168,204297,185,256991
25.173,204384,192,257161
25.178,204454,191,257372
25.183,204528,189,257561
25.188,204591,189,257765
25.193,204639,192,257987
25.198,204731,191,258179
25.202,204820,190,258352
25.207,204885,190,258524
25.212,204970,188,258688
25.217,205032,188,258825
25.222,205063,186,258949
25.227,205105,193,259053
25.232,205134,192,259144
25.237,205170,192,259218
25.242,205216,187,259283
25.247,205217,189,259334
25.252,205248,186,259390
25.257,205272,187,259433
25.262,205346,195,259474
25.267,205303,193,259557
25.272,205335,191,259611
25.277,205355,190,259637
25.282,205367,188,259702
25.287,205399,189,259745
25.292,205412,192,259782
25.297,205420,191,259806
25.302,205432,189,259835
25.307,205446,190,259842
25.312,205447,187,259834
25.317,205413,189,259838
25.322,205439,186,259837
25.326,205414,188,259837
25.331,205419,186,259789
25.336,205384,187,259779
25.341,205400,187,259806
25.346,205395,188,259803
25.351,205411,185,259823
25.356,205417,193,259856
25.361,205407,190,259858
25.366,205383,191,259857
25.371,205362,187,259845
25.376,205307,188,259848
25.381,205285,185,259821
25.386,205246,193,259805
25.391,205200,185,259793
25.396,205182,187,259768
25.401,205128,191,259728
25.406,205099,193,259720
25.411,205035,187,259694
25.416,204998,189,259654
25.421,204967,184,259650
25.426,204923,195,259580
25.431,204905,188,259585
25.436,204887,203,259583
25.441,204859,189,259608
25.446,204855,190,259604
25.450,204854,185,259635
25.455,204850,188,259667
25.460,204856,183,259688
25.465,204868,193,259719
25.470,204870,188,259760
25.475,204871,191,259804
25.480,204878,186,259823
25.485,204896,192,259886
25.490,204901,188,259933
25.495,204910,191,259971
25.500,204927,185,260038
25.505,204938,189,260085
25.510,204961,183,260131
25.515,204955,194,260177
25.520,204959,188,260208
25.525,204960,192,260199
25.530,204948,187,260203
25.535,204965,189,260218
25.540,204938,186,260209
25.545,204940,189,260211
25.550,204930,185,260213
25.555,204917,188,260220
25.560,204926,184,260223
25.565,204949,188,260259
25.570,204950,191,260267
25.575,204965,193,260334
25.579,204962,189,260338
25.584,204981,188,260378
25.589,204994,184,260427
25.594,204989,194,260408
25.599,204992,189,260421
25.604,204986,192,260443
25.609,204986,188,260461
25.614,205000,191,260449
25.619,204999,187,260485
25.624,204974,191,260470
25.629,204989,187,260489
25.634,204957,193,260471
25.639,204960,189,260498
25.644,204944,193,260490
25.649,204946,189,260510
25.654,204936,192,260520
25.659,204943,187,260532
25.664,204953,190,260531
25.669,204926,185,260545
25.674,204917,188,260558
25.679,204937,185,260611
25.684,204932,189,260585
25.689,204947,185,260569
25.694,204938,188,260596
25.699,204938,184,260623
25.703,204950,188,260625
25.708,204951,184,260632
25.713,204943,187,260644
25.718,204943,184,260648
25.723,204930,187,260630
25.728,204915,187,260658
25.733,204908,190,260642
25.738,204903,187,260629
25.743,204897,190,260602
25.748,204878,187,260594
25.753,204896,191,260587
25.758,204864,187,260576
25.763,204879,190,260595
25.768,204856,187,260567
25.773,204871,189,260584
25.778,204851,189,260551
25.783,204854,190,260551
25.788,204862,188,260560
25.793,204856,189,260562
25.798,204861,186,260547
25.803,204849,187,260519
25.808,204859,192,260510
25.813,204841,192,260501
25.818,204834,191,260499
25.823,204822,191,260487
25.827,204802,192,260462
25.832,204803,192,260440
25.837,204809,190,260420
25.842,204797,190,260396
25.847,204779,188,260412
25.852,204776,188,260375
25.857,204774,187,260371
25.862,204769,187,260369
25.867,204771,186,260333
25.872,204752,191,260348
25.877,204758,187,260360
25.882,204752,186,260348
25.887,204734,185,260372
25.892,204766,192,260383
25.897,204749,190,260398
25.902,204754,190,260394
25.907,204754,188,260389
25.912,204749,188,260394
25.917,204771,187,260405
25.922,204781,187,260427
25.927,204762,185,260436
25.932,204776,192,260452
25.937,204790,191,260431
25.942,204792,191,260443
25.947,204791,190,260450
25.952,204758,189,260442
25.956,204762,188,260408
25.961,204752,187,260400
25.966,204754,187,260399
25.971,204746,196,260412
25.976,204774,188,260406
25.981,204777,186,260435
25.986,204789,186,260465
25.991,204806,191,260499
25.996,204805,191,260531
26.001,204806,188,260564
26.006,204801,188,260589
26.011,204792,186,260603
26.016,204753,186,260595
26.021,204751,188,260586
26.026,204701,188,260570
26.031,204670,185,260575
26.036,204621,186,260562
26.041,204612,191,260552
26.046,204591,191,260541
26.051,204540,188,260512
26.056,204529,189,260513
26.061,204491,186,260465
26.066,204460,187,260455
26.071,204427,187,260442
26.076,204422,188,260410
26.080,204411,184,260419
26.085,204387,193,260392
26.090,204352,189,260395
26.095,204345,191,260365
26.100,204325,187,260373
26.105,204324,189,260364
26.110,204315,186,260363
26.115,204310,187,260367
26.120,204273,190,260328
26.125,204276,192,260326
26.130,204261,188,260300
26.135,204255,190,260303
26.140,204232,186,260308
26.145,204234,188,260288
26.150,204245,183,260294
26.155,204234,193,260269
26.160,204231,188,260274
26.165,204205,191,260261
26.170,204200,182,260255
26.175,204191,192,260238
26.180,204167,188,260232
26.185,204159,190,260215
26.190,204154,186,260204
26.195,204164,188,260195
26.200,204144,183,260194
26.204,204150,193,260199
26.209,204147,187,260176
26.214,204150,190,260159
26.219,204152,187,260208
26.224,204172,189,260216
26.229,204145,185,260194
26.234,204160,186,260221
26.239,204162,189,260231
26.244,204177,191,260235
26.249,204164,185,260241
26.254,204147,187,260210
26.259,204138,183,260214
26.264,204137,181,260206
26.269,204132,183,260204
26.274,204140,193,260194
26.279,204126,188,260191
26.284,204125,189,260205
26.289,204106,185,260192
26.294,204114,188,260198
26.299,204097,183,260174
26.304,204097,193,260175
26.309,204073,188,260179
26.314,204084,186,260191
26.319,204070,188,260151
26.324,204073,190,260148
26.328,204076,186,260154
26.333,204049,188,260160
26.338,204072,184,260131
26.343,204064,186,260158
26.348,204042,189,260135
26.353,204054,190,260126
26.358,204039,185,260148
26.363,204058,181,260115
26.368,204057,182,260128
26.373,204049,193,260102
26.378,204018,187,260088
26.383,204033,189,260084
26.388,204042,185,260067
26.393,204030,187,260087
26.398,204026,183,260048
26.403,204021,193,260055
26.408,204012,188,260053
26.413,204021,186,260026
26.418,204026,190,260028
26.423,204013,192,259999
26.428,204016,187,260018
26.433,204023,189,260022
26.438,204016,184,259989
26.443,204017,186,259964
26.448,204036,190,259969
26.453,204036,190,259956
26.457,204016,187,259964
26.462,204023,192,259938
26.467,204029,189,259950
26.472,204023,190,259917
26.477,204036,186,259928
26.482,204018,188,259899
26.487,204018,186,259895
26.492,204034,187,259880
26.497,204019,184,259891
26.502,204020,193,259890
26.507,204023,186,259880
26.512,204048,186,259896
26.517,204048,190,259896
26.522,204046,190,259888
26.527,204034,187,259888
26.532,204051,187,259884
26.537,204035,184,259892
26.542,204048,191,259887
26.547,204053,188,259913
26.552,204071,188,259934
26.557,204118,188,259950
26.562,204086,188,259950
26.567,204117,184,259960
26.572,204106,191,259958
26.577,204102,188,259987
26.581,204116,189,260001
26.586,204128,186,259997
26.591,204120,193,260020
26.596,204138,190,260010
26.601,204146,189,260007
26.606,204157,192,260023
26.611,204137,186,260031
26.616,204138,191,260031
26.621,204141,190,260019
26.626,204143,188,260012
26.631,204158,188,260027
26.636,204161,186,260042
26.641,204154,192,260040
26.646,204195,190,260075
26.651,204217,189,260104
26.656,204195,192,260113
26.661,204219,189,260159
26.666,204198,188,260168
26.671,204204,187,260187
26.676,204188,186,260192
26.681,204158,191,260164
26.686,204120,190,260144
26.691,204094,187,260132
26.696,204068,187,260114
26.701,204025,190,260088
26.705,203982,191,260070
26.710,203960,188,260058
26.715,203925,188,260023
26.720,203893,185,260016
26.725,203876,193,259989
26.730,203853,189,259974
26.735,203819,190,259964
26.740,203820,187,259974
26.745,203800,188,259956
26.750,203780,185,259946
26.755,203791,188,259936
26.760,203770,185,259925
26.765,203765,193,259927
26.770,203774,189,259910
26.775,203770,189,259894
26.780,203741,185,259892
26.785,203729,194,259889
26.790,203733,189,259877
26.795,203732,189,259864
26.800,203730,192,259862
26.805,203711,190,259865
26.810,203725,186,259843
26.815,203708,187,259843
26.820,203730,190,259858
26.825,203706,191,259809
26.830,203718,187,259838
26.834,203699,189,259851
26.839,203713,185,259838
26.844,203707,187,259832
26.849,203719,185,259812
26.854,203707,187,259815
26.859,203712,190,259809
26.864,203708,191,259793
26.869,203734,187,259812
26.874,203721,189,259822
26.879,203731,184,259813
26.884,203737,193,259823
26.889,203738,189,259830
26.894,203723,190,259833
26.899,203747,189,259837
26.904,203760,191,259849
26.909,203740,187,259848
26.914,203729,189,259835
26.919,203718,183,259836
26.924,203743,193,259832
26.929,203729,188,259847
26.934,203730,190,259840
26.939,203721,185,259846
26.944,203731,187,259819
26.949,203706,185,259809
26.954,203701,187,259809
26.958,203690,190,259803
26.963,203719,193,259799
26.968,203706,187,259792
26.973,203702,190,259796
26.978,203684,184,259800
26.983,203690,187,259774
26.988,203681,189,259769
26.993,203691,191,259733
26.998,203669,189,259730
27.003,203670,191,259710
27.008,203669,185,259707
27.013,203660,188,259667
27.018,203634,190,259659
27.023,203635,192,259653
27.028,203657,186,259637
27.033,203639,189,259626
27.038,203642,183,259618
27.043,203637,187,259623
27.048,203628,188,259605
27.053,203627,191,259615
27.058,203647,186,259596
27.063,203621,189,259590
27.068,203641,185,259586
27.073,203649,187,259566
27.078,203625,190,259550
27.082,203643,192,259540
27.087,203665,187,259532
27.092,203599,189,259510
27.097,203637,187,259510
27.102,203650,189,259502
27.107,203639,184,259502
27.112,203641,194,259517
27.117,203630,188,259478
27.122,203648,190,259485
27.127,203647,185,259459
27.132,203646,187,259436
27.137,203635,189,259428
27.142,203635,188,259440
27.147,203651,191,259443
27.152,203643,192,259424
27.157,203650,187,259417
27.162,203651,189,259411
27.167,203633,185,259415
27.172,203652,194,259408
27.177,203669,189,259378
27.182,203654,190,259373
27.187,203658,187,259364
27.192,203660,191,259360
27.197,203665,187,259384
27.202,203660,187,259348
27.207,203649,191,259343
27.211,203665,192,259351
27.216,203671,188,259340
27.221,203675,188,259339
27.226,203678,185,259340
27.231,203671,193,259327
27.236,203704,190,259353
27.241,203686,187,259341
27.246,203701,192,259342
27.251,203697,191,259297
27.256,203701,188,259332
27.261,203717,188,259308
27.266,203728,186,259325
27.271,203711,193,259314
27.276,203726,190,259302
27.281,203711,190,259307
27.286,203733,188,259311
27.291,203762,191,259364
27.296,203772,189,259397
27.301,203817,188,259443
27.306,203787,187,259479
27.311,203820,186,259513
27.316,203835,185,259506
27.321,203816,192,259551
27.326,203814,190,259536
27.331,203778,189,259539
27.335,203761,190,259553
27.340,203740,189,259514
27.345,203703,188,259495
27.350,203704,186,259500
27.355,203677,185,259477
27.360,203646,191,259463
27.365,203608,189,259457
27.370,203593,188,259433
27.375,203559,187,259396
27.380,203548,185,259381
27.385,203510,187,259401
27.390,203525,185,259396
27.395,203526,191,259386
27.400,203524,189,259367
27.405,203500,189,259375
27.410,203510,186,259380
27.415,203516,187,259402
27.420,203503,184,259396
27.425,203508,191,259386
27.430,203509,189,259419
27.435,203493,201,259431
27.440,203526,187,259404
27.445,203500,187,259400
27.450,203506,184,259387
27.455,203531,191,259416
27.459,203512,188,259426
27.464,203506,188,259428
27.469,203534,185,259425
27.474,203528,192,259438
27.479,203541,189,259434
27.484,203550,193,259452
27.489,203545,189,259429
27.494,203546,189,259412
27.499,203557,186,259457
27.504,203550,187,259447
27.509,203589,184,259463
27.514,203590,192,259481
27.519,203588,188,259489
27.524,203602,189,259498
27.529,203612,185,259532
27.534,203603,190,259543
27.539,203617,185,259525
27.544,203625,194,259543
27.549,203632,189,259539
27.554,203644,190,259560
27.559,203627,186,259562
27.564,203633,187,259581
27.569,203646,184,259555
27.574,203635,194,259576
27.579,203645,189,259586
27.584,203637,188,259595
27.588,203637,191,259585
27.593,203642,192,259591
27.598,203624,187,259585
27.603,203644,189,259597
27.608,203642,185,259592
27.613,203641,187,259590
27.618,203621,190,259552
27.623,203616,192,259573
27.628,203626,186,259574
27.633,203608,189,259558
27.638,203611,184,259545
27.643,203610,187,259539
27.648,203601,190,259562
27.653,203604,192,259575
27.658,203627,187,259565
27.663,203630,189,259570
27.668,203640,184,259575
27.673,203633,194,259587
27.678,203635,183,259586
27.683,203644,194,259604
27.688,203626,188,259586
27.693,203664,191,259608
27.698,203651,186,259640
27.703,203638,188,259630
27.708,203661,182,259634
27.712,203669,193,259626
27.717,203676,186,259647
27.722,203661,189,259653
27.727,203701,189,259662
27.732,203685,194,259657
27.737,203682,188,259673
27.742,203701,190,259677
27.747,203700,185,259669
27.752,203725,188,259704
27.757,203713,183,259701
27.762,203734,193,259699
27.767,203720,187,259734
27.772,203741,188,259738
27.777,203739,186,259706
27.782,203742,189,259745
27.787,203761,184,259726
27.792,203752,193,259750
27.797,203770,188,259773
27.802,203794,190,259755
27.807,203779,185,259762
27.812,203776,193,259773
27.817,203799,189,259774
27.822,203799,192,259775
27.827,203808,184,259770
27.832,203806,193,259787
27.836,203817,190,259785
27.841,203829,192,259805
27.846,203831,188,259806
27.851,203832,190,259820
27.856,203852,186,259834
27.861,203851,187,259824
27.866,203856,191,259834
27.871,203860,193,259839
27.876,203860,185,259826
27.881,203900,187,259846
27.886,203891,191,259843
27.891,203908,192,259865
27.896,203911,189,259879
27.901,203931,190,259897
27.906,203966,187,259940
27.911,203985,188,259987
27.916,204027,185,260065
27.921,204039,185,260129
27.926,204071,187,260180
27.931,204102,188,260248
27.936,204109,185,260261
27.941,204114,186,260302
27.946,204101,191,260340
27.951,204084,192,260364
27.956,204082,189,260403
27.960,204071,189,260442
27.965,204075,186,260470
27.970,204055,191,260517
27.975,204036,188,260522
27.980,204029,188,260547
27.985,204030,186,260572
27.990,204032,186,260609
27.995,204023,191,260607
28.000,204009,191,260645
28.005,204012,188,260638
28.010,204021,188,260675
28.015,204017,185,260727
28.020,204034,188,260766
28.025,204041,186,260783
28.030,204060,186,260846
28.035,204071,192,260867
28.040,204078,190,260900
28.045,204101,188,260913
28.050,204110,187,260961
28.055,204117,185,260992
28.060,204134,192,261037
28.065,204143,190,261052
28.070,204171,192,261090
28.075,204172,190,261102
28.080,204199,189,261155
28.085,204202,188,261193
28.089,204234,187,261237
28.094,204240,187,261252
28.099,204249,185,261285
28.104,204257,192,261323
28.109,204278,191,261323
28.114,204269,190,261333
28.119,204293,192,261357
28.124,204275,191,261349
28.129,204285,189,261364
28.134,204296,189,261379
28.139,204299,187,261390
28.144,204309,188,261376
28.149,204316,185,261397
28.154,204313,186,261422
28.159,204335,189,261409
28.164,204325,193,261444
28.169,204335,186,261381
28.174,204316,187,261358
28.179,204315,191,261348
28.184,204309,191,261343
28.189,204281,187,261329
28.194,204308,188,261331
28.199,204288,184,261307
28.204,204264,193,261289
28.209,204273,189,261283
28.213,204277,194,261259
28.218,204269,186,261285
28.223,204249,187,261274
28.228,204234,184,261258
28.233,204249,192,261246
28.238,204230,188,261230
28.243,204238,189,261223
28.248,204246,184,261214
28.253,204220,192,261209
28.258,204236,186,261225
28.263,204241,192,261216
28.268,204232,187,261205
28.273,204251,189,261197
28.278,204239,184,261210
28.283,204254,192,261221
28.288,204246,188,261201
28.293,204239,189,261186
28.298,204263,184,261207
28.303,204230,193,261199
28.308,204248,188,261180
28.313,204251,193,261163
28.318,204228,188,261186
28.323,204258,189,261180
28.328,204248,185,261199
28.333,204243,187,261189
28.337,204245,189,261178
28.342,204249,191,261181
28.347,204245,186,261160
28.352,204266,188,261162
28.357,204240,183,261149
28.362,204242,188,261138
28.367,204241,183,261114
28.372,204256,192,261105
28.377,204241,187,261094
28.382,204250,189,261092
28.387,204239,184,261064
28.392,204238,193,261060
28.397,204234,188,261041
28.402,204245,190,261029
28.407,204232,184,261001
28.412,204229,190,260993
28.417,204234,185,260981
28.422,204230,187,260944
28.427,204218,189,260929
28.432,204216,192,260896
28.437,204231,186,260875
28.442,204206,189,260856
28.447,204213,185,260833
28.452,204211,187,260802
28.457,204221,182,260805
28.462,204226,188,260781
28.466,204204,183,260767
28.471,204231,193,260786
28.476,204260,187,260806
28.481,204248,190,260816
28.486,204276,185,260821
28.491,204270,187,260818
28.496,204308,190,260819
28.501,204294,192,260849
28.506,204304,182,260839
28.511,204319,193,260833
28.516,204317,189,260875
28.521,204333,191,260869
28.526,204347,187,260900
28.531,204392,189,260973
28.536,204412,185,261031
28.541,204445,188,261080
28.546,204468,183,261135
28.551,204462,193,261169
28.556,204493,190,261226
28.561,204486,191,261231
28.566,204462,187,261235
28.571,204444,189,261262
28.576,204412,184,261260
28.581,204401,187,261253
28.586,204364,183,261252
28.590,204341,193,261250
28.595,204314,189,261247
28.600,204285,191,261222
28.605,204290,183,261223
28.610,204236,192,261203
28.615,204237,189,261202
28.620,204190,191,261180
28.625,204194,187,261187
28.630,204173,188,261189
28.635,204175,185,261199
28.640,204177,186,261176
28.645,204169,191,261214
28.650,204198,191,261223
28.655,204176,184,261213
28.660,204159,186,261250
28.665,204183,189,261252
28.670,204194,189,261281
28.675,204203,185,261301
28.680,204208,187,261312
28.685,204211,185,261315
28.690,204206,193,261353
28.695,204233,190,261377
28.700,204234,190,261421
28.705,204251,186,261422
28.710,204246,186,261431
28.714,204259,191,261481
28.719,204269,190,261477
28.724,204274,189,261488
28.729,204283,188,261525
28.734,204287,185,261547
28.739,204303,185,261543
28.744,204280,191,261563
28.749,204298,190,261570
28.754,204310,184,261570
28.759,204324,191,261599
28.764,204337,188,261609
28.769,204349,188,261662
28.774,204371,186,261659
28.779,204376,185,261696
28.784,204382,191,261702
28.789,204395,189,261724
28.794,204392,188,261704
28.799,204399,190,261707
28.804,204389,188,261725
28.809,204381,186,261736
28.814,204386,184,261727
28.819,204371,190,261741
28.824,204392,189,261709
28.829,204379,186,261698
28.834,204389,185,261683
28.839,204369,191,261691
28.843,204371,190,261666
28.848,204409,186,261673
28.853,204368,187,261681
28.858,204374,185,261686
28.863,204367,192,261687
28.868,204387,189,261678
28.873,204377,189,261675
28.878,204384,185,261674
28.883,204393,186,261674
28.888,204388,189,261659
28.893,204364,190,261670
28.898,204369,189,261670
28.903,204376,190,261666
28.908,204360,187,261665
28.913,204372,188,261667
28.918,204369,184,261651
28.923,204379,193,261658
28.928,204377,188,261643
28.933,204379,190,261643
28.938,204379,185,261645
28.943,204373,187,261661
28.948,204384,186,261627
28.953,204392,187,261642
28.958,204384,184,261637
28.963,204374,186,261618
28.967,204398,189,261610
