df_hash,22ZHK4.QEBF70
device,HZ2X61
project_hash,29R7
project_name,istanbul_aydin_university
person_hash,29R7.12ZE
person_label,v128
date_time_start,2026-04-07_17-29-37.024000_+03
date_time_start_unix,1775564977.024
date_time_end,2026-04-07_17-38-24.003000_+03
length_difference_noticed,no

time,ppg_med
5.333,570
5.358,655
5.383,790
5.408,863
5.433,835
5.458,805
5.483,883
5.508,1026
5.533,1081
5.558,993
5.583,899
5.608,948
5.633,1081
5.658,1089
5.683,900
5.708,700
5.733,689
5.758,788
5.783,716
5.808,380
5.833,28
5.858,-71
5.883,-26
5.908,-204
5.933,-728
5.958,-1267
5.983,-1471
6.008,-1480
6.033,-1771
6.058,-2501
6.083,-3239
6.108,-3533
6.133,-3561
6.158,-3937
6.183,-4856
6.208,-5766
6.233,-6091
6.258,-6057
6.283,-6443
6.308,-7491
6.333,-8502
6.358,-8748
6.383,-8518
6.408,-8787
6.433,-9859
6.458,-10855
6.483,-10865
6.508,-10252
6.533,-10234
6.558,-11191
6.583,-12027
6.608,-11606
6.633,-10383
6.658,-9881
6.683,-10573
6.708,-11096
6.733,-10034
6.758,-7956
6.783,-6767
6.808,-7070
6.833,-7158
6.858,-5255
6.883,-2074
6.908,-24
6.933,119
6.958,512
6.983,3421
7.008,7945
7.033,10982
7.058,11505
7.083,12293
7.108,16329
7.133,22457
7.158,26550
7.183,27167
7.208,28040
7.233,32767
7.258,32767
7.283,32767
7.308,32767
7.333,32767
7.358,32767
7.383,32767
7.408,32767
7.433,32767
7.458,32767
7.483,32767
7.508,32767
7.533,32767
7.558,32767
7.583,15156
7.608,-32768
7.633,-32768
7.658,-32768
7.683,-32768
7.708,-32768
7.733,-32768
7.758,-32768
7.783,-32768
7.808,-32768
7.833,-32768
7.858,-32768
7.883,-32768
7.908,-32768
7.933,-32768
7.958,-29215
7.983,-26832
8.008,-26746
8.033,-24202
8.058,-18436
8.083,-13174
8.108,-11279
8.133,-11136
8.158,-9255
8.183,-5024
8.208,-1207
8.233,14
8.258,-155
8.283,970
8.308,3905
8.333,6550
8.358,7220
8.383,6838
8.408,7468
8.433,9467
8.458,11143
8.483,11174
8.508,10334
8.533,10312
8.558,11416
8.583,12298
8.608,11889
8.633,10803
8.658,10394
8.683,10911
8.708,11268
8.733,10605
8.758,9408
8.783,8764
8.808,8879
8.833,8895
8.858,8125
8.883,6953
8.908,6234
8.933,6135
8.958,5997
8.983,5309
9.008,4390
9.033,3889
9.058,3878
9.083,3781
9.108,3183
9.133,2365
9.158,1882
9.183,1819
9.208,1730
9.233,1284
9.258,688
9.283,366
9.308,378
9.333,371
9.358,86
9.383,-318
9.408,-513
9.433,-455
9.458,-415
9.483,-591
9.508,-859
9.533,-964
9.558,-873
9.583,-798
9.608,-901
9.633,-1083
9.658,-1123
9.683,-960
9.708,-743
9.733,-625
9.758,-595
9.783,-540
9.808,-417
9.833,-302
9.858,-265
9.883,-273
9.908,-241
9.933,-146
9.958,-49
9.983,-8
10.008,1
10.033,43
10.058,132
10.083,213
10.108,242
10.133,238
10.158,236
10.183,207
10.208,180
10.233,166
10.258,160
10.283,143
10.308,102
10.333,48
10.358,17
10.383,42
10.408,126
10.433,237
10.458,328
10.483,371
10.508,373
10.533,359
10.558,349
10.583,342
10.608,329
10.633,312
10.658,305
10.683,316
10.708,337
10.733,344
10.758,327
10.783,299
10.808,278
10.833,268
10.858,255
10.883,229
10.908,198
10.933,178
10.958,168
10.983,146
11.008,98
11.033,46
11.058,34
11.083,85
11.108,177
11.133,261
11.158,307
11.183,323
11.208,326
11.233,313
11.258,258
11.283,156
11.308,41
11.333,-34
11.358,-50
11.383,-29
11.408,-5
11.433,11
11.458,34
11.483,74
11.508,119
11.533,148
11.558,156
11.583,154
11.608,146
11.633,123
11.658,85
11.683,61
11.708,93
11.733,192
11.758,321
11.783,422
11.808,466
11.833,469
11.858,465
11.883,465
11.908,455
11.933,427
11.958,396
11.983,379
12.008,379
12.033,376
12.058,358
12.083,329
12.108,302
12.133,279
12.158,250
12.183,213
12.208,178
12.233,149
12.258,114
12.283,59
12.308,2
12.333,-11
12.358,52
12.383,173
12.408,286
12.433,341
12.458,341
12.483,326
12.508,327
12.533,335
12.558,327
12.583,298
12.608,272
12.633,265
12.658,271
12.683,269
12.708,256
12.733,247
12.758,248
12.783,245
12.808,219
12.833,174
12.858,134
12.883,115
12.908,99
12.933,57
12.958,-11
12.983,-62
13.008,-47
13.033,41
13.058,157
13.083,246
13.108,288
13.133,301
13.158,312
13.183,324
13.208,325
13.233,309
13.258,287
13.283,274
13.308,272
13.333,268
13.358,251
13.383,221
13.408,185
13.433,153
13.458,128
13.483,111
13.508,101
13.533,96
13.558,95
13.583,98
13.608,100
13.633,93
13.658,72
13.683,47
13.708,43
13.733,90
13.758,191
13.783,311
13.808,408
13.833,458
13.858,476
13.883,485
13.908,494
13.933,494
13.958,480
13.983,469
14.008,481
14.033,513
14.058,540
14.083,542
14.108,532
14.133,530
14.158,537
14.183,524
14.208,473
14.233,407
14.258,373
14.283,379
14.308,364
14.333,241
14.358,-7
14.383,-299
14.408,-503
14.433,-547
14.458,-462
14.483,-340
14.508,-248
14.533,-184
14.558,-115
14.583,-30
14.608,41
14.633,77
14.658,88
14.683,113
14.708,174
14.733,249
14.758,293
14.783,284
14.808,237
14.833,191
14.858,172
14.883,178
14.908,197
14.933,223
14.958,257
14.983,290
15.008,306
15.033,289
15.058,252
15.083,229
15.108,248
15.133,306
15.158,373
15.183,418
15.208,437
15.233,442
15.258,444
15.283,439
15.308,420
15.333,393
15.358,374
15.383,368
15.408,365
15.433,354
15.458,331
15.483,310
15.508,297
15.533,285
15.558,262
15.583,233
15.608,210
15.633,196
15.658,173
15.683,126
15.708,65
15.733,32
15.758,61
15.783,143
15.808,230
15.833,276
15.858,273
15.883,248
15.908,226
15.933,211
15.958,197
15.983,182
16.008,175
16.033,182
16.058,198
16.083,211
16.108,213
16.133,200
16.158,175
16.183,139
16.208,102
16.233,73
16.258,50
16.283,18
16.308,-26
16.333,-63
16.358,-50
16.383,32
16.408,163
16.433,287
16.458,366
16.483,402
16.508,423
16.533,448
16.558,468
16.583,468
16.608,450
16.633,430
16.658,419
16.683,413
16.708,402
16.733,382
16.758,356
16.783,322
16.808,276
16.833,219
16.858,160
16.883,103
16.908,37
16.933,-47
16.958,-133
16.983,-174
17.008,-129
17.033,-10
17.058,127
17.083,225
17.108,267
17.133,277
17.158,286
17.183,296
17.208,295
17.233,281
17.258,264
17.283,260
17.308,268
17.333,280
17.358,289
17.383,298
17.408,302
17.433,291
17.458,261
17.483,224
17.508,193
17.533,168
17.558,131
17.583,78
17.608,38
17.633,53
17.658,137
17.683,255
17.708,346
17.733,379
17.758,370
17.783,357
17.808,358
17.833,362
17.858,350
17.883,324
17.908,304
17.933,300
17.958,300
17.983,286
18.008,255
18.033,222
18.058,203
18.083,192
18.108,171
18.133,131
18.158,85
18.183,52
18.208,40
18.233,29
18.258,-5
18.283,-64
18.308,-115
18.333,-115
18.358,-43
18.383,75
18.408,195
18.433,273
18.458,305
18.483,310
18.508,312
18.533,320
18.558,324
18.583,320
18.608,312
18.633,314
18.658,327
18.683,339
18.708,337
18.733,317
18.758,294
18.783,287
18.808,301
18.833,321
18.858,324
18.883,303
18.908,274
18.933,259
18.958,263
18.983,264
19.008,239
19.033,193
19.058,162
19.083,189
19.108,284
19.133,407
19.158,502
19.183,541
19.208,538
19.233,528
19.258,529
19.283,534
19.308,527
19.333,510
19.358,496
19.383,490
19.408,479
19.433,444
19.458,380
19.483,303
19.508,232
19.533,162
19.558,78
19.583,-24
19.608,-129
19.633,-208
19.658,-257
19.683,-294
19.708,-340
19.733,-387
19.758,-394
19.783,-328
19.808,-201
19.833,-68
19.858,17
19.883,39
19.908,25
19.933,13
19.958,17
19.983,25
20.008,30
20.033,46
20.058,97
20.083,189
20.108,300
20.133,396
20.158,452
20.183,467
20.208,449
20.233,411
20.258,363
20.283,320
20.308,296
20.333,288
20.358,278
20.383,258
20.408,242
20.433,260
20.458,325
20.483,412
20.508,473
20.533,480
20.558,445
20.583,404
20.608,377
20.633,358
20.658,331
20.683,298
20.708,275
20.733,270
20.758,267
20.783,247
20.808,211
20.833,183
20.858,180
20.883,191
20.908,184
20.933,143
20.958,85
20.983,37
21.008,6
21.033,-26
21.058,-76
21.083,-120
21.108,-112
21.133,-24
21.158,119
21.183,260
21.208,354
21.233,399
21.258,425
21.283,453
21.308,483
21.333,502
21.358,514
21.383,533
21.408,565
21.433,597
21.458,611
21.483,605
21.508,592
21.533,581
21.558,563
21.583,525
21.608,475
21.633,437
21.658,417
21.683,388
21.708,305
21.733,160
21.758,0
21.783,-106
21.808,-127
21.833,-91
21.858,-56
21.883,-57
21.908,-87
21.933,-118
21.958,-134
21.983,-136
22.008,-130
22.033,-116
22.058,-93
22.083,-67
22.108,-43
22.133,-24
22.158,-3
22.183,18
22.208,32
22.233,38
22.258,50
22.283,82
22.308,128
22.333,156
22.358,146
22.383,115
22.408,110
22.433,170
22.458,284
22.483,401
22.508,474
22.533,492
22.558,476
22.583,448
22.608,420
22.633,394
22.658,373
22.683,363
22.708,363
22.733,367
22.758,365
22.783,354
22.808,331
22.833,300
22.858,265
22.883,237
22.908,218
22.933,195
22.958,156
22.983,108
23.008,81
23.033,113
23.058,210
23.083,338
23.108,448
23.133,509
23.158,524
23.183,510
23.208,481
23.233,443
23.258,404
23.283,376
23.308,362
23.333,357
23.358,354
23.383,353
23.408,355
23.433,355
23.458,346
23.483,335
23.508,337
23.533,350
23.558,342
23.583,267
23.608,117
23.633,-56
23.658,-172
23.683,-189
23.708,-133
23.733,-64
23.758,-22
23.783,-2
23.808,14
23.833,33
23.858,44
23.883,45
23.908,49
23.933,65
23.958,84
23.983,92
24.008,88
24.033,90
24.058,109
24.083,135
24.108,150
24.133,151
24.158,148
24.183,148
24.208,134
24.233,94
24.258,48
24.283,44
24.308,111
24.333,232
24.358,348
24.383,414
24.408,426
24.433,414
24.458,400
24.483,389
24.508,375
24.533,362
24.558,360
24.583,371
24.608,386
24.633,391
24.658,383
24.683,364
24.708,339
24.733,310
24.758,282
24.783,263
24.808,247
24.833,222
24.858,180
24.883,138
24.908,130
24.933,175
24.958,257
24.983,334
25.008,373
25.033,372
25.058,353
25.083,337
25.108,328
25.133,318
25.158,304
25.183,290
25.208,282
25.233,278
25.258,273
25.283,260
25.308,238
25.333,214
25.358,194
25.383,179
25.408,158
25.433,113
25.458,43
25.483,-23
25.508,-44
25.533,1
25.558,96
25.583,188
25.608,238
25.633,242
25.658,226
25.683,213
25.708,207
25.733,198
25.758,182
25.783,166
25.808,160
25.833,162
25.858,168
25.883,168
25.908,158
25.933,136
25.958,107
25.983,82
26.008,68
26.033,59
26.058,40
26.083,5
26.108,-19
26.133,3
26.158,88
26.183,204
26.208,296
26.233,335
26.258,334
26.283,325
26.308,323
26.333,315
26.358,293
26.383,272
26.408,270
26.433,288
26.458,299
26.483,286
26.508,259
26.533,239
26.558,230
26.583,216
26.608,187
26.633,157
26.658,141
26.683,131
26.708,102
26.733,56
26.758,39
26.783,94
26.808,209
26.833,315
26.858,358
26.883,365
26.908,411
26.933,527
26.958,656
26.983,702
27.008,632
27.033,503
27.058,404
27.083,375
27.108,394
27.133,425
27.158,455
27.183,472
27.208,441
27.233,328
27.258,154
27.283,-3
27.308,-71
27.333,-46
27.358,8
27.383,49
27.408,94
27.433,190
27.458,342
27.483,489
27.508,567
27.533,566
27.558,526
27.583,470
27.608,386
27.633,263
27.658,142
27.683,87
27.708,117
27.733,184
27.758,231
27.783,265
27.808,343
27.833,476
27.858,580
27.883,533
27.908,303
27.933,-9
27.958,-256
27.983,-371
28.008,-401
28.033,-419
28.058,-429
28.083,-370
28.108,-208
28.133,6
28.158,172
28.183,231
28.208,208
28.233,170
28.258,155
28.283,155
28.308,147
28.333,133
28.358,130
28.383,144
28.408,160
28.433,163
28.458,159
28.483,164
28.508,183
28.533,203
28.558,211
28.583,211
28.608,211
28.633,207
28.658,183
28.683,133
28.708,86
28.733,85
28.758,153
28.783,265
28.808,369
28.833,433
28.858,459
28.883,471
28.908,480
28.933,480
28.958,460
28.983,431
29.008,413
29.033,415
29.058,424
29.083,418
29.108,394
29.133,367
29.158,349
29.183,333
29.208,305
29.233,260
29.258,211
29.283,168
29.308,124
29.333,63
29.358,-8
29.383,-55
29.408,-35
29.433,56
29.458,175
29.483,264
29.508,299
29.533,297
29.558,286
29.583,276
29.608,259
29.633,232
29.658,210
29.683,211
29.708,232
29.733,251
29.758,257
29.783,254
29.808,254
29.833,256
29.858,248
29.883,228
29.908,211
29.933,210
29.958,211
29.983,188
30.008,135
30.033,84
30.058,85
30.083,155
30.108,263
30.133,354
30.158,396
30.183,397
30.208,379
30.233,357
30.258,333
30.283,311
30.308,303
30.333,313
30.358,335
30.383,354
30.408,360
30.433,357
30.458,347
30.483,330
30.508,306
30.533,287
30.558,279
30.583,274
30.608,248
30.633,188
30.658,115
30.683,73
30.708,85
30.733,130
30.758,162
30.783,144
30.808,85
30.833,18
30.858,-25
30.883,-39
30.908,-26
30.933,3
30.958,43
30.983,83
31.008,111
31.033,125
31.058,133
31.083,144
31.108,159
31.133,179
31.158,206
31.183,236
31.208,253
31.233,232
31.258,169
31.283,101
31.308,86
31.333,155
31.358,279
31.383,387
31.408,426
31.433,404
31.458,361
31.483,334
31.508,321
31.533,307
31.558,291
31.583,292
31.608,317
31.633,352
31.658,372
31.683,374
31.708,375
31.733,392
31.758,417
31.783,423
31.808,400
31.833,368
31.858,349
31.883,344
31.908,327
31.933,272
31.958,191
31.983,123
32.008,98
32.033,108
32.058,117
32.083,96
32.108,54
32.133,25
32.158,35
32.183,78
32.208,126
32.233,156
32.258,171
32.283,186
32.308,213
32.333,244
32.358,265
32.383,270
32.408,267
32.433,265
32.458,262
32.483,248
32.508,216
32.533,178
32.558,151
32.583,141
32.608,135
32.633,113
32.658,73
32.683,43
32.708,58
32.733,127
32.758,225
32.783,307
32.808,342
32.833,334
32.858,308
32.883,284
32.908,264
32.933,240
32.958,212
32.983,191
33.008,188
33.033,196
33.058,200
33.083,188
33.108,165
33.133,144
33.158,131
33.183,124
33.208,116
33.233,114
33.258,123
33.283,139
33.308,140
33.333,113
33.358,74
33.383,66
33.408,126
33.433,250
33.458,396
33.483,515
33.508,582
33.533,598
33.558,578
33.583,534
33.608,477
33.633,423
33.658,386
33.683,368
33.708,356
33.733,340
33.758,322
33.783,311
33.808,306
33.833,293
33.858,266
33.883,240
33.908,230
33.933,228
33.958,198
33.983,116
34.008,3
34.033,-74
34.058,-64
34.083,27
34.108,139
34.133,210
34.158,227
34.183,213
34.208,197
34.233,184
34.258,167
34.283,148
34.308,138
34.333,142
34.358,149
34.383,145
34.408,130
34.433,113
34.458,100
34.483,84
34.508,61
34.533,38
34.558,25
34.583,17
34.608,-1
34.633,-31
34.658,-38
34.683,20
34.708,154
34.733,318
34.758,442
34.783,493
34.808,492
34.833,480
34.858,473
34.883,461
34.908,434
34.933,404
34.958,392
34.983,399
35.008,401
35.033,379
35.058,337
35.083,296
35.108,267
35.133,238
35.158,201
35.183,166
35.208,154
35.233,159
35.258,154
35.283,115
35.308,64
35.333,51
35.358,107
35.383,209
35.408,299
35.433,339
35.458,334
35.483,317
35.508,301
35.533,278
35.558,245
35.583,228
35.608,260
35.633,341
35.658,423
35.683,453
35.708,417
35.733,350
35.758,294
35.783,253
35.808,202
35.833,122
35.858,32
35.883,-29
35.908,-40
35.933,-21
35.958,-7
35.983,-15
36.008,-19
36.033,18
36.058,114
36.083,244
36.108,362
36.133,435
36.158,460
36.183,462
36.208,459
36.233,458
36.258,454
36.283,450
36.308,454
36.333,471
36.358,487
36.383,475
36.408,415
36.433,315
36.458,201
36.483,99
36.508,22
36.533,-27
36.558,-51
36.583,-51
36.608,-40
36.633,-41
36.658,-66
36.683,-101
36.708,-107
36.733,-56
36.758,40
36.783,143
36.808,214
36.833,244
36.858,250
36.883,253
36.908,253
36.933,247
36.958,238
36.983,237
37.008,252
37.033,273
37.058,287
37.083,289
37.108,281
37.133,265
37.158,242
37.183,212
37.208,183
37.233,159
37.258,135
37.283,100
37.308,57
37.333,32
37.358,55
37.383,133
37.408,237
37.433,327
37.458,381
37.483,408
37.508,419
37.533,418
37.558,398
37.583,364
37.608,335
37.633,323
37.658,324
37.683,317
37.708,293
37.733,260
37.758,231
37.783,207
37.808,180
37.833,150
37.858,127
37.883,119
37.908,113
37.933,89
37.958,46
37.983,18
38.008,44
38.033,133
38.058,248
38.083,339
38.108,381
38.133,388
38.158,387
38.183,392
38.208,396
38.233,387
38.258,368
38.283,353
38.308,351
38.333,357
38.358,357
38.383,342
38.408,316
38.433,288
38.458,264
38.483,239
38.508,206
38.533,165
38.558,125
38.583,98
38.608,80
38.633,53
38.658,4
38.683,-55
38.708,-87
38.733,-53
38.758,49
38.783,178
38.808,281
38.833,332
38.858,346
38.883,350
38.908,358
38.933,363
38.958,353
38.983,334
39.008,319
39.033,316
39.058,315
39.083,308
39.108,292
39.133,275
39.158,260
39.183,245
39.208,224
39.233,197
39.258,171
39.283,151
39.308,136
39.333,121
39.358,96
39.383,54
39.408,-2
39.433,-55
39.458,-74
39.483,-36
39.508,45
39.533,131
39.558,177
39.583,178
39.608,163
39.633,162
39.658,175
39.683,175
39.708,148
39.733,114
39.758,102
39.783,110
39.808,103
39.833,67
39.858,57
39.883,171
39.908,455
39.933,821
39.958,1082
39.983,1080
40.008,811
40.033,429
40.058,124
40.083,-13
40.108,-35
40.133,-53
40.158,-128
40.183,-225
40.208,-261
40.233,-188
40.258,-22
40.283,181
40.308,377
40.333,545
40.358,673
40.383,748
40.408,763
40.433,732
40.458,685
40.483,644
40.508,603
40.533,545
40.558,468
40.583,397
40.608,365
40.633,380
40.658,412
40.683,422
40.708,391
40.733,332
40.758,271
40.783,223
40.808,182
40.833,131
40.858,57
40.883,-40
40.908,-147
40.933,-235
40.958,-274
40.983,-248
41.008,-169
41.033,-70
41.058,14
41.083,67
41.108,93
41.133,107
41.158,119
41.183,131
41.208,139
41.233,141
41.258,138
41.283,137
41.308,148
41.333,168
41.358,186
41.383,184
41.408,156
41.433,117
41.458,89
41.483,83
41.508,85
41.533,77
41.558,61
41.583,57
41.608,80
41.633,114
41.658,122
41.683,86
41.708,36
41.733,31
41.758,102
41.783,228
41.808,349
41.833,422
41.858,448
41.883,458
41.908,473
41.933,489
41.958,491
41.983,480
42.008,471
42.033,479
42.058,496
42.083,505
42.108,492
42.133,463
42.158,429
42.183,395
42.208,358
42.233,309
42.258,251
42.283,195
42.308,150
42.333,114
42.358,76
42.383,24
42.408,-34
42.433,-79
42.458,-79
42.483,-16
42.508,95
42.533,214
42.558,298
42.583,329
42.608,321
42.633,304
42.658,297
42.683,300
42.708,306
42.733,312
42.758,323
42.783,342
42.808,362
42.833,367
42.858,353
42.883,328
42.908,306
42.933,289
42.958,268
42.983,236
43.008,198
43.033,167
43.058,146
43.083,123
43.108,79
43.133,19
43.158,-26
43.183,-20
43.208,48
43.233,151
43.258,241
43.283,286
43.308,291
43.333,280
43.358,273
43.383,270
43.408,261
43.433,247
43.458,239
43.483,247
43.508,266
43.533,278
43.558,274
43.583,261
43.608,251
43.633,248
43.658,238
43.683,208
43.708,163
43.733,123
43.758,103
43.783,95
43.808,75
43.833,31
43.858,-15
43.883,-22
43.908,32
43.933,134
43.958,236
43.983,300
44.008,324
44.033,328
44.058,330
44.083,328
44.108,317
44.133,303
44.158,298
44.183,309
44.208,323
44.233,326
44.258,319
44.283,314
44.308,320
44.333,326
44.358,317
44.383,294
44.408,272
44.433,260
44.458,244
44.483,205
44.508,147
44.533,108
44.558,129
44.583,211
44.608,314
44.633,385
44.658,408
44.683,396
44.708,372
44.733,341
44.758,302
44.783,256
44.808,214
44.833,183
44.858,153
44.883,117
44.908,80
44.933,56
44.958,47
44.983,39
45.008,21
45.033,-2
45.058,-14
45.083,-15
45.108,-23
45.133,-53
45.158,-84
45.183,-69
45.208,18
45.233,157
45.258,285
45.283,361
45.308,385
45.333,388
45.358,390
45.383,386
45.408,368
45.433,341
45.458,324
45.483,323
45.508,328
45.533,326
45.558,317
45.583,306
45.608,293
45.633,273
45.658,244
45.683,214
45.708,187
45.733,152
45.758,100
45.783,44
45.808,22
45.833,68
45.858,175
45.883,293
45.908,369
45.933,389
45.958,379
45.983,367
46.008,357
46.033,340
46.058,311
46.083,282
46.108,266
46.133,265
46.158,265
46.183,261
46.208,253
46.233,245
46.258,232
46.283,210
46.308,182
46.333,156
46.358,131
46.383,94
46.408,45
46.433,8
46.458,21
46.483,102
46.508,218
46.533,314
46.558,355
46.583,349
46.608,330
46.633,319
46.658,310
46.683,289
46.708,260
46.733,243
46.758,249
46.783,265
46.808,270
46.833,261
46.858,249
46.883,246
46.908,242
46.933,222
46.958,186
46.983,153
47.008,141
47.033,138
47.058,116
47.083,64
47.108,14
47.133,15
47.158,85
47.183,198
47.208,300
47.233,357
47.258,371
47.283,362
47.308,342
47.333,312
47.358,276
47.383,248
47.408,240
47.433,247
47.458,254
47.483,254
47.508,253
47.533,255
47.558,254
47.583,238
47.608,208
47.633,177
47.658,158
47.683,138
47.708,96
47.733,35
47.758,-5
47.783,18
47.808,109
47.833,227
47.858,313
47.883,345
47.908,340
47.933,326
47.958,314
47.983,294
48.008,265
48.033,235
48.058,214
48.083,199
48.108,181
48.133,156
48.158,127
48.183,97
48.208,58
48.233,11
48.258,-25
48.283,-28
48.308,2
48.333,35
48.358,37
48.383,15
48.408,12
48.433,71
48.458,183
48.483,298
48.508,367
48.533,386
48.558,382
48.583,380
48.608,381
48.633,374
48.658,363
48.683,362
48.708,379
48.733,404
48.758,422
48.783,431
48.808,438
48.833,447
48.858,450
48.883,442
48.908,430
48.933,424
48.958,416
48.983,389
49.008,336
49.033,286
49.058,284
49.083,354
49.108,471
49.133,581
49.158,645
49.183,660
49.208,643
49.233,606
49.258,542
49.283,445
49.308,323
49.333,191
49.358,62
49.383,-64
49.408,-191
49.433,-310
49.458,-404
49.483,-455
49.508,-451
49.533,-390
49.558,-288
49.583,-172
49.608,-82
49.633,-38
49.658,-25
49.683,-3
49.708,61
49.733,168
49.758,280
49.783,357
49.808,383
49.833,378
49.858,367
49.883,364
49.908,363
49.933,353
49.958,333
49.983,310
50.008,292
50.033,282
50.058,269
50.083,242
50.108,200
50.133,155
50.158,121
50.183,101
50.208,75
50.233,24
50.258,-48
50.283,-108
50.308,-111
50.333,-41
50.358,72
50.383,181
50.408,252
50.433,291
50.458,323
50.483,357
50.508,384
50.533,384
50.558,362
50.583,340
50.608,336
50.633,347
50.658,352
50.683,335
50.708,298
50.733,261
50.758,237
50.783,226
50.808,216
50.833,205
50.858,201
50.883,225
50.908,288
50.933,383
50.958,481
50.983,544
51.008,547
51.033,492
51.058,411
51.083,338
51.108,287
51.133,251
51.158,216
51.183,183
51.208,164
51.233,165
51.258,174
51.283,169
51.308,146
51.333,120
51.358,109
51.383,109
51.408,91
51.433,39
51.458,-32
51.483,-78
51.508,-60
51.533,18
51.558,121
51.583,212
51.608,278
51.633,330
51.658,374
51.683,406
51.708,411
51.733,384
51.758,335
51.783,284
51.808,246
51.833,227
51.858,219
51.883,206
51.908,178
51.933,139
51.958,108
51.983,100
52.008,112
52.033,119
52.058,108
52.083,95
52.108,117
52.133,197
52.158,318
52.183,430
52.208,497
52.233,517
52.258,510
52.283,494
52.308,468
52.333,433
52.358,401
52.383,387
52.408,391
52.433,392
52.458,369
52.483,324
52.508,275
52.533,236
52.558,207
52.583,182
52.608,159
52.633,138
52.658,116
52.683,88
52.708,62
52.733,58
52.758,94
52.783,161
52.808,224
52.833,254
52.858,248
52.883,228
52.908,215
52.933,204
52.958,179
52.983,138
53.008,99
53.033,81
53.058,89
53.083,110
53.108,126
53.133,127
53.158,111
53.183,85
53.208,58
53.233,42
53.258,36
53.283,26
53.308,-3
53.333,-45
53.358,-65
53.383,-26
53.408,76
53.433,203
53.458,301
53.483,343
53.508,340
53.533,321
53.558,305
53.583,295
53.608,287
53.633,284
53.658,288
53.683,297
53.708,306
53.733,308
53.758,300
53.783,281
53.808,250
53.833,212
53.858,176
53.883,148
53.908,121
53.933,83
53.958,38
53.983,15
54.008,45
54.033,133
54.058,242
54.083,324
54.108,354
54.133,346
54.158,328
54.183,318
54.208,312
54.233,306
54.258,303
54.283,310
54.308,327
54.333,345
54.358,358
54.383,367
54.408,375
54.433,380
54.458,376
54.483,363
54.508,345
54.533,320
54.558,281
54.583,218
54.608,146
54.633,94
54.658,90
54.683,132
54.708,190
54.733,224
54.758,216
54.783,174
54.808,121
54.833,76
54.858,45
54.883,20
54.908,-4
54.933,-29
54.958,-45
54.983,-39
55.008,-7
55.033,41
55.058,92
55.083,136
55.108,184
55.133,245
55.158,312
55.183,362
55.208,378
55.233,376
55.258,395
55.283,464
55.308,571
55.333,674
55.358,737
55.383,753
55.408,742
55.433,724
55.458,706
55.483,686
55.508,669
55.533,660
55.558,657
55.583,646
55.608,623
55.633,594
55.658,565
55.683,524
55.708,440
55.733,294
55.758,92
55.783,-136
55.808,-366
55.833,-576
55.858,-732
55.883,-775
55.908,-657
55.933,-398
55.958,-111
55.983,57
56.008,28
56.033,-146
56.058,-318
56.083,-346
56.108,-194
56.133,47
56.158,233
56.183,255
56.208,108
56.233,-111
56.258,-271
56.283,-280
56.308,-146
56.333,36
56.358,159
56.383,172
56.408,104
56.433,23
56.458,-24
56.483,-31
56.508,-6
56.533,55
56.558,167
56.583,330
56.608,521
56.633,705
56.658,856
56.683,965
56.708,1031
56.733,1057
56.758,1067
56.783,1095
56.808,1161
56.833,1240
56.858,1265
56.883,1176
56.908,969
56.933,709
56.958,494
56.983,400
57.008,444
57.033,564
57.058,637
57.083,538
57.108,221
57.133,-219
57.158,-584
57.183,-695
57.208,-527
57.233,-227
57.258,-7
57.283,5
57.308,-154
57.333,-355
57.358,-476
57.383,-477
57.408,-388
57.433,-263
57.458,-150
57.483,-76
57.508,-47
57.533,-47
57.558,-38
57.583,0
57.608,64
57.633,126
57.658,165
57.683,180
57.708,180
57.733,165
57.758,131
57.783,98
57.808,97
57.833,153
57.858,248
57.883,338
57.908,387
57.933,396
57.958,391
57.983,388
58.008,385
58.033,370
58.058,349
58.083,339
58.108,349
58.133,374
58.158,405
58.183,436
58.208,469
58.233,499
58.258,514
58.283,510
58.308,489
58.333,460
58.358,423
58.383,376
58.408,330
58.433,306
58.458,320
58.483,357
58.508,379
58.533,355
58.558,287
58.583,202
58.608,124
58.633,61
58.658,13
58.683,-11
58.708,-5
58.733,29
58.758,75
58.783,112
58.808,134
58.833,146
58.858,149
58.883,137
58.908,105
58.933,66
58.958,33
58.983,8
59.008,-25
59.033,-74
59.058,-112
59.083,-98
59.108,-9
59.133,126
59.158,248
59.183,311
59.208,317
59.233,299
59.258,289
59.283,287
59.308,282
59.333,270
59.358,264
59.383,279
59.408,311
59.433,343
59.458,357
59.483,353
59.508,344
59.533,340
59.558,344
59.583,351
59.608,363
59.633,383
59.658,412
59.683,437
59.708,446
59.733,437
59.758,429
59.783,449
59.808,514
59.833,609
59.858,698
59.883,745
59.908,744
59.933,711
59.958,668
59.983,626
60.008,581
60.033,534
60.058,497
60.083,480
60.108,476
60.133,463
60.158,419
60.183,347
60.208,263
60.233,179
60.258,94
60.283,0
60.308,-96
60.333,-178
60.358,-237
60.383,-287
60.408,-345
60.433,-407
60.458,-439
60.483,-407
60.508,-317
60.533,-208
60.558,-126
60.583,-85
60.608,-66
60.633,-50
60.658,-37
60.683,-33
60.708,-30
60.733,-13
60.758,28
60.783,77
60.808,109
60.833,119
60.858,124
60.883,145
60.908,181
60.933,214
60.958,228
60.983,230
61.008,230
61.033,229
61.058,217
61.083,196
61.108,192
61.133,231
61.158,309
61.183,388
61.208,432
61.233,434
61.258,420
61.283,413
61.308,413
61.333,407
61.358,393
61.383,383
61.408,383
61.433,384
61.458,371
61.483,344
61.508,321
61.533,312
61.558,306
61.583,287
61.608,256
61.633,232
61.658,224
61.683,216
61.708,187
61.733,143
61.758,125
61.783,172
61.808,279
61.833,393
61.858,465
61.883,482
61.908,465
61.933,438
61.958,405
61.983,362
62.008,320
62.033,298
62.058,299
62.083,304
62.108,293
62.133,266
62.158,236
62.183,208
62.208,171
62.233,111
62.258,35
62.283,-31
62.308,-73
62.333,-93
62.358,-98
62.383,-79
62.408,-15
62.433,98
62.458,233
62.483,342
62.508,400
62.533,415
62.558,409
62.583,396
62.608,375
62.633,348
62.658,327
62.683,323
62.708,329
62.733,332
62.758,321
62.783,297
62.808,267
62.833,234
62.858,200
62.883,172
62.908,155
62.933,142
62.958,116
62.983,73
63.008,33
63.033,34
63.058,93
63.083,191
63.108,283
63.133,337
63.158,352
63.183,343
63.208,325
63.233,303
63.258,282
63.283,269
63.308,268
63.333,274
63.358,275
63.383,268
63.408,252
63.433,231
63.458,205
63.483,178
63.508,157
63.533,148
63.558,140
63.583,115
63.608,78
63.633,62
63.658,107
63.683,220
63.708,358
63.733,463
63.758,503
63.783,493
63.808,464
63.833,440
63.858,424
63.883,424
63.908,443
63.933,476
63.958,490
63.983,458
64.008,382
64.033,301
64.058,255
64.083,251
64.108,258
64.133,241
64.158,186
64.183,105
64.208,24
64.233,-32
64.258,-42
64.283,2
64.308,85
64.333,166
64.358,205
64.383,196
64.408,161
64.433,132
64.458,121
64.483,115
64.508,100
64.533,74
64.558,43
64.583,9
64.608,-26
64.633,-59
64.658,-81
64.683,-92
64.708,-106
64.733,-133
64.758,-171
64.783,-208
64.808,-240
64.833,-277
64.858,-318
64.883,-340
64.908,-305
64.933,-201
64.958,-55
64.983,84
65.008,193
65.033,282
65.058,368
65.083,452
65.108,529
65.133,607
65.158,705
65.183,820
65.208,913
65.233,933
65.258,870
65.283,769
65.308,688
65.333,646
65.358,617
65.383,573
65.408,511
65.433,452
65.458,405
65.483,356
65.508,296
65.533,245
65.558,234
65.583,278
65.608,358
65.633,443
65.658,514
65.683,568
65.708,606
65.733,626
65.758,633
65.783,642
65.808,660
65.833,671
65.858,649
65.883,589
65.908,510
65.933,437
65.958,361
65.983,251
66.008,87
66.033,-108
66.058,-294
66.083,-446
66.108,-566
66.133,-651
66.158,-675
66.183,-607
66.208,-454
66.233,-268
66.258,-107
66.283,13
66.308,125
66.333,255
66.358,391
66.383,496
66.408,546
66.433,552
66.458,527
66.483,467
66.508,356
66.533,201
66.558,46
66.583,-61
66.608,-110
66.633,-128
66.658,-149
66.683,-184
66.708,-219
66.733,-240
66.758,-241
66.783,-211
66.808,-136
66.833,-7
66.858,151
66.883,296
66.908,395
66.933,449
66.958,487
66.983,531
67.008,573
67.033,595
67.058,594
67.083,585
67.108,587
67.133,595
67.158,587
67.183,550
67.208,495
67.233,443
67.258,405
67.283,365
67.308,301
67.333,211
67.358,117
67.383,48
67.408,11
67.433,-15
67.458,-55
67.483,-102
67.508,-123
67.533,-84
67.558,8
67.583,116
67.608,190
67.633,218
67.658,227
67.683,253
67.708,306
67.733,365
67.758,402
67.783,408
67.808,403
67.833,404
67.858,416
67.883,427
67.908,425
67.933,409
67.958,388
67.983,363
68.008,329
68.033,283
68.058,232
68.083,188
68.108,157
68.133,131
68.158,95
68.183,44
68.208,-5
68.233,-22
68.258,13
68.283,99
68.308,203
68.333,293
68.358,349
68.383,377
68.408,388
68.433,388
68.458,375
68.483,352
68.508,332
68.533,326
68.558,330
68.583,327
68.608,304
68.633,269
68.658,241
68.683,233
68.708,235
68.733,230
68.758,212
68.783,191
68.808,176
68.833,159
68.858,125
68.883,79
68.908,54
68.933,84
68.958,170
68.983,274
69.008,347
69.033,370
69.058,362
69.083,351
69.108,347
69.133,342
69.158,328
69.183,310
69.208,298
69.233,294
69.258,284
69.283,260
69.308,228
69.333,197
69.358,169
69.383,133
69.408,80
69.433,17
69.458,-41
69.483,-92
69.508,-145
69.533,-210
69.558,-272
69.583,-298
69.608,-261
69.633,-170
69.658,-63
69.683,22
69.708,79
69.733,131
69.758,200
69.783,289
69.808,378
69.833,446
69.858,488
69.883,511
69.908,519
69.933,512
69.958,491
69.983,469
70.008,461
70.033,472
70.058,490
70.083,496
70.108,487
70.133,471
70.158,456
70.183,433
70.208,388
70.233,326
70.258,278
70.283,278
70.308,329
70.333,404
70.358,461
70.383,481
70.408,471
70.433,445
70.458,409
70.483,360
70.508,306
70.533,265
70.558,246
70.583,236
70.608,214
70.633,172
70.658,133
70.683,119
70.708,130
70.733,136
70.758,105
70.783,33
70.808,-55
70.833,-133
70.858,-186
70.883,-207
70.908,-188
70.933,-127
70.958,-33
70.983,66
71.008,147
71.033,202
71.058,241
71.083,270
71.108,287
71.133,287
71.158,281
71.183,284
71.208,298
71.233,308
71.258,299
71.283,277
71.308,259
71.333,254
71.358,248
71.383,223
71.408,177
71.433,126
71.458,84
71.483,49
71.508,11
71.533,-17
71.558,-6
71.583,64
71.608,174
71.633,277
71.658,333
71.683,342
71.708,333
71.733,328
71.758,331
71.783,334
71.808,332
71.833,331
71.858,335
71.883,336
71.908,330
71.933,321
71.958,316
71.983,314
72.008,310
72.033,301
72.058,288
72.083,274
72.108,250
72.133,210
72.158,166
72.183,148
72.208,180
72.233,251
72.258,320
72.283,351
72.308,345
72.333,332
72.358,336
72.383,348
72.408,348
72.433,328
72.458,305
72.483,298
72.508,304
72.533,305
72.558,289
72.583,263
72.608,245
72.633,234
72.658,215
72.683,176
72.708,124
72.733,80
72.758,53
72.783,26
72.808,-22
72.833,-93
72.858,-156
72.883,-170
72.908,-119
72.933,-28
72.958,57
72.983,106
73.008,118
73.033,120
73.058,136
73.083,173
73.108,220
73.133,261
73.158,292
73.183,315
73.208,332
73.233,343
73.258,346
73.283,343
73.308,341
73.333,342
73.358,340
73.383,329
73.408,311
73.433,298
73.458,300
73.483,309
73.508,306
73.533,284
73.558,262
73.583,273
73.608,331
73.633,417
73.658,490
73.683,519
73.708,504
73.733,467
73.758,425
73.783,378
73.808,317
73.833,250
73.858,196
73.883,173
73.908,178
73.933,195
73.958,211
73.983,222
74.008,231
74.033,231
74.058,211
74.083,172
74.108,128
74.133,103
74.158,99
74.183,98
74.208,82
74.233,52
74.258,37
74.283,68
74.308,150
74.333,257
74.358,352
74.383,411
74.408,426
74.433,402
74.458,341
74.483,247
74.508,142
74.533,63
74.558,41
74.583,77
74.608,134
74.633,165
74.658,143
74.683,84
74.708,27
74.733,-1
74.758,-7
74.783,-10
74.808,-23
74.833,-37
74.858,-37
74.883,-22
74.908,-7
74.933,-3
74.958,3
74.983,39
75.008,119
75.033,232
75.058,346
75.083,439
75.108,509
75.133,567
75.158,619
75.183,659
75.208,681
75.233,684
75.258,673
75.283,654
75.308,628
75.333,597
75.358,565
75.383,536
75.408,508
75.433,477
75.458,444
75.483,415
75.508,396
75.533,383
75.558,369
75.583,349
75.608,319
75.633,281
75.658,239
75.683,202
75.708,188
75.733,211
75.758,264
75.783,319
75.808,343
75.833,325
75.858,282
75.883,236
75.908,199
75.933,164
75.958,126
75.983,88
76.008,54
76.033,23
76.058,-12
76.083,-55
76.108,-94
76.133,-128
76.158,-167
76.183,-231
76.208,-319
76.233,-410
76.258,-477
76.283,-515
76.308,-549
76.333,-593
76.358,-633
76.383,-630
76.408,-557
76.433,-420
76.458,-247
76.483,-65
76.508,119
76.533,299
76.558,457
76.583,568
76.608,624
76.633,641
76.658,650
76.683,673
76.708,707
76.733,736
76.758,738
76.783,708
76.808,654
76.833,600
76.858,572
76.883,585
76.908,631
76.933,684
76.958,718
76.983,719
77.008,678
77.033,592
77.058,464
77.083,321
77.108,214
77.133,185
77.158,230
77.183,297
77.208,326
77.233,299
77.258,248
77.283,215
77.308,207
77.333,197
77.358,165
77.383,127
77.408,120
77.433,159
77.458,218
77.483,258
77.508,262
77.533,253
77.558,253
77.583,264
77.608,265
77.633,247
77.658,221
77.683,207
77.708,200
77.733,175
77.758,118
77.783,51
77.808,20
77.833,53
77.858,130
77.883,199
77.908,218
77.933,184
77.958,134
77.983,101
78.008,98
78.033,112
78.058,127
78.083,139
78.108,149
78.133,159
78.158,166
78.183,165
78.208,158
78.233,151
78.258,147
78.283,143
78.308,130
78.333,107
78.358,79
78.383,54
78.408,34
78.433,11
78.458,-20
78.483,-55
78.508,-70
78.533,-42
78.558,33
78.583,135
78.608,224
78.633,271
78.658,274
78.683,255
78.708,237
78.733,232
78.758,238
78.783,250
78.808,269
78.833,298
78.858,333
78.883,361
78.908,376
78.933,383
78.958,393
78.983,407
79.008,413
79.033,401
79.058,377
79.083,363
79.108,368
79.133,385
79.158,403
79.183,428
79.208,485
79.233,592
79.258,734
79.283,868
79.308,961
79.333,1010
79.358,1024
79.383,995
79.408,894
79.433,708
79.458,472
79.483,255
79.508,113
79.533,53
79.558,44
79.583,56
79.608,76
79.633,87
79.658,50
79.683,-66
79.708,-252
79.733,-444
79.758,-579
79.783,-641
79.808,-667
79.833,-690
79.858,-693
79.883,-621
79.908,-449
79.933,-216
79.958,2
79.983,157
80.008,255
80.033,336
80.058,417
80.083,482
80.108,511
80.133,500
80.158,471
80.183,441
80.208,408
80.233,364
80.258,306
80.283,237
80.308,165
80.333,97
80.358,43
80.383,14
80.408,4
80.433,-4
80.458,-33
80.483,-76
80.508,-91
80.533,-36
80.558,90
80.583,247
80.608,378
80.633,457
80.658,495
80.683,515
80.708,525
80.733,521
80.758,503
80.783,481
80.808,463
80.833,443
80.858,407
80.883,355
80.908,306
80.933,271
80.958,244
80.983,204
81.008,145
81.033,84
81.058,41
81.083,14
81.108,-18
81.133,-66
81.158,-101
81.183,-77
81.208,24
81.233,168
81.258,292
81.283,359
81.308,380
81.333,389
81.358,406
81.383,423
81.408,426
81.433,411
81.458,390
81.483,377
81.508,371
81.533,372
81.558,376
81.583,383
81.608,381
81.633,359
81.658,312
81.683,253
81.708,202
81.733,168
81.758,151
81.783,149
81.808,172
81.833,229
81.858,312
81.883,390
81.908,431
81.933,422
81.958,378
81.983,323
82.008,272
82.033,223
82.058,175
82.083,134
82.108,110
82.133,111
82.158,127
82.183,138
82.208,131
82.233,106
82.258,77
82.283,55
82.308,33
82.333,-3
82.358,-61
82.383,-120
82.408,-142
82.433,-101
82.458,-6
82.483,105
82.508,195
82.533,247
82.558,274
82.583,296
82.608,323
82.633,351
82.658,373
82.683,387
82.708,392
82.733,389
82.758,380
82.783,370
82.808,360
82.833,348
82.858,329
82.883,306
82.908,280
82.933,254
82.958,225
82.983,194
83.008,179
83.033,207
83.058,294
83.083,419
83.108,534
83.133,599
83.158,602
83.183,566
83.208,516
83.233,464
83.258,410
83.283,353
83.308,298
83.333,248
83.358,202
83.383,159
83.408,129
83.433,120
83.458,123
83.483,120
83.508,98
83.533,69
83.558,48
83.583,34
83.608,5
83.633,-48
83.658,-104
83.683,-115
83.708,-58
83.733,38
83.758,118
83.783,146
83.808,137
83.833,123
83.858,120
83.883,114
83.908,99
83.933,98
83.958,140
83.983,221
84.008,297
84.033,322
84.058,299
84.083,270
84.108,271
84.133,295
84.158,309
84.183,295
84.208,269
84.233,252
84.258,238
84.283,202
84.308,138
84.333,85
84.358,93
84.383,174
84.408,286
84.433,371
84.458,404
84.483,403
84.508,394
84.533,385
84.558,365
84.583,333
84.608,307
84.633,304
84.658,317
84.683,325
84.708,313
84.733,285
84.758,258
84.783,237
84.808,218
84.833,198
84.858,181
84.883,163
84.908,132
84.933,79
84.958,22
84.983,3
85.008,51
85.033,154
85.058,262
85.083,327
85.108,341
85.133,329
85.158,315
85.183,303
85.208,289
85.233,278
85.258,286
85.283,315
85.308,347
85.333,355
85.358,335
85.383,301
85.408,272
85.433,250
85.458,229
85.483,210
85.508,198
85.533,190
85.558,169
85.583,123
85.608,70
85.633,51
85.658,98
85.683,193
85.708,286
85.733,332
85.758,331
85.783,312
85.808,304
85.833,307
85.858,307
85.883,297
85.908,286
85.933,284
85.958,286
85.983,283
86.008,273
86.033,263
86.058,258
86.083,250
86.108,227
86.133,191
86.158,155
86.183,129
86.208,103
86.233,57
86.258,-6
86.283,-58
86.308,-56
86.333,9
86.358,110
86.383,199
86.408,248
86.433,260
86.458,257
86.483,252
86.508,245
86.533,234
86.558,231
86.583,253
86.608,298
86.633,349
86.658,378
86.683,380
86.708,366
86.733,353
86.758,342
86.783,325
86.808,297
86.833,270
86.858,254
86.883,245
86.908,221
86.933,172
86.958,117
86.983,93
87.008,124
87.033,195
87.058,263
87.083,296
87.108,295
87.133,282
87.158,272
87.183,259
87.208,234
87.233,204
87.258,191
87.283,209
87.308,249
87.333,282
87.358,294
87.383,285
87.408,270
87.433,252
87.458,228
87.483,200
87.508,177
87.533,166
87.558,162
87.583,147
87.608,113
87.633,72
87.658,50
87.683,67
87.708,121
87.733,196
87.758,268
87.783,321
87.808,343
87.833,331
87.858,297
87.883,262
87.908,251
87.933,273
87.958,318
87.983,365
88.008,394
88.033,401
88.058,391
88.083,371
88.108,350
88.133,334
88.158,318
88.183,293
88.208,249
88.233,185
88.258,114
88.283,53
88.308,14
88.333,2
88.358,20
88.383,68
88.408,136
88.433,200
88.458,238
88.483,241
88.508,222
88.533,206
88.558,204
88.583,210
88.608,212
88.633,206
88.658,204
88.683,213
88.708,228
88.733,235
88.758,226
88.783,206
88.808,186
88.833,178
88.858,179
88.883,182
88.908,177
88.933,161
88.958,140
88.983,131
89.008,150
89.033,201
89.058,269
89.083,331
89.108,373
89.133,396
89.158,413
89.183,429
89.208,440
89.233,439
89.258,428
89.283,411
89.308,393
89.333,370
89.358,341
89.383,310
89.408,285
89.433,270
89.458,266
89.483,277
89.508,310
89.533,360
89.558,396
89.583,373
89.608,275
89.633,137
89.658,28
89.683,-3
89.708,32
89.733,84
89.758,106
89.783,92
89.808,74
89.833,82
89.858,117
89.883,164
89.908,204
89.933,232
89.958,248
89.983,251
90.008,245
90.033,231
90.058,214
90.083,192
90.108,166
90.133,137
90.158,112
90.183,92
90.208,66
90.233,26
90.258,-11
90.283,-17
90.308,34
90.333,132
90.358,233
90.383,294
90.408,307
90.433,296
90.458,285
90.483,279
90.508,271
90.533,259
90.558,255
90.583,263
90.608,276
90.633,280
90.658,274
90.683,268
90.708,272
90.733,279
90.758,277
90.783,267
90.808,258
90.833,251
90.858,228
90.883,174
90.908,110
90.933,85
90.958,130
90.983,225
91.008,311
91.033,343
91.058,336
91.083,340
91.108,385
91.133,455
91.158,511
91.183,537
91.208,547
91.233,560
91.258,570
91.283,559
91.308,527
91.333,492
91.358,472
91.383,455
91.408,421
91.433,363
91.458,302
91.483,250
91.508,193
91.533,106
91.558,-8
91.583,-108
91.608,-146
91.633,-118
91.658,-69
91.683,-48
91.708,-67
91.733,-113
91.758,-175
91.783,-259
91.808,-356
91.833,-424
91.858,-408
91.883,-299
91.908,-156
91.933,-51
91.958,2
91.983,65
92.008,207
92.033,430
92.058,659
92.083,804
92.108,831
92.133,768
92.158,653
92.183,495
92.208,294
92.233,83
92.258,-64
92.283,-84
92.308,30
92.333,217
92.358,392
92.383,505
92.408,551
92.433,547
92.458,505
92.483,435
92.508,352
92.533,282
92.558,241
92.583,225
92.608,218
92.633,206
92.658,192
92.683,191
92.708,213
92.733,258
92.758,312
92.783,354
92.808,362
92.833,323
92.858,252
92.883,191
92.908,188
92.933,260
92.958,377
92.983,477
93.008,514
93.033,483
93.058,418
93.083,355
93.108,313
93.133,292
93.158,284
93.183,288
93.208,294
93.233,290
93.258,268
93.283,236
93.308,205
93.333,177
93.358,141
93.383,88
93.408,27
93.433,-23
93.458,-60
93.483,-102
93.508,-160
93.533,-216
93.558,-224
93.583,-156
93.608,-34
93.633,84
93.658,157
93.683,189
93.708,214
93.733,252
93.758,290
93.783,306
93.808,301
93.833,302
93.858,326
93.883,361
93.908,380
93.933,374
93.958,355
93.983,340
94.008,324
94.033,291
94.058,239
94.083,184
94.108,143
94.133,111
94.158,71
94.183,17
94.208,-23
94.233,-16
94.258,52
94.283,152
94.308,239
94.333,287
94.358,306
94.383,320
94.408,343
94.433,366
94.458,374
94.483,367
94.508,361
94.533,371
94.558,397
94.583,421
94.608,425
94.633,404
94.658,368
94.683,328
94.708,291
94.733,257
94.758,230
94.783,212
94.808,202
94.833,182
94.858,139
94.883,74
94.908,17
94.933,3
94.958,46
94.983,123
95.008,195
95.033,234
95.058,239
95.083,225
95.108,209
95.133,197
95.158,192
95.183,197
95.208,214
95.233,235
95.258,249
95.283,250
95.308,240
95.333,226
95.358,213
95.383,202
95.408,197
95.433,202
95.458,216
95.483,225
95.508,218
95.533,196
95.558,170
95.583,151
95.608,130
95.633,97
95.658,57
95.683,39
95.708,71
95.733,154
95.758,251
95.783,320
95.808,342
95.833,334
95.858,321
95.883,315
95.908,312
95.933,306
95.958,301
95.983,308
96.008,325
96.033,339
96.058,340
96.083,328
96.108,317
96.133,314
96.158,315
96.183,309
96.208,293
96.233,273
96.258,259
96.283,251
96.308,240
96.333,215
96.358,179
96.383,147
96.408,133
96.433,143
96.458,164
96.483,181
96.508,185
96.533,185
96.558,191
96.583,212
96.608,244
96.633,277
96.658,308
96.683,336
96.708,357
96.733,363
96.758,346
96.783,315
96.808,289
96.833,283
96.858,297
96.883,309
96.908,301
96.933,274
96.958,247
96.983,236
97.008,232
97.033,214
97.058,161
97.083,74
97.108,-22
97.133,-107
97.158,-164
97.183,-186
97.208,-176
97.233,-137
97.258,-83
97.283,-30
97.308,3
97.333,20
97.358,34
97.383,63
97.408,113
97.433,172
97.458,222
97.483,255
97.508,270
97.533,278
97.558,285
97.583,292
97.608,294
97.633,288
97.658,277
97.683,269
97.708,268
97.733,264
97.758,240
97.783,189
97.808,132
97.833,106
97.858,141
97.883,233
97.908,340
97.933,417
97.958,447
97.983,449
98.008,454
98.033,468
98.058,474
98.083,455
98.108,416
98.133,383
98.158,381
98.183,407
98.208,439
98.233,459
98.258,466
98.283,474
98.308,486
98.333,495
98.358,489
98.383,472
98.408,460
98.433,465
98.458,474
98.483,461
98.508,406
98.533,321
98.558,238
98.583,177
98.608,133
98.633,81
98.658,10
98.683,-59
98.708,-101
98.733,-102
98.758,-81
98.783,-62
98.808,-53
98.833,-38
98.858,-4
98.883,44
98.908,86
98.933,111
98.958,130
98.983,163
99.008,211
99.033,253
99.058,270
99.083,263
99.108,250
99.133,237
99.158,207
99.183,136
99.208,32
99.233,-54
99.258,-69
99.283,4
99.308,127
99.333,235
99.358,289
99.383,291
99.408,272
99.433,255
99.458,240
99.483,219
99.508,197
99.533,189
99.558,202
99.583,225
99.608,238
99.633,232
99.658,219
99.683,217
99.708,230
99.733,243
99.758,238
99.783,219
99.808,200
99.833,192
99.858,183
99.883,151
99.908,94
99.933,45
99.958,45
99.983,112
100.008,217
100.033,309
100.058,353
100.083,355
100.108,338
100.133,322
100.158,306
100.183,285
100.208,268
100.233,273
100.258,309
100.283,358
100.308,392
100.333,397
100.358,382
100.383,366
100.408,357
100.433,345
100.458,315
100.483,272
100.508,235
100.533,216
100.558,206
100.583,181
100.608,129
100.633,70
100.658,46
100.683,85
100.708,178
100.733,281
100.758,351
100.783,373
100.808,364
100.833,352
100.858,345
100.883,333
100.908,311
100.933,284
100.958,269
100.983,273
101.008,284
101.033,286
101.058,275
101.083,261
101.108,249
101.133,237
101.158,215
101.183,187
101.208,166
101.233,161
101.258,157
101.283,128
101.308,76
101.333,33
101.358,41
101.383,110
101.408,205
101.433,275
101.458,298
101.483,292
101.508,281
101.533,275
101.558,261
101.583,236
101.608,211
101.633,200
101.658,201
101.683,202
101.708,194
101.733,186
101.758,188
101.783,195
101.808,188
101.833,160
101.858,127
101.883,109
101.908,100
101.933,76
101.958,27
101.983,-15
102.008,-3
102.033,83
102.058,207
102.083,303
102.108,339
102.133,331
102.158,320
102.183,324
102.208,329
102.233,318
102.258,298
102.283,292
102.308,305
102.333,319
102.358,313
102.383,291
102.408,273
102.433,273
102.458,275
102.483,259
102.508,226
102.533,194
102.558,178
102.583,164
102.608,127
102.633,65
102.658,17
102.683,29
102.708,112
102.733,229
102.758,322
102.783,364
102.808,366
102.833,357
102.858,352
102.883,346
102.908,328
102.933,303
102.958,285
102.983,282
103.008,284
103.033,277
103.058,260
103.083,241
103.108,231
103.133,224
103.158,209
103.183,180
103.208,147
103.233,124
103.258,113
103.283,98
103.308,61
103.333,6
103.358,-34
103.383,-25
103.408,46
103.433,155
103.458,256
103.483,315
103.508,332
103.533,327
103.558,319
103.583,312
103.608,301
103.633,289
103.658,287
103.683,302
103.708,326
103.733,340
103.758,334
103.783,318
103.808,310
103.833,310
103.858,304
103.883,281
103.908,247
103.933,221
103.958,212
103.983,203
104.008,168
104.033,109
104.058,61
104.083,64
104.108,128
104.133,217
104.158,286
104.183,315
104.208,315
104.233,308
104.258,300
104.283,282
104.308,251
104.333,217
104.358,196
104.383,189
104.408,189
104.433,188
104.458,189
104.483,191
104.508,189
104.533,176
104.558,157
104.583,145
104.608,144
104.633,134
104.658,95
104.683,34
104.708,-2
104.733,29
104.758,129
104.783,247
104.808,324
104.833,346
104.858,339
104.883,336
104.908,341
104.933,334
104.958,309
104.983,282
105.008,275
105.033,288
105.058,298
105.083,289
105.108,270
105.133,260
105.158,259
105.183,251
105.208,221
105.233,180
105.258,151
105.283,140
105.308,123
105.333,78
105.358,18
105.383,-12
105.408,26
105.433,129
105.458,248
105.483,331
105.508,362
105.533,361
105.558,356
105.583,357
105.608,354
105.633,340
105.658,319
105.683,305
105.708,305
105.733,314
105.758,318
105.783,313
105.808,301
105.833,289
105.858,276
105.883,256
105.908,225
105.933,190
105.958,164
105.983,150
106.008,135
106.033,99
106.058,35
106.083,-29
106.108,-52
106.133,-5
106.158,97
106.183,208
106.208,283
106.233,309
106.258,309
106.283,306
106.308,305
106.333,297
106.358,278
106.383,260
106.408,259
106.433,276
106.458,294
106.483,298
106.508,287
106.533,275
106.558,267
106.583,257
106.608,235
106.633,206
106.658,183
106.683,173
106.708,164
106.733,133
106.758,82
106.783,41
106.808,50
106.833,120
106.858,223
106.883,309
106.908,350
106.933,351
106.958,338
106.983,323
107.008,304
107.033,278
107.058,255
107.083,249
107.108,262
107.133,276
107.158,277
107.183,265
107.208,254
107.233,249
107.258,239
107.283,214
107.308,179
107.333,154
107.358,145
107.383,131
107.408,88
107.433,23
107.458,-17
107.483,11
107.508,107
107.533,218
107.558,291
107.583,310
107.608,304
107.633,302
107.658,306
107.683,298
107.708,272
107.733,246
107.758,238
107.783,248
107.808,255
107.833,249
107.858,238
107.883,234
107.908,232
107.933,217
107.958,185
107.983,152
108.008,135
108.033,125
108.058,97
108.083,41
108.108,-8
108.133,-2
108.158,75
108.183,190
108.208,281
108.233,319
108.258,319
108.283,316
108.308,325
108.333,331
108.358,317
108.383,287
108.408,260
108.433,248
108.458,244
108.483,236
108.508,222
108.533,211
108.558,208
108.583,208
108.608,200
108.633,188
108.658,184
108.683,192
108.708,196
108.733,175
108.758,128
108.783,87
108.808,95
108.833,176
108.858,305
108.883,432
108.908,514
108.933,546
108.958,553
108.983,564
109.008,586
109.033,606
109.058,614
109.083,614
109.108,624
109.133,654
109.158,687
109.183,691
109.208,630
109.233,494
109.258,305
109.283,102
109.308,-75
109.333,-210
109.358,-306
109.383,-386
109.408,-466
109.433,-539
109.458,-574
109.483,-539
109.508,-426
109.533,-265
109.558,-103
109.583,27
109.608,128
109.633,215
109.658,296
109.683,356
109.708,379
109.733,370
109.758,359
109.783,371
109.808,404
109.833,431
109.858,431
109.883,412
109.908,395
109.933,391
109.958,382
109.983,350
110.008,296
110.033,245
110.058,213
110.083,188
110.108,143
110.133,76
110.158,23
110.183,33
110.208,119
110.233,239
110.258,332
110.283,367
110.308,354
110.333,326
110.358,302
110.383,279
110.408,255
110.433,240
110.458,245
110.483,265
110.508,278
110.533,269
110.558,243
110.583,218
110.608,197
110.633,173
110.658,138
110.683,102
110.708,81
110.733,73
110.758,54
110.783,13
110.808,-27
110.833,-20
110.858,62
110.883,196
110.908,321
110.933,392
110.958,410
110.983,409
111.008,413
111.033,419
111.058,417
111.083,405
111.108,394
111.133,391
111.158,388
111.183,373
111.208,350
111.233,331
111.258,320
111.283,308
111.308,283
111.333,250
111.358,223
111.383,201
111.408,169
111.433,113
111.458,52
111.483,28
111.508,68
111.533,155
111.558,238
111.583,279
111.608,279
111.633,262
111.658,246
111.683,223
111.708,187
111.733,152
111.758,145
111.783,176
111.808,224
111.833,256
111.858,262
111.883,254
111.908,245
111.933,231
111.958,198
111.983,153
112.008,120
112.033,118
112.058,129
112.083,118
112.108,73
112.133,27
112.158,30
112.183,105
112.208,218
112.233,315
112.258,363
112.283,371
112.308,362
112.333,350
112.358,333
112.383,308
112.408,287
112.433,277
112.458,275
112.483,268
112.508,252
112.533,239
112.558,235
112.583,234
112.608,218
112.633,184
112.658,149
112.683,129
112.708,115
112.733,85
112.758,31
112.783,-14
112.808,-6
112.833,72
112.858,188
112.883,286
112.908,335
112.933,346
112.958,344
112.983,342
113.008,331
113.033,307
113.058,283
113.083,277
113.108,290
113.133,305
113.158,308
113.183,297
113.208,280
113.233,259
113.258,229
113.283,196
113.308,173
113.333,174
113.358,186
113.383,179
113.408,143
113.433,103
113.458,106
113.483,173
113.508,275
113.533,359
113.558,394
113.583,392
113.608,384
113.633,384
113.658,381
113.683,360
113.708,326
113.733,297
113.758,284
113.783,273
113.808,243
113.833,186
113.858,112
113.883,37
113.908,-36
113.933,-102
113.958,-145
113.983,-143
114.008,-92
114.033,-25
114.058,10
114.083,0
114.108,-27
114.133,-9
114.158,84
114.183,226
114.208,354
114.233,422
114.258,437
114.283,433
114.308,438
114.333,446
114.358,437
114.383,405
114.408,369
114.433,350
114.458,351
114.483,354
114.508,349
114.533,340
114.558,339
114.583,343
114.608,335
114.633,306
114.658,268
114.683,243
114.708,235
114.733,219
114.758,174
114.783,114
114.808,83
114.833,116
114.858,202
114.883,294
114.908,349
114.933,366
114.958,367
114.983,365
115.008,354
115.033,325
115.058,286
115.083,263
115.108,260
115.133,260
115.158,236
115.183,187
115.208,136
115.233,105
115.258,96
115.283,91
115.308,82
115.333,77
115.358,77
115.383,68
115.408,36
115.433,-2
115.458,-9
115.483,51
115.508,166
115.533,283
115.558,350
115.583,359
115.608,340
115.633,322
115.658,309
115.683,284
115.708,241
115.733,197
115.758,174
115.783,182
115.808,205
115.833,220
115.858,211
115.883,182
115.908,149
115.933,130
115.958,129
115.983,132
116.008,115
116.033,72
116.058,25
116.083,18
116.108,76
116.133,181
116.158,286
116.183,351
116.208,370
116.233,364
116.258,357
116.283,352
116.308,343
116.333,329
116.358,317
116.383,313
116.408,313
116.433,309
116.458,298
116.483,281
116.508,262
116.533,241
116.558,220
116.583,201
116.608,183
116.633,153
116.658,103
116.683,48
116.708,27
116.733,73
116.758,176
116.783,285
116.808,350
116.833,360
116.858,346
116.883,338
116.908,338
116.933,331
116.958,311
116.983,295
117.008,296
117.033,308
117.058,313
117.083,304
117.108,298
117.133,304
117.158,304
117.183,272
117.208,208
117.233,146
117.258,119
117.283,120
117.308,109
117.333,61
117.358,2
117.383,-7
117.408,60
117.433,182
117.458,300
117.483,381
117.508,427
117.533,456
117.558,467
117.583,446
117.608,399
117.633,354
117.658,341
117.683,355
117.708,367
117.733,356
117.758,325
117.783,289
117.808,250
117.833,203
117.858,151
117.883,111
117.908,97
117.933,90
117.958,56
117.983,-12
118.008,-74
118.033,-73
118.058,8
118.083,129
118.108,225
118.133,268
118.158,280
118.183,294
118.208,315
118.233,318
118.258,287
118.283,237
118.308,199
118.333,186
118.358,184
118.383,172
118.408,146
118.433,117
118.458,87
118.483,50
118.508,7
118.533,-25
118.558,-37
118.583,-41
118.608,-70
118.633,-140
118.658,-213
118.683,-223
118.708,-136
118.733,17
118.758,162
118.783,244
118.808,266
118.833,270
118.858,285
118.883,308
118.908,319
118.933,316
118.958,315
118.983,334
119.008,371
119.033,411
119.058,443
119.083,468
119.108,492
119.133,519
119.158,554
119.183,597
119.208,644
119.233,675
119.258,667
119.283,621
119.308,567
119.333,550
119.358,587
119.383,660
119.408,724
119.433,749
119.458,733
119.483,691
119.508,637
119.533,574
119.558,506
119.583,437
119.608,370
119.633,301
119.658,220
119.683,127
119.708,30
119.733,-53
119.758,-121
119.783,-180
119.808,-244
119.833,-318
119.858,-399
119.883,-473
119.908,-524
119.933,-538
119.958,-511
119.983,-452
120.008,-385
120.033,-328
120.058,-287
120.083,-251
120.108,-210
120.133,-163
120.158,-121
120.183,-93
120.208,-70
120.233,-33
120.258,26
120.283,102
120.308,167
120.333,209
120.358,237
120.383,274
120.408,334
120.433,395
120.458,422
120.483,398
120.508,349
120.533,327
120.558,367
120.583,463
120.608,574
120.633,664
120.658,721
120.683,753
120.708,760
120.733,737
120.758,684
120.783,621
120.808,572
120.833,553
120.858,556
120.883,562
120.908,559
120.933,542
120.958,504
120.983,446
121.008,378
121.033,322
121.058,292
121.083,280
121.108,258
121.133,215
121.158,167
121.183,148
121.208,164
121.233,189
121.258,186
121.283,142
121.308,83
121.333,40
121.358,21
121.383,12
121.408,2
121.433,0
121.458,27
121.483,91
121.508,173
121.533,241
121.558,269
121.583,256
121.608,212
121.633,156
121.658,102
121.683,57
121.708,22
121.733,-5
121.758,-20
121.783,-11
121.808,35
121.833,119
121.858,219
121.883,303
121.908,350
121.933,357
121.958,342
121.983,325
122.008,314
122.033,306
122.058,300
122.083,298
122.108,303
122.133,308
122.158,297
122.183,264
122.208,218
122.233,177
122.258,154
122.283,140
122.308,112
122.333,62
122.358,9
122.383,-7
122.408,38
122.433,141
122.458,260
122.483,350
122.508,385
122.533,371
122.558,335
122.583,301
122.608,282
122.633,277
122.658,276
122.683,270
122.708,253
122.733,221
122.758,173
122.783,112
122.808,45
122.833,-15
122.858,-59
122.883,-91
122.908,-126
122.933,-171
122.958,-208
122.983,-200
123.008,-116
123.033,36
123.058,209
123.083,340
123.108,392
123.133,373
123.158,323
123.183,281
123.208,265
123.233,264
123.258,264
123.283,260
123.308,258
123.333,258
123.358,251
123.383,219
123.408,164
123.433,112
123.458,92
123.483,97
123.508,79
123.533,-5
123.558,-126
123.583,-176
123.608,-45
123.633,277
123.658,668
123.683,947
123.708,1018
123.733,924
123.758,798
123.783,741
123.808,752
123.833,762
123.858,725
123.883,654
123.908,589
123.933,547
123.958,501
123.983,426
124.008,334
124.033,257
124.058,205
124.083,145
124.108,36
124.133,-112
124.158,-237
124.183,-266
124.208,-180
124.233,-27
124.258,125
124.283,241
124.308,323
124.333,390
124.358,439
124.383,457
124.408,446
124.433,425
124.458,413
124.483,396
124.508,337
124.533,210
124.558,28
124.583,-151
124.608,-271
124.633,-298
124.658,-246
124.683,-158
124.708,-84
124.733,-56
124.758,-70
124.783,-81
124.808,-36
124.833,89
124.858,267
124.883,433
124.908,536
124.933,571
124.958,571
124.983,564
125.008,552
125.033,521
125.058,465
125.083,400
125.108,347
125.133,314
125.158,287
125.183,246
125.208,186
125.233,115
125.258,46
125.283,-12
125.308,-56
125.333,-90
125.358,-118
125.383,-136
125.408,-125
125.433,-64
125.458,53
125.483,197
125.508,314
125.533,363
125.558,347
125.583,308
125.608,286
125.633,286
125.658,285
125.683,264
125.708,233
125.733,221
125.758,243
125.783,279
125.808,295
125.833,277
125.858,247
125.883,239
125.908,263
125.933,295
125.958,299
125.983,265
126.008,225
126.033,228
126.058,295
126.083,400
126.108,486
126.133,509
126.158,470
126.183,405
126.208,343
126.233,289
126.258,226
126.283,150
126.308,78
126.333,36
126.358,31
126.383,41
126.408,41
126.433,28
126.458,20
126.483,31
126.508,49
126.533,45
126.558,8
126.583,-34
126.608,-33
126.633,42
126.658,183
126.683,337
126.708,453
126.733,508
126.758,515
126.783,501
126.808,486
126.833,471
126.858,449
126.883,416
126.908,384
126.933,364
126.958,354
126.983,337
127.008,300
127.033,247
127.058,199
127.083,166
127.108,130
127.133,65
127.158,-30
127.183,-115
127.208,-137
127.233,-82
127.258,11
127.283,85
127.308,118
127.333,133
127.358,170
127.383,237
127.408,311
127.433,370
127.458,417
127.483,467
127.508,515
127.533,541
127.558,531
127.583,501
127.608,481
127.633,481
127.658,480
127.683,451
127.708,385
127.733,299
127.758,207
127.783,116
127.808,32
127.833,-23
127.858,-24
127.883,35
127.908,119
127.933,180
127.958,196
127.983,186
128.008,184
128.033,198
128.058,215
128.083,219
128.108,212
128.133,212
128.158,223
128.183,233
128.208,225
128.233,202
128.258,183
128.283,182
128.308,191
128.333,187
128.358,155
128.383,98
128.408,44
128.433,27
128.458,67
128.483,158
128.508,266
128.533,351
128.558,385
128.583,372
128.608,339
128.633,309
128.658,290
128.683,273
128.708,255
128.733,240
128.758,237
128.783,244
128.808,246
128.833,236
128.858,220
128.883,214
128.908,217
128.933,208
128.958,168
128.983,102
129.008,46
129.033,41
129.058,100
129.083,198
129.108,290
129.133,344
129.158,355
129.183,339
129.208,314
129.233,288
129.258,262
129.283,235
129.308,211
129.333,198
129.358,195
129.383,197
129.408,194
129.433,185
129.458,172
129.483,164
129.508,159
129.533,148
129.558,118
129.583,73
129.608,35
129.633,35
129.658,89
129.683,184
129.708,288
129.733,369
129.758,409
129.783,413
129.808,395
129.833,369
129.858,344
129.883,323
129.908,308
129.933,300
129.958,301
129.983,305
130.008,302
130.033,286
130.058,258
130.083,232
130.108,218
130.133,211
130.158,191
130.183,146
130.208,91
130.233,59
130.258,78
130.283,148
130.308,237
130.333,312
130.358,351
130.383,354
130.408,330
130.433,294
130.458,255
130.483,226
130.508,212
130.533,212
130.558,216
130.583,218
130.608,213
130.633,200
130.658,182
130.683,163
130.708,151
130.733,146
130.758,130
130.783,87
130.808,21
130.833,-28
130.858,-16
130.883,67
130.908,186
130.933,283
130.958,328
130.983,332
131.008,322
131.033,312
131.058,298
131.083,279
131.108,267
131.133,269
131.158,279
131.183,281
131.208,272
131.233,267
131.258,273
131.283,279
131.308,267
131.333,236
131.358,211
131.383,205
131.408,200
131.433,164
131.458,99
131.483,52
131.508,77
131.533,178
131.558,302
131.583,391
131.608,424
131.633,425
131.658,420
131.683,414
131.708,401
131.733,381
131.758,358
131.783,326
131.808,266
131.833,177
131.858,89
131.883,44
131.908,52
131.933,79
131.958,86
131.983,69
132.008,54
132.033,55
132.058,53
132.083,20
132.108,-35
132.133,-64
132.158,-17
132.183,96
132.208,221
132.233,303
132.258,332
132.283,337
132.308,346
132.333,356
132.358,349
132.383,321
132.408,291
132.433,281
132.458,296
132.483,317
132.508,330
132.533,332
132.558,331
132.583,330
132.608,323
132.633,303
132.658,270
132.683,238
132.708,217
132.733,206
132.758,187
132.783,148
132.808,101
132.833,78
132.858,109
132.883,190
132.908,284
132.933,351
132.958,371
132.983,356
133.008,327
133.033,297
133.058,269
133.083,246
133.108,236
133.133,241
133.158,251
133.183,251
133.208,238
133.233,219
133.258,203
133.283,186
133.308,162
133.333,133
133.358,112
133.383,101
133.408,86
133.433,47
133.458,-5
133.483,-34
133.508,-3
133.533,87
133.558,194
133.583,272
133.608,308
133.633,317
133.658,319
133.683,316
133.708,303
133.733,284
133.758,273
133.783,277
133.808,291
133.833,299
133.858,298
133.883,291
133.908,281
133.933,263
133.958,237
133.983,212
134.008,194
134.033,175
134.058,137
134.083,79
134.108,35
134.133,48
134.158,128
134.183,235
134.208,309
134.233,326
134.258,309
134.283,297
134.308,305
134.333,312
134.358,298
134.383,269
134.408,246
134.433,241
134.458,243
134.483,237
134.508,224
134.533,217
134.558,220
134.583,219
134.608,201
134.633,172
134.658,153
134.683,148
134.708,140
134.733,106
134.758,56
134.783,31
134.808,71
134.833,171
134.858,282
134.883,355
134.908,376
134.933,370
134.958,364
134.983,363
135.008,354
135.033,330
135.058,304
135.083,292
135.108,297
135.133,303
135.158,299
135.183,287
135.208,275
135.233,265
135.258,248
135.283,217
135.308,183
135.333,163
135.358,160
135.383,156
135.408,130
135.433,88
135.458,65
135.483,96
135.508,183
135.533,293
135.558,381
135.583,428
135.608,440
135.633,436
135.658,420
135.683,387
135.708,339
135.733,290
135.758,254
135.783,232
135.808,213
135.833,186
135.858,158
135.883,141
135.908,136
135.933,127
135.958,101
135.983,66
136.008,44
136.033,45
136.058,55
136.083,47
136.108,19
136.133,0
136.158,24
136.183,103
136.208,205
136.233,288
136.258,329
136.283,333
136.308,316
136.333,291
136.358,263
136.383,240
136.408,233
136.433,243
136.458,258
136.483,262
136.508,255
136.533,249
136.558,248
136.583,245
136.608,226
136.633,197
136.658,177
136.683,173
136.708,168
136.733,135
136.758,75
136.783,32
136.808,52
136.833,142
136.858,257
136.883,340
136.908,370
136.933,370
136.958,369
136.983,370
137.008,359
137.033,331
137.058,303
137.083,292
137.108,298
137.133,298
137.158,284
137.183,263
137.208,252
137.233,247
137.258,232
137.283,200
137.308,165
137.333,142
137.358,126
137.383,93
137.408,38
137.433,-6
137.458,6
137.483,90
137.508,204
137.533,289
137.558,319
137.583,318
137.608,319
137.633,332
137.658,339
137.683,326
137.708,305
137.733,297
137.758,306
137.783,315
137.808,309
137.833,294
137.858,287
137.883,289
137.908,280
137.933,245
137.958,196
137.983,158
138.008,142
138.033,129
138.058,96
138.083,45
138.108,13
138.133,34
138.158,108
138.183,202
138.208,274
138.233,312
138.258,324
138.283,328
138.308,327
138.333,318
138.358,303
138.383,288
138.408,284
138.433,291
138.458,305
138.483,316
138.508,316
138.533,305
138.558,287
138.583,269
138.608,256
138.633,242
138.658,221
138.683,195
138.708,172
138.733,159
138.758,149
138.783,124
138.808,80
138.833,39
138.858,40
138.883,101
138.908,200
138.933,288
138.958,330
138.983,330
139.008,314
139.033,301
139.058,287
139.083,264
139.108,237
139.133,224
139.158,236
139.183,260
139.208,273
139.233,265
139.258,249
139.283,238
139.308,231
139.333,214
139.358,181
139.383,147
139.408,130
139.433,126
139.458,108
139.483,60
139.508,3
139.533,-16
139.558,34
139.583,138
139.608,243
139.633,307
139.658,326
139.683,325
139.708,326
139.733,327
139.758,314
139.783,287
139.808,262
139.833,253
139.858,257
139.883,262
139.908,263
139.933,265
139.958,270
139.983,268
140.008,250
140.033,218
140.058,191
140.083,179
140.108,169
140.133,137
140.158,80
140.183,34
140.208,44
140.233,122
140.258,233
140.283,321
140.308,358
140.333,358
140.358,351
140.383,351
140.408,348
140.433,330
140.458,302
140.483,284
140.508,285
140.533,296
140.558,299
140.583,290
140.608,278
140.633,268
140.658,253
140.683,224
140.708,184
140.733,153
140.758,141
140.783,134
140.808,106
140.833,50
140.858,-3
140.883,-7
140.908,60
140.933,171
140.958,268
140.983,319
141.008,329
141.033,328
141.058,330
141.083,324
141.108,301
141.133,269
141.158,250
141.183,254
141.208,268
141.233,273
141.258,264
141.283,253
141.308,245
141.333,233
141.358,208
141.383,177
141.408,156
141.433,148
141.458,133
141.483,90
141.508,34
141.533,12
141.558,58
141.583,163
141.608,276
141.633,353
141.658,384
141.683,387
141.708,380
141.733,362
141.758,331
141.783,300
141.808,286
141.833,294
141.858,309
141.883,312
141.908,300
141.933,285
141.958,271
141.983,251
142.008,222
142.033,190
142.058,166
142.083,145
142.108,109
142.133,53
142.158,4
142.183,1
142.208,62
142.233,159
142.258,247
142.283,296
142.308,307
142.333,301
142.358,290
142.383,278
142.408,266
142.433,260
142.458,262
142.483,268
142.508,270
142.533,268
142.558,263
142.583,254
142.608,237
142.633,212
142.658,188
142.683,172
142.708,156
142.733,122
142.758,71
142.783,33
142.808,49
142.833,128
142.858,232
142.883,308
142.908,332
142.933,319
142.958,302
142.983,293
143.008,284
143.033,264
143.058,239
143.083,224
143.108,222
143.133,222
143.158,214
143.183,197
143.208,176
143.233,152
143.258,125
143.283,98
143.308,76
143.333,52
143.358,15
143.383,-36
143.408,-73
143.433,-59
143.458,19
143.483,129
143.508,214
143.533,247
143.558,245
143.583,246
143.608,263
143.633,280
143.658,279
143.683,268
143.708,270
143.733,292
143.758,317
143.783,326
143.808,326
143.833,342
143.858,387
143.883,439
143.908,469
143.933,470
143.958,463
143.983,468
144.008,478
144.033,463
144.058,414
144.083,364
144.108,357
144.133,411
144.158,494
144.183,550
144.208,552
144.233,515
144.258,475
144.283,446
144.308,411
144.333,342
144.358,239
144.383,134
144.408,64
144.433,38
144.458,31
144.483,11
144.508,-27
144.533,-69
144.558,-98
144.583,-117
144.608,-142
144.633,-179
144.658,-214
144.683,-231
144.708,-238
144.733,-259
144.758,-308
144.783,-365
144.808,-397
144.833,-382
144.858,-324
144.883,-229
144.908,-84
144.933,128
144.958,391
144.983,642
145.008,810
145.033,877
145.058,893
145.083,927
145.108,995
145.133,1050
145.158,1023
145.183,894
145.208,703
145.233,520
145.258,391
145.283,318
145.308,273
145.333,218
145.358,134
145.383,26
145.408,-74
145.433,-133
145.458,-136
145.483,-103
145.508,-65
145.533,-35
145.558,7
145.583,91
145.608,213
145.633,337
145.658,418
145.683,443
145.708,432
145.733,411
145.758,393
145.783,382
145.808,380
145.833,391
145.858,403
145.883,388
145.908,327
145.933,236
145.958,160
145.983,130
146.008,140
146.033,151
146.058,132
146.083,92
146.108,58
146.133,43
146.158,34
146.183,4
146.208,-47
146.233,-93
146.258,-95
146.283,-42
146.308,48
146.333,140
146.358,210
146.383,251
146.408,272
146.433,280
146.458,274
146.483,255
146.508,229
146.533,210
146.558,212
146.583,231
146.608,249
146.633,248
146.658,222
146.683,188
146.708,161
146.733,144
146.758,127
146.783,101
146.808,73
146.833,55
146.858,47
146.883,37
146.908,18
146.933,7
146.958,38
146.983,134
147.008,278
147.033,426
147.058,538
147.083,608
147.108,652
147.133,687
147.158,709
147.183,708
147.208,686
147.233,665
147.258,662
147.283,675
147.308,682
147.333,662
147.358,621
147.383,579
147.408,551
147.433,531
147.458,492
147.483,406
147.508,258
147.533,56
147.558,-175
147.583,-394
147.608,-552
147.633,-613
147.658,-568
147.683,-446
147.708,-291
147.733,-145
147.758,-28
147.783,58
147.808,119
147.833,159
147.858,181
147.883,193
147.908,200
147.933,207
147.958,214
147.983,223
148.008,237
148.033,259
148.058,284
148.083,302
148.108,302
148.133,287
148.158,266
148.183,246
148.208,226
148.233,203
148.258,176
148.283,149
148.308,127
148.333,106
148.358,82
148.383,61
148.408,64
148.433,113
148.458,206
148.483,314
148.508,397
148.533,431
148.558,424
148.583,399
148.608,381
148.633,374
148.658,376
148.683,386
148.708,407
148.733,437
148.758,462
148.783,468
148.808,449
148.833,417
148.858,388
148.883,365
148.908,340
148.933,310
148.958,277
148.983,252
149.008,234
149.033,209
149.058,165
149.083,100
149.108,30
149.133,-30
149.158,-77
149.183,-110
149.208,-117
149.233,-78
149.258,17
149.283,154
149.308,292
149.333,390
149.358,430
149.383,421
149.408,385
149.433,343
149.458,308
149.483,289
149.508,284
149.533,285
149.558,284
149.583,279
149.608,273
149.633,268
149.658,257
149.683,232
149.708,198
149.733,169
149.758,155
149.783,149
149.808,136
149.833,106
149.858,67
149.883,33
149.908,7
149.933,-20
149.958,-51
149.983,-60
150.008,-15
150.033,92
150.058,233
150.083,355
150.108,428
150.133,454
150.158,459
150.183,461
150.208,461
150.233,452
150.258,440
150.283,435
150.308,444
150.333,462
150.358,475
150.383,475
150.408,459
150.433,435
150.458,403
150.483,362
150.508,301
150.533,221
150.558,131
150.583,56
150.608,13
150.633,-2
150.658,-18
150.683,-57
150.708,-108
150.733,-129
150.758,-81
150.783,28
150.808,152
150.833,237
150.858,264
150.883,260
150.908,257
150.933,263
150.958,266
150.983,257
151.008,243
151.033,241
151.058,254
151.083,272
151.108,282
151.133,281
151.158,273
151.183,260
151.208,242
151.233,217
151.258,186
151.283,156
151.308,129
151.333,107
151.358,90
151.383,74
151.408,50
151.433,11
151.458,-33
151.483,-58
151.508,-36
151.533,38
151.558,139
151.583,223
151.608,264
151.633,265
151.658,252
151.683,243
151.708,238
151.733,229
151.758,212
151.783,198
151.808,200
151.833,222
151.858,255
151.883,281
151.908,287
151.933,271
151.958,246
151.983,225
152.008,209
152.033,193
152.058,169
152.083,141
152.108,120
152.133,107
152.158,91
152.183,61
152.208,28
152.233,24
152.258,78
152.283,192
152.308,330
152.333,449
152.358,529
152.383,580
152.408,618
152.433,650
152.458,671
152.483,676
152.508,679
152.533,694
152.558,724
152.583,755
152.608,771
152.633,769
152.658,759
152.683,745
152.708,714
152.733,646
152.758,533
152.783,394
152.808,266
152.833,170
152.858,97
152.883,17
152.908,-85
152.933,-189
152.958,-252
152.983,-239
153.008,-157
153.033,-49
153.058,39
153.083,84
153.108,90
153.133,70
153.158,36
153.183,-6
153.208,-45
153.233,-61
153.258,-44
153.283,1
153.308,54
153.333,93
153.358,108
153.383,106
153.408,95
153.433,79
153.458,53
153.483,10
153.508,-50
153.533,-116
153.558,-170
153.583,-204
153.608,-226
153.633,-251
153.658,-278
153.683,-277
153.708,-210
153.733,-62
153.758,132
153.783,314
153.808,438
153.833,501
153.858,532
153.883,556
153.908,573
153.933,575
153.958,561
153.983,551
154.008,557
154.033,574
154.058,583
154.083,574
154.108,553
154.133,533
154.158,510
154.183,471
154.208,411
154.233,345
154.258,293
154.283,255
154.308,210
154.333,142
154.358,63
154.383,19
154.408,48
154.433,145
154.458,265
154.483,355
154.508,395
154.533,397
154.558,384
154.583,365
154.608,335
154.633,294
154.658,257
154.683,240
154.708,246
154.733,259
154.758,259
154.783,243
154.808,224
154.833,209
154.858,192
154.883,164
154.908,124
154.933,89
154.958,67
154.983,47
155.008,6
155.033,-55
155.058,-102
155.083,-87
155.108,9
155.133,152
155.158,279
155.183,350
155.208,367
155.233,361
155.258,352
155.283,336
155.308,307
155.333,272
155.358,253
155.383,263
155.408,289
155.433,309
155.458,313
155.483,308
155.508,302
155.533,291
155.558,266
155.583,231
155.608,201
155.633,181
155.658,157
155.683,110
155.708,45
155.733,3
155.758,29
155.783,129
155.808,257
155.833,355
155.858,396
155.883,396
155.908,382
155.933,365
155.958,337
155.983,299
156.008,266
156.033,256
156.058,263
156.083,269
156.108,262
156.133,248
156.158,240
156.183,233
156.208,210
156.233,166
156.258,118
156.283,85
156.308,65
156.333,32
156.358,-23
156.383,-70
156.408,-58
156.433,31
156.458,160
156.483,266
156.508,312
156.533,315
156.558,312
156.583,319
156.608,322
156.633,305
156.658,273
156.683,248
156.708,242
156.733,248
156.758,253
156.783,257
156.808,263
156.833,265
156.858,253
156.883,227
156.908,202
156.933,190
156.958,182
156.983,157
157.008,112
157.033,82
157.058,109
157.083,198
157.108,308
157.133,386
157.158,410
157.183,400
157.208,383
157.233,368
157.258,344
157.283,308
157.308,275
157.333,258
157.358,254
157.383,252
157.408,246
157.433,245
157.458,251
157.483,252
157.508,234
157.533,199
157.558,166
157.583,145
157.608,124
157.633,84
157.658,31
157.683,3
157.708,34
157.733,121
157.758,222
157.783,297
157.808,332
157.833,338
157.858,329
157.883,309
157.908,279
157.933,251
157.958,238
157.983,240
158.008,246
158.033,246
158.058,240
158.083,235
158.108,229
158.133,215
158.158,193
158.183,175
158.208,166
158.233,153
158.258,118
158.283,68
158.308,41
158.333,74
158.358,167
158.383,277
158.408,357
158.433,388
158.458,385
158.483,367
158.508,339
158.533,299
158.558,255
158.583,223
158.608,214
158.633,219
158.658,225
158.683,223
158.708,213
158.733,200
158.758,182
158.783,161
158.808,139
158.833,116
158.858,80
158.883,26
158.908,-24
158.933,-33
158.958,29
158.983,151
159.008,277
159.033,354
159.058,373
159.083,359
159.108,345
159.133,339
159.158,330
159.183,317
159.208,307
159.233,307
159.258,312
159.283,314
159.308,312
159.333,310
159.358,304
159.383,286
159.408,251
159.433,212
159.458,182
159.483,151
159.508,97
159.533,17
159.558,-47
159.583,-37
159.608,65
159.633,216
159.658,337
159.683,386
159.708,382
159.733,366
159.758,359
159.783,349
159.808,322
159.833,290
159.858,276
159.883,285
159.908,292
159.933,277
159.958,246
159.983,223
160.008,217
160.033,212
160.058,190
160.083,152
160.108,118
160.133,99
160.158,75
160.183,26
160.208,-35
160.233,-65
160.258,-18
160.283,99
160.308,236
160.333,334
160.358,370
160.383,366
160.408,353
160.433,344
160.458,334
160.483,316
160.508,300
160.533,297
160.558,310
160.583,324
160.608,327
160.633,317
160.658,305
160.683,296
160.708,280
160.733,245
160.758,196
160.783,151
160.808,130
160.833,126
160.858,113
160.883,74
160.908,26
160.933,13
160.958,69
160.983,180
161.008,294
161.033,363
161.058,376
161.083,360
161.108,343
161.133,328
161.158,306
161.183,276
161.208,255
161.233,261
161.258,282
161.283,295
161.308,285
161.333,264
161.358,251
161.383,247
161.408,234
161.433,200
161.458,159
161.483,133
161.508,126
161.533,111
161.558,67
161.583,12
161.608,-5
161.633,45
161.658,151
161.683,258
161.708,324
161.733,347
161.758,350
161.783,348
161.808,335
161.833,304
161.858,264
161.883,237
161.908,232
161.933,235
161.958,230
161.983,216
162.008,203
162.033,196
162.058,182
162.083,153
162.108,116
162.133,90
162.158,81
162.183,70
162.208,40
162.233,3
162.258,1
162.283,66
162.308,187
162.333,311
162.358,391
162.383,417
162.408,414
162.433,410
162.458,408
162.483,394
162.508,366
162.533,338
162.558,326
162.583,329
162.608,330
162.633,319
162.658,301
162.683,288
162.708,278
162.733,261
162.758,229
162.783,192
162.808,169
162.833,161
162.858,145
162.883,98
162.908,28
162.933,-14
162.958,15
162.983,119
163.008,243
163.033,328
163.058,351
163.083,342
163.108,336
163.133,341
163.158,338
163.183,315
163.208,290
163.233,290
163.258,314
163.283,334
163.308,328
163.333,305
163.358,293
163.383,295
163.408,278
163.433,210
163.458,102
163.483,0
163.508,-60
163.533,-96
163.558,-143
163.583,-206
163.608,-233
163.633,-167
163.658,-13
163.683,159
163.708,282
163.733,340
163.758,367
163.783,397
163.808,428
163.833,439
163.858,431
163.883,427
163.908,443
163.933,468
163.958,475
163.983,464
164.008,455
164.033,460
164.058,460
164.083,430
164.108,373
164.133,327
164.158,314
164.183,305
164.208,235
164.233,76
164.258,-128
164.283,-287
164.308,-328
164.333,-248
164.358,-99
164.383,55
164.408,175
164.433,244
164.458,266
164.483,257
164.508,240
164.533,227
164.558,217
164.583,201
164.608,187
164.633,197
164.658,247
164.683,320
164.708,375
164.733,380
164.758,340
164.783,283
164.808,234
164.833,202
164.858,189
164.883,197
164.908,220
164.933,237
164.958,218
164.983,162
165.008,106
165.033,99
165.058,155
165.083,245
165.108,319
165.133,356
165.158,365
165.183,364
165.208,354
165.233,328
165.258,287
165.283,250
165.308,231
165.333,229
165.358,234
165.383,238
165.408,245
165.433,250
165.458,244
165.483,221
165.508,191
165.533,170
165.558,158
165.583,135
165.608,91
165.633,46
165.658,43
165.683,105
165.708,207
165.733,301
165.758,352
165.783,365
165.808,362
165.833,356
165.858,342
165.883,314
165.908,284
165.933,264
165.958,259
165.983,259
166.008,258
166.033,256
166.058,256
166.083,250
166.108,232
166.133,203
166.158,177
166.183,157
166.208,129
166.233,79
166.258,19
166.283,-11
166.308,16
166.333,95
166.358,181
166.383,237
166.408,254
166.433,249
166.458,233
166.483,210
166.508,183
166.533,168
166.558,178
166.583,210
166.608,240
166.633,256
166.658,263
166.683,273
166.708,284
166.733,282
166.758,261
166.783,237
166.808,229
166.833,227
166.858,203
166.883,147
166.908,97
166.933,105
166.958,190
166.983,311
167.008,404
167.033,439
167.058,433
167.083,420
167.108,410
167.133,389
167.158,352
167.183,314
167.208,295
167.233,292
167.258,286
167.283,268
167.308,247
167.333,237
167.358,232
167.383,213
167.408,175
167.433,139
167.458,118
167.483,102
167.508,64
167.533,4
167.558,-35
167.583,-7
167.608,91
167.633,207
167.658,278
167.683,291
167.708,278
167.733,275
167.758,282
167.783,279
167.808,255
167.833,229
167.858,220
167.883,225
167.908,223
167.933,210
167.958,197
167.983,196
168.008,197
168.033,181
168.058,147
168.083,115
168.108,98
168.133,81
168.158,40
168.183,-21
168.208,-60
168.233,-34
168.258,53
168.283,153
168.308,218
168.333,241
168.358,246
168.383,253
168.408,254
168.433,240
168.458,219
168.483,217
168.508,244
168.533,284
168.558,314
168.583,326
168.608,332
168.633,339
168.658,341
168.683,333
168.708,331
168.733,348
168.758,374
168.783,370
168.808,303
168.833,183
168.858,54
168.883,-35
168.908,-67
168.933,-40
168.958,49
168.983,204
169.008,395
169.033,565
169.058,666
169.083,701
169.108,718
169.133,746
169.158,761
169.183,704
169.208,551
169.233,341
169.258,150
169.283,31
169.308,-1
169.333,36
169.358,124
169.383,226
169.408,292
169.433,279
169.458,201
169.483,125
169.508,118
169.533,185
169.558,265
169.583,294
169.608,264
169.633,219
169.658,197
169.683,191
169.708,171
169.733,129
169.758,89
169.783,76
169.808,85
169.833,83
169.858,55
169.883,11
169.908,-28
169.933,-62
169.958,-110
169.983,-175
170.008,-238
170.033,-267
170.058,-256
170.083,-224
170.108,-196
170.133,-166
170.158,-108
170.183,-3
170.208,131
170.233,245
170.258,296
170.283,281
170.308,244
170.333,240
170.358,303
170.383,423
170.408,559
170.433,674
170.458,751
170.483,792
170.508,805
170.533,793
170.558,754
170.583,689
170.608,599
170.633,485
170.658,351
170.683,224
170.708,149
170.733,171
170.758,288
170.783,446
170.808,574
170.833,636
170.858,640
170.883,615
170.908,565
170.933,475
170.958,350
170.983,224
171.008,143
171.033,115
171.058,103
171.083,68
171.108,10
171.133,-28
171.158,-12
171.183,53
171.208,131
171.233,182
171.258,190
171.283,148
171.308,55
171.333,-73
171.358,-189
171.383,-229
171.408,-164
171.433,-30
171.458,94
171.483,154
171.508,144
171.533,99
171.558,45
171.583,-16
171.608,-83
171.633,-138
171.658,-160
171.683,-159
171.708,-167
171.733,-200
171.758,-232
171.783,-215
171.808,-142
171.833,-62
171.858,-41
171.883,-89
171.908,-142
171.933,-124
171.958,-15
171.983,123
172.008,207
172.033,195
172.058,116
172.083,40
172.108,28
172.133,110
172.158,274
172.183,489
172.208,709
172.233,894
172.258,1026
172.283,1108
172.308,1162
172.333,1205
172.358,1242
172.383,1273
172.408,1301
172.433,1323
172.458,1334
172.483,1323
172.508,1293
172.533,1259
172.558,1230
172.583,1187
172.608,1079
172.633,858
172.658,524
172.683,139
172.708,-214
172.733,-477
172.758,-642
172.783,-727
172.808,-750
172.833,-711
172.858,-613
172.883,-478
172.908,-346
172.933,-248
172.958,-186
172.983,-143
173.008,-102
173.033,-63
173.058,-33
173.083,-20
173.108,-16
173.133,-4
173.158,26
173.183,75
173.208,129
173.233,169
173.258,187
173.283,189
173.308,186
173.333,189
173.358,189
173.383,171
173.408,127
173.433,69
173.458,13
173.483,-37
173.508,-99
173.533,-180
173.558,-265
173.583,-315
173.608,-305
173.633,-246
173.658,-174
173.683,-115
173.708,-59
173.733,20
173.758,132
173.783,251
173.808,348
173.833,413
173.858,463
173.883,512
173.908,559
173.933,588
173.958,595
173.983,584
174.008,560
174.033,518
174.058,454
174.083,379
174.108,309
174.133,248
174.158,188
174.183,120
174.208,52
174.233,1
174.258,-35
174.283,-76
174.308,-129
174.333,-161
174.358,-114
174.383,35
174.408,246
174.433,445
174.458,590
174.483,698
174.508,801
174.533,887
174.558,900
174.583,808
174.608,655
174.633,540
174.658,538
174.683,635
174.708,766
174.733,884
174.758,998
174.783,1130
174.808,1258
174.833,1316
174.858,1262
174.883,1129
174.908,997
174.933,897
174.958,759
174.983,468
175.008,-5
175.033,-538
175.058,-922
175.083,-1020
175.108,-871
175.133,-654
175.158,-540
175.183,-567
175.208,-638
175.233,-629
175.258,-494
175.283,-284
175.308,-81
175.333,74
175.358,196
175.383,308
175.408,401
175.433,440
175.458,397
175.483,285
175.508,145
175.533,19
175.558,-73
175.583,-134
175.608,-165
175.633,-163
175.658,-131
175.683,-86
175.708,-52
175.733,-44
175.758,-50
175.783,-38
175.808,14
175.833,107
175.858,216
175.883,309
175.908,371
175.933,406
175.958,426
175.983,436
176.008,435
176.033,422
176.058,407
176.083,402
176.108,413
176.133,430
176.158,438
176.183,430
176.208,414
176.233,400
176.258,390
176.283,375
176.308,349
176.333,319
176.358,296
176.383,280
176.408,254
176.433,205
176.458,141
176.483,98
176.508,109
176.533,180
176.558,278
176.583,361
176.608,409
176.633,429
176.658,435
176.683,430
176.708,409
176.733,373
176.758,337
176.783,318
176.808,316
176.833,314
176.858,299
176.883,275
176.908,255
176.933,240
176.958,215
176.983,169
177.008,111
177.033,64
177.058,37
177.083,10
177.108,-36
177.133,-98
177.158,-134
177.183,-104
177.208,-8
177.233,111
177.258,208
177.283,267
177.308,304
177.333,338
177.358,363
177.383,366
177.408,345
177.433,319
177.458,310
177.483,319
177.508,329
177.533,324
177.558,305
177.583,282
177.608,256
177.633,220
177.658,169
177.683,117
177.708,78
177.733,50
177.758,15
177.783,-39
177.808,-96
177.833,-114
177.858,-63
177.883,45
177.908,166
177.933,253
177.958,293
177.983,304
178.008,310
178.033,318
178.058,318
178.083,306
178.108,291
178.133,287
178.158,299
178.183,313
178.208,319
178.233,312
178.258,301
178.283,290
178.308,273
178.333,246
178.358,214
178.383,190
178.408,181
178.433,171
178.458,144
178.483,104
178.508,87
178.533,134
178.558,254
178.583,411
178.608,550
178.633,638
178.658,684
178.683,712
178.708,734
178.733,740
178.758,718
178.783,677
178.808,642
178.833,625
178.858,614
178.883,585
178.908,532
178.933,469
178.958,411
178.983,353
179.008,271
179.033,145
179.058,-26
179.083,-226
179.108,-425
179.133,-585
179.158,-661
179.183,-619
179.208,-464
179.233,-249
179.258,-47
179.283,93
179.308,170
179.333,203
179.358,200
179.383,155
179.408,74
179.433,-7
179.458,-47
179.483,-28
179.508,24
179.533,80
179.558,135
179.583,206
179.608,295
179.633,376
179.658,414
179.683,401
179.708,366
179.733,337
179.758,315
179.783,291
179.808,272
179.833,285
179.858,345
179.883,427
179.908,483
179.933,491
179.958,476
179.983,481
180.008,518
180.033,558
180.058,560
180.083,515
180.108,445
180.133,375
180.158,309
180.183,232
180.208,135
180.233,17
180.258,-106
180.283,-215
180.308,-282
180.333,-297
180.358,-278
180.383,-269
180.408,-293
180.433,-330
180.458,-326
180.483,-251
180.508,-136
180.533,-42
180.558,0
180.583,24
180.608,73
180.633,146
180.658,190
180.683,161
180.708,81
180.733,16
180.758,16
180.783,71
180.808,142
180.833,209
180.858,287
180.883,394
180.908,524
180.933,656
180.958,782
180.983,902
181.008,1001
181.033,1045
181.058,1020
181.083,965
181.108,947
181.133,996
181.158,1060
181.183,1046
181.208,908
181.233,690
181.258,478
181.283,326
181.308,228
181.333,155
181.358,105
181.383,93
181.408,121
181.433,157
181.458,163
181.483,135
181.508,104
181.533,90
181.558,85
181.583,66
181.608,23
181.633,-26
181.658,-58
181.683,-64
181.708,-49
181.733,-17
181.758,23
181.783,48
181.808,14
181.833,-104
181.858,-290
181.883,-479
181.908,-607
181.933,-650
181.958,-621
181.983,-544
182.008,-425
182.033,-266
182.058,-86
182.083,81
182.108,211
182.133,304
182.158,374
182.183,424
182.208,448
182.233,444
182.258,437
182.283,461
182.308,530
182.333,624
182.358,711
182.383,772
182.408,809
182.433,829
182.458,830
182.483,807
182.508,769
182.533,735
182.558,714
182.583,696
182.608,659
182.633,595
182.658,515
182.683,435
182.708,358
182.733,272
182.758,166
182.783,47
182.808,-66
182.833,-159
182.858,-216
182.883,-226
182.908,-178
182.933,-77
182.958,48
182.983,161
183.008,228
183.033,240
183.058,210
183.083,160
183.108,113
183.133,84
183.158,81
183.183,94
183.208,107
183.233,105
183.258,91
183.283,85
183.308,99
183.333,121
183.358,118
183.383,74
183.408,6
183.433,-37
183.458,-23
183.483,44
183.508,128
183.533,189
183.558,214
183.583,224
183.608,241
183.633,266
183.658,283
183.683,279
183.708,261
183.733,252
183.758,268
183.783,303
183.808,331
183.833,337
183.858,328
183.883,320
183.908,318
183.933,300
183.958,249
183.983,175
184.008,125
184.033,147
184.058,248
184.083,382
184.108,487
184.133,529
184.158,517
184.183,486
184.208,461
184.233,446
184.258,431
184.283,409
184.308,382
184.333,355
184.358,326
184.383,287
184.408,229
184.433,154
184.458,73
184.483,2
184.508,-51
184.533,-93
184.558,-137
184.583,-184
184.608,-211
184.633,-179
184.658,-70
184.683,90
184.708,246
184.733,348
184.758,386
184.783,388
184.808,383
184.833,376
184.858,357
184.883,325
184.908,297
184.933,289
184.958,296
184.983,295
185.008,269
185.033,227
185.058,186
185.083,153
185.108,116
185.133,61
185.158,-6
185.183,-56
185.208,-57
185.233,5
185.258,121
185.283,258
185.308,375
185.333,440
185.358,441
185.383,401
185.408,361
185.433,353
185.458,374
185.483,392
185.508,374
185.533,319
185.558,250
185.583,191
185.608,152
185.633,131
185.658,126
185.683,140
185.708,164
185.733,175
185.758,157
185.783,122
185.808,111
185.833,159
185.858,259
185.883,366
185.908,434
185.933,450
185.958,438
185.983,428
186.008,429
186.033,427
186.058,413
186.083,392
186.108,380
186.133,387
186.158,407
186.183,424
186.208,427
186.233,407
186.258,361
186.283,286
186.308,185
186.333,68
186.358,-42
186.383,-123
186.408,-153
186.433,-129
186.458,-63
186.483,22
186.508,101
186.533,159
186.558,198
186.583,223
186.608,239
186.633,246
186.658,243
186.683,235
186.708,232
186.733,233
186.758,231
186.783,215
186.808,187
186.833,154
186.858,121
186.883,86
186.908,45
186.933,5
186.958,-9
186.983,25
187.008,111
187.033,218
187.058,305
187.083,345
187.108,344
187.133,323
187.158,302
187.183,283
187.208,266
187.233,256
187.258,260
187.283,282
187.308,309
187.333,320
187.358,306
187.383,279
187.408,254
187.433,238
187.458,221
187.483,188
187.508,141
187.533,104
187.558,102
187.583,146
187.608,221
187.633,296
187.658,343
187.683,356
187.708,342
187.733,318
187.758,296
187.783,280
187.808,268
187.833,260
187.858,255
187.883,254
187.908,251
187.933,243
187.958,227
187.983,208
188.008,194
188.033,182
188.058,159
188.083,117
188.108,66
188.133,33
188.158,47
188.183,112
188.208,203
188.233,281
188.258,322
188.283,327
188.308,314
188.333,297
188.358,281
188.383,267
188.408,255
188.433,250
188.458,253
188.483,255
188.508,246
188.533,224
188.558,200
188.583,181
188.608,168
188.633,147
188.658,107
188.683,60
188.708,37
188.733,67
188.758,151
188.783,256
188.808,338
188.833,376
188.858,379
188.883,373
188.908,370
188.933,360
188.958,332
188.983,294
189.008,269
189.033,269
189.058,280
189.083,272
189.108,232
189.133,178
189.158,143
189.183,136
189.208,136
189.233,110
189.258,55
189.283,8
189.308,11
189.333,82
189.358,192
189.383,294
189.408,353
189.433,368
189.458,359
189.483,347
189.508,339
189.533,328
189.558,313
189.583,298
189.608,296
189.633,308
189.658,320
189.683,315
189.708,284
189.733,239
189.758,197
189.783,165
189.808,136
189.833,97
189.858,49
189.883,20
189.908,39
189.933,115
189.958,221
189.983,311
190.008,353
190.033,348
190.058,322
190.083,299
190.108,285
190.133,272
190.158,256
190.183,246
190.208,252
190.233,270
190.258,285
190.283,279
190.308,253
190.333,226
190.358,211
190.383,201
190.408,178
190.433,133
190.458,83
190.483,64
190.508,98
190.533,173
190.558,252
190.583,301
190.608,312
190.633,300
190.658,282
190.683,263
190.708,240
190.733,216
190.758,203
190.783,210
190.808,228
190.833,239
190.858,229
190.883,203
190.908,178
190.933,171
190.958,178
190.983,178
191.008,157
191.033,123
191.058,106
191.083,134
191.108,207
191.133,294
191.158,354
191.183,365
191.208,336
191.233,293
191.258,253
191.283,214
191.308,171
191.333,127
191.358,95
191.383,82
191.408,77
191.433,65
191.458,43
191.483,21
191.508,10
191.533,3
191.558,-18
191.583,-60
191.608,-103
191.633,-110
191.658,-62
191.683,29
191.708,134
191.733,222
191.758,281
191.783,313
191.808,322
191.833,312
191.858,300
191.883,315
191.908,378
191.933,480
191.958,583
191.983,643
192.008,641
192.033,596
192.058,545
192.083,504
192.108,453
192.133,355
192.158,206
192.183,52
192.208,-28
192.233,12
192.258,159
192.283,337
192.308,470
192.333,532
192.358,546
192.383,545
192.408,547
192.433,546
192.458,542
192.483,542
192.508,541
192.533,516
192.558,438
192.583,317
192.608,206
192.633,163
192.658,197
192.683,262
192.708,300
192.733,288
192.758,250
192.783,222
192.808,217
192.833,223
192.858,223
192.883,214
192.908,197
192.933,172
192.958,133
192.983,79
193.008,17
193.033,-43
193.058,-91
193.083,-107
193.108,-71
193.133,12
193.158,105
193.183,159
193.208,161
193.233,150
193.258,174
193.283,218
193.308,206
193.333,65
193.358,-179
193.383,-408
193.408,-494
193.433,-401
193.458,-205
193.483,-16
193.508,104
193.533,166
193.558,201
193.583,225
193.608,235
193.633,239
193.658,250
193.683,280
193.708,318
193.733,349
193.758,365
193.783,367
193.808,358
193.833,338
193.858,311
193.883,291
193.908,279
193.933,261
193.958,218
193.983,161
194.008,135
194.033,181
194.058,293
194.083,413
194.108,486
194.133,498
194.158,479
194.183,462
194.208,451
194.233,434
194.258,409
194.283,390
194.308,386
194.333,387
194.358,379
194.383,355
194.408,328
194.433,302
194.458,275
194.483,239
194.508,200
194.533,167
194.558,134
194.583,86
194.608,22
194.633,-25
194.658,-11
194.683,76
194.708,195
194.733,282
194.758,310
194.783,298
194.808,286
194.833,287
194.858,288
194.883,279
194.908,265
194.933,260
194.958,266
194.983,269
195.008,262
195.033,251
195.058,247
195.083,243
195.108,227
195.133,197
195.158,169
195.183,153
195.208,138
195.233,105
195.258,53
195.283,18
195.308,38
195.333,117
195.358,218
195.383,295
195.408,330
195.433,337
195.458,331
195.483,317
195.508,291
195.533,259
195.558,237
195.583,233
195.608,240
195.633,242
195.658,236
195.683,225
195.708,214
195.733,201
195.758,182
195.783,164
195.808,148
195.833,130
195.858,94
195.883,45
195.908,11
195.933,31
195.958,110
195.983,213
196.008,288
196.033,313
196.058,303
196.083,290
196.108,286
196.133,280
196.158,265
196.183,253
196.208,257
196.233,277
196.258,297
196.283,302
196.308,298
196.333,297
196.358,300
196.383,298
196.408,283
196.433,265
196.458,256
196.483,250
196.508,228
196.533,182
196.558,137
196.583,136
196.608,199
196.633,301
196.658,396
196.683,449
196.708,460
196.733,445
196.758,415
196.783,376
196.808,333
196.833,299
196.858,281
196.883,275
196.908,267
196.933,251
196.958,230
196.983,210
197.008,193
197.033,176
197.058,158
197.083,141
197.108,119
197.133,80
197.158,24
197.183,-29
197.208,-47
197.233,-7
197.258,76
197.283,162
197.308,215
197.333,227
197.358,213
197.383,193
197.408,175
197.433,161
197.458,151
197.483,151
197.508,159
197.533,172
197.558,183
197.583,190
197.608,193
197.633,194
197.658,191
197.683,190
197.708,191
197.733,190
197.758,177
197.783,148
197.808,115
197.833,107
197.858,143
197.883,218
197.908,301
197.933,360
197.958,382
197.983,379
198.008,366
198.033,351
198.058,333
198.083,311
198.108,293
198.133,287
198.158,294
198.183,301
198.208,293
198.233,270
198.258,241
198.283,220
198.308,208
198.333,195
198.358,167
198.383,124
198.408,86
198.433,82
198.458,128
198.483,210
198.508,294
198.533,345
198.558,354
198.583,335
198.608,310
198.633,291
198.658,275
198.683,256
198.708,240
198.733,236
198.758,243
198.783,249
198.808,238
198.833,209
198.858,178
198.883,161
198.908,155
198.933,142
198.958,104
198.983,50
199.008,14
199.033,27
199.058,95
199.083,188
199.108,266
199.133,305
199.158,309
199.183,299
199.208,291
199.233,288
199.258,285
199.283,276
199.308,265
199.333,259
199.358,260
199.383,261
199.408,251
199.433,227
199.458,201
199.483,186
199.508,184
199.533,178
199.558,150
199.583,104
199.608,70
199.633,82
199.658,148
199.683,238
199.708,312
199.733,349
199.758,355
199.783,348
199.808,340
199.833,331
199.858,325
199.883,328
199.908,342
199.933,359
199.958,368
199.983,366
200.008,360
200.033,354
200.058,344
200.083,324
200.108,302
200.133,290
200.158,286
200.183,270
200.208,229
200.233,183
200.258,174
200.283,225
200.308,309
200.333,363
200.358,346
200.383,270
200.408,178
200.433,109
200.458,67
200.483,45
200.508,42
200.533,59
200.558,80
200.583,71
200.608,10
200.633,-86
200.658,-177
200.683,-222
200.708,-215
200.733,-171
200.758,-111
200.783,-50
200.808,-7
200.833,8
200.858,13
200.883,48
200.908,153
200.933,323
200.958,503
200.983,627
201.008,668
201.033,648
201.058,612
201.083,583
201.108,562
201.133,544
201.158,535
201.183,541
201.208,551
201.233,551
201.258,532
201.283,503
201.308,476
201.333,451
201.358,406
201.383,320
201.408,186
201.433,24
201.458,-117
201.483,-190
201.508,-167
201.533,-68
201.558,44
201.583,105
201.608,94
201.633,48
201.658,25
201.683,55
201.708,115
201.733,168
201.758,195
201.783,210
201.808,232
201.833,261
201.858,278
201.883,272
201.908,247
201.933,215
201.958,183
201.983,155
202.008,135
202.033,128
202.058,126
202.083,114
202.108,86
202.133,64
202.158,79
202.183,141
202.208,223
202.233,283
202.258,304
202.283,298
202.308,286
202.333,275
202.358,258
202.383,237
202.408,230
202.433,250
202.458,282
202.483,303
202.508,301
202.533,291
202.558,292
202.583,305
202.608,308
202.633,293
202.658,274
202.683,269
202.708,273
202.733,264
202.758,229
202.783,194
202.808,196
202.833,250
202.858,328
202.883,391
202.908,419
202.933,421
202.958,410
202.983,385
203.008,338
203.033,273
203.058,208
203.083,160
203.108,130
203.133,112
203.158,106
203.183,114
203.208,134
203.233,153
203.258,159
203.283,151
203.308,140
203.333,130
203.358,110
203.383,74
203.408,41
203.433,42
203.458,98
203.483,189
203.508,276
203.533,327
203.558,342
203.583,339
203.608,332
203.633,325
203.658,314
203.683,305
203.708,304
203.733,313
203.758,324
203.783,328
203.808,320
203.833,302
203.858,277
203.883,251
203.908,224
203.933,195
203.958,157
203.983,102
204.008,37
204.033,-8
204.058,-9
204.083,44
204.108,126
204.133,201
204.158,242
204.183,252
204.208,246
204.233,235
204.258,223
204.283,209
204.308,199
204.333,200
204.358,210
204.383,221
204.408,225
204.433,225
204.458,227
204.483,237
204.508,256
204.533,272
204.558,272
204.583,245
204.608,193
204.633,135
204.658,101
204.683,114
204.708,171
204.733,247
204.758,308
204.783,336
204.808,336
204.833,326
204.858,317
204.883,308
204.908,297
204.933,282
204.958,271
204.983,267
205.008,268
205.033,267
205.058,256
205.083,240
205.108,224
205.133,214
205.158,208
205.183,194
205.208,164
205.233,122
205.258,89
205.283,87
205.308,125
205.333,189
205.358,251
205.383,289
205.408,298
205.433,293
205.458,286
205.483,280
205.508,270
205.533,255
205.558,242
205.583,239
205.608,247
205.633,254
205.658,246
205.683,223
205.708,201
205.733,193
205.758,195
205.783,185
205.808,145
205.833,86
205.858,42
205.883,49
205.908,112
205.933,200
205.958,273
205.983,306
206.008,306
206.033,292
206.058,282
206.083,279
206.108,277
206.133,269
206.158,256
206.183,245
206.208,243
206.233,247
206.258,248
206.283,237
206.308,216
206.333,198
206.358,191
206.383,182
206.408,151
206.433,93
206.458,37
206.483,26
206.508,80
206.533,173
206.558,256
206.583,299
206.608,307
206.633,304
206.658,305
206.683,302
206.708,287
206.733,268
206.758,259
206.783,266
206.808,278
206.833,283
206.858,284
206.883,288
206.908,294
206.933,291
206.958,272
206.983,241
207.008,209
207.033,174
207.058,128
207.083,80
207.108,62
207.133,101
207.158,189
207.183,280
207.208,328
207.233,325
207.258,302
207.283,287
207.308,283
207.333,274
207.358,257
207.383,245
207.408,251
207.433,265
207.458,268
207.483,254
207.508,238
207.533,234
207.558,234
207.583,218
207.608,184
207.633,150
207.658,132
207.683,118
207.708,84
207.733,26
207.758,-19
207.783,-6
207.808,73
207.833,182
207.858,267
207.883,307
207.908,319
207.933,324
207.958,329
207.983,326
208.008,316
208.033,311
208.058,320
208.083,338
208.108,351
208.133,353
208.158,348
208.183,340
208.208,321
208.233,286
208.258,244
208.283,210
208.308,191
208.333,168
208.358,124
208.383,68
208.408,39
208.433,66
208.458,138
208.483,210
208.508,249
208.533,253
208.558,249
208.583,252
208.608,254
208.633,243
208.658,221
208.683,206
208.708,210
208.733,225
208.758,236
208.783,238
208.808,234
208.833,230
208.858,221
208.883,204
208.908,186
208.933,175
208.958,163
208.983,134
209.008,84
209.033,38
209.058,33
209.083,84
209.108,166
209.133,235
209.158,267
209.183,272
209.208,270
209.233,270
209.258,266
209.283,258
209.308,252
209.333,260
209.358,275
209.383,285
209.408,284
209.433,280
209.458,278
209.483,278
209.508,271
209.533,259
209.558,251
209.583,248
209.608,235
209.633,197
209.658,146
209.683,115
209.708,137
209.733,207
209.758,286
209.783,334
209.808,344
209.833,333
209.858,321
209.883,312
209.908,300
209.933,285
209.958,279
209.983,293
210.008,327
210.033,368
210.058,399
210.083,411
210.108,394
210.133,347
210.158,278
210.183,199
210.208,123
210.233,53
210.258,-11
210.283,-62
210.308,-79
210.333,-43
210.358,36
210.383,126
210.408,188
210.433,210
210.458,207
210.483,206
210.508,219
210.533,241
210.558,263
210.583,285
210.608,314
210.633,348
210.658,372
210.683,370
210.708,342
210.733,307
210.758,285
210.783,278
210.808,262
210.833,212
210.858,122
210.883,22
210.908,-42
210.933,-39
210.958,28
210.983,127
211.008,214
211.033,263
211.058,278
211.083,278
211.108,284
211.133,297
211.158,305
211.183,292
211.208,255
211.233,208
211.258,168
211.283,143
211.308,132
211.333,133
211.358,140
211.383,148
211.408,145
211.433,119
211.458,72
211.483,30
211.508,28
211.533,82
211.558,177
211.583,274
211.608,339
211.633,365
211.658,367
211.683,363
211.708,358
211.733,352
211.758,341
211.783,330
211.808,326
211.833,331
211.858,338
211.883,340
211.908,332
211.933,315
211.958,295
211.983,278
212.008,258
212.033,223
212.058,168
212.083,106
212.108,71
212.133,91
212.158,165
212.183,257
212.208,324
212.233,342
212.258,325
212.283,302
212.308,290
212.333,283
212.358,269
212.383,247
212.408,230
212.433,228
212.458,238
212.483,246
212.508,240
212.533,222
212.558,201
212.583,187
212.608,179
212.633,166
212.658,139
212.683,99
212.708,61
212.733,50
212.758,81
212.783,150
212.808,230
212.833,289
212.858,313
212.883,309
212.908,297
212.933,285
212.958,273
212.983,257
213.008,246
213.033,249
213.058,264
213.083,275
213.108,264
213.133,232
213.158,199
213.183,183
213.208,181
213.233,171
213.258,134
213.283,77
213.308,33
213.333,34
213.358,87
213.383,170
213.408,246
213.433,291
213.458,305
213.483,302
213.508,298
213.533,298
213.558,300
213.583,297
213.608,293
213.633,293
213.658,300
213.683,307
213.708,301
213.733,279
213.758,254
213.783,238
213.808,234
213.833,223
213.858,187
213.883,129
213.908,75
213.933,54
213.958,76
213.983,123
214.008,169
214.033,201
214.058,219
214.083,231
214.108,241
214.133,248
214.158,252
214.183,253
214.208,252
214.233,249
214.258,248
214.283,252
214.308,259
214.333,260
214.358,250
214.383,234
214.408,223
214.433,217
214.458,200
214.483,161
214.508,111
214.533,83
214.558,104
214.583,166
214.608,236
214.633,280
214.658,296
214.683,299
214.708,305
214.733,311
214.758,309
214.783,301
214.808,296
214.833,301
214.858,310
214.883,315
214.908,315
214.933,316
214.958,313
214.983,300
215.008,272
215.033,239
215.058,211
215.083,180
215.108,133
215.133,67
215.158,12
215.183,6
215.208,64
215.233,157
215.258,238
215.283,280
215.308,291
215.333,290
215.358,287
215.383,280
215.408,266
215.433,254
215.458,257
215.483,276
215.508,300
215.533,316
215.558,318
215.583,311
215.608,301
215.633,289
215.658,277
215.683,257
215.708,218
215.733,153
215.758,71
215.783,6
215.808,-7
215.833,40
215.858,124
215.883,196
215.908,227
215.933,219
215.958,196
215.983,181
216.008,177
216.033,178
216.058,181
216.083,190
216.108,211
216.133,236
216.158,252
216.183,254
216.208,248
216.233,246
216.258,253
216.283,254
216.308,230
216.333,176
216.358,113
216.383,77
216.408,95
216.433,168
216.458,265
216.483,345
216.508,386
216.533,390
216.558,379
216.583,370
216.608,368
216.633,364
216.658,352
216.683,335
216.708,324
216.733,321
216.758,317
216.783,296
216.808,256
216.833,212
216.858,178
216.883,147
216.908,98
216.933,20
216.958,-59
216.983,-97
217.008,-61
217.033,29
217.058,127
217.083,193
217.108,227
217.133,256
217.158,299
217.183,343
217.208,368
217.233,368
217.258,359
217.283,359
217.308,370
217.333,377
217.358,368
217.383,343
217.408,307
217.433,266
217.458,223
217.483,183
217.508,146
217.533,107
217.558,55
217.583,-4
217.608,-43
217.633,-27
217.658,49
217.683,151
217.708,232
217.733,270
217.758,278
217.783,281
217.808,282
217.833,273
217.858,252
217.883,237
217.908,248
217.933,280
217.958,307
217.983,312
218.008,307
218.033,315
218.058,342
218.083,364
218.108,356
218.133,323
218.158,291
218.183,276
218.208,263
218.233,221
218.258,149
218.283,82
218.308,61
218.333,97
218.358,164
218.383,225
218.408,262
218.433,276
218.458,275
218.483,258
218.508,229
218.533,200
218.558,187
218.583,191
218.608,200
218.633,203
218.658,202
218.683,207
218.708,217
218.733,221
218.758,213
218.783,200
218.808,193
218.833,186
218.858,162
218.883,114
218.908,66
218.933,60
218.958,114
218.983,205
219.008,284
219.033,326
219.058,336
219.083,338
219.108,337
219.133,327
219.158,303
219.183,279
219.208,272
219.233,282
219.258,291
219.283,288
219.308,278
219.333,269
219.358,260
219.383,240
219.408,210
219.433,185
219.458,177
219.483,173
219.508,144
219.533,83
219.558,27
219.583,26
219.608,91
219.633,186
219.658,255
219.683,277
219.708,275
219.733,277
219.758,291
219.783,297
219.808,284
219.833,265
219.858,257
219.883,263
219.908,267
219.933,261
219.958,251
219.983,251
220.008,257
220.033,254
220.058,239
220.083,221
220.108,213
220.133,203
220.158,168
220.183,107
220.208,51
220.233,47
220.258,106
220.283,191
220.308,254
220.333,272
220.358,267
220.383,269
220.408,283
220.433,290
220.458,279
220.483,261
220.508,256
220.533,266
220.558,274
220.583,268
220.608,256
220.633,254
220.658,261
220.683,262
220.708,245
220.733,221
220.758,206
220.783,199
220.808,180
220.833,132
220.858,73
220.883,47
220.908,82
220.933,161
220.958,242
220.983,287
221.008,296
221.033,287
221.058,276
221.083,267
221.108,261
221.133,259
221.158,260
221.183,257
221.208,245
221.233,229
221.258,226
221.283,237
221.308,248
221.333,240
221.358,214
221.383,194
221.408,191
221.433,191
221.458,165
221.483,111
221.508,66
221.533,72
221.558,138
221.583,228
221.608,295
221.633,325
221.658,330
221.683,329
221.708,322
221.733,305
221.758,282
221.783,269
221.808,275
221.833,289
221.858,298
221.883,295
221.908,287
221.933,277
221.958,261
221.983,236
222.008,208
222.033,182
222.058,155
222.083,112
222.108,58
222.133,22
222.158,43
222.183,131
222.208,250
222.233,344
222.258,385
222.283,388
222.308,386
222.333,391
222.358,390
222.383,370
222.408,342
222.433,326
222.458,332
222.483,343
222.508,336
222.533,307
222.558,271
222.583,243
222.608,216
222.633,175
222.658,115
222.683,50
222.708,0
222.733,-39
222.758,-84
222.783,-142
222.808,-195
222.833,-201
222.858,-138
222.883,-19
222.908,115
222.933,228
222.958,307
222.983,358
223.008,385
223.033,384
223.058,360
223.083,332
223.108,321
223.133,332
223.158,349
223.183,352
223.208,339
223.233,322
223.258,311
223.283,299
223.308,276
223.333,247
223.358,225
223.383,214
223.408,197
223.433,154
223.458,92
223.483,52
223.508,70
223.533,144
223.558,233
223.583,298
223.608,328
223.633,339
223.658,345
223.683,343
223.708,326
223.733,300
223.758,283
223.783,282
223.808,288
223.833,288
223.858,282
223.883,278
223.908,275
223.933,264
223.958,235
223.983,196
224.008,162
224.033,134
224.058,95
224.083,39
224.108,-12
224.133,-19
224.158,33
224.183,124
224.208,208
224.233,258
224.258,277
224.283,282
224.308,283
224.333,280
224.358,273
224.383,271
224.408,280
224.433,291
224.458,292
224.483,284
224.508,277
224.533,279
224.558,283
224.583,277
224.608,262
224.633,250
224.658,246
224.683,231
224.708,189
224.733,130
224.758,92
224.783,108
224.808,175
224.833,257
224.858,315
224.883,336
224.908,333
224.933,318
224.958,298
224.983,273
225.008,252
225.033,243
225.058,246
225.083,254
225.108,256
225.133,253
225.158,248
225.183,240
225.208,228
225.233,214
225.258,206
225.283,202
225.308,187
225.333,144
225.358,83
225.383,39
225.408,45
225.433,105
225.458,186
225.483,250
225.508,280
225.533,286
225.558,283
225.583,276
225.608,262
225.633,241
225.658,228
225.683,231
225.708,247
225.733,261
225.758,261
225.783,247
225.808,229
225.833,218
225.858,216
225.883,210
225.908,187
225.933,140
225.958,81
225.983,36
226.008,34
226.033,80
226.058,155
226.083,224
226.108,262
226.133,267
226.158,257
226.183,248
226.208,243
226.233,238
226.258,231
226.283,231
226.308,241
226.333,256
226.358,263
226.383,254
226.408,239
226.433,231
226.458,237
226.483,243
226.508,225
226.533,175
226.558,114
226.583,80
226.608,98
226.633,164
226.658,243
226.683,299
226.708,320
226.733,319
226.758,318
226.783,324
226.808,330
226.833,325
226.858,314
226.883,310
226.908,321
226.933,339
226.958,348
226.983,340
227.008,327
227.033,327
227.058,342
227.083,350
227.108,324
227.133,259
227.158,178
227.183,121
227.208,113
227.233,147
227.258,194
227.283,230
227.308,244
227.333,244
227.358,237
227.383,227
227.408,213
227.433,198
227.458,186
227.483,184
227.508,189
227.533,193
227.558,190
227.583,175
227.608,154
227.633,135
227.658,121
227.683,111
227.708,94
227.733,63
227.758,23
227.783,-5
227.808,2
227.833,55
227.858,138
227.883,217
227.908,265
227.933,279
227.958,273
227.983,263
228.008,252
228.033,240
228.058,229
228.083,227
228.108,242
228.133,266
228.158,281
228.183,279
228.208,266
228.233,257
228.258,258
228.283,258
228.308,239
228.333,195
228.358,146
228.383,126
228.408,154
228.433,222
228.458,298
228.483,349
228.508,367
228.533,366
228.558,366
228.583,374
228.608,379
228.633,371
228.658,352
228.683,339
228.708,339
228.733,344
228.758,336
228.783,310
228.808,279
228.833,258
228.858,243
228.883,208
228.908,136
228.933,44
228.958,-20
228.983,-22
229.008,39
229.033,124
229.058,191
229.083,221
229.108,226
229.133,227
229.158,231
229.183,233
229.208,231
229.233,224
229.258,222
229.283,228
229.308,237
229.333,242
229.358,237
229.383,219
229.408,197
229.433,181
229.458,173
229.483,162
229.508,134
229.533,88
229.558,49
229.583,52
229.608,113
229.633,208
229.658,290
229.683,329
229.708,331
229.733,325
229.758,330
229.783,339
229.808,339
229.833,327
229.858,319
229.883,328
229.908,343
229.933,344
229.958,325
229.983,298
230.008,279
230.033,269
230.058,251
230.083,216
230.108,176
230.133,146
230.158,125
230.183,97
230.208,51
230.233,7
230.258,1
230.283,53
230.308,145
230.333,231
230.358,278
230.383,288
230.408,281
230.433,270
230.458,258
230.483,241
230.508,229
230.533,233
230.558,249
230.583,261
230.608,254
230.633,236
230.658,225
230.683,228
230.708,230
230.733,214
230.758,186
230.783,166
230.808,165
230.833,165
230.858,138
230.883,83
230.908,32
230.933,26
230.958,75
230.983,149
231.008,212
231.033,247
231.058,262
231.083,268
231.108,265
231.133,254
231.158,241
231.183,239
231.208,252
231.233,270
231.258,283
231.283,293
231.308,304
231.333,315
231.358,316
231.383,308
231.408,301
231.433,305
231.458,309
231.483,292
231.508,251
231.533,219
231.558,236
231.583,311
231.608,410
231.633,491
231.658,540
231.683,572
231.708,603
231.733,632
231.758,652
231.783,670
231.808,699
231.833,729
231.858,716
231.883,616
231.908,433
231.933,221
231.958,42
231.983,-80
232.008,-161
232.033,-218
232.058,-254
232.083,-268
232.108,-275
232.133,-295
232.158,-320
232.183,-313
232.208,-245
232.233,-134
232.258,-34
232.283,14
232.308,20
232.333,24
232.358,49
232.383,83
232.408,108
232.433,126
232.458,157
232.483,207
232.508,254
232.533,275
232.558,272
232.583,267
232.608,271
232.633,268
232.658,238
232.683,192
232.708,165
232.733,172
232.758,196
232.783,201
232.808,183
232.833,180
232.858,228
232.883,324
232.908,427
232.933,492
232.958,511
232.983,505
233.008,495
233.033,488
233.058,479
233.083,476
233.108,486
233.133,504
233.158,512
233.183,490
233.208,437
233.233,367
233.258,292
233.283,221
233.308,158
233.333,115
233.358,96
233.383,93
233.408,88
233.433,71
233.458,58
233.483,75
233.508,133
233.533,213
233.558,278
233.583,305
233.608,294
233.633,265
233.658,233
233.683,203
233.708,175
233.733,153
233.758,149
233.783,166
233.808,191
233.833,202
233.858,183
233.883,148
233.908,128
233.933,148
233.958,197
233.983,236
234.008,226
234.033,169
234.058,110
234.083,100
234.108,157
234.133,253
234.158,343
234.183,402
234.208,428
234.233,435
234.258,425
234.283,398
234.308,358
234.333,319
234.358,294
234.383,282
234.408,270
234.433,245
234.458,208
234.483,168
234.508,137
234.533,117
234.558,106
234.583,91
234.608,62
234.633,18
234.658,-24
234.683,-35
234.708,6
234.733,93
234.758,185
234.783,242
234.808,252
234.833,237
234.858,227
234.883,231
234.908,239
234.933,240
234.958,237
234.983,242
235.008,258
235.033,271
235.058,265
235.083,243
235.108,221
235.133,213
235.158,214
235.183,204
235.208,171
235.233,122
235.258,87
235.283,95
235.308,154
235.333,245
235.358,332
235.383,385
235.408,396
235.433,383
235.458,368
235.483,365
235.508,368
235.533,366
235.558,359
235.583,355
235.608,355
235.633,353
235.658,334
235.683,299
235.708,262
235.733,241
235.758,228
235.783,202
235.808,150
235.833,88
235.858,54
235.883,75
235.908,142
235.933,222
235.958,279
235.983,301
236.008,298
236.033,282
236.058,264
236.083,248
236.108,238
236.133,236
236.158,238
236.183,238
236.208,234
236.233,227
236.258,219
236.283,206
236.308,191
236.333,182
236.358,182
236.383,181
236.408,160
236.433,115
236.458,69
236.483,65
236.508,121
236.533,217
236.558,303
236.583,346
236.608,349
236.633,340
236.658,337
236.683,336
236.708,321
236.733,290
236.758,255
236.783,227
236.808,209
236.833,199
236.858,194
236.883,191
236.908,186
236.933,175
236.958,160
236.983,148
237.008,139
237.033,122
237.058,88
237.083,47
237.108,32
237.133,67
237.158,145
237.183,228
237.208,280
237.233,292
237.258,285
237.283,278
237.308,274
237.333,266
237.358,255
237.383,247
237.408,248
237.433,254
237.458,257
237.483,254
237.508,248
237.533,242
237.558,234
237.583,224
237.608,215
237.633,205
237.658,186
237.683,153
237.708,116
237.733,101
237.758,130
237.783,196
237.808,267
237.833,313
237.858,326
237.883,324
237.908,320
237.933,316
237.958,304
237.983,284
238.008,263
238.033,253
238.058,252
238.083,255
238.108,256
238.133,255
238.158,253
238.183,249
238.208,241
238.233,230
238.258,215
238.283,192
238.308,161
238.333,131
238.358,122
238.383,150
238.408,211
238.433,278
238.458,324
238.483,337
238.508,327
238.533,312
238.558,300
238.583,287
238.608,269
238.633,253
238.658,246
238.683,254
238.708,271
238.733,285
238.758,286
238.783,276
238.808,265
238.833,261
238.858,260
238.883,250
238.908,221
238.933,183
238.958,156
238.983,164
239.008,210
239.033,276
239.058,331
239.083,357
239.108,345
239.133,303
239.158,239
239.183,169
239.208,108
239.233,73
239.258,66
239.283,80
239.308,99
239.333,111
239.358,114
239.383,112
239.408,111
239.433,113
239.458,114
239.483,104
239.508,78
239.533,40
239.558,15
239.583,30
239.608,100
239.633,204
239.658,298
239.683,347
239.708,348
239.733,328
239.758,316
239.783,315
239.808,312
239.833,297
239.858,277
239.883,269
239.908,277
239.933,286
239.958,278
239.983,253
240.008,225
240.033,209
240.058,196
240.083,166
240.108,112
240.133,53
240.158,28
240.183,62
240.208,148
240.233,247
240.258,319
240.283,349
240.308,349
240.333,341
240.358,338
240.383,339
240.408,336
240.433,329
240.458,330
240.483,347
240.508,373
240.533,392
240.558,393
240.583,382
240.608,376
240.633,379
240.658,379
240.683,353
240.708,296
240.733,230
240.758,193
240.783,208
240.808,265
240.833,330
240.858,362
240.883,337
240.908,257
240.933,148
240.958,48
240.983,-12
241.008,-26
241.033,-6
241.058,22
241.083,44
241.108,61
241.133,77
241.158,95
241.183,112
241.208,125
241.233,140
241.258,157
241.283,165
241.308,152
241.333,121
241.358,98
241.383,113
241.408,177
241.433,265
241.458,341
241.483,378
241.508,378
241.533,358
241.558,338
241.583,324
241.608,315
241.633,308
241.658,302
241.683,302
241.708,308
241.733,318
241.758,320
241.783,309
241.808,286
241.833,265
241.858,255
241.883,248
241.908,227
241.933,182
241.958,133
241.983,117
242.008,158
242.033,241
242.058,327
242.083,378
242.108,387
242.133,369
242.158,343
242.183,317
242.208,295
242.233,281
242.258,276
242.283,280
242.308,284
242.333,284
242.358,277
242.383,261
242.408,237
242.433,208
242.458,183
242.483,166
242.508,146
242.533,111
242.558,58
242.583,13
242.608,6
242.633,46
242.658,109
242.683,160
242.708,187
242.733,196
242.758,194
242.783,169
242.808,114
242.833,45
242.858,0
242.883,1
242.908,27
242.933,33
242.958,-4
242.983,-67
243.008,-110
243.033,-102
243.058,-41
243.083,58
243.108,185
243.133,327
243.158,458
243.183,553
243.208,613
243.233,663
243.258,725
243.283,789
243.308,816
243.333,780
243.358,696
243.383,610
243.408,551
243.433,508
243.458,457
243.483,391
243.508,325
243.533,276
243.558,240
243.583,200
243.608,154
243.633,118
243.658,106
243.683,110
243.708,103
243.733,66
243.758,8
243.783,-43
243.808,-66
243.833,-59
243.858,-39
243.883,-27
243.908,-39
243.933,-76
243.958,-121
243.983,-150
244.008,-140
244.033,-87
244.058,1
244.083,122
244.108,277
244.133,459
244.158,628
244.183,723
244.208,707
244.233,605
244.258,489
244.283,416
244.308,381
244.333,332
244.358,228
244.383,88
244.408,-29
244.433,-79
244.458,-67
244.483,-27
244.508,16
244.533,65
244.558,125
244.583,188
244.608,235
244.633,263
244.658,285
244.683,316
244.708,353
244.733,381
244.758,394
244.783,402
244.808,415
244.833,426
244.858,417
244.883,376
244.908,304
244.933,213
244.958,106
244.983,-12
245.008,-117
245.033,-170
245.058,-142
245.083,-44
245.108,81
245.133,189
245.158,266
245.183,321
245.208,366
245.233,402
245.258,429
245.283,459
245.308,505
245.333,565
245.358,616
245.383,636
245.408,624
245.433,600
245.458,583
245.483,563
245.508,521
245.533,449
245.558,364
245.583,296
245.608,262
245.633,264
245.658,301
245.683,373
245.708,478
245.733,583
245.758,632
245.783,574
245.808,409
245.833,196
245.858,18
245.883,-65
245.908,-46
245.933,38
245.958,139
245.983,209
246.008,209
246.033,119
246.058,-55
246.083,-270
246.108,-460
246.133,-571
246.158,-596
246.183,-570
246.208,-530
246.233,-484
246.258,-410
246.283,-287
246.308,-122
246.333,48
246.358,190
246.383,290
246.408,355
246.433,392
246.458,399
246.483,369
246.508,309
246.533,241
246.558,197
246.583,197
246.608,236
246.633,290
246.658,326
246.683,327
246.708,299
246.733,270
246.758,262
246.783,276
246.808,291
246.833,293
246.858,295
246.883,330
246.908,414
246.933,524
246.958,616
246.983,654
247.008,643
247.033,615
247.058,592
247.083,571
247.108,541
247.133,501
247.158,468
247.183,452
247.208,447
247.233,435
247.258,407
247.283,374
247.308,346
247.333,317
247.358,265
247.383,178
247.408,73
247.433,-8
247.458,-31
247.483,11
247.508,97
247.533,187
247.558,251
247.583,274
247.608,258
247.633,217
247.658,173
247.683,136
247.708,110
247.733,86
247.758,60
247.783,37
247.808,23
247.833,22
247.858,27
247.883,31
247.908,28
247.933,17
247.958,-4
247.983,-35
248.008,-61
248.033,-56
248.058,0
248.083,107
248.108,228
248.133,322
248.158,367
248.183,375
248.208,371
248.233,367
248.258,354
248.283,325
248.308,287
248.333,262
248.358,257
248.383,264
248.408,264
248.433,252
248.458,241
248.483,245
248.508,250
248.533,230
248.558,168
248.583,87
248.608,36
248.633,52
248.658,130
248.683,225
248.708,294
248.733,324
248.758,334
248.783,350
248.808,375
248.833,396
248.858,405
248.883,408
248.908,425
248.933,462
248.958,510
248.983,549
249.008,572
249.033,585
249.058,599
249.083,614
249.108,619
249.133,610
249.158,596
249.183,599
249.208,636
249.233,705
249.258,789
249.283,867
249.308,918
249.333,924
249.358,867
249.383,737
249.408,543
249.433,313
249.458,89
249.483,-100
249.508,-249
249.533,-374
249.558,-492
249.583,-613
249.608,-737
249.633,-860
249.658,-982
249.683,-1104
249.708,-1208
249.733,-1258
249.758,-1215
249.783,-1064
249.808,-834
249.833,-582
249.858,-361
249.883,-187
249.908,-45
249.933,87
249.958,216
249.983,329
250.008,416
250.033,480
250.058,535
250.083,589
250.108,633
250.133,657
250.158,662
250.183,663
250.208,668
250.233,666
250.258,638
250.283,575
250.308,499
250.333,450
250.358,459
250.383,522
250.408,604
250.433,668
250.458,696
250.483,693
250.508,678
250.533,659
250.558,633
250.583,594
250.608,546
250.633,503
250.658,474
250.683,458
250.708,441
250.733,412
250.758,372
250.783,333
250.808,298
250.833,260
250.858,210
250.883,158
250.908,129
250.933,150
250.958,219
250.983,303
251.008,363
251.033,378
251.058,360
251.083,328
251.108,286
251.133,229
251.158,153
251.183,82
251.208,46
251.233,59
251.258,97
251.283,121
251.308,104
251.333,52
251.358,-9
251.383,-62
251.408,-108
251.433,-153
251.458,-191
251.483,-195
251.508,-146
251.533,-54
251.558,41
251.583,100
251.608,111
251.633,91
251.658,65
251.683,48
251.708,37
251.733,32
251.758,43
251.783,77
251.808,125
251.833,155
251.858,145
251.883,101
251.908,55
251.933,32
251.958,23
251.983,3
252.008,-36
252.033,-68
252.058,-45
252.083,48
252.108,180
252.133,294
252.158,357
252.183,378
252.208,389
252.233,403
252.258,413
252.283,409
252.308,399
252.333,401
252.358,423
252.383,450
252.408,463
252.433,461
252.458,458
252.483,467
252.508,482
252.533,483
252.558,466
252.583,449
252.608,469
252.633,548
252.658,676
252.683,815
252.708,922
252.733,972
252.758,971
252.783,941
252.808,906
252.833,869
252.858,821
252.883,750
252.908,653
252.933,540
252.958,418
252.983,282
253.008,127
253.033,-43
253.058,-210
253.083,-347
253.108,-444
253.133,-504
253.158,-531
253.183,-516
253.208,-445
253.233,-318
253.258,-157
253.283,3
253.308,134
253.333,218
253.358,254
253.383,252
253.408,227
253.433,205
253.458,204
253.483,221
253.508,235
253.533,226
253.558,190
253.583,144
253.608,110
253.633,97
253.658,102
253.683,109
253.708,97
253.733,48
253.758,-46
253.783,-169
253.808,-271
253.833,-302
253.858,-249
253.883,-151
253.908,-73
253.933,-51
253.958,-68
253.983,-73
254.008,-32
254.033,46
254.058,129
254.083,192
254.108,241
254.133,299
254.158,375
254.183,453
254.208,512
254.233,539
254.258,540
254.283,524
254.308,494
254.333,447
254.358,386
254.383,331
254.408,311
254.433,343
254.458,416
254.483,495
254.508,541
254.533,539
254.558,499
254.583,452
254.608,415
254.633,389
254.658,366
254.683,337
254.708,310
254.733,292
254.758,282
254.783,270
254.808,247
254.833,215
254.858,189
254.883,177
254.908,175
254.933,171
254.958,154
254.983,132
255.008,126
255.033,155
255.058,220
255.083,298
255.108,356
255.133,377
255.158,364
255.183,335
255.208,306
255.233,279
255.258,249
255.283,214
255.308,183
255.333,163
255.358,152
255.383,135
255.408,100
255.433,54
255.458,12
255.483,-10
255.508,-15
255.533,-6
255.558,13
255.583,51
255.608,119
255.633,215
255.658,321
255.683,415
255.708,475
255.733,496
255.758,481
255.783,444
255.808,400
255.833,358
255.858,322
255.883,295
255.908,279
255.933,272
255.958,269
255.983,261
256.008,244
256.033,223
256.058,211
256.083,211
256.108,208
256.133,184
256.158,139
256.183,97
256.208,90
256.233,131
256.258,200
256.283,262
256.308,291
256.333,282
256.358,253
256.383,222
256.408,197
256.433,182
256.458,170
256.483,159
256.508,147
256.533,139
256.558,138
256.583,139
256.608,131
256.633,108
256.658,78
256.683,56
256.708,41
256.733,20
256.758,-21
256.783,-67
256.808,-76
256.833,-20
256.858,89
256.883,204
256.908,280
256.933,312
256.958,325
256.983,340
257.008,358
257.033,366
257.058,366
257.083,370
257.108,387
257.133,408
257.158,418
257.183,412
257.208,395
257.233,369
257.258,329
257.283,279
257.308,232
257.333,199
257.358,177
257.383,147
257.408,105
257.433,83
257.458,121
257.483,229
257.508,364
257.533,473
257.558,530
257.583,545
257.608,534
257.633,492
257.658,412
257.683,312
257.708,238
257.733,220
257.758,239
257.783,249
257.808,215
257.833,146
257.858,70
257.883,2
257.908,-60
257.933,-115
257.958,-142
257.983,-127
258.008,-91
258.033,-72
258.058,-80
258.083,-73
258.108,18
258.133,215
258.158,461
258.183,663
258.208,768
258.233,791
258.258,783
258.283,763
258.308,699
258.333,555
258.358,345
258.383,137
258.408,1
258.433,-44
258.458,-34
258.483,7
258.508,90
258.533,238
258.558,425
258.583,557
258.608,544
258.633,381
258.658,167
258.683,18
258.708,-26
258.733,-10
258.758,10
258.783,30
258.808,67
258.833,102
258.858,79
258.883,-11
258.908,-70
258.933,44
258.958,358
258.983,706
259.008,846
259.033,672
259.058,314
259.083,22
259.108,-59
259.133,9
259.158,67
259.183,23
259.208,-75
259.233,-127
259.258,-93
259.283,-20
259.308,35
259.333,68
259.358,109
259.383,173
259.408,236
259.433,269
259.458,273
259.483,275
259.508,281
259.533,271
259.558,219
259.583,135
259.608,57
259.633,18
259.658,14
259.683,12
259.708,-15
259.733,-68
259.758,-119
259.783,-146
259.808,-155
259.833,-171
259.858,-210
259.883,-237
259.908,-183
259.933,6
259.958,321
259.983,667
260.008,932
260.033,1060
260.058,1085
260.083,1087
260.108,1120
260.133,1174
260.158,1205
260.183,1183
260.208,1120
260.233,1047
260.258,978
260.283,903
260.308,810
260.333,701
260.358,590
260.383,491
260.408,404
260.433,324
260.458,246
260.483,170
260.508,97
260.533,32
260.558,-4
260.583,8
260.608,75
260.633,167
260.658,231
260.683,230
260.708,168
260.733,78
260.758,-11
260.783,-103
260.808,-218
260.833,-352
260.858,-458
260.883,-485
260.908,-424
260.933,-324
260.958,-247
260.983,-216
261.008,-199
261.033,-165
261.058,-120
261.083,-112
261.108,-165
261.133,-243
261.158,-274
261.183,-216
261.208,-96
261.233,17
261.258,74
261.283,79
261.308,69
261.333,73
261.358,91
261.383,107
261.408,118
261.433,135
261.458,166
261.483,209
261.508,249
261.533,279
261.558,299
261.583,313
261.608,324
261.633,325
261.658,305
261.683,257
261.708,192
261.733,144
261.758,151
261.783,231
261.808,358
261.833,481
261.858,556
261.883,582
261.908,585
261.933,590
261.958,598
261.983,593
262.008,574
262.033,558
262.058,561
262.083,574
262.108,569
262.133,527
262.158,460
262.183,394
262.208,344
262.233,296
262.258,228
262.283,137
262.308,51
262.333,10
262.358,35
262.383,116
262.408,215
262.433,295
262.458,334
262.483,336
262.508,321
262.533,309
262.558,309
262.583,315
262.608,320
262.633,326
262.658,340
262.683,361
262.708,378
262.733,379
262.758,367
262.783,358
262.808,361
262.833,364
262.858,338
262.883,270
262.908,182
262.933,123
262.958,128
262.983,197
263.008,300
263.033,394
263.058,451
263.083,456
263.108,414
263.133,342
263.158,271
263.183,226
263.208,218
263.233,240
263.258,273
263.283,307
263.308,335
263.333,352
263.358,350
263.383,328
263.408,297
263.433,271
263.458,247
263.483,204
263.508,126
263.533,27
263.558,-49
263.583,-68
263.608,-35
263.633,11
263.658,27
263.683,-4
263.708,-69
263.733,-140
263.758,-199
263.783,-244
263.808,-276
263.833,-298
263.858,-314
263.883,-327
263.908,-338
263.933,-337
263.958,-310
263.983,-246
