df_hash,22ZHK4.QHHSTC
device,HZ2X61
project_hash,29R7
project_name,istanbul_aydin_university
person_hash,29R7.V73B
person_label,V54
date_time_start,2025-10-31_14-24-46.756000_+03
date_time_start_unix,1761906286.756
date_time_end,2025-10-31_14-33-03.437000_+03
length_difference_noticed,no

time,ppg_med
15.719,462
15.744,531
15.769,641
15.794,700
15.819,677
15.844,652
15.869,715
15.894,832
15.919,876
15.944,804
15.969,728
15.994,767
16.019,875
16.044,882
16.069,728
16.094,565
16.119,556
16.144,636
16.169,579
16.194,305
16.219,19
16.244,-62
16.269,-24
16.294,-168
16.319,-594
16.344,-1032
16.369,-1198
16.394,-1203
16.419,-1439
16.444,-2032
16.469,-2632
16.494,-2869
16.519,-2891
16.544,-3194
16.569,-3941
16.594,-4681
16.619,-4943
16.644,-4914
16.669,-5225
16.694,-6076
16.719,-6897
16.744,-7096
16.769,-6906
16.794,-7122
16.819,-7992
16.844,-8801
16.869,-8808
16.894,-8306
16.919,-8289
16.944,-9065
16.969,-9744
16.994,-9401
17.019,-8405
17.044,-7993
17.069,-8555
17.094,-8981
17.119,-8118
17.144,-6426
17.169,-5457
17.194,-5703
17.219,-5778
17.244,-4232
17.269,-1645
17.294,23
17.319,137
17.344,452
17.369,2813
17.394,6490
17.419,8960
17.444,9380
17.469,10012
17.494,13286
17.519,18266
17.544,21591
17.569,22085
17.594,22781
17.619,27055
17.644,32767
17.669,32767
17.694,32767
17.719,32767
17.744,32767
17.769,32767
17.794,32767
17.819,32767
17.844,32767
17.869,32767
17.894,32767
17.919,32767
17.944,32767
17.969,12073
17.994,-32768
18.019,-32768
18.044,-32768
18.069,-32768
18.094,-32768
18.119,-32768
18.144,-32768
18.169,-32768
18.194,-32768
18.219,-32768
18.244,-32768
18.269,-32768
18.294,-32768
18.319,-29217
18.344,-23550
18.369,-21637
18.394,-21590
18.419,-19540
18.444,-14874
18.469,-10633
18.494,-9141
18.519,-9069
18.544,-7564
18.569,-4135
18.594,-1046
18.619,-70
18.644,-212
18.669,720
18.694,3125
18.719,5254
18.744,5715
18.769,5280
18.794,5675
18.819,7225
18.844,8559
18.869,8588
18.894,7944
18.919,8004
18.944,9009
18.969,9831
18.994,9575
19.019,8745
19.044,8473
19.069,8983
19.094,9381
19.119,8932
19.144,8013
19.169,7520
19.194,7640
19.219,7686
19.244,7092
19.269,6164
19.294,5602
19.319,5540
19.344,5423
19.369,4811
19.394,3961
19.419,3432
19.444,3326
19.469,3195
19.494,2687
19.519,2002
19.544,1580
19.569,1497
19.594,1401
19.619,1014
19.644,490
19.669,169
19.694,112
19.719,51
19.744,-222
19.769,-586
19.794,-782
19.819,-771
19.844,-768
19.869,-936
19.894,-1171
19.919,-1253
19.944,-1132
19.969,-967
19.994,-906
20.019,-914
20.044,-855
20.069,-691
20.094,-516
20.119,-421
20.144,-383
20.169,-318
20.194,-210
20.219,-122
20.244,-98
20.269,-97
20.294,-51
20.319,43
20.344,120
20.369,136
20.394,122
20.419,140
20.444,202
20.469,258
20.494,263
20.519,240
20.544,223
20.569,195
20.594,168
20.619,141
20.644,109
20.669,72
20.694,37
20.719,6
20.744,-24
20.769,-64
20.794,-114
20.819,-156
20.844,-159
20.869,-108
20.894,-18
20.919,77
20.944,152
20.969,205
20.994,254
21.019,311
21.044,368
21.069,404
21.094,409
21.119,392
21.144,375
21.169,371
21.194,376
21.219,375
21.244,360
21.269,335
21.294,310
21.319,289
21.344,267
21.369,237
21.394,199
21.419,162
21.444,130
21.469,102
21.494,72
21.519,38
21.544,3
21.569,-28
21.594,-60
21.619,-102
21.644,-152
21.669,-192
21.694,-194
21.719,-141
21.744,-48
21.769,51
21.794,131
21.819,189
21.844,244
21.869,309
21.894,376
21.919,425
21.944,444
21.969,440
21.994,433
22.019,437
22.044,448
22.069,456
22.094,454
22.119,443
22.144,427
22.169,407
22.194,383
22.219,355
22.244,326
22.269,299
22.294,273
22.319,244
22.344,214
22.369,182
22.394,150
22.419,118
22.444,84
22.469,50
22.494,15
22.519,-21
22.544,-61
22.569,-102
22.594,-138
22.619,-169
22.644,-204
22.669,-250
22.694,-300
22.719,-325
22.744,-298
22.769,-213
22.794,-95
22.819,14
22.844,96
22.869,162
22.894,236
22.919,325
22.944,409
22.969,462
22.994,478
23.019,475
23.044,478
23.069,495
23.094,514
23.119,522
23.144,517
23.169,507
23.194,497
23.219,482
23.244,458
23.269,426
23.294,395
23.319,369
23.344,344
23.369,315
23.394,281
23.419,247
23.444,216
23.469,184
23.494,151
23.519,115
23.544,80
23.569,45
23.594,6
23.619,-38
23.644,-83
23.669,-121
23.694,-156
23.719,-200
23.744,-258
23.769,-312
23.794,-326
23.819,-279
23.844,-178
23.869,-61
23.894,38
23.919,114
23.944,182
23.969,257
23.994,334
24.019,393
24.044,420
24.069,420
24.094,415
24.119,419
24.144,432
24.169,441
24.194,434
24.219,414
24.244,387
24.269,362
24.294,336
24.319,304
24.344,266
24.369,225
24.394,188
24.419,155
24.444,120
24.469,79
24.494,35
24.519,-3
24.544,-37
24.569,-74
24.594,-125
24.619,-184
24.644,-224
24.669,-213
24.694,-141
24.719,-30
24.744,80
24.769,166
24.794,232
24.819,295
24.844,364
24.869,429
24.894,469
24.919,477
24.944,466
24.969,457
24.994,460
25.019,467
25.044,465
25.069,449
25.094,424
25.119,401
25.144,378
25.169,353
25.194,319
25.219,281
25.244,244
25.269,210
25.294,176
25.319,140
25.344,102
25.369,67
25.394,33
25.419,-5
25.444,-49
25.469,-93
25.494,-129
25.519,-159
25.544,-196
25.569,-251
25.594,-306
25.619,-327
25.644,-281
25.669,-173
25.694,-41
25.719,74
25.744,158
25.769,228
25.794,306
25.819,390
25.844,458
25.869,492
25.894,495
25.919,489
25.944,490
25.969,497
25.994,497
26.019,485
26.044,464
26.069,444
26.094,427
26.119,410
26.144,387
26.169,359
26.194,331
26.219,305
26.244,282
26.269,258
26.294,230
26.319,198
26.344,163
26.369,126
26.394,89
26.419,52
26.444,11
26.469,-30
26.494,-69
26.519,-104
26.544,-141
26.569,-191
26.594,-248
26.619,-288
26.644,-280
26.669,-209
26.694,-98
26.719,13
26.744,95
26.769,151
26.794,207
26.819,274
26.844,339
26.869,376
26.894,377
26.919,360
26.944,351
26.969,361
26.994,376
27.019,378
27.044,361
27.069,337
27.094,315
27.119,297
27.144,274
27.169,243
27.194,207
27.219,173
27.244,139
27.269,103
27.294,67
27.319,35
27.344,6
27.369,-30
27.394,-84
27.419,-141
27.444,-169
27.469,-138
27.494,-49
27.519,61
27.544,155
27.569,219
27.594,269
27.619,325
27.644,390
27.669,440
27.694,459
27.719,449
27.744,434
27.769,430
27.794,437
27.819,442
27.844,437
27.869,423
27.894,407
27.919,390
27.944,371
27.969,348
27.994,322
28.019,294
28.044,264
28.069,234
28.094,205
28.119,180
28.144,156
28.169,127
28.194,92
28.219,56
28.244,23
28.269,-8
28.294,-45
28.319,-86
28.344,-124
28.369,-150
28.394,-174
28.419,-211
28.444,-265
28.469,-309
28.494,-303
28.519,-228
28.544,-104
28.569,19
28.594,111
28.619,174
28.644,236
28.669,312
28.694,389
28.719,441
28.744,460
28.769,459
28.794,459
28.819,469
28.844,482
28.869,487
28.894,482
28.919,473
28.944,464
28.969,453
28.994,436
29.019,412
29.044,384
29.069,355
29.094,326
29.119,298
29.144,270
29.169,240
29.194,206
29.219,168
29.244,129
29.269,92
29.294,56
29.319,16
29.344,-27
29.369,-68
29.394,-103
29.419,-137
29.444,-183
29.469,-242
29.494,-292
29.519,-296
29.544,-235
29.569,-125
29.594,-9
29.619,80
29.644,144
29.669,204
29.694,276
29.719,348
29.744,394
29.769,403
29.794,391
29.819,384
29.844,392
29.869,402
29.894,399
29.919,379
29.944,354
29.969,334
29.994,315
30.019,286
30.044,243
30.069,195
30.094,150
30.119,111
30.144,75
30.169,38
30.194,3
30.219,-33
30.244,-79
30.269,-140
30.294,-197
30.319,-217
30.344,-175
30.369,-76
30.394,40
30.419,139
30.444,211
30.469,273
30.494,344
30.519,420
30.544,478
30.569,501
30.594,496
30.619,482
30.644,478
30.669,484
30.694,488
30.719,483
30.744,467
30.769,446
30.794,423
30.819,397
30.844,368
30.869,337
30.894,305
30.919,274
30.944,242
30.969,210
30.994,176
31.019,139
31.044,98
31.069,57
31.094,18
31.119,-19
31.144,-59
31.169,-101
31.194,-141
31.219,-176
31.244,-212
31.269,-259
31.294,-319
31.319,-369
31.344,-372
31.369,-305
31.394,-180
31.419,-42
31.444,71
31.469,154
31.494,228
31.519,310
31.544,395
31.569,459
31.594,488
31.619,488
31.644,483
31.669,487
31.694,498
31.719,504
31.744,500
31.769,487
31.794,470
31.819,450
31.844,428
31.869,402
31.894,375
31.919,345
31.944,313
31.969,278
31.994,244
32.019,214
32.044,183
32.069,149
32.094,111
32.119,74
32.144,41
32.169,9
32.194,-26
32.219,-63
32.244,-97
32.269,-126
32.294,-161
32.319,-211
32.344,-268
32.369,-301
32.394,-276
32.419,-186
32.444,-61
32.469,56
32.494,146
32.519,215
32.544,285
32.569,359
32.594,424
32.619,458
32.644,462
32.669,452
32.694,448
32.719,454
32.744,461
32.769,457
32.794,440
32.819,417
32.844,396
32.869,377
32.894,356
32.919,331
32.944,302
32.969,272
32.994,243
33.019,215
33.044,185
33.069,152
33.094,118
33.119,86
33.144,55
33.169,21
33.194,-15
33.219,-52
33.244,-83
33.269,-114
33.294,-153
33.319,-208
33.344,-260
33.369,-277
33.394,-232
33.419,-132
33.444,-12
33.469,87
33.494,158
33.519,217
33.544,283
33.569,359
33.594,422
33.619,454
33.644,460
33.669,456
33.694,457
33.719,465
33.744,469
33.769,467
33.794,461
33.819,454
33.844,444
33.869,428
33.894,404
33.919,373
33.944,340
33.969,309
33.994,279
34.019,252
34.044,227
34.069,200
34.094,169
34.119,135
34.144,101
34.169,69
34.194,36
34.219,-1
34.244,-43
34.269,-80
34.294,-111
34.319,-145
34.344,-192
34.369,-250
34.394,-291
34.419,-284
34.444,-214
34.469,-101
34.494,13
34.519,104
34.544,170
34.569,231
34.594,299
34.619,367
34.644,416
34.669,435
34.694,432
34.719,425
34.744,426
34.769,432
34.794,432
34.819,421
34.844,402
34.869,383
34.894,367
34.919,345
34.944,313
34.969,272
34.994,231
35.019,196
35.044,164
35.069,129
35.094,87
35.119,45
35.144,6
35.169,-34
35.194,-88
35.219,-150
35.244,-197
35.269,-195
35.294,-134
35.319,-35
35.344,61
35.369,132
35.394,185
35.419,239
35.444,301
35.469,355
35.494,381
35.519,375
35.544,357
35.569,345
35.594,345
35.619,346
35.644,334
35.669,307
35.694,274
35.719,243
35.744,214
35.769,181
35.794,141
35.819,96
35.844,51
35.869,10
35.894,-26
35.919,-68
35.944,-119
35.969,-173
35.994,-206
36.019,-193
36.044,-123
36.069,-18
36.094,89
36.119,178
36.144,251
36.169,324
36.194,403
36.219,471
36.244,508
36.269,509
36.294,495
36.319,487
36.344,494
36.369,503
36.394,502
36.419,489
36.444,470
36.469,451
36.494,428
36.519,400
36.544,370
36.569,341
36.594,316
36.619,288
36.644,254
36.669,217
36.694,182
36.719,150
36.744,117
36.769,79
36.794,38
36.819,0
36.844,-36
36.869,-76
36.894,-120
36.919,-164
36.944,-201
36.969,-236
36.994,-280
37.019,-335
37.044,-377
37.069,-368
37.094,-289
37.119,-159
37.144,-24
37.169,80
37.194,156
37.219,229
37.244,315
37.269,400
37.294,456
37.319,472
37.344,465
37.369,462
37.394,474
37.419,490
37.444,493
37.469,480
37.494,463
37.519,448
37.544,432
37.569,407
37.594,373
37.619,337
37.644,304
37.669,273
37.694,239
37.719,201
37.744,162
37.769,125
37.794,86
37.819,42
37.844,0
37.869,-33
37.894,-62
37.919,-100
37.944,-154
37.969,-210
37.994,-231
38.019,-193
38.044,-98
38.069,15
38.094,112
38.119,182
38.144,236
38.169,293
38.194,350
38.219,391
38.244,405
38.269,394
38.294,379
38.319,374
38.344,379
38.369,382
38.394,373
38.419,351
38.444,325
38.469,302
38.494,281
38.519,256
38.544,220
38.569,178
38.594,139
38.619,108
38.644,83
38.669,53
38.694,15
38.719,-23
38.744,-59
38.769,-93
38.794,-136
38.819,-188
38.844,-228
38.869,-224
38.894,-160
38.919,-53
38.944,57
38.969,144
38.994,206
39.019,265
39.044,334
39.069,404
39.094,452
39.119,468
39.144,462
39.169,454
39.194,456
39.219,465
39.244,470
39.269,465
39.294,454
39.319,440
39.344,424
39.369,401
39.394,372
39.419,344
39.444,323
39.469,306
39.494,286
39.519,259
39.544,227
39.569,194
39.594,164
39.619,135
39.644,104
39.669,71
39.694,40
39.719,11
39.744,-18
39.769,-54
39.794,-94
39.819,-131
39.844,-162
39.869,-195
39.894,-239
39.919,-290
39.944,-320
39.969,-298
39.994,-215
40.019,-93
40.044,26
40.069,117
40.094,181
40.119,241
40.144,311
40.169,381
40.194,431
40.219,451
40.244,449
40.269,446
40.294,452
40.319,466
40.344,475
40.369,472
40.394,459
40.419,443
40.444,428
40.469,409
40.494,384
40.519,352
40.544,319
40.569,288
40.594,261
40.619,234
40.644,202
40.669,164
40.694,127
40.719,93
40.744,60
40.769,25
40.794,-14
40.819,-53
40.844,-90
40.869,-132
40.894,-184
40.919,-238
40.944,-264
40.969,-235
40.994,-145
41.019,-25
41.044,82
41.069,156
41.094,208
41.119,263
41.144,330
41.169,392
41.194,426
41.219,431
41.244,422
41.269,421
41.294,430
41.319,439
41.344,437
41.369,426
41.394,413
41.419,398
41.444,376
41.469,343
41.494,304
41.519,268
41.544,239
41.569,211
41.594,177
41.619,138
41.644,97
41.669,58
41.694,15
41.719,-31
41.744,-77
41.769,-115
41.794,-150
41.819,-194
41.844,-252
41.869,-305
41.894,-317
41.919,-262
41.944,-151
41.969,-23
41.994,83
42.019,162
42.044,231
42.069,310
42.094,392
42.119,455
42.144,485
42.169,488
42.194,487
42.219,496
42.244,512
42.269,524
42.294,523
42.319,513
42.344,497
42.369,479
42.394,457
42.419,432
42.444,406
42.469,379
42.494,348
42.519,312
42.544,273
42.569,236
42.594,201
42.619,164
42.644,125
42.669,84
42.694,46
42.719,7
42.744,-37
42.769,-87
42.794,-132
42.819,-168
42.844,-203
42.869,-253
42.894,-318
42.919,-365
42.944,-354
42.969,-268
42.994,-133
43.019,-1
43.044,98
43.069,170
43.094,241
43.119,320
43.144,392
43.169,435
43.194,446
43.219,445
43.244,451
43.269,465
43.294,476
43.319,475
43.344,463
43.369,446
43.394,428
43.419,405
43.444,375
43.469,339
43.494,300
43.519,261
43.544,222
43.569,184
43.594,147
43.619,109
43.644,66
43.669,21
43.694,-20
43.719,-56
43.744,-95
43.769,-148
43.794,-212
43.819,-257
43.844,-249
43.869,-172
43.894,-52
43.919,66
43.944,153
43.969,211
43.994,267
44.019,333
44.044,398
44.069,437
44.094,441
44.119,423
44.144,408
44.169,409
44.194,417
44.219,416
44.244,400
44.269,373
44.294,345
44.319,319
44.344,288
44.369,249
44.394,206
44.419,165
44.444,131
44.469,97
44.494,59
44.519,17
44.544,-22
44.569,-58
44.594,-98
44.619,-151
44.644,-207
44.669,-238
44.694,-214
44.719,-130
44.744,-15
44.769,92
44.794,172
44.819,233
44.844,295
44.869,365
44.894,426
44.919,456
44.944,452
44.969,432
44.994,422
45.019,429
45.044,441
45.069,443
45.094,427
45.119,402
45.144,379
45.169,359
45.194,338
45.219,310
45.244,277
45.269,244
45.294,214
45.319,185
45.344,152
45.369,115
45.394,80
45.419,49
45.444,18
45.469,-17
45.494,-59
45.519,-100
45.544,-132
45.569,-160
45.594,-197
45.619,-247
45.644,-293
45.669,-301
45.694,-244
45.719,-130
45.744,4
45.769,119
45.794,201
45.819,266
45.844,332
45.869,399
45.894,450
45.919,471
45.944,469
45.969,465
45.994,472
46.019,484
46.044,489
46.069,482
46.094,469
46.119,458
46.144,447
46.169,430
46.194,404
46.219,374
46.244,347
46.269,323
46.294,298
46.319,269
46.344,237
46.369,207
46.394,176
46.419,141
46.444,99
46.469,58
46.494,24
46.519,-2
46.544,-32
46.569,-71
46.594,-115
46.619,-152
46.644,-181
46.669,-213
46.694,-260
46.719,-314
46.744,-342
46.769,-313
46.794,-219
46.819,-92
46.844,24
46.869,111
46.894,177
46.919,245
46.944,325
46.969,401
46.994,450
47.019,466
47.044,465
47.069,468
47.094,483
47.119,502
47.144,511
47.169,509
47.194,501
47.219,493
47.244,480
47.269,457
47.294,427
47.319,394
47.344,365
47.369,340
47.394,315
47.419,286
47.444,256
47.469,228
47.494,199
47.519,164
47.544,125
47.569,86
47.594,52
47.619,20
47.644,-17
47.669,-59
47.694,-100
47.719,-134
47.744,-170
47.769,-219
47.794,-278
47.819,-318
47.844,-303
47.869,-221
47.894,-99
47.919,18
47.944,105
47.969,171
47.994,239
48.019,318
48.044,390
48.069,433
48.094,443
48.119,441
48.144,447
48.169,462
48.194,475
48.219,476
48.244,465
48.269,449
48.294,432
48.319,411
48.344,383
48.369,352
48.394,321
48.419,288
48.444,250
48.469,210
48.494,172
48.519,139
48.544,104
48.569,60
48.594,12
48.619,-30
48.644,-67
48.669,-109
48.694,-168
48.719,-230
48.744,-256
48.769,-215
48.794,-112
48.819,9
48.844,106
48.869,169
48.894,216
48.919,270
48.944,327
48.969,366
48.994,373
49.019,359
49.044,344
49.069,339
49.094,340
49.119,337
49.144,323
49.169,302
49.194,279
49.219,258
49.244,241
49.269,226
49.294,211
49.319,190
49.344,162
49.369,134
49.394,114
49.419,107
49.444,106
49.469,106
49.494,107
49.519,111
49.544,115
49.569,111
49.594,94
49.619,68
49.644,43
49.669,15
49.694,-29
49.719,-97
49.744,-168
49.769,-195
49.794,-149
49.819,-41
49.844,82
49.869,175
49.894,229
49.919,269
49.944,322
49.969,385
49.994,437
50.019,456
50.044,448
50.069,434
50.094,430
50.119,437
50.144,442
50.169,434
50.194,416
50.219,399
50.244,385
50.269,369
50.294,342
50.319,305
50.344,268
50.369,240
50.394,222
50.419,202
50.444,173
50.469,138
50.494,108
50.519,90
50.544,79
50.569,66
50.594,48
50.619,32
50.644,18
50.669,-8
50.694,-60
50.719,-126
50.744,-162
50.769,-128
50.794,-19
50.819,117
50.844,227
50.869,290
50.894,330
50.919,381
50.944,450
50.969,509
50.994,526
51.019,500
51.044,453
51.069,413
51.094,383
51.119,355
51.144,316
51.169,267
51.194,211
51.219,155
51.244,104
51.269,61
51.294,25
51.319,-17
51.344,-76
51.369,-144
51.394,-197
51.419,-207
51.444,-171
51.469,-108
51.494,-40
51.519,22
51.544,89
51.569,163
51.594,233
51.619,278
51.644,292
51.669,286
51.694,278
51.719,274
51.744,272
51.769,266
51.794,252
51.819,229
51.844,197
51.869,156
51.894,111
51.919,69
51.944,27
51.969,-26
51.994,-93
52.019,-152
52.044,-165
52.069,-111
52.094,-8
52.119,102
52.144,187
52.169,250
52.194,313
52.219,389
52.244,461
52.269,502
52.294,503
52.319,480
52.344,454
52.369,433
52.394,407
52.419,372
52.444,332
52.469,293
52.494,255
52.519,215
52.544,173
52.569,133
52.594,96
52.619,51
52.644,-12
52.669,-83
52.694,-131
52.719,-132
52.744,-91
52.769,-41
52.794,-4
52.819,24
52.844,71
52.869,139
52.894,199
52.919,217
52.944,190
52.969,155
52.994,153
53.019,187
53.044,229
53.069,250
53.094,256
53.119,274
53.144,321
53.169,381
53.194,421
53.219,426
53.244,399
53.269,353
53.294,290
53.319,213
53.344,138
53.369,94
53.394,103
53.419,151
53.444,202
53.469,230
53.494,239
53.519,255
53.544,291
53.569,332
53.594,347
53.619,325
53.644,284
53.669,255
53.694,249
53.719,253
53.744,250
53.769,231
53.794,203
53.819,174
53.844,140
53.869,97
53.894,48
53.919,6
53.944,-22
53.969,-47
53.994,-80
54.019,-119
54.044,-140
54.069,-115
54.094,-41
54.119,53
54.144,138
54.169,199
54.194,247
54.219,291
54.244,328
54.269,341
54.294,320
54.319,277
54.344,235
54.369,206
54.394,189
54.419,173
54.444,152
54.469,126
54.494,93
54.519,49
54.544,-3
54.569,-55
54.594,-100
54.619,-146
54.644,-203
54.669,-263
54.694,-291
54.719,-247
54.744,-121
54.769,50
54.794,216
54.819,346
54.844,446
54.869,535
54.894,615
54.919,671
54.944,688
54.969,674
54.994,650
55.019,629
55.044,608
55.069,577
55.094,536
55.119,492
55.144,454
55.169,419
55.194,381
55.219,342
55.244,304
55.269,268
55.294,226
55.319,177
55.344,125
55.369,79
55.394,42
55.419,8
55.444,-26
55.469,-61
55.494,-93
55.519,-121
55.544,-154
55.569,-190
55.594,-224
55.619,-248
55.644,-269
55.669,-304
55.694,-351
55.719,-383
55.744,-358
55.769,-259
55.794,-112
55.819,34
55.844,147
55.869,229
55.894,303
55.919,383
55.944,456
55.969,502
55.994,513
56.019,505
56.044,501
56.069,510
56.094,525
56.119,532
56.144,526
56.169,509
56.194,487
56.219,465
56.244,440
56.269,411
56.294,378
56.319,345
56.344,313
56.369,280
56.394,245
56.419,208
56.444,172
56.469,136
56.494,97
56.519,52
56.544,5
56.569,-36
56.594,-70
56.619,-105
56.644,-155
56.669,-219
56.694,-269
56.719,-268
56.744,-201
56.769,-87
56.794,30
56.819,122
56.844,188
56.869,243
56.894,297
56.919,339
56.944,356
56.969,354
56.994,348
57.019,353
57.044,367
57.069,376
57.094,370
57.119,353
57.144,330
57.169,305
57.194,277
57.219,246
57.244,210
57.269,171
57.294,129
57.319,88
57.344,52
57.369,19
57.394,-22
57.419,-82
57.444,-149
57.469,-186
57.494,-162
57.519,-74
57.544,42
57.569,147
57.594,221
57.619,278
57.644,335
57.669,390
57.694,424
57.719,428
57.744,411
57.769,395
57.794,392
57.819,394
57.844,386
57.869,366
57.894,337
57.919,308
57.944,278
57.969,245
57.994,206
58.019,162
58.044,114
58.069,65
58.094,19
58.119,-20
58.144,-62
58.169,-117
58.194,-186
58.219,-242
58.244,-247
58.269,-177
58.294,-52
58.319,80
58.344,182
58.369,252
58.394,311
58.419,375
58.444,431
58.469,457
58.494,451
58.519,434
58.544,428
58.569,438
58.594,445
58.619,437
58.644,415
58.669,389
58.694,362
58.719,329
58.744,285
58.769,239
58.794,198
58.819,163
58.844,123
58.869,75
58.894,26
58.919,-13
58.944,-47
58.969,-96
58.994,-166
59.019,-238
59.044,-266
59.069,-220
59.094,-107
59.119,28
59.144,143
59.169,224
59.194,283
59.219,336
59.244,379
59.269,399
59.294,392
59.319,373
59.344,362
59.369,368
59.394,377
59.419,370
59.444,344
59.469,310
59.494,280
59.519,252
59.544,215
59.569,163
59.594,105
59.619,53
59.644,6
59.669,-49
59.694,-122
59.719,-195
59.744,-231
59.769,-199
59.794,-102
59.819,21
59.844,136
59.869,223
59.894,291
59.919,349
59.944,395
59.969,420
59.994,421
60.019,407
60.044,392
60.069,385
60.094,382
60.119,375
60.144,357
60.169,326
60.194,288
60.219,247
60.244,206
60.269,165
60.294,120
60.319,70
60.344,21
60.369,-20
60.394,-61
60.419,-111
60.444,-175
60.469,-231
60.494,-238
60.519,-173
60.544,-49
60.569,87
60.594,194
60.619,265
60.644,321
60.669,375
60.694,419
60.719,436
60.744,424
60.769,402
60.794,392
60.819,395
60.844,394
60.869,378
60.894,350
60.919,319
60.944,287
60.969,251
60.994,211
61.019,169
61.044,129
61.069,88
61.094,42
61.119,-3
61.144,-42
61.169,-78
61.194,-127
61.219,-192
61.244,-246
61.269,-244
61.294,-161
61.319,-21
61.344,118
61.369,219
61.394,286
61.419,345
61.444,409
61.469,460
61.494,477
61.519,463
61.544,446
61.569,447
61.594,460
61.619,466
61.644,454
61.669,430
61.694,404
61.719,380
61.744,349
61.769,312
61.794,274
61.819,238
61.844,204
61.869,165
61.894,124
61.919,85
61.944,49
61.969,9
61.994,-34
62.019,-78
62.044,-115
62.069,-152
62.094,-204
62.119,-268
62.144,-313
62.169,-294
62.194,-195
62.219,-45
62.244,98
62.269,202
62.294,269
62.319,323
62.344,376
62.369,417
62.394,429
62.419,416
62.444,399
62.469,395
62.494,402
62.519,403
62.544,388
62.569,361
62.594,330
62.619,300
62.644,269
62.669,230
62.694,184
62.719,134
62.744,90
62.769,52
62.794,16
62.819,-28
62.844,-89
62.869,-151
62.894,-182
62.919,-151
62.944,-55
62.969,70
62.994,183
63.019,259
63.044,306
63.069,345
63.094,381
63.119,398
63.144,386
63.169,358
63.194,338
63.219,339
63.244,345
63.269,334
63.294,299
63.319,257
63.344,224
63.369,194
63.394,154
63.419,100
63.444,47
63.469,5
63.494,-32
63.519,-87
63.544,-160
63.569,-215
63.594,-208
63.619,-125
63.644,0
63.669,120
63.694,206
63.719,269
63.744,326
63.769,380
63.794,412
63.819,410
63.844,385
63.869,360
63.894,350
63.919,348
63.944,341
63.969,322
63.994,294
64.019,264
64.044,231
64.069,193
64.094,152
64.119,109
64.144,65
64.169,18
64.194,-28
64.219,-68
64.244,-101
64.269,-141
64.294,-198
64.319,-258
64.344,-281
64.369,-229
64.394,-105
64.419,48
64.444,178
64.469,267
64.494,336
64.519,409
64.544,483
64.569,532
64.594,542
64.619,528
64.644,522
64.669,539
64.694,563
64.719,571
64.744,557
64.769,535
64.794,519
64.819,505
64.844,482
64.869,445
64.894,404
64.919,373
64.944,351
64.969,326
64.994,293
65.019,252
65.044,209
65.069,162
65.094,109
65.119,53
65.144,0
65.169,-47
65.194,-98
65.219,-161
65.244,-228
65.269,-283
65.294,-318
65.319,-345
65.344,-389
65.369,-445
65.394,-479
65.419,-443
65.444,-327
65.469,-169
65.494,-24
65.519,77
65.544,148
65.569,217
65.594,294
65.619,364
65.644,405
65.669,420
65.694,430
65.719,456
65.744,495
65.769,530
65.794,546
65.819,543
65.844,533
65.869,523
65.894,510
65.919,489
65.944,458
65.969,423
65.994,389
66.019,356
66.044,320
66.069,282
66.094,243
66.119,207
66.144,172
66.169,133
66.194,88
66.219,40
66.244,-4
66.269,-45
66.294,-91
66.319,-151
66.344,-223
66.369,-279
66.394,-285
66.419,-226
66.444,-119
66.469,-6
66.494,78
66.519,132
66.544,174
66.569,219
66.594,258
66.619,271
66.644,253
66.669,227
66.694,221
66.719,241
66.744,262
66.769,258
66.794,225
66.819,189
66.844,178
66.869,192
66.894,210
66.919,213
66.944,199
66.969,183
66.994,171
67.019,162
67.044,150
67.069,132
67.094,107
67.119,71
67.144,20
67.169,-36
67.194,-69
67.219,-44
67.244,41
67.269,162
67.294,276
67.319,360
67.344,420
67.369,475
67.394,529
67.419,567
67.444,574
67.469,553
67.494,524
67.519,505
67.544,499
67.569,492
67.594,472
67.619,440
67.644,405
67.669,374
67.694,344
67.719,305
67.744,254
67.769,197
67.794,144
67.819,97
67.844,51
67.869,1
67.894,-52
67.919,-103
67.944,-151
67.969,-205
67.994,-275
68.019,-351
68.044,-399
68.069,-384
68.094,-300
68.119,-177
68.144,-57
68.169,34
68.194,106
68.219,177
68.244,247
68.269,302
68.294,324
68.319,319
68.344,309
68.369,310
68.394,323
68.419,333
68.444,332
68.469,321
68.494,305
68.519,286
68.544,264
68.569,239
68.594,214
68.619,186
68.644,155
68.669,122
68.694,91
68.719,66
68.744,35
68.769,-11
68.794,-73
68.819,-117
68.844,-104
68.869,-22
68.894,99
68.919,214
68.944,290
68.969,339
68.994,385
69.019,437
69.044,476
69.069,482
69.094,458
69.119,430
69.144,422
69.169,431
69.194,436
69.219,420
69.244,391
69.269,363
69.294,342
69.319,319
69.344,285
69.369,244
69.394,206
69.419,175
69.444,146
69.469,108
69.494,62
69.519,20
69.544,-14
69.569,-47
69.594,-85
69.619,-129
69.644,-168
69.669,-201
69.694,-238
69.719,-290
69.744,-347
69.769,-372
69.794,-326
69.819,-208
69.844,-54
69.869,83
69.894,183
69.919,259
69.944,334
69.969,413
69.994,477
70.019,506
70.044,504
70.069,494
70.094,497
70.119,514
70.144,527
70.169,526
70.194,510
70.219,491
70.244,474
70.269,456
70.294,434
70.319,409
70.344,384
70.369,357
70.394,324
70.419,283
70.444,240
70.469,201
70.494,169
70.519,138
70.544,101
70.569,61
70.594,24
70.619,-9
70.644,-44
70.669,-84
70.694,-126
70.719,-160
70.744,-184
70.769,-210
70.794,-251
70.819,-300
70.844,-325
70.869,-289
70.894,-183
70.919,-39
70.944,93
70.969,188
70.994,253
71.019,316
71.044,387
71.069,450
71.094,482
71.119,479
71.144,458
71.169,440
71.194,435
71.219,436
71.244,437
71.269,437
71.294,436
71.319,423
71.344,391
71.369,342
71.394,295
71.419,270
71.444,263
71.469,255
71.494,230
71.519,190
71.544,151
71.569,121
71.594,91
71.619,51
71.644,3
71.669,-39
71.694,-72
71.719,-109
71.744,-163
71.769,-226
71.794,-258
71.819,-223
71.844,-119
71.869,13
71.894,127
71.919,202
71.944,249
71.969,291
71.994,333
72.019,364
72.044,371
72.069,357
72.094,338
72.119,328
72.144,328
72.169,327
72.194,316
72.219,294
72.244,263
72.269,232
72.294,201
72.319,167
72.344,128
72.369,85
72.394,45
72.419,11
72.444,-22
72.469,-68
72.494,-126
72.519,-174
72.544,-178
72.569,-119
72.594,-10
72.619,110
72.644,210
72.669,281
72.694,340
72.719,399
72.744,454
72.769,487
72.794,490
72.819,476
72.844,464
72.869,465
72.894,473
72.919,473
72.944,456
72.969,427
72.994,395
73.019,364
73.044,333
73.069,297
73.094,257
73.119,219
73.144,184
73.169,153
73.194,121
73.219,86
73.244,51
73.269,17
73.294,-17
73.319,-58
73.344,-104
73.369,-146
73.394,-175
73.419,-195
73.444,-221
73.469,-264
73.494,-315
73.519,-337
73.544,-293
73.569,-177
73.594,-21
73.619,124
73.644,229
73.669,301
73.694,363
73.719,430
73.744,489
73.769,520
73.794,518
73.819,501
73.844,491
73.869,497
73.894,509
73.919,509
73.944,494
73.969,471
73.994,450
74.019,431
74.044,405
74.069,368
74.094,326
74.119,289
74.144,260
74.169,234
74.194,201
74.219,158
74.244,113
74.269,73
74.294,38
74.319,-1
74.344,-51
74.369,-102
74.394,-147
74.419,-189
74.444,-242
74.469,-312
74.494,-373
74.519,-380
74.544,-302
74.569,-155
74.594,7
74.619,136
74.644,218
74.669,278
74.694,342
74.719,406
74.744,448
74.769,456
74.794,444
74.819,438
74.844,448
74.869,465
74.894,470
74.919,459
74.944,440
74.969,422
74.994,404
75.019,378
75.044,344
75.069,307
75.094,270
75.119,234
75.144,197
75.169,158
75.194,117
75.219,72
75.244,23
75.269,-27
75.294,-69
75.319,-104
75.344,-143
75.369,-200
75.394,-269
75.419,-314
75.444,-295
75.469,-198
75.494,-53
75.519,90
75.544,198
75.569,270
75.594,329
75.619,387
75.644,437
75.669,460
75.694,455
75.719,437
75.744,426
75.769,430
75.794,440
75.819,441
75.844,423
75.869,392
75.894,358
75.919,329
75.944,300
75.969,266
75.994,222
76.019,175
76.044,132
76.069,94
76.094,55
76.119,8
76.144,-41
76.169,-83
76.194,-118
76.219,-158
76.244,-216
76.269,-280
76.294,-310
76.319,-268
76.344,-152
76.369,-1
76.394,133
76.419,229
76.444,299
76.469,365
76.494,430
76.519,477
76.544,493
76.569,484
76.594,472
76.619,471
76.644,475
76.669,475
76.694,465
76.719,449
76.744,429
76.769,403
76.794,368
76.819,330
76.844,292
76.869,255
76.894,216
76.919,176
76.944,136
76.969,99
76.994,60
77.019,13
77.044,-37
77.069,-80
77.094,-115
77.119,-158
77.144,-220
77.169,-289
77.194,-321
77.219,-276
77.244,-158
77.269,-14
77.294,104
77.319,180
77.344,234
77.369,291
77.394,350
77.419,388
77.444,390
77.469,369
77.494,349
77.519,346
77.544,352
77.569,351
77.594,333
77.619,303
77.644,270
77.669,238
77.694,206
77.719,169
77.744,128
77.769,88
77.794,54
77.819,25
77.844,-8
77.869,-57
77.894,-119
77.919,-171
77.944,-177
77.969,-116
77.994,-5
78.019,117
78.044,217
78.069,289
78.094,350
78.119,414
78.144,470
78.169,500
78.194,497
78.219,479
78.244,468
78.269,472
78.294,477
78.319,470
78.344,448
78.369,423
78.394,400
78.419,378
78.444,353
78.469,323
78.494,292
78.519,261
78.544,230
78.569,197
78.594,163
78.619,129
78.644,90
78.669,44
78.694,-2
78.719,-44
78.744,-78
78.769,-111
78.794,-149
78.819,-190
78.844,-224
78.869,-253
78.894,-289
78.919,-340
78.944,-387
78.969,-390
78.994,-315
79.019,-173
79.044,-13
79.069,114
79.094,201
79.119,271
79.144,353
79.169,442
79.194,509
79.219,535
79.244,528
79.269,516
79.294,519
79.319,532
79.344,540
79.369,534
79.394,519
79.419,504
79.444,489
79.469,468
79.494,439
79.519,405
79.544,370
79.569,336
79.594,304
79.619,274
79.644,246
79.669,216
79.694,179
79.719,137
79.744,94
79.769,58
79.794,26
79.819,-9
79.844,-52
79.869,-99
79.894,-139
79.919,-175
79.944,-219
79.969,-278
79.994,-330
80.019,-338
80.044,-272
80.069,-145
80.094,-3
80.119,112
80.144,189
80.169,249
80.194,314
80.219,378
80.244,421
80.269,427
80.294,410
80.319,397
80.344,402
80.369,413
80.394,415
80.419,399
80.444,377
80.469,356
80.494,335
80.519,305
80.544,265
80.569,222
80.594,183
80.619,147
80.644,108
80.669,66
80.694,28
80.719,-5
80.744,-45
80.769,-102
80.794,-165
80.819,-202
80.844,-178
80.869,-90
80.894,30
80.919,140
80.944,219
80.969,275
80.994,329
81.019,386
81.044,429
81.069,444
81.094,432
81.119,412
81.144,402
81.169,405
81.194,406
81.219,394
81.244,367
81.269,333
81.294,302
81.319,274
81.344,242
81.369,202
81.394,158
81.419,119
81.444,89
81.469,59
81.494,20
81.519,-29
81.544,-76
81.569,-112
81.594,-140
81.619,-180
81.644,-239
81.669,-297
81.694,-310
81.719,-250
81.744,-129
81.769,7
81.794,118
81.819,197
81.844,269
81.869,351
81.894,437
81.919,496
81.944,514
81.969,503
81.994,490
82.019,492
82.044,503
82.069,505
82.094,492
82.119,471
82.144,451
82.169,435
82.194,417
82.219,392
82.244,361
82.269,327
82.294,295
82.319,265
82.344,239
82.369,213
82.394,182
82.419,147
82.444,110
82.469,76
82.494,45
82.519,11
82.544,-28
82.569,-70
82.594,-109
82.619,-143
82.644,-185
82.669,-242
82.694,-299
82.719,-319
82.744,-269
82.769,-155
82.794,-19
82.819,92
82.844,165
82.869,222
82.894,287
82.919,357
82.944,407
82.969,417
82.994,398
83.019,378
83.044,374
83.069,382
83.094,382
83.119,365
83.144,338
83.169,314
83.194,290
83.219,260
83.244,221
83.269,179
83.294,144
83.319,114
83.344,82
83.369,46
83.394,12
83.419,-14
83.444,-42
83.469,-84
83.494,-140
83.519,-184
83.544,-177
83.569,-103
83.594,15
83.619,135
83.644,224
83.669,285
83.694,339
83.719,398
83.744,450
83.769,476
83.794,468
83.819,445
83.844,430
83.869,429
83.894,431
83.919,423
83.944,404
83.969,382
83.994,365
84.019,346
84.044,319
84.069,281
84.094,244
84.119,212
84.144,186
84.169,157
84.194,120
84.219,78
84.244,35
84.269,-7
84.294,-47
84.319,-82
84.344,-109
84.369,-133
84.394,-169
84.419,-221
84.444,-273
84.469,-285
84.494,-227
84.519,-108
84.544,33
84.569,151
84.594,231
84.619,292
84.644,357
84.669,428
84.694,482
84.719,499
84.744,483
84.769,459
84.794,448
84.819,450
84.844,453
84.869,446
84.894,431
84.919,418
84.944,408
84.969,390
84.994,357
85.019,310
85.044,260
85.069,214
85.094,171
85.119,124
85.144,71
85.169,18
85.194,-25
85.219,-62
85.244,-96
85.269,-133
85.294,-168
85.319,-196
85.344,-218
85.369,-245
85.394,-286
85.419,-327
85.444,-339
85.469,-291
85.494,-181
85.519,-40
85.544,87
85.569,176
85.594,237
85.619,300
85.644,380
85.669,461
85.694,516
85.719,529
85.744,517
85.769,509
85.794,519
85.819,538
85.844,548
85.869,542
85.894,528
85.919,514
85.944,499
85.969,476
85.994,448
86.019,427
86.044,417
86.069,405
86.094,371
86.119,308
86.144,237
86.169,181
86.194,145
86.219,109
86.244,52
86.269,-25
86.294,-105
86.319,-173
86.344,-234
86.369,-298
86.394,-355
86.419,-373
86.444,-325
86.469,-220
86.494,-98
86.519,1
86.544,76
86.569,146
86.594,228
86.619,316
86.644,383
86.669,411
86.694,409
86.719,400
86.744,398
86.769,403
86.794,404
86.819,397
86.844,384
86.869,368
86.894,349
86.919,323
86.944,292
86.969,259
86.994,233
87.019,221
87.044,221
87.069,221
87.094,205
87.119,160
87.144,89
87.169,10
87.194,-53
87.219,-89
87.244,-100
87.269,-97
87.294,-94
87.319,-95
87.344,-102
87.369,-112
87.394,-116
87.419,-97
87.444,-35
87.469,68
87.494,190
87.519,293
87.544,360
87.569,397
87.594,433
87.619,481
87.644,533
87.669,564
87.694,560
87.719,527
87.744,485
87.769,453
87.794,431
87.819,410
87.844,377
87.869,328
87.894,265
87.919,194
87.944,119
87.969,45
87.994,-25
88.019,-88
88.044,-144
88.069,-197
88.094,-255
88.119,-314
88.144,-359
88.169,-360
88.194,-298
88.219,-182
88.244,-44
88.269,76
88.294,167
88.319,241
88.344,318
88.369,394
88.394,445
88.419,456
88.444,435
88.469,411
88.494,406
88.519,415
88.544,416
88.569,395
88.594,355
88.619,313
88.644,276
88.669,243
88.694,208
88.719,167
88.744,118
88.769,56
88.794,-10
88.819,-60
88.844,-61
88.869,-3
88.894,92
88.919,184
88.944,249
88.969,291
88.994,335
89.019,386
89.044,422
89.069,422
89.094,388
89.119,347
89.144,321
89.169,311
89.194,297
89.219,269
89.244,231
89.269,195
89.294,158
89.319,112
89.344,55
89.369,0
89.394,-41
89.419,-79
89.444,-131
89.469,-198
89.494,-247
89.519,-234
89.544,-147
89.569,-20
89.594,97
89.619,180
89.644,244
89.669,311
89.694,382
89.719,432
89.744,442
89.769,417
89.794,387
89.819,372
89.844,369
89.869,363
89.894,345
89.919,317
89.944,287
89.969,256
89.994,220
90.019,177
90.044,134
90.069,93
90.094,54
90.119,15
90.144,-21
90.169,-54
90.194,-90
90.219,-141
90.244,-206
90.269,-259
90.294,-257
90.319,-179
90.344,-46
90.369,95
90.394,207
90.419,284
90.444,351
90.469,422
90.494,488
90.519,526
90.544,525
90.569,502
90.594,485
90.619,486
90.644,496
90.669,495
90.694,475
90.719,446
90.744,417
90.769,391
90.794,360
90.819,320
90.844,276
90.869,237
90.894,207
90.919,179
90.944,145
90.969,106
90.994,68
91.019,31
91.044,-6
91.069,-51
91.094,-98
91.119,-136
91.144,-166
91.169,-202
91.194,-257
91.219,-322
91.244,-355
91.269,-314
91.294,-195
91.319,-40
91.344,96
91.369,189
91.394,253
91.419,317
91.444,386
91.469,438
91.494,453
91.519,437
91.544,418
91.569,416
91.594,426
91.619,429
91.644,413
91.669,386
91.694,357
91.719,329
91.744,296
91.769,256
91.794,213
91.819,173
91.844,135
91.869,94
91.894,55
91.919,19
91.944,-15
91.969,-63
91.994,-129
92.019,-191
92.044,-209
92.069,-156
92.094,-44
92.119,81
92.144,181
92.169,245
92.194,291
92.219,338
92.244,381
92.269,404
92.294,400
92.319,380
92.344,367
92.369,366
92.394,368
92.419,355
92.444,327
92.469,292
92.494,263
92.519,240
92.544,211
92.569,168
92.594,117
92.619,71
92.644,38
92.669,9
92.694,-34
92.719,-98
92.744,-161
92.769,-185
92.794,-142
92.819,-40
92.844,83
92.869,187
92.894,254
92.919,299
92.944,340
92.969,380
92.994,403
93.019,396
93.044,367
93.069,338
93.094,325
93.119,324
93.144,316
93.169,288
93.194,247
93.219,206
93.244,173
93.269,141
93.294,98
93.319,47
93.344,0
93.369,-34
93.394,-67
93.419,-115
93.444,-179
93.469,-235
93.494,-242
93.519,-177
93.544,-57
93.569,73
93.594,178
93.619,252
93.644,313
93.669,375
93.694,431
93.719,459
93.744,454
93.769,433
93.794,422
93.819,428
93.844,435
93.869,423
93.894,389
93.919,350
93.944,322
93.969,302
93.994,274
94.019,228
94.044,172
94.069,123
94.094,82
94.119,36
94.144,-23
94.169,-82
94.194,-107
94.219,-76
94.244,-1
94.269,78
94.294,132
94.319,159
94.344,182
94.369,216
94.394,250
94.419,261
94.444,244
94.469,220
94.494,215
94.519,235
94.544,260
94.569,268
94.594,255
94.619,237
94.644,230
94.669,227
94.694,215
94.719,186
94.744,149
94.769,113
94.794,76
94.819,25
94.844,-42
94.869,-104
94.894,-128
94.919,-93
94.944,-4
94.969,108
94.994,216
95.019,305
95.044,375
95.069,435
95.094,488
95.119,528
95.144,547
95.169,542
95.194,522
95.219,506
95.244,510
95.269,533
95.294,556
95.319,554
95.344,512
95.369,433
95.394,329
95.419,217
95.444,105
95.469,1
95.494,-95
95.519,-192
95.544,-293
95.569,-387
95.594,-445
95.619,-438
95.644,-357
95.669,-229
95.694,-97
95.719,9
95.744,89
95.769,154
95.794,209
95.819,241
95.844,238
95.869,208
95.894,177
95.919,168
95.944,179
95.969,189
95.994,181
96.019,157
96.044,132
96.069,116
96.094,103
96.119,83
96.144,53
96.169,21
96.194,-3
96.219,-25
96.244,-58
96.269,-110
96.294,-163
96.319,-179
96.344,-131
96.369,-20
96.394,116
96.419,239
96.444,331
96.469,404
96.494,478
96.519,549
96.544,594
96.569,593
96.594,553
96.619,502
96.644,464
96.669,439
96.694,413
96.719,378
96.744,345
96.769,329
96.794,326
96.819,312
96.844,267
96.869,193
96.894,109
96.919,36
96.944,-23
96.969,-73
96.994,-105
97.019,-95
97.044,-24
97.069,99
97.094,237
97.119,345
97.144,404
97.169,426
97.194,430
97.219,431
97.244,427
97.269,419
97.294,410
97.319,406
97.344,402
97.369,386
97.394,347
97.419,293
97.444,238
97.469,192
97.494,152
97.519,110
97.544,66
97.569,29
97.594,2
97.619,-27
97.644,-73
97.669,-126
97.694,-155
97.719,-130
97.744,-52
97.769,44
97.794,124
97.819,181
97.844,234
97.869,299
97.894,358
97.919,380
97.944,353
97.969,296
97.994,246
98.019,215
98.044,189
98.069,150
98.094,98
98.119,50
98.144,17
98.169,-7
98.194,-38
98.219,-75
98.244,-111
98.269,-139
98.294,-171
98.319,-211
98.344,-244
98.369,-234
98.394,-157
98.419,-25
98.444,121
98.469,243
98.494,331
98.519,397
98.544,451
98.569,491
98.594,506
98.619,496
98.644,474
98.669,456
98.694,445
98.719,431
98.744,405
98.769,367
98.794,324
98.819,284
98.844,243
98.869,197
98.894,141
98.919,80
98.944,20
98.969,-36
98.994,-92
99.019,-141
99.044,-163
99.069,-133
99.094,-44
99.119,77
99.144,192
99.169,276
99.194,339
99.219,405
99.244,477
99.269,529
99.294,537
99.319,510
99.344,489
99.369,499
99.394,522
99.419,516
99.444,473
99.469,432
99.494,429
99.519,439
99.544,379
99.569,190
99.594,-92
99.619,-350
99.644,-480
99.669,-470
99.694,-388
99.719,-305
99.744,-228
99.769,-124
99.794,20
99.819,171
99.844,271
99.869,297
99.894,266
99.919,212
99.944,159
99.969,119
99.994,115
100.019,168
100.044,274
100.069,385
100.094,441
100.119,416
100.144,342
100.169,274
100.194,245
100.219,241
100.244,227
100.269,184
100.294,125
100.319,71
100.344,26
100.369,-25
100.394,-93
100.419,-163
100.444,-193
100.469,-152
100.494,-47
100.519,85
100.544,202
100.569,285
100.594,344
100.619,395
100.644,434
100.669,445
100.694,421
100.719,380
100.744,352
100.769,350
100.794,356
100.819,345
100.844,311
100.869,266
100.894,230
100.919,202
100.944,170
100.969,127
100.994,81
101.019,43
101.044,5
101.069,-48
101.094,-114
101.119,-160
101.144,-140
101.169,-46
101.194,89
101.219,212
101.244,295
101.269,347
101.294,390
101.319,430
101.344,455
101.369,452
101.394,429
101.419,405
101.444,390
101.469,374
101.494,347
101.519,305
101.544,257
101.569,207
101.594,152
101.619,93
101.644,37
101.669,-7
101.694,-50
101.719,-108
101.744,-185
101.769,-249
101.794,-253
101.819,-175
101.844,-42
101.869,90
101.894,185
101.919,246
101.944,296
101.969,347
101.994,382
102.019,381
102.044,351
102.069,319
102.094,308
102.119,314
102.144,313
102.169,293
102.194,257
102.219,222
102.244,192
102.269,160
102.294,122
102.319,84
102.344,49
102.369,6
102.394,-59
102.419,-147
102.444,-222
102.469,-235
102.494,-164
102.519,-31
102.544,112
102.569,227
102.594,310
102.619,377
102.644,439
102.669,484
102.694,499
102.719,481
102.744,452
102.769,433
102.794,427
102.819,422
102.844,401
102.869,364
102.894,322
102.919,284
102.944,248
102.969,204
102.994,149
103.019,91
103.044,45
103.069,11
103.094,-24
103.119,-83
103.144,-159
103.169,-212
103.194,-198
103.219,-100
103.244,46
103.269,187
103.294,286
103.319,349
103.344,403
103.369,454
103.394,481
103.419,462
103.444,410
103.469,360
103.494,339
103.519,336
103.544,315
103.569,261
103.594,193
103.619,141
103.644,111
103.669,81
103.694,31
103.719,-29
103.744,-78
103.769,-109
103.794,-150
103.819,-221
103.844,-302
103.869,-336
103.894,-278
103.919,-141
103.944,15
103.969,135
103.994,202
104.019,239
104.044,268
104.069,294
104.094,307
104.119,305
104.144,298
104.169,299
104.194,305
104.219,302
104.244,275
104.269,227
104.294,171
104.319,124
104.344,93
104.369,75
104.394,57
104.419,33
104.444,10
104.469,16
104.494,80
104.519,208
104.544,378
104.569,551
104.594,696
104.619,800
104.644,861
104.669,878
104.694,850
104.719,783
104.744,695
104.769,608
104.794,530
104.819,457
104.844,377
104.869,287
104.894,193
104.919,101
104.944,12
104.969,-79
104.994,-178
105.019,-282
105.044,-380
105.069,-448
105.094,-462
105.119,-407
105.144,-294
105.169,-158
105.194,-36
105.219,48
105.244,102
105.269,139
105.294,164
105.319,170
105.344,155
105.369,131
105.394,118
105.419,124
105.444,134
105.469,127
105.494,100
105.519,69
105.544,50
105.569,36
105.594,4
105.619,-52
105.644,-107
105.669,-112
105.694,-37
105.719,98
105.744,244
105.769,359
105.794,436
105.819,493
105.844,539
105.869,559
105.894,539
105.919,485
105.944,430
105.969,398
105.994,383
106.019,355
106.044,297
106.069,226
106.094,170
106.119,134
106.144,91
106.169,15
106.194,-79
106.219,-140
106.244,-118
106.269,-15
106.294,117
106.319,226
106.344,297
106.369,350
106.394,402
106.419,444
106.444,449
106.469,408
106.494,345
106.519,295
106.544,270
106.569,253
106.594,218
106.619,161
106.644,100
106.669,49
106.694,-1
106.719,-74
106.744,-169
106.769,-249
106.794,-265
106.819,-194
106.844,-66
106.869,65
106.894,167
106.919,240
106.944,302
106.969,353
106.994,369
107.019,330
107.044,252
107.069,180
107.094,149
107.119,152
107.144,153
107.169,123
107.194,69
107.219,19
107.244,-12
107.269,-37
107.294,-75
107.319,-119
107.344,-130
107.369,-73
107.394,55
107.419,221
107.444,376
107.469,493
107.494,572
107.519,626
107.544,661
107.569,669
107.594,645
107.619,594
107.644,537
107.669,492
107.694,460
107.719,426
107.744,371
107.769,293
107.794,206
107.819,123
107.844,40
107.869,-53
107.894,-157
107.919,-243
107.944,-270
107.969,-217
107.994,-103
108.019,28
108.044,144
108.069,234
108.094,305
108.119,362
108.144,393
108.169,387
108.194,347
108.219,290
108.244,234
108.269,189
108.294,154
108.319,120
108.344,83
108.369,39
108.394,-6
108.419,-52
108.444,-96
108.469,-142
108.494,-188
108.519,-217
108.544,-199
108.569,-113
108.594,33
108.619,200
108.644,337
108.669,418
108.694,452
108.719,456
108.744,442
108.769,404
108.794,345
108.819,284
108.844,244
108.869,234
108.894,235
108.919,222
108.944,185
108.969,138
108.994,100
109.019,75
109.044,45
109.069,-10
109.094,-100
109.119,-201
109.144,-270
109.169,-267
109.194,-178
109.219,-30
109.244,124
109.269,242
109.294,310
109.319,349
109.344,381
109.369,408
109.394,415
109.419,399
109.444,377
109.469,371
109.494,384
109.519,392
109.544,372
109.569,326
109.594,280
109.619,254
109.644,237
109.669,199
109.694,130
109.719,55
109.744,20
109.769,53
109.794,141
109.819,245
109.844,328
109.869,374
109.894,387
109.919,372
109.944,331
109.969,265
109.994,186
110.019,113
110.044,61
110.069,34
110.094,21
110.119,10
110.144,-5
110.169,-19
110.194,-27
110.219,-33
110.244,-58
110.269,-114
110.294,-190
110.319,-244
110.344,-228
110.369,-125
110.394,34
110.419,195
110.444,311
110.469,372
110.494,400
110.519,418
110.544,428
110.569,427
110.594,415
110.619,405
110.644,408
110.669,417
110.694,418
110.719,403
110.744,385
110.769,378
110.794,382
110.819,374
110.844,340
110.869,291
110.894,269
110.919,309
110.944,415
110.969,551
110.994,667
111.019,733
111.044,744
111.069,707
111.094,629
111.119,514
111.144,375
111.169,231
111.194,103
111.219,0
111.244,-87
111.269,-173
111.294,-259
111.319,-340
111.344,-409
111.369,-470
111.394,-538
111.419,-620
111.444,-700
111.469,-749
111.494,-738
111.519,-662
111.544,-537
111.569,-386
111.594,-221
111.619,-42
111.644,140
111.669,300
111.694,408
111.719,454
111.744,458
111.769,454
111.794,459
111.819,461
111.844,440
111.869,395
111.894,347
111.919,311
111.944,282
111.969,237
111.994,167
112.019,98
112.044,73
112.069,119
112.094,225
112.119,353
112.144,464
112.169,540
112.194,580
112.219,589
112.244,570
112.269,532
112.294,484
112.319,439
112.344,401
112.369,370
112.394,337
112.419,294
112.444,239
112.469,174
112.494,109
112.519,51
112.544,-6
112.569,-75
112.594,-159
112.619,-235
112.644,-257
112.669,-192
112.694,-50
112.719,118
112.744,259
112.769,348
112.794,398
112.819,427
112.844,434
112.869,406
112.894,349
112.919,291
112.944,261
112.969,255
112.994,240
113.019,193
113.044,124
113.069,67
113.094,32
113.119,-3
113.144,-69
113.169,-158
113.194,-224
113.219,-217
113.244,-130
113.269,-2
113.294,122
113.319,222
113.344,298
113.369,355
113.394,392
113.419,401
113.444,389
113.469,368
113.494,350
113.519,342
113.544,340
113.569,341
113.594,336
113.619,317
113.644,283
113.669,244
113.694,207
113.719,166
113.744,103
113.769,11
113.794,-80
113.819,-120
113.844,-74
113.869,39
113.894,170
113.919,273
113.944,342
113.969,397
113.994,444
114.019,470
114.044,455
114.069,407
114.094,348
114.119,299
114.144,252
114.169,198
114.194,135
114.219,77
114.244,29
114.269,-15
114.294,-65
114.319,-112
114.344,-144
114.369,-166
114.394,-198
114.419,-252
114.444,-302
114.469,-296
114.494,-201
114.519,-43
114.544,118
114.569,239
114.594,319
114.619,384
114.644,443
114.669,482
114.694,481
114.719,448
114.744,413
114.769,400
114.794,404
114.819,400
114.844,373
114.869,331
114.894,291
114.919,263
114.944,237
114.969,198
114.994,144
115.019,87
115.044,42
115.069,9
115.094,-28
115.119,-88
115.144,-167
115.169,-229
115.194,-231
115.219,-151
115.244,-12
115.269,137
115.294,257
115.319,338
115.344,398
115.369,449
115.394,482
115.419,482
115.444,451
115.469,412
115.494,392
115.519,392
115.544,391
115.569,364
115.594,316
115.619,266
115.644,230
115.669,200
115.694,157
115.719,95
115.744,32
115.769,-13
115.794,-43
115.819,-83
115.844,-152
115.869,-228
115.894,-262
115.919,-213
115.944,-87
115.969,63
115.994,188
116.019,271
116.044,329
116.069,381
116.094,418
116.119,421
116.144,390
116.169,355
116.194,345
116.219,356
116.244,361
116.269,337
116.294,295
116.319,260
116.344,240
116.369,220
116.394,178
116.419,118
116.444,59
116.469,6
116.494,-57
116.519,-147
116.544,-243
116.569,-292
116.594,-255
116.619,-141
116.644,-1
116.669,119
116.694,209
116.719,284
116.744,351
116.769,397
116.794,410
116.819,398
116.844,380
116.869,374
116.894,376
116.919,372
116.944,353
116.969,322
116.994,285
117.019,246
117.044,208
117.069,170
117.094,130
117.119,83
117.144,32
117.169,-14
117.194,-51
117.219,-87
117.244,-142
117.269,-215
117.294,-269
117.319,-252
117.344,-141
117.369,28
117.394,194
117.419,315
117.444,398
117.469,469
117.494,532
117.519,568
117.544,558
117.569,518
117.594,481
117.619,466
117.644,462
117.669,447
117.694,416
117.719,377
117.744,338
117.769,297
117.794,246
117.819,188
117.844,130
117.869,75
117.894,17
117.919,-41
117.944,-92
117.969,-131
117.994,-172
118.019,-239
118.044,-325
118.069,-382
118.094,-354
118.119,-227
118.144,-48
118.169,113
118.194,226
118.219,303
118.244,373
118.269,439
118.294,479
118.319,477
118.344,444
118.369,412
118.394,399
118.419,401
118.444,396
118.469,372
118.494,333
118.519,291
118.544,255
118.569,222
118.594,182
118.619,130
118.644,70
118.669,15
118.694,-24
118.719,-58
118.744,-107
118.769,-181
118.794,-253
118.819,-274
118.844,-208
118.869,-66
118.894,99
118.919,238
118.944,335
118.969,406
118.994,467
119.019,511
119.044,521
119.069,496
119.094,462
119.119,444
119.144,446
119.169,448
119.194,431
119.219,392
119.244,348
119.269,311
119.294,283
119.319,249
119.344,203
119.369,148
119.394,95
119.419,51
119.444,14
119.469,-27
119.494,-78
119.519,-128
119.544,-167
119.569,-198
119.594,-241
119.619,-311
119.644,-388
119.669,-420
119.694,-360
119.719,-208
119.744,-14
119.769,158
119.794,286
119.819,383
119.844,474
119.869,557
119.894,606
119.919,610
119.944,586
119.969,567
119.994,567
120.019,575
120.044,574
120.069,555
120.094,527
120.119,497
120.144,464
120.169,422
120.194,370
120.219,310
120.244,244
120.269,176
120.294,112
120.319,55
120.344,-2
120.369,-68
120.394,-141
120.419,-209
120.444,-260
120.469,-306
120.494,-369
120.519,-448
120.544,-501
120.569,-469
120.594,-332
120.619,-136
120.644,46
120.669,177
120.694,272
120.719,366
120.744,460
120.769,521
120.794,529
120.819,506
120.844,491
120.869,502
120.894,515
120.919,502
120.944,460
120.969,412
120.994,374
121.019,334
121.044,278
121.069,214
121.094,162
121.119,127
121.144,92
121.169,40
121.194,-19
121.219,-66
121.244,-100
121.269,-148
121.294,-226
121.319,-303
121.344,-313
121.369,-220
121.394,-52
121.419,118
121.444,242
121.469,323
121.494,390
121.519,455
121.544,497
121.569,496
121.594,465
121.619,434
121.644,421
121.669,417
121.694,403
121.719,372
121.744,332
121.769,291
121.794,249
121.819,204
121.844,157
121.869,110
121.894,60
121.919,4
121.944,-51
121.969,-97
121.994,-136
122.019,-188
122.044,-264
122.069,-339
122.094,-358
122.119,-279
122.144,-117
122.169,63
122.194,209
122.219,310
122.244,396
122.269,486
122.294,562
122.319,593
122.344,576
122.369,541
122.394,524
122.419,534
122.444,549
122.469,543
122.494,515
122.519,479
122.544,446
122.569,415
122.594,379
122.619,335
122.644,288
122.669,244
122.694,206
122.719,168
122.744,125
122.769,78
122.794,32
122.819,-7
122.844,-45
122.869,-89
122.894,-143
122.919,-201
122.944,-248
122.969,-282
122.994,-319
123.019,-381
123.044,-460
123.069,-505
123.094,-457
123.119,-305
123.144,-97
123.169,91
123.194,223
123.219,316
123.244,410
123.269,511
123.294,586
123.319,607
123.344,583
123.369,553
123.394,545
123.419,554
123.444,553
123.469,533
123.494,503
123.519,475
123.544,448
123.569,413
123.594,368
123.619,321
123.644,278
123.669,235
123.694,187
123.719,138
123.744,95
123.769,57
123.794,13
123.819,-40
123.844,-94
123.869,-135
123.894,-171
123.919,-225
123.944,-302
123.969,-367
123.994,-360
124.019,-253
124.044,-81
124.069,89
124.094,210
124.119,289
124.144,359
124.169,433
124.194,488
124.219,497
124.244,463
124.269,423
124.294,409
124.319,419
124.344,427
124.369,409
124.394,369
124.419,328
124.444,297
124.469,270
124.494,234
124.519,184
124.544,132
124.569,89
124.594,53
124.619,12
124.644,-37
124.669,-91
124.694,-135
124.719,-170
124.744,-214
124.769,-279
124.794,-349
124.819,-378
124.844,-322
124.869,-182
124.894,-5
124.919,150
124.944,262
124.969,348
124.994,436
125.019,525
125.044,587
125.069,602
125.094,582
125.119,562
125.144,563
125.169,576
125.194,576
125.219,556
125.244,527
125.269,504
125.294,487
125.319,463
125.344,427
125.369,386
125.394,351
125.419,321
125.444,287
125.469,248
125.494,209
125.519,174
125.544,137
125.569,92
125.594,43
125.619,2
125.644,-28
125.669,-63
125.694,-119
125.719,-193
125.744,-263
125.769,-314
125.794,-362
125.819,-431
125.844,-519
125.869,-578
125.894,-551
125.919,-422
125.944,-237
125.969,-65
125.994,60
126.019,158
126.044,261
126.069,378
126.094,476
126.119,524
126.144,521
126.169,502
126.194,500
126.219,521
126.244,544
126.269,548
126.294,531
126.319,508
126.344,493
126.369,483
126.394,462
126.419,427
126.444,385
126.469,350
126.494,322
126.519,293
126.544,253
126.569,206
126.594,166
126.619,138
126.644,108
126.669,56
126.694,-16
126.719,-91
126.744,-148
126.769,-192
126.794,-245
126.819,-313
126.844,-360
126.869,-335
126.894,-219
126.919,-50
126.944,103
126.969,207
126.994,276
127.019,349
127.044,436
127.069,507
127.094,529
127.119,506
127.144,475
127.169,468
127.194,482
127.219,489
127.244,471
127.269,438
127.294,408
127.319,387
127.344,360
127.369,317
127.394,265
127.419,215
127.444,173
127.469,131
127.494,83
127.519,33
127.544,-11
127.569,-53
127.594,-99
127.619,-150
127.644,-195
127.669,-231
127.694,-272
127.719,-334
127.744,-407
127.769,-446
127.794,-399
127.819,-261
127.844,-78
127.869,83
127.894,195
127.919,282
127.944,377
127.969,483
127.994,567
128.019,599
128.044,586
128.069,566
128.094,565
128.119,581
128.144,590
128.169,580
128.194,558
128.219,534
128.244,511
128.269,479
128.294,437
128.319,393
128.344,355
128.369,321
128.394,286
128.419,244
128.444,203
128.469,166
128.494,127
128.519,81
128.544,30
128.569,-16
128.594,-57
128.619,-103
128.644,-160
128.669,-220
128.694,-268
128.719,-303
128.744,-347
128.769,-415
128.794,-483
128.819,-496
128.844,-407
128.869,-230
128.894,-32
128.919,125
128.944,231
128.969,318
128.994,413
129.019,506
129.044,563
129.069,568
129.094,544
129.119,526
129.144,528
129.169,537
129.194,533
129.219,511
129.244,479
129.269,448
129.294,419
129.319,387
129.344,351
129.369,310
129.394,265
129.419,217
129.444,171
129.469,129
129.494,87
129.519,36
129.544,-23
129.569,-80
129.594,-124
129.619,-161
129.644,-215
129.669,-292
129.694,-361
129.719,-366
129.744,-276
129.769,-117
129.794,49
129.819,175
129.844,261
129.869,336
129.894,420
129.919,496
129.944,534
129.969,524
129.994,489
130.019,462
130.044,458
130.069,462
130.094,454
130.119,426
130.144,387
130.169,348
130.194,311
130.219,271
130.244,224
130.269,171
130.294,122
130.319,80
130.344,42
130.369,0
130.394,-48
130.419,-97
130.444,-140
130.469,-179
130.494,-228
130.519,-296
130.544,-362
130.569,-383
130.594,-321
130.619,-181
130.644,-12
130.669,134
130.694,243
130.719,334
130.744,431
130.769,523
130.794,581
130.819,585
130.844,555
130.869,527
130.894,522
130.919,531
130.944,534
130.969,522
130.994,503
131.019,484
131.044,461
131.069,430
131.094,391
131.119,355
131.144,324
131.169,292
131.194,251
131.219,207
131.244,168
131.269,138
131.294,106
131.319,65
131.344,18
131.369,-26
131.394,-66
131.419,-108
131.444,-157
131.469,-205
131.494,-244
131.519,-280
131.544,-329
131.569,-392
131.594,-434
131.619,-406
131.644,-289
131.669,-118
131.694,43
131.719,159
131.744,241
131.769,322
131.794,414
131.819,493
131.844,530
131.869,523
131.894,500
131.919,493
131.944,505
131.969,516
131.994,509
132.019,484
132.044,453
132.069,425
132.094,399
132.119,365
132.144,322
132.169,274
132.194,226
132.219,180
132.244,131
132.269,73
132.294,6
132.319,-61
132.344,-119
132.369,-169
132.394,-226
132.419,-301
132.444,-381
132.469,-427
132.494,-396
132.519,-280
132.544,-117
132.569,37
132.594,154
132.619,245
132.644,338
132.669,438
132.694,521
132.719,559
132.744,554
132.769,535
132.794,531
132.819,547
132.844,564
132.869,563
132.894,544
132.919,521
132.944,499
132.969,475
132.994,442
133.019,403
133.044,367
133.069,337
133.094,308
133.119,272
133.144,231
133.169,192
133.194,156
133.219,117
133.244,72
133.269,24
133.294,-19
133.319,-58
133.344,-102
133.369,-157
133.394,-217
133.419,-266
133.444,-298
133.469,-331
133.494,-389
133.519,-470
133.544,-530
133.569,-513
133.594,-394
133.619,-209
133.644,-23
133.669,116
133.694,213
133.719,305
133.744,415
133.769,524
133.794,595
133.819,612
133.844,593
133.869,578
133.894,585
133.919,602
133.944,606
133.969,588
133.994,559
134.019,533
134.044,509
134.069,477
134.094,431
134.119,381
134.144,337
134.169,301
134.194,263
134.219,214
134.244,158
134.269,103
134.294,53
134.319,2
134.344,-52
134.369,-107
134.394,-153
134.419,-195
134.444,-250
134.469,-325
134.494,-397
134.519,-417
134.544,-346
134.569,-196
134.594,-18
134.619,130
134.644,233
134.669,314
134.694,399
134.719,485
134.744,543
134.769,550
134.794,520
134.819,488
134.844,478
134.869,482
134.894,476
134.919,446
134.944,402
134.969,362
134.994,330
135.019,296
135.044,248
135.069,189
135.094,129
135.119,72
135.144,14
135.169,-48
135.194,-110
135.219,-164
135.244,-217
135.269,-283
135.294,-363
135.319,-430
135.344,-440
135.369,-368
135.394,-235
135.419,-88
135.444,35
135.469,136
135.494,239
135.519,356
135.544,465
135.569,534
135.594,553
135.619,546
135.644,545
135.669,565
135.694,592
135.719,606
135.744,598
135.769,575
135.794,547
135.819,518
135.844,484
135.869,445
135.894,403
135.919,362
135.944,322
135.969,282
135.994,240
136.019,195
136.044,145
136.069,93
136.094,43
136.119,-4
136.144,-55
136.169,-111
136.194,-170
136.219,-222
136.244,-266
136.269,-313
136.294,-379
136.319,-456
136.344,-502
136.369,-467
136.394,-335
136.419,-145
136.444,35
136.469,166
136.494,256
136.519,344
136.544,445
136.569,535
136.594,581
136.619,575
136.644,549
136.669,536
136.694,546
136.719,557
136.744,550
136.769,524
136.794,491
136.819,459
136.844,427
136.869,391
136.894,351
136.919,313
136.944,275
136.969,229
136.994,176
137.019,126
137.044,85
137.069,47
137.094,0
137.119,-58
137.144,-116
137.169,-159
137.194,-195
137.219,-247
137.244,-321
137.269,-381
137.294,-375
137.319,-274
137.344,-108
137.369,57
137.394,174
137.419,246
137.444,309
137.469,385
137.494,459
137.519,495
137.544,483
137.569,449
137.594,428
137.619,430
137.644,437
137.669,426
137.694,394
137.719,356
137.744,325
137.769,294
137.794,254
137.819,203
137.844,152
137.869,109
137.894,69
137.919,21
137.944,-32
137.969,-78
137.994,-114
138.019,-155
138.044,-220
138.069,-299
138.094,-347
138.119,-315
138.144,-195
138.169,-33
138.194,111
138.219,212
138.244,286
138.269,363
138.294,449
138.319,517
138.344,544
138.369,533
138.394,514
138.419,514
138.444,530
138.469,544
138.494,541
138.519,523
138.544,500
138.569,479
138.594,456
138.619,423
138.644,381
138.669,336
138.694,291
138.719,250
138.744,210
138.769,167
138.794,121
138.819,72
138.844,23
138.869,-21
138.894,-66
138.919,-115
138.944,-169
138.969,-219
138.994,-260
139.019,-301
139.044,-358
139.069,-434
139.094,-496
139.119,-491
139.144,-387
139.169,-209
139.194,-22
139.219,120
139.244,218
139.269,308
139.294,414
139.319,519
139.344,584
139.369,592
139.394,569
139.419,553
139.444,559
139.469,569
139.494,561
139.519,534
139.544,501
139.569,473
139.594,442
139.619,400
139.644,348
139.669,298
139.694,256
139.719,217
139.744,172
139.769,124
139.794,78
139.819,35
139.844,-13
139.869,-67
139.894,-118
139.919,-157
139.944,-196
139.969,-255
139.994,-334
140.019,-393
140.044,-381
140.069,-273
140.094,-103
140.119,67
140.144,197
140.169,289
140.194,371
140.219,454
140.244,521
140.269,547
140.294,532
140.319,499
140.344,477
140.369,473
140.394,474
140.419,460
140.444,429
140.469,388
140.494,349
140.519,315
140.544,280
140.569,235
140.594,184
140.619,132
140.644,86
140.669,44
140.694,-2
140.719,-55
140.744,-107
140.769,-150
140.794,-192
140.819,-249
140.844,-323
140.869,-387
140.894,-389
140.919,-299
140.944,-138
140.969,36
140.994,172
141.019,266
141.044,348
141.069,441
141.094,533
141.119,590
141.144,596
141.169,571
141.194,550
141.219,550
141.244,561
141.269,561
141.294,543
141.319,514
141.344,483
141.369,453
141.394,421
141.419,384
141.444,344
141.469,304
141.494,266
141.519,232
141.544,201
141.569,169
141.594,130
141.619,83
141.644,32
141.669,-14
141.694,-56
141.719,-99
141.744,-147
141.769,-193
141.794,-233
141.819,-275
141.844,-333
141.869,-406
141.894,-454
141.919,-425
141.944,-301
141.969,-121
141.994,46
142.019,160
142.044,233
142.069,307
142.094,395
142.119,469
142.144,495
142.169,472
142.194,435
142.219,421
142.244,429
142.269,433
142.294,415
142.319,380
142.344,345
142.369,316
142.394,284
142.419,242
142.444,193
142.469,146
142.494,103
142.519,59
142.544,15
142.569,-23
142.594,-61
142.619,-113
142.644,-184
142.669,-252
142.694,-269
142.719,-202
142.744,-66
142.769,86
142.794,206
142.819,288
142.844,359
142.869,439
142.894,518
142.919,564
142.944,565
142.969,538
142.994,514
143.019,508
143.044,512
143.069,508
143.094,489
143.119,459
143.144,426
143.169,392
143.194,358
143.219,323
143.244,288
143.269,252
143.294,216
143.319,180
143.344,144
143.369,106
143.394,66
143.419,25
143.444,-15
143.469,-57
143.494,-103
143.519,-153
143.544,-199
143.569,-233
143.594,-261
143.619,-306
143.644,-376
143.669,-446
143.694,-461
143.719,-379
143.744,-214
143.769,-28
143.794,117
143.819,211
143.844,289
143.869,381
143.894,482
143.919,557
143.944,582
143.969,569
143.994,552
144.019,551
144.044,561
144.069,562
144.094,547
144.119,522
144.144,497
144.169,472
144.194,444
144.219,410
144.244,370
144.269,328
144.294,286
144.319,246
144.344,209
144.369,171
144.394,128
144.419,81
144.444,35
144.469,-4
144.494,-41
144.519,-85
144.544,-136
144.569,-185
144.594,-222
144.619,-255
144.644,-304
144.669,-370
144.694,-422
144.719,-407
144.744,-301
144.769,-130
144.794,41
144.819,168
144.844,254
144.869,329
144.894,413
144.919,492
144.944,536
144.969,538
144.994,519
145.019,509
145.044,519
145.069,535
145.094,537
145.119,521
145.144,495
145.169,471
145.194,449
145.219,422
145.244,384
145.269,337
145.294,290
145.319,249
145.344,211
145.369,170
145.394,122
145.419,71
145.444,20
145.469,-28
145.494,-80
145.519,-134
145.544,-184
145.569,-226
145.594,-267
145.619,-324
145.644,-400
145.669,-466
145.694,-470
145.719,-378
145.744,-207
145.769,-19
145.794,129
145.819,228
145.844,310
145.869,404
145.894,505
145.919,576
145.944,596
145.969,581
145.994,568
146.019,577
146.044,596
146.069,604
146.094,590
146.119,567
146.144,546
146.169,524
146.194,493
146.219,451
146.244,408
146.269,369
146.294,333
146.319,291
146.344,245
146.369,203
146.394,168
146.419,133
146.444,89
146.469,35
146.494,-16
146.519,-60
146.544,-106
146.569,-160
146.594,-219
146.619,-268
146.644,-305
146.669,-348
146.694,-413
146.719,-485
146.744,-510
146.769,-440
146.794,-276
146.819,-75
146.844,94
146.869,210
146.894,297
146.919,387
146.944,481
146.969,550
146.994,572
147.019,558
147.044,541
147.069,542
147.094,555
147.119,562
147.144,551
147.169,528
147.194,501
147.219,470
147.244,434
147.269,392
147.294,350
147.319,309
147.344,266
147.369,218
147.394,169
147.419,123
147.444,78
147.469,27
147.494,-27
147.519,-78
147.544,-120
147.569,-165
147.594,-233
147.619,-317
147.644,-376
147.669,-359
147.694,-250
147.719,-86
147.744,70
147.769,181
147.794,252
147.819,311
147.844,372
147.869,420
147.894,435
147.919,415
147.944,383
147.969,361
147.994,355
148.019,353
148.044,341
148.069,314
148.094,276
148.119,237
148.144,199
148.169,158
148.194,108
148.219,52
148.244,-1
148.269,-44
148.294,-81
148.319,-129
148.344,-197
148.369,-268
148.394,-295
148.419,-240
148.444,-106
148.469,57
148.494,195
148.519,288
148.544,358
148.569,436
148.594,520
148.619,579
148.644,591
148.669,568
148.694,544
148.719,542
148.744,554
148.769,559
148.794,546
148.819,524
148.844,501
148.869,477
148.894,444
148.919,404
148.944,364
148.969,331
148.994,300
149.019,263
149.044,219
149.069,176
149.094,139
149.119,103
149.144,61
149.169,14
149.194,-28
149.219,-67
149.244,-109
149.269,-159
149.294,-212
149.319,-257
149.344,-296
149.369,-347
149.394,-417
149.419,-477
149.444,-474
149.469,-372
149.494,-197
149.519,-16
149.544,118
149.569,201
149.594,270
149.619,349
149.644,428
149.669,475
149.694,477
149.719,454
149.744,435
149.769,432
149.794,433
149.819,425
149.844,405
149.869,380
149.894,351
149.919,317
149.944,277
149.969,237
149.994,200
150.019,160
150.044,114
150.069,65
150.094,23
150.119,-13
150.144,-60
150.169,-124
150.194,-185
150.219,-197
150.244,-129
150.269,1
150.294,143
150.319,250
150.344,317
150.369,372
150.394,435
150.419,490
150.444,513
150.469,497
150.494,465
150.519,446
150.544,446
150.569,451
150.594,442
150.619,418
150.644,386
150.669,354
150.694,320
150.719,282
150.744,240
150.769,197
150.794,157
150.819,117
150.844,76
150.869,32
150.894,-17
150.919,-70
150.944,-121
150.969,-162
150.994,-199
151.019,-246
151.044,-311
151.069,-375
151.094,-394
151.119,-328
151.144,-184
151.169,-12
151.194,129
151.219,224
151.244,296
151.269,376
151.294,463
151.319,527
151.344,546
151.369,531
151.394,512
151.419,509
151.444,519
151.469,524
151.494,513
151.519,490
151.544,463
151.569,433
151.594,397
151.619,356
151.644,312
151.669,268
151.694,221
151.719,173
151.744,127
151.769,84
151.794,39
151.819,-12
151.844,-67
151.869,-117
151.894,-160
151.919,-211
151.944,-280
151.969,-351
151.994,-379
152.019,-326
152.044,-194
152.069,-31
152.094,102
152.119,186
152.144,242
152.169,301
152.194,366
152.219,410
152.244,410
152.269,380
152.294,350
152.319,346
152.344,355
152.369,353
152.394,323
152.419,279
152.444,238
152.469,203
152.494,161
152.519,103
152.544,39
152.569,-12
152.594,-49
152.619,-89
152.644,-150
152.669,-219
152.694,-250
152.719,-205
152.744,-85
152.769,67
152.794,201
152.819,300
152.844,380
152.869,460
152.894,538
152.919,590
152.944,600
152.969,580
152.994,556
153.019,548
153.044,554
153.069,560
153.094,552
153.119,529
153.144,499
153.169,467
153.194,436
153.219,404
153.244,367
153.269,325
153.294,282
153.319,241
153.344,205
153.369,168
153.394,125
153.419,78
153.444,32
153.469,-8
153.494,-49
153.519,-100
153.544,-157
153.569,-208
153.594,-245
153.619,-285
153.644,-347
153.669,-428
153.694,-483
153.719,-453
153.744,-322
153.769,-135
153.794,36
153.819,151
153.844,224
153.869,294
153.894,374
153.919,440
153.944,464
153.969,447
153.994,417
154.019,402
154.044,405
154.069,406
154.094,390
154.119,357
154.144,317
154.169,277
154.194,237
154.219,197
154.244,150
154.269,97
154.294,40
154.319,-5
154.344,-33
154.369,-48
154.394,-73
154.419,-119
154.444,-163
154.469,-160
154.494,-81
154.519,50
154.544,177
154.569,261
154.594,310
154.619,362
154.644,436
154.669,506
154.694,531
154.719,505
154.744,459
154.769,430
154.794,426
154.819,422
154.844,398
154.869,356
154.894,311
154.919,273
154.944,235
154.969,187
154.994,132
155.019,76
155.044,23
155.069,-23
155.094,-60
155.119,-90
155.144,-122
155.169,-170
155.194,-233
155.219,-276
155.244,-254
155.269,-152
155.294,-3
155.319,134
155.344,233
155.369,306
155.394,384
155.419,468
155.444,529
155.469,540
155.494,509
155.519,472
155.544,456
155.569,455
155.594,447
155.619,425
155.644,399
155.669,376
155.694,351
155.719,311
155.744,259
155.769,210
155.794,173
155.819,136
155.844,87
155.869,27
155.894,-26
155.919,-69
155.944,-118
155.969,-191
155.994,-269
156.019,-303
156.044,-256
156.069,-139
156.094,-7
156.119,90
156.144,155
156.169,215
156.194,292
156.219,367
156.244,406
156.269,399
156.294,367
156.319,343
156.344,340
156.369,348
156.394,348
156.419,332
156.444,306
156.469,274
156.494,241
156.519,208
156.544,175
156.569,139
156.594,100
156.619,62
156.644,28
156.669,-5
156.694,-51
156.719,-114
156.744,-171
156.769,-183
156.794,-125
156.819,-13
156.844,106
156.869,196
156.894,255
156.919,310
156.944,372
156.969,422
156.994,433
157.019,402
157.044,360
157.069,339
157.094,340
157.119,341
157.144,322
157.169,287
157.194,253
157.219,226
157.244,199
157.269,164
157.294,121
157.319,78
157.344,39
157.369,2
157.394,-35
157.419,-70
157.444,-107
157.469,-154
157.494,-212
157.519,-258
157.544,-253
157.569,-171
157.594,-35
157.619,104
157.644,207
157.669,278
157.694,346
157.719,425
157.744,496
157.769,528
157.794,515
157.819,487
157.844,477
157.869,494
157.894,515
157.919,516
157.944,495
157.969,467
157.994,446
158.019,427
158.044,403
158.069,368
158.094,330
158.119,294
158.144,261
158.169,227
158.194,192
158.219,158
158.244,124
158.269,87
158.294,47
158.319,7
158.344,-26
158.369,-59
158.394,-97
158.419,-140
158.444,-181
158.469,-213
158.494,-246
158.519,-296
158.544,-364
158.569,-418
158.594,-409
158.619,-312
158.644,-153
158.669,11
158.694,138
158.719,228
158.744,309
158.769,398
158.794,478
158.819,523
158.844,525
158.869,507
158.894,497
158.919,506
158.944,519
158.969,521
158.994,507
159.019,485
159.044,461
159.069,432
159.094,397
159.119,360
159.144,323
159.169,283
159.194,239
159.219,192
159.244,150
159.269,117
159.294,82
159.319,35
159.344,-20
159.369,-70
159.394,-108
159.419,-145
159.444,-199
159.469,-262
159.494,-296
159.519,-256
159.544,-137
159.569,19
159.594,157
159.619,248
159.644,307
159.669,359
159.694,411
159.719,446
159.744,450
159.769,428
159.794,404
159.819,397
159.844,403
159.869,406
159.894,391
159.919,359
159.944,321
159.969,286
159.994,255
160.019,222
160.044,178
160.069,126
160.094,77
160.119,38
160.144,5
160.169,-40
160.194,-108
160.219,-182
160.244,-219
160.269,-180
160.294,-67
160.319,77
160.344,200
160.369,275
160.394,319
160.419,358
160.444,399
160.469,422
160.494,410
160.519,366
160.544,321
160.569,300
160.594,299
160.619,297
160.644,274
160.669,232
160.694,189
160.719,154
160.744,118
160.769,70
160.794,10
160.819,-46
160.844,-90
160.869,-130
160.894,-184
160.919,-248
160.944,-287
160.969,-259
160.994,-154
161.019,-7
161.044,126
161.069,218
161.094,280
161.119,339
161.144,400
161.169,448
161.194,466
161.219,459
161.244,445
161.269,433
161.294,414
161.319,381
161.344,338
161.369,298
161.394,265
161.419,225
161.444,172
161.469,111
161.494,53
161.519,-1
161.544,-65
161.569,-131
161.594,-167
161.619,-135
161.644,-39
161.669,70
161.694,146
161.719,182
161.744,214
161.769,270
161.794,331
161.819,356
161.844,332
161.869,298
161.894,300
161.919,345
161.944,397
161.969,421
161.994,420
162.019,420
162.044,429
162.069,426
162.094,390
162.119,331
162.144,275
162.169,223
162.194,151
162.219,40
162.244,-75
162.269,-132
162.294,-90
162.319,19
162.344,124
162.369,175
162.394,185
162.419,201
162.444,245
162.469,298
162.494,321
162.519,303
162.544,265
162.569,236
162.594,223
162.619,214
162.644,193
162.669,152
162.694,97
162.719,40
162.744,-3
162.769,-31
162.794,-53
162.819,-88
162.844,-146
162.869,-203
162.894,-219
162.919,-164
162.944,-51
162.969,73
162.994,169
163.019,232
163.044,279
163.069,327
163.094,364
163.119,369
163.144,333
163.169,274
163.194,223
163.219,197
163.244,189
163.269,180
163.294,156
163.319,119
163.344,80
163.369,52
163.394,34
163.419,9
163.444,-35
163.469,-96
163.494,-139
163.519,-125
163.544,-43
163.569,78
163.594,195
163.619,278
163.644,336
163.669,390
163.694,445
163.719,484
163.744,489
163.769,467
163.794,445
163.819,443
163.844,457
163.869,467
163.894,458
163.919,437
163.944,417
163.969,402
163.994,387
164.019,368
164.044,347
164.069,329
164.094,313
164.119,294
164.144,268
164.169,237
164.194,203
164.219,169
164.244,132
164.269,93
164.294,53
164.319,11
164.344,-34
164.369,-81
164.394,-123
164.419,-160
164.444,-201
164.469,-260
164.494,-330
164.519,-376
164.544,-355
164.569,-250
164.594,-96
164.619,50
164.644,151
164.669,214
164.694,271
164.719,339
164.744,399
164.769,427
164.794,417
164.819,394
164.844,387
164.869,401
164.894,413
164.919,406
164.944,382
164.969,355
164.994,333
165.019,310
165.044,274
165.069,227
165.094,181
165.119,143
165.144,106
165.169,61
165.194,12
165.219,-28
165.244,-60
165.269,-98
165.294,-156
165.319,-219
165.344,-244
165.369,-189
165.394,-60
165.419,95
165.444,223
165.469,305
165.494,361
165.519,414
165.544,463
165.569,489
165.594,480
165.619,451
165.644,429
165.669,423
165.694,423
165.719,411
165.744,381
165.769,341
165.794,301
165.819,264
165.844,225
165.869,179
165.894,125
165.919,65
165.944,7
165.969,-42
165.994,-82
166.019,-127
166.044,-190
166.069,-266
166.094,-314
166.119,-288
166.144,-175
166.169,-12
166.194,136
166.219,237
166.244,302
166.269,364
166.294,433
166.319,486
166.344,499
166.369,475
166.394,447
166.419,439
166.444,443
166.469,439
166.494,417
166.519,388
166.544,361
166.569,334
166.594,296
166.619,249
166.644,204
166.669,166
166.694,127
166.719,76
166.744,17
166.769,-33
166.794,-77
166.819,-133
166.844,-219
166.869,-313
166.894,-358
166.919,-305
166.944,-162
166.969,9
166.994,150
167.019,243
167.044,311
167.069,377
167.094,436
167.119,467
167.144,459
167.169,431
167.194,409
167.219,404
167.244,406
167.269,397
167.294,370
167.319,333
167.344,293
167.369,255
167.394,216
167.419,172
167.444,119
167.469,64
167.494,17
167.519,-19
167.544,-54
167.569,-108
167.594,-183
167.619,-249
167.644,-259
167.669,-181
167.694,-36
167.719,120
167.744,239
167.769,311
167.794,359
167.819,405
167.844,444
167.869,453
167.894,429
167.919,392
167.944,369
167.969,369
167.994,373
168.019,359
168.044,324
168.069,280
168.094,242
168.119,210
168.144,171
168.169,119
168.194,59
168.219,8
168.244,-28
168.269,-62
168.294,-114
168.319,-187
168.344,-256
168.369,-273
168.394,-205
168.419,-65
168.444,95
168.469,224
168.494,304
168.519,358
168.544,412
168.569,466
168.594,496
168.619,486
168.644,450
168.669,423
168.694,419
168.719,427
168.744,419
168.769,387
168.794,343
168.819,305
168.844,271
168.869,230
168.894,179
168.919,125
168.944,78
168.969,37
168.994,-8
169.019,-59
169.044,-103
169.069,-133
169.094,-163
169.119,-216
169.144,-284
169.169,-324
169.194,-286
169.219,-157
169.244,14
169.269,166
169.294,266
169.319,328
169.344,385
169.369,447
169.394,492
169.419,501
169.444,483
169.469,465
169.494,465
169.519,476
169.544,477
169.569,462
169.594,438
169.619,415
169.644,394
169.669,366
169.694,331
169.719,292
169.744,254
169.769,216
169.794,175
169.819,132
169.844,90
169.869,48
169.894,1
169.919,-49
169.944,-97
169.969,-135
169.994,-174
170.019,-229
170.044,-300
170.069,-350
170.094,-333
170.119,-231
170.144,-75
170.169,78
170.194,190
170.219,262
170.244,317
170.269,367
170.294,405
170.319,415
170.344,402
170.369,382
170.394,373
170.419,376
170.444,379
170.469,372
170.494,351
170.519,321
170.544,290
170.569,260
170.594,228
170.619,188
170.644,139
170.669,88
170.694,46
170.719,13
170.744,-25
170.769,-82
170.794,-147
170.819,-179
170.844,-140
170.869,-29
170.894,108
170.919,221
170.944,289
170.969,336
170.994,384
171.019,432
171.044,454
171.069,439
171.094,404
171.119,380
171.144,377
171.169,380
171.194,370
171.219,343
171.244,311
171.269,280
171.294,250
171.319,211
171.344,165
171.369,114
171.394,64
171.419,15
171.444,-29
171.469,-67
171.494,-105
171.519,-157
171.544,-227
171.569,-287
171.594,-290
171.619,-206
171.644,-57
171.669,94
171.694,203
171.719,271
171.744,331
171.769,404
171.794,472
171.819,504
171.844,489
171.869,454
171.894,430
171.919,423
171.944,416
171.969,393
171.994,356
172.019,315
172.044,274
172.069,229
172.094,179
172.119,130
172.144,87
172.169,49
172.194,9
172.219,-33
172.244,-74
172.269,-114
172.294,-167
172.319,-236
172.344,-298
172.369,-305
172.394,-227
172.419,-80
172.444,80
172.469,201
172.494,277
172.519,336
172.544,404
172.569,472
172.594,512
172.619,511
172.644,488
172.669,474
172.694,480
172.719,491
172.744,484
172.769,458
172.794,426
172.819,398
172.844,374
172.869,342
172.894,302
172.919,262
172.944,226
172.969,191
172.994,149
173.019,102
173.044,60
173.069,28
173.094,-1
173.119,-43
173.144,-94
173.169,-140
173.194,-172
173.219,-201
173.244,-250
173.269,-319
173.294,-371
173.319,-353
173.344,-242
173.369,-71
173.394,97
173.419,217
173.444,292
173.469,351
173.494,413
173.519,466
173.544,490
173.569,481
173.594,462
173.619,457
173.644,471
173.669,485
173.694,481
173.719,459
173.744,431
173.769,412
173.794,396
173.819,373
173.844,336
173.869,292
173.894,253
173.919,222
173.944,194
173.969,161
173.994,120
174.019,79
174.044,43
174.069,10
174.094,-28
174.119,-74
174.144,-121
174.169,-160
174.194,-192
174.219,-233
174.244,-292
174.269,-351
174.294,-367
174.319,-306
174.344,-169
174.369,-2
174.394,141
174.419,239
174.444,306
174.469,370
174.494,437
174.519,487
174.544,504
174.569,495
174.594,483
174.619,489
174.644,506
174.669,518
174.694,514
174.719,498
174.744,481
174.769,466
174.794,447
174.819,420
174.844,388
174.869,358
174.894,329
174.919,298
174.944,261
174.969,222
174.994,186
175.019,153
175.044,116
175.069,73
175.094,31
175.119,-5
175.144,-39
175.169,-77
175.194,-120
175.219,-161
175.244,-197
175.269,-236
175.294,-292
175.319,-357
175.344,-399
175.369,-376
175.394,-270
175.419,-114
175.444,39
175.469,153
175.494,230
175.519,297
175.544,368
175.569,432
175.594,468
175.619,470
175.644,461
175.669,462
175.694,479
175.719,495
175.744,495
175.769,478
175.794,458
175.819,443
175.844,428
175.869,402
175.894,363
175.919,320
175.944,284
175.969,254
175.994,221
176.019,180
176.044,136
176.069,97
176.094,63
176.119,26
176.144,-20
176.169,-69
176.194,-111
176.219,-146
176.244,-188
176.269,-248
176.294,-310
176.319,-332
176.344,-277
176.369,-147
176.394,9
176.419,140
176.444,225
176.469,283
176.494,346
176.519,417
176.544,470
176.569,486
176.594,471
176.619,456
176.644,461
176.669,481
176.694,492
176.719,482
176.744,459
176.769,436
176.794,415
176.819,388
176.844,350
176.869,305
176.894,265
176.919,230
176.944,193
176.969,147
176.994,98
177.019,54
177.044,13
177.069,-34
177.094,-92
177.119,-146
177.144,-187
177.169,-224
177.194,-278
177.219,-352
177.244,-413
177.269,-407
177.294,-308
177.319,-145
177.344,19
177.369,141
177.394,224
177.419,301
177.444,389
177.469,473
177.494,526
177.519,537
177.544,525
177.569,518
177.594,527
177.619,542
177.644,548
177.669,540
177.694,522
177.719,499
177.744,473
177.769,444
177.794,411
177.819,374
177.844,333
177.869,290
177.894,249
177.919,212
177.944,174
177.969,131
177.994,83
178.019,36
178.044,-6
178.069,-49
178.094,-99
178.119,-156
178.144,-208
178.169,-247
178.194,-286
178.219,-343
178.244,-414
178.269,-461
178.294,-434
178.319,-316
178.344,-143
178.369,20
178.394,141
178.419,225
178.444,305
178.469,391
178.494,467
178.519,509
178.544,514
178.569,505
178.594,504
178.619,516
178.644,528
178.669,528
178.694,517
178.719,500
178.744,481
178.769,458
178.794,432
178.819,400
178.844,365
178.869,329
178.894,295
178.919,265
178.944,237
178.969,205
178.994,166
179.019,123
179.044,85
179.069,53
179.094,21
179.119,-18
179.144,-62
179.169,-100
179.194,-130
179.219,-166
179.244,-220
179.269,-277
179.294,-294
179.319,-231
179.344,-92
179.369,75
179.394,214
179.419,302
179.444,358
179.469,409
179.494,462
179.519,498
179.544,495
179.569,461
179.594,419
179.619,394
179.644,387
179.669,380
179.694,359
179.719,324
179.744,284
179.769,247
179.794,212
179.819,172
179.844,129
179.869,88
179.894,56
179.919,29
179.944,-2
179.969,-43
179.994,-85
180.019,-116
180.044,-134
180.069,-153
180.094,-192
180.119,-244
180.144,-272
180.169,-236
180.194,-128
180.219,18
180.244,151
180.269,243
180.294,304
180.319,362
180.344,425
180.369,480
180.394,503
180.419,494
180.444,472
180.469,457
180.494,456
180.519,457
180.544,449
180.569,428
180.594,400
180.619,369
180.644,337
180.669,301
180.694,261
180.719,216
180.744,171
180.769,127
180.794,86
180.819,44
180.844,1
180.869,-38
180.894,-71
180.919,-99
180.944,-132
180.969,-181
180.994,-237
181.019,-269
181.044,-240
181.069,-140
181.094,-1
181.119,129
181.144,222
181.169,287
181.194,349
181.219,419
181.244,481
181.269,513
181.294,508
181.319,489
181.344,478
181.369,486
181.394,499
181.419,500
181.444,482
181.469,450
181.494,414
181.519,375
181.544,332
181.569,283
181.594,233
181.619,187
181.644,146
181.669,104
181.694,52
181.719,-8
181.744,-74
181.769,-135
181.794,-194
181.819,-259
181.844,-335
181.869,-402
181.894,-424
181.919,-374
181.944,-257
181.969,-116
181.994,6
182.019,94
182.044,163
182.069,237
182.094,313
182.119,371
182.144,395
182.169,393
182.194,390
182.219,402
182.244,424
182.269,440
182.294,439
182.319,427
182.344,417
182.369,412
182.394,405
182.419,389
182.444,365
182.469,341
182.494,319
182.519,302
182.544,286
182.569,274
182.594,268
182.619,263
182.644,254
182.669,237
182.694,214
182.719,187
182.744,155
182.769,110
182.794,48
182.819,-24
182.844,-92
182.869,-145
182.894,-188
182.919,-241
182.944,-308
182.969,-371
182.994,-391
183.019,-336
183.044,-212
183.069,-62
183.094,67
183.119,158
183.144,226
183.169,298
183.194,380
183.219,452
183.244,489
183.269,490
183.294,475
183.319,471
183.344,482
183.369,497
183.394,499
183.419,486
183.444,467
183.469,448
183.494,430
183.519,410
183.544,386
183.569,362
183.594,338
183.619,314
183.644,288
183.669,261
183.694,236
183.719,210
183.744,181
183.769,146
183.794,110
183.819,74
183.844,34
183.869,-14
183.894,-70
183.919,-123
183.944,-169
183.969,-216
183.994,-280
184.019,-356
184.044,-410
184.069,-396
184.094,-295
184.119,-136
184.144,20
184.169,134
184.194,208
184.219,272
184.244,346
184.269,415
184.294,453
184.319,452
184.344,431
184.369,419
184.394,424
184.419,433
184.444,427
184.469,405
184.494,379
184.519,356
184.544,333
184.569,302
184.594,262
184.619,220
184.644,178
184.669,137
184.694,93
184.719,49
184.744,10
184.769,-27
184.794,-77
184.819,-145
184.844,-211
184.869,-236
184.894,-187
184.919,-71
184.944,67
184.969,183
184.994,259
185.019,310
185.044,361
185.069,412
185.094,446
185.119,447
185.144,423
185.169,398
185.194,391
185.219,395
185.244,394
185.269,377
185.294,349
185.319,320
185.344,291
185.369,255
185.394,209
185.419,159
185.444,111
185.469,66
185.494,19
185.519,-30
185.544,-77
185.569,-115
185.594,-154
185.619,-209
185.644,-276
185.669,-321
185.694,-301
185.719,-201
185.744,-51
185.769,90
185.794,190
185.819,256
185.844,319
185.869,398
185.894,474
185.919,516
185.944,515
185.969,491
185.994,477
186.019,486
186.044,504
186.069,511
186.094,501
186.119,481
186.144,460
186.169,439
186.194,415
186.219,385
186.244,355
186.269,328
186.294,303
186.319,275
186.344,244
186.369,210
186.394,176
186.419,138
186.444,97
186.469,56
186.494,20
186.519,-11
186.544,-47
186.569,-91
186.594,-137
186.619,-173
186.644,-200
186.669,-236
186.694,-297
186.719,-372
186.744,-418
186.769,-390
186.794,-275
186.819,-113
186.844,34
186.869,134
186.894,195
186.919,252
186.944,321
186.969,387
186.994,421
187.019,417
187.044,394
187.069,381
187.094,388
187.119,403
187.144,411
187.169,409
187.194,404
187.219,402
187.244,397
187.269,381
187.294,355
187.319,324
187.344,296
187.369,270
187.394,243
187.419,214
187.444,187
187.469,158
187.494,123
187.519,81
187.544,36
187.569,-5
187.594,-49
187.619,-107
187.644,-177
187.669,-230
187.694,-224
187.719,-140
187.744,-5
187.769,129
187.794,226
187.819,287
187.844,339
187.869,396
187.894,446
187.919,465
187.944,450
187.969,418
187.994,389
188.019,365
188.044,338
188.069,303
188.094,267
188.119,239
188.144,216
188.169,191
188.194,158
188.219,121
188.244,84
188.269,51
188.294,19
188.319,-10
188.344,-37
188.369,-68
188.394,-116
188.419,-178
188.444,-228
188.469,-226
188.494,-152
188.519,-27
188.544,102
188.569,199
188.594,264
188.619,321
188.644,385
188.669,446
188.694,479
188.719,478
188.744,460
188.769,450
188.794,456
188.819,465
188.844,464
188.869,450
188.894,429
188.919,408
188.944,385
188.969,355
188.994,318
189.019,281
189.044,248
189.069,216
189.094,178
189.119,133
189.144,88
189.169,50
189.194,17
189.219,-17
189.244,-60
189.269,-105
189.294,-144
189.319,-176
189.344,-218
189.369,-282
189.394,-349
189.419,-377
189.444,-327
189.469,-198
189.494,-36
189.519,103
189.544,197
189.569,265
189.594,337
189.619,418
189.644,482
189.669,506
189.694,497
189.719,482
189.744,483
189.769,496
189.794,501
189.819,489
189.844,465
189.869,441
189.894,418
189.919,391
189.944,355
189.969,315
189.994,276
190.019,239
190.044,201
190.069,162
190.094,123
190.119,84
190.144,40
190.169,-6
190.194,-48
190.219,-82
190.244,-118
190.269,-170
190.294,-239
190.319,-290
190.344,-279
190.369,-189
190.394,-50
190.419,81
190.444,173
190.469,230
190.494,278
190.519,329
190.544,368
190.569,376
190.594,357
190.619,335
190.644,330
190.669,342
190.694,354
190.719,351
190.744,331
190.769,303
190.794,272
190.819,240
190.844,204
190.869,162
190.894,117
190.919,73
190.944,34
190.969,0
190.994,-40
191.019,-95
191.044,-154
191.069,-188
191.094,-162
191.119,-70
191.144,58
191.169,176
191.194,260
191.219,317
191.244,373
191.269,435
191.294,486
191.319,504
191.344,488
191.369,459
191.394,441
191.419,438
191.444,438
191.469,429
191.494,408
191.519,380
191.544,348
191.569,312
191.594,273
191.619,232
191.644,194
191.669,157
191.694,119
191.719,78
191.744,34
191.769,-11
191.794,-54
191.819,-90
191.844,-124
191.869,-167
191.894,-227
191.919,-294
191.944,-332
191.969,-302
191.994,-198
192.019,-54
192.044,78
192.069,171
192.094,238
192.119,305
192.144,381
192.169,443
192.194,467
192.219,455
192.244,434
192.269,428
192.294,435
192.319,437
192.344,423
192.369,398
192.394,372
192.419,346
192.444,313
192.469,273
192.494,232
192.519,196
192.544,161
192.569,122
192.594,78
192.619,36
192.644,-3
192.669,-52
192.694,-114
192.719,-172
192.744,-189
192.769,-141
192.794,-41
192.819,66
192.844,147
192.869,199
192.894,246
192.919,299
192.944,343
192.969,357
192.994,338
193.019,308
193.044,292
193.069,291
193.094,290
193.119,274
193.144,245
193.169,215
193.194,188
193.219,160
193.244,124
193.269,84
193.294,40
193.319,-11
193.344,-71
193.369,-125
193.394,-142
193.419,-100
193.444,-6
193.469,103
193.494,191
193.519,251
193.544,299
193.569,351
193.594,399
193.619,419
193.644,402
193.669,365
193.694,335
193.719,323
193.744,317
193.769,301
193.794,269
193.819,232
193.844,201
193.869,170
193.894,130
193.919,79
193.944,30
193.969,-5
193.994,-34
194.019,-75
194.044,-136
194.069,-198
194.094,-220
194.119,-172
194.144,-63
194.169,67
194.194,177
194.219,254
194.244,314
194.269,379
194.294,445
194.319,491
194.344,500
194.369,481
194.394,459
194.419,453
194.444,461
194.469,466
194.494,456
194.519,438
194.544,420
194.569,405
194.594,383
194.619,352
194.644,317
194.669,287
194.694,264
194.719,243
194.744,215
194.769,181
194.794,147
194.819,116
194.844,83
194.869,45
194.894,3
194.919,-37
194.944,-76
194.969,-119
194.994,-167
195.019,-211
195.044,-245
195.069,-276
195.094,-320
195.119,-381
195.144,-428
195.169,-416
195.194,-319
195.219,-159
195.244,7
195.269,135
195.294,221
195.319,293
195.344,374
195.369,458
195.394,519
195.419,539
195.444,532
195.469,524
195.494,529
195.519,541
195.544,546
195.569,534
195.594,512
195.619,489
195.644,468
195.669,442
195.694,409
195.719,371
195.744,335
195.769,303
195.794,271
195.819,233
195.844,189
195.869,144
195.894,104
195.919,66
195.944,24
195.969,-24
195.994,-72
196.019,-111
196.044,-144
196.069,-186
196.094,-247
196.119,-310
196.144,-335
196.169,-284
196.194,-159
196.219,-4
196.244,126
196.269,212
196.294,272
196.319,333
196.344,401
196.369,451
196.394,463
196.419,443
196.444,422
196.469,421
196.494,436
196.519,442
196.544,426
196.569,396
196.594,369
196.619,347
196.644,319
196.669,278
196.694,228
196.719,183
196.744,142
196.769,98
196.794,46
196.819,-4
196.844,-46
196.869,-87
196.894,-143
196.919,-215
196.944,-274
196.969,-274
196.994,-194
197.019,-60
197.044,75
197.069,177
197.094,246
197.119,307
197.144,374
197.169,430
197.194,457
197.219,449
197.244,425
197.269,408
197.294,403
197.319,401
197.344,389
197.369,362
197.394,326
197.419,286
197.444,245
197.469,205
197.494,161
197.519,113
197.544,62
197.569,13
197.594,-29
197.619,-70
197.644,-123
197.669,-192
197.694,-257
197.719,-282
197.744,-233
197.769,-115
197.794,31
197.819,157
197.844,241
197.869,298
197.894,355
197.919,416
197.944,463
197.969,474
197.994,455
198.019,431
198.044,425
198.069,439
198.094,450
198.119,444
198.144,420
198.169,394
198.194,373
198.219,353
198.244,322
198.269,278
198.294,232
198.319,190
198.344,147
198.369,94
198.394,32
198.419,-27
198.444,-75
198.469,-119
198.494,-180
198.519,-258
198.544,-321
198.569,-320
198.594,-233
198.619,-86
198.644,65
198.669,180
198.694,259
198.719,323
198.744,385
198.769,435
198.794,454
198.819,440
198.844,411
198.869,391
198.894,384
198.919,382
198.944,369
198.969,342
198.994,304
199.019,258
199.044,210
199.069,162
199.094,114
199.119,65
199.144,15
199.169,-30
199.194,-66
199.219,-94
199.244,-130
199.269,-183
199.294,-239
199.319,-257
199.344,-206
199.369,-86
199.394,61
199.419,187
199.444,273
199.469,334
199.494,392
199.519,445
199.544,476
199.569,468
199.594,434
199.619,399
199.644,384
199.669,382
199.694,373
199.719,345
199.744,303
199.769,263
199.794,232
199.819,202
199.844,164
199.869,117
199.894,72
199.919,39
199.944,11
199.969,-27
199.994,-87
200.019,-148
200.044,-171
200.069,-124
200.094,-15
200.119,113
200.144,218
200.169,288
200.194,337
200.219,386
200.244,430
200.269,449
200.294,435
200.319,403
200.344,383
200.369,384
200.394,394
200.419,393
200.444,373
200.469,344
200.494,318
200.519,296
200.544,270
200.569,238
200.594,203
200.619,169
200.644,137
200.669,107
200.694,76
200.719,44
200.744,10
200.769,-29
200.794,-70
200.819,-104
200.844,-130
200.869,-159
200.894,-206
200.919,-267
200.944,-305
200.969,-278
200.994,-175
201.019,-29
201.044,105
201.069,198
201.094,259
201.119,314
201.144,377
201.169,433
201.194,461
201.219,457
201.244,438
201.269,428
201.294,434
201.319,445
201.344,445
201.369,432
201.394,413
201.419,393
201.444,371
201.469,338
201.494,292
201.519,242
201.544,199
201.569,164
201.594,128
201.619,81
201.644,28
201.669,-17
201.694,-47
201.719,-75
201.744,-121
201.769,-186
201.794,-239
201.819,-234
201.844,-154
201.869,-24
201.894,100
201.919,186
201.944,238
201.969,283
201.994,334
202.019,379
202.044,395
202.069,379
202.094,352
202.119,335
202.144,335
202.169,338
202.194,329
202.219,304
202.244,271
202.269,240
202.294,212
202.319,184
202.344,151
202.369,112
202.394,69
202.419,31
202.444,0
202.469,-31
202.494,-77
202.519,-138
202.544,-189
202.569,-190
202.594,-118
202.619,8
202.644,142
202.669,241
202.694,302
202.719,351
202.744,404
202.769,449
202.794,465
202.819,450
202.844,428
202.869,422
202.894,433
202.919,436
202.944,415
202.969,378
202.994,344
203.019,320
203.044,292
203.069,247
203.094,192
203.119,141
203.144,100
203.169,61
203.194,13
203.219,-37
203.244,-82
203.269,-122
203.294,-173
203.319,-239
203.344,-294
203.369,-289
203.394,-202
203.419,-60
203.444,80
203.469,180
203.494,245
203.519,304
203.544,370
203.569,423
203.594,439
203.619,420
203.644,395
203.669,388
203.694,397
203.719,400
203.744,384
203.769,355
203.794,327
203.819,302
203.844,269
203.869,225
203.894,178
203.919,137
203.944,100
203.969,59
203.994,12
204.019,-29
204.044,-63
204.069,-100
204.094,-154
204.119,-218
204.144,-251
204.169,-213
204.194,-99
204.219,47
204.244,174
204.269,259
204.294,322
204.319,386
204.344,451
204.369,494
204.394,499
204.419,478
204.444,460
204.469,458
204.494,466
204.519,466
204.544,452
204.569,431
204.594,407
204.619,381
204.644,350
204.669,313
204.694,274
204.719,236
204.744,195
204.769,152
204.794,109
204.819,68
204.844,26
204.869,-20
204.894,-69
204.919,-110
204.944,-140
204.969,-173
204.994,-226
205.019,-293
205.044,-334
205.069,-305
205.094,-196
205.119,-44
205.144,92
205.169,184
205.194,242
205.219,295
205.244,353
205.269,396
205.294,404
205.319,382
205.344,357
205.369,352
205.394,364
205.419,370
205.444,354
205.469,321
205.494,289
205.519,266
205.544,243
205.569,207
205.594,158
205.619,111
205.644,76
205.669,44
205.694,-3
205.719,-67
205.744,-118
205.769,-118
205.794,-50
205.819,59
205.844,167
205.869,246
205.894,297
205.919,340
205.944,383
205.969,413
205.994,415
206.019,392
206.044,363
206.069,347
206.094,345
206.119,343
206.144,329
206.169,301
206.194,264
206.219,227
206.244,191
206.269,155
206.294,116
206.319,74
206.344,32
206.369,-4
206.394,-35
206.419,-69
206.444,-115
206.469,-170
206.494,-206
206.519,-189
206.544,-104
206.569,24
206.594,150
206.619,239
206.644,296
206.669,343
206.694,394
206.719,436
206.744,448
206.769,429
206.794,402
206.819,389
206.844,392
206.869,395
206.894,384
206.919,361
206.944,334
206.969,305
206.994,272
207.019,234
207.044,196
207.069,161
207.094,124
207.119,79
207.144,30
207.169,-11
207.194,-46
207.219,-88
207.244,-149
207.269,-212
207.294,-235
207.319,-185
207.344,-72
207.369,50
207.394,136
207.419,177
207.444,204
207.469,246
207.494,298
207.519,334
207.544,337
207.569,321
207.594,313
207.619,318
207.644,319
207.669,294
207.694,247
207.719,200
207.744,175
207.769,168
207.794,156
207.819,125
207.844,83
207.869,49
207.894,29
207.919,8
207.944,-25
207.969,-61
207.994,-67
208.019,-12
208.044,95
208.069,219
208.094,316
208.119,372
208.144,404
208.169,429
208.194,448
208.219,445
208.244,413
208.269,369
208.294,340
208.319,333
208.344,333
208.369,314
208.394,271
208.419,220
208.444,180
208.469,151
208.494,119
208.519,74
208.544,23
208.569,-23
208.594,-68
208.619,-125
208.644,-190
208.669,-235
208.694,-221
208.719,-138
208.744,-14
208.769,103
208.794,190
208.819,253
208.844,311
208.869,366
208.894,398
208.919,395
208.944,371
208.969,350
208.994,348
209.019,352
209.044,340
209.069,310
209.094,272
209.119,236
209.144,201
209.169,156
209.194,107
209.219,65
209.244,33
209.269,-8
209.294,-74
209.319,-151
209.344,-192
209.369,-158
209.394,-52
209.419,83
209.444,206
209.469,307
209.494,404
209.519,504
209.544,588
209.569,629
209.594,621
209.619,587
209.644,557
209.669,541
209.694,525
209.719,491
209.744,433
209.769,357
209.794,275
209.819,196
209.844,130
209.869,76
209.894,20
209.919,-53
209.944,-145
209.969,-222
209.994,-241
210.019,-187
210.044,-93
210.069,-10
210.094,35
210.119,55
210.144,80
210.169,118
210.194,151
210.219,162
210.244,156
210.269,157
210.294,176
210.319,196
210.344,193
210.369,159
210.394,111
210.419,71
210.444,46
210.469,29
210.494,5
210.519,-29
210.544,-72
210.569,-114
210.594,-139
210.619,-123
210.644,-54
210.669,55
210.694,175
210.719,274
210.744,344
210.769,399
210.794,450
210.819,488
210.844,495
210.869,466
210.894,422
210.919,389
210.944,377
210.969,370
210.994,345
211.019,298
211.044,241
211.069,189
211.094,144
211.119,92
211.144,25
211.169,-51
211.194,-113
211.219,-133
211.244,-99
211.269,-23
211.294,71
211.319,163
211.344,247
211.369,325
211.394,392
211.419,428
211.444,411
211.469,342
211.494,252
211.519,181
211.544,151
211.569,150
211.594,150
211.619,141
211.644,133
211.669,138
211.694,152
211.719,154
211.744,128
211.769,79
211.794,20
211.819,-36
211.844,-91
211.869,-137
211.894,-155
211.919,-124
211.944,-44
211.969,61
211.994,167
212.019,257
212.044,329
212.069,382
212.094,408
212.119,401
212.144,375
212.169,357
212.194,363
212.219,385
212.244,403
212.269,410
212.294,415
212.319,428
212.344,440
212.369,431
212.394,387
212.419,323
212.444,260
212.469,208
212.494,160
212.519,106
212.544,54
212.569,20
212.594,3
212.619,-18
212.644,-64
212.669,-122
212.694,-148
212.719,-107
212.744,-5
212.769,114
212.794,210
212.819,269
212.844,308
212.869,341
212.894,365
212.919,370
212.944,350
212.969,315
212.994,282
213.019,258
213.044,244
213.069,237
213.094,234
213.119,225
213.144,202
213.169,167
213.194,132
213.219,110
213.244,98
213.269,80
213.294,49
213.319,15
213.344,-5
213.369,-14
213.394,-37
213.419,-91
213.444,-156
213.469,-180
213.494,-126
213.519,-5
213.544,126
213.569,224
213.594,280
213.619,322
213.644,366
213.669,401
213.694,408
213.719,386
213.744,363
213.769,359
213.794,374
213.819,385
213.844,376
213.869,350
213.894,315
213.919,268
213.944,204
213.969,129
213.994,58
214.019,1
214.044,-53
214.069,-123
214.094,-199
214.119,-242
214.144,-210
214.169,-102
214.194,35
214.219,154
214.244,235
214.269,291
214.294,341
214.319,379
214.344,388
214.369,364
214.394,330
214.419,307
214.444,300
214.469,292
214.494,267
214.519,227
214.544,184
214.569,143
214.594,103
214.619,65
214.644,29
214.669,-7
214.694,-57
214.719,-127
214.744,-192
214.769,-206
214.794,-139
214.819,-8
214.844,131
214.869,230
214.894,288
214.919,334
214.944,389
214.969,443
214.994,473
215.019,474
215.044,463
215.069,457
215.094,453
215.119,437
215.144,404
215.169,366
215.194,331
215.219,294
215.244,245
215.269,188
215.294,137
215.319,91
215.344,37
215.369,-30
215.394,-82
215.419,-65
215.444,35
215.469,180
215.494,305
215.519,376
215.544,405
215.569,402
215.594,328
215.619,131
215.644,-177
215.669,-479
215.694,-614
215.719,-504
215.744,-218
215.769,86
215.794,281
215.819,345
215.844,342
215.869,337
215.894,352
215.919,362
215.944,339
215.969,272
215.994,177
216.019,88
216.044,42
216.069,67
216.094,156
216.119,272
216.144,367
216.169,416
216.194,426
216.219,418
216.244,406
216.269,389
216.294,360
216.319,322
216.344,283
216.369,247
216.394,215
216.419,187
216.444,161
216.469,143
216.494,132
216.519,128
216.544,126
216.569,112
216.594,75
216.619,17
216.644,-30
216.669,-32
216.694,33
216.719,140
216.744,239
216.769,290
216.794,293
216.819,281
216.844,275
216.869,272
216.894,254
216.919,219
216.944,191
216.969,193
216.994,225
217.019,264
217.044,279
217.069,262
217.094,221
217.119,171
217.144,120
217.169,64
217.194,-3
217.219,-86
217.244,-167
217.269,-222
217.294,-223
217.319,-163
217.344,-60
217.369,50
217.394,143
217.419,215
217.444,277
217.469,329
217.494,362
217.519,361
217.544,335
217.569,308
217.594,300
217.619,311
217.644,317
217.669,301
217.694,260
217.719,211
217.744,165
217.769,116
217.794,52
217.819,-27
217.844,-102
217.869,-135
217.894,-103
217.919,-16
217.944,91
217.969,181
217.994,239
218.019,269
218.044,285
218.069,292
218.094,285
218.119,265
218.144,245
218.169,236
218.194,242
218.219,249
218.244,239
218.269,208
218.294,166
218.319,127
218.344,93
218.369,59
218.394,23
218.419,1
218.444,18
218.469,89
218.494,203
218.519,328
218.544,434
218.569,506
218.594,552
218.619,580
218.644,584
218.669,552
218.694,482
218.719,396
218.744,324
218.769,283
218.794,259
218.819,223
218.844,166
218.869,101
218.894,43
218.919,-9
218.944,-76
218.969,-159
218.994,-228
219.019,-236
219.044,-165
219.069,-41
219.094,85
219.119,179
219.144,237
219.169,273
219.194,289
219.219,280
219.244,250
219.269,222
219.294,220
219.319,245
219.344,271
219.369,269
219.394,230
219.419,168
219.444,108
219.469,60
219.494,23
219.519,-14
219.544,-66
219.569,-128
219.594,-179
219.619,-185
219.644,-123
219.669,-4
219.694,128
219.719,230
219.744,284
219.769,308
219.794,327
219.819,346
219.844,353
219.869,340
219.894,315
219.919,298
219.944,294
219.969,295
219.994,289
220.019,274
220.044,252
220.069,229
220.094,208
220.119,194
220.144,186
220.169,168
220.194,117
220.219,31
220.244,-55
220.269,-84
220.294,-21
220.319,113
220.344,256
220.369,353
220.394,397
220.419,414
220.444,425
220.469,423
220.494,396
220.519,351
220.544,316
220.569,307
220.594,313
220.619,307
220.644,278
220.669,230
220.694,177
220.719,119
220.744,58
220.769,0
220.794,-43
220.819,-71
220.844,-103
220.869,-151
220.894,-197
220.919,-197
220.944,-119
220.969,21
220.994,172
221.019,283
221.044,342
221.069,368
221.094,382
221.119,384
221.144,367
221.169,336
221.194,306
221.219,288
221.244,275
221.269,255
221.294,227
221.319,203
221.344,191
221.369,180
221.394,151
221.419,104
221.444,56
221.469,23
221.494,-3
221.519,-45
221.544,-107
221.569,-157
221.594,-147
221.619,-60
221.644,74
221.669,199
221.694,281
221.719,325
221.744,355
221.769,383
221.794,401
221.819,400
221.844,390
221.869,385
221.894,391
221.919,396
221.944,387
221.969,363
221.994,333
222.019,299
222.044,251
222.069,189
222.094,128
222.119,85
222.144,57
222.169,17
222.194,-51
222.219,-129
222.244,-164
222.269,-118
222.294,-3
222.319,129
222.344,232
222.369,293
222.394,325
222.419,345
222.444,351
222.469,339
222.494,316
222.519,294
222.544,281
222.569,266
222.594,239
222.619,199
222.644,156
222.669,122
222.694,99
222.719,80
222.744,60
222.769,29
222.794,-19
222.819,-87
222.844,-154
222.869,-181
222.894,-135
222.919,-19
222.944,130
222.969,262
222.994,349
223.019,392
223.044,402
223.069,386
223.094,347
223.119,293
223.144,245
223.169,223
223.194,227
223.219,235
223.244,225
223.269,193
223.294,149
223.319,111
223.344,78
223.369,40
223.394,-14
223.419,-73
223.444,-108
223.469,-85
223.494,5
223.519,141
223.544,282
223.569,389
223.594,453
223.619,484
223.644,497
223.669,501
223.694,496
223.719,484
223.744,470
223.769,458
223.794,437
223.819,396
223.844,332
223.869,258
223.894,190
223.919,127
223.944,57
223.969,-31
223.994,-122
224.019,-177
224.044,-162
224.069,-77
224.094,42
224.119,153
224.144,231
224.169,275
224.194,295
224.219,293
224.244,264
224.269,213
224.294,161
224.319,129
224.344,121
224.369,117
224.394,93
224.419,41
224.444,-17
224.469,-64
224.494,-95
224.519,-129
224.544,-180
224.569,-229
224.594,-235
224.619,-163
224.644,-23
224.669,136
224.694,267
224.719,347
224.744,392
224.769,423
224.794,444
224.819,445
224.844,423
224.869,394
224.894,377
224.919,375
224.944,367
224.969,333
224.994,275
225.019,218
225.044,177
225.069,138
225.094,74
225.119,-17
225.144,-98
225.169,-111
225.194,-32
225.219,109
225.244,248
225.269,341
225.294,386
225.319,413
225.344,440
225.369,453
225.394,433
225.419,378
225.444,317
225.469,278
225.494,264
225.519,247
225.544,204
225.569,138
225.594,72
225.619,24
225.644,-16
225.669,-70
225.694,-139
225.719,-194
225.744,-193
225.769,-116
225.794,15
225.819,154
225.844,260
225.869,322
225.894,356
225.919,376
225.944,387
225.969,381
225.994,355
226.019,321
226.044,296
226.069,285
226.094,273
226.119,244
226.144,193
226.169,138
226.194,99
226.219,73
226.244,38
226.269,-22
226.294,-94
226.319,-127
226.344,-80
226.369,39
226.394,184
226.419,295
226.444,353
226.469,374
226.494,380
226.519,373
226.544,339
226.569,278
226.594,216
226.619,185
226.644,191
226.669,205
226.694,195
226.719,154
226.744,107
226.769,75
226.794,56
226.819,26
226.844,-29
226.869,-90
226.894,-115
226.919,-73
226.944,31
226.969,161
226.994,271
227.019,338
227.044,366
227.069,371
227.094,363
227.119,344
227.144,315
227.169,286
227.194,270
227.219,269
227.244,268
227.269,249
227.294,208
227.319,163
227.344,133
227.369,117
227.394,91
227.419,33
227.444,-44
227.469,-99
227.494,-84
227.519,6
227.544,136
227.569,255
227.594,332
227.619,369
227.644,383
227.669,384
227.694,370
227.719,340
227.744,300
227.769,264
227.794,242
227.819,229
227.844,212
227.869,180
227.894,134
227.919,85
227.944,46
227.969,19
227.994,-7
228.019,-49
228.044,-100
228.069,-134
228.094,-114
228.119,-28
228.144,98
228.169,217
228.194,291
228.219,320
228.244,327
228.269,338
228.294,361
228.319,390
228.344,417
228.369,446
228.394,480
228.419,510
228.444,517
228.469,484
228.494,413
228.519,325
228.544,245
228.569,184
228.594,128
228.619,56
228.644,-41
228.669,-145
228.694,-215
228.719,-218
228.744,-152
228.769,-50
228.794,45
228.819,108
228.844,140
228.869,154
228.894,156
228.919,146
228.944,124
228.969,105
228.994,105
229.019,125
229.044,150
229.069,158
229.094,145
229.119,123
229.144,105
229.169,87
229.194,52
229.219,-6
229.244,-71
229.269,-99
229.294,-60
229.319,43
229.344,172
229.369,283
229.394,351
229.419,382
229.444,396
229.469,399
229.494,388
229.519,357
229.544,315
229.569,280
229.594,261
229.619,247
229.644,221
229.669,176
229.694,128
229.719,96
229.744,77
229.769,48
229.794,-6
229.819,-73
229.844,-108
229.869,-72
229.894,35
229.919,175
229.944,296
229.969,372
229.994,410
230.019,431
230.044,442
230.069,440
230.094,422
230.119,398
230.144,384
230.169,381
230.194,374
230.219,348
230.244,303
230.269,260
230.294,237
230.319,231
230.344,223
230.369,193
230.394,147
230.419,115
230.444,130
230.469,197
230.494,294
230.519,386
230.544,452
230.569,496
230.594,529
230.619,557
230.644,576
230.669,580
230.694,576
230.719,569
230.744,549
230.769,479
230.794,326
230.819,88
230.844,-184
230.869,-424
230.894,-587
230.919,-677
230.944,-724
230.969,-737
230.994,-693
231.019,-563
231.044,-359
231.069,-139
231.094,30
231.119,125
231.144,166
231.169,188
231.194,196
231.219,172
231.244,111
231.269,39
231.294,-5
231.319,-1
231.344,38
231.369,95
231.394,163
231.419,245
231.444,327
231.469,373
231.494,348
231.519,261
231.544,168
231.569,129
231.594,169
231.619,264
231.644,366
231.669,439
231.694,476
231.719,482
231.744,468
231.769,442
231.794,406
231.819,366
231.844,325
231.869,285
231.894,250
231.919,218
231.944,183
231.969,141
231.994,97
232.019,66
232.044,59
232.069,63
232.094,48
232.119,0
232.144,-53
232.169,-63
232.194,7
232.219,141
232.244,281
232.269,377
232.294,416
232.319,419
232.344,409
232.369,391
232.394,369
232.419,350
232.444,348
232.469,364
232.494,382
232.519,385
232.544,366
232.569,334
232.594,296
232.619,254
232.644,209
232.669,166
232.694,131
232.719,96
232.744,46
232.769,-17
232.794,-63
232.819,-51
232.844,31
232.869,149
232.894,243
232.919,276
232.944,258
232.969,221
232.994,186
233.019,152
233.044,112
233.069,75
233.094,56
233.119,60
233.144,67
233.169,58
233.194,32
233.219,11
233.244,10
233.269,18
233.294,7
233.319,-35
233.344,-90
233.369,-115
233.394,-79
233.419,18
233.444,149
233.469,272
233.494,360
233.519,402
233.544,407
233.569,392
233.594,371
233.619,351
233.644,331
233.669,311
233.694,294
233.719,282
233.744,269
233.769,244
233.794,201
233.819,152
233.844,115
233.869,93
233.894,65
233.919,15
233.944,-49
233.969,-91
233.994,-69
234.019,22
234.044,151
234.069,269
234.094,347
234.119,386
234.144,399
234.169,398
234.194,386
234.219,367
234.244,345
234.269,325
234.294,307
234.319,288
234.344,265
234.369,236
234.394,197
234.419,151
234.444,106
234.469,66
234.494,28
234.519,-19
234.544,-83
234.569,-143
234.594,-159
234.619,-103
234.644,16
234.669,156
234.694,267
234.719,327
234.744,346
234.769,346
234.794,339
234.819,327
234.844,310
234.869,290
234.894,274
234.919,261
234.944,250
234.969,235
234.994,212
235.019,179
235.044,141
235.069,105
235.094,76
235.119,43
235.144,-4
235.169,-69
235.194,-121
235.219,-122
235.244,-48
235.269,82
235.294,223
235.319,329
235.344,387
235.369,409
235.394,413
235.419,405
235.444,386
235.469,358
235.494,333
235.519,316
235.544,303
235.569,285
235.594,256
235.619,213
235.644,161
235.669,107
235.694,58
235.719,16
235.744,-26
235.769,-84
235.794,-151
235.819,-200
235.844,-185
235.869,-86
235.894,71
235.919,229
235.944,336
235.969,382
235.994,389
236.019,386
236.044,377
236.069,357
236.094,328
236.119,304
236.144,297
236.169,299
236.194,286
236.219,245
236.244,187
236.269,136
236.294,103
236.319,73
236.344,20
236.369,-59
236.394,-139
236.419,-173
236.444,-132
236.469,-20
236.494,123
236.519,254
236.544,341
236.569,381
236.594,389
236.619,382
236.644,368
236.669,349
236.694,325
236.719,303
236.744,290
236.769,283
236.794,268
236.819,234
236.844,183
236.869,135
236.894,100
236.919,67
236.944,9
236.969,-83
236.994,-181
237.019,-227
237.044,-177
237.069,-35
237.094,151
237.119,320
237.144,433
237.169,485
237.194,491
237.219,468
237.244,431
237.269,394
237.294,366
237.319,346
237.344,331
237.369,314
237.394,291
237.419,260
237.444,221
237.469,174
237.494,125
237.519,79
237.544,33
237.569,-30
237.594,-119
237.619,-212
237.644,-261
237.669,-230
237.694,-122
237.719,17
237.744,132
237.769,197
237.794,224
237.819,236
237.844,244
237.869,244
237.894,234
237.919,222
237.944,221
237.969,235
237.994,255
238.019,266
238.044,260
238.069,235
238.094,202
238.119,170
238.144,144
238.169,114
238.194,70
238.219,14
238.244,-22
238.269,0
238.294,97
238.319,240
238.344,366
238.369,429
238.394,430
238.419,405
238.444,385
238.469,370
238.494,348
238.519,318
238.544,294
238.569,286
238.594,280
238.619,250
238.644,192
238.669,128
238.694,83
238.719,57
238.744,24
238.769,-33
238.794,-98
238.819,-128
238.844,-89
238.869,9
238.894,130
238.919,230
238.944,289
238.969,313
238.994,316
239.019,308
239.044,288
239.069,260
239.094,233
239.119,217
239.144,210
239.169,198
239.194,169
239.219,124
239.244,77
239.269,42
239.294,14
239.319,-24
239.344,-85
239.369,-145
239.394,-163
239.419,-112
239.444,-3
239.469,119
239.494,217
239.519,277
239.544,313
239.569,336
239.594,347
239.619,339
239.644,317
239.669,296
239.694,286
239.719,283
239.744,276
239.769,259
239.794,230
239.819,194
239.844,155
239.869,114
239.894,73
239.919,33
239.944,-12
239.969,-65
239.994,-106
240.019,-105
240.044,-38
240.069,83
240.094,218
240.119,325
240.144,394
240.169,445
240.194,495
240.219,536
240.244,548
240.269,525
240.294,494
240.319,485
240.344,503
240.369,518
240.394,501
240.419,448
240.444,388
240.469,346
240.494,322
240.519,297
240.544,257
240.569,206
240.594,161
240.619,126
240.644,87
240.669,33
240.694,-31
240.719,-91
240.744,-130
240.769,-148
240.794,-152
240.819,-152
240.844,-154
240.869,-168
240.894,-206
240.919,-263
240.944,-311
240.969,-308
240.994,-231
241.019,-98
241.044,43
241.069,155
241.094,231
241.119,294
241.144,360
241.169,421
241.194,453
241.219,449
241.244,429
241.269,421
241.294,430
241.319,440
241.344,431
241.369,406
241.394,378
241.419,359
241.444,341
241.469,310
241.494,265
241.519,221
241.544,190
241.569,166
241.594,135
241.619,91
241.644,45
241.669,14
241.694,-7
241.719,-41
241.744,-103
241.769,-173
241.794,-203
241.819,-163
241.844,-61
241.869,55
241.894,149
241.919,214
241.944,269
241.969,326
241.994,379
242.019,407
242.044,405
242.069,387
242.094,371
242.119,362
242.144,355
242.169,343
242.194,327
242.219,307
242.244,281
242.269,245
242.294,205
242.319,169
242.344,141
242.369,113
242.394,77
242.419,38
242.444,6
242.469,-17
242.494,-53
242.519,-114
242.544,-185
242.569,-222
242.594,-185
242.619,-81
242.644,47
242.669,157
242.694,239
242.719,311
242.744,386
242.769,453
242.794,489
242.819,489
242.844,471
242.869,459
242.894,459
242.919,463
242.944,456
242.969,436
242.994,408
243.019,377
243.044,343
243.069,309
243.094,273
243.119,235
243.144,193
243.169,148
243.194,103
243.219,60
243.244,14
243.269,-37
243.294,-90
243.319,-135
243.344,-173
243.369,-219
243.394,-281
243.419,-340
243.444,-350
243.469,-275
243.494,-127
243.519,39
243.544,171
243.569,260
243.594,332
243.619,409
243.644,485
243.669,535
243.694,551
243.719,546
243.744,541
243.769,540
243.794,534
243.819,523
243.844,519
243.869,532
243.894,549
243.919,538
243.944,469
243.969,341
243.994,182
244.019,24
244.044,-111
244.069,-223
244.094,-323
244.119,-417
244.144,-493
244.169,-520
244.194,-468
244.219,-332
244.244,-147
244.269,33
244.294,175
244.319,276
244.344,355
244.369,425
244.394,477
244.419,504
244.444,510
244.469,511
244.494,516
244.519,513
244.544,488
244.569,439
244.594,380
244.619,328
244.644,282
244.669,230
244.694,163
244.719,86
244.744,9
244.769,-48
244.794,-74
244.819,-59
244.844,-11
244.869,44
244.894,81
244.919,84
244.944,62
244.969,24
244.994,-32
245.019,-115
245.044,-203
245.069,-247
245.094,-200
245.119,-65
245.144,98
245.169,225
245.194,295
245.219,339
245.244,396
245.269,461
245.294,500
245.319,493
245.344,460
245.369,442
245.394,453
245.419,469
245.444,461
245.469,425
245.494,386
245.519,361
245.544,341
245.569,308
245.594,259
245.619,211
245.644,177
245.669,146
245.694,105
245.719,53
245.744,7
245.769,-21
245.794,-49
245.819,-101
245.844,-174
245.869,-229
245.894,-214
245.919,-118
245.944,19
245.969,145
245.994,231
246.019,287
246.044,334
246.069,380
246.094,411
246.119,415
246.144,400
246.169,384
246.194,376
246.219,375
246.244,370
246.269,355
246.294,328
246.319,294
246.344,257
246.369,222
246.394,188
246.419,153
246.444,109
246.469,60
246.494,18
246.519,-10
246.544,-35
246.569,-76
246.594,-135
246.619,-181
246.644,-166
246.669,-73
246.694,67
246.719,197
246.744,278
246.769,316
246.794,341
246.819,366
246.844,379
246.869,364
246.894,332
246.919,306
246.944,301
246.969,306
246.994,302
247.019,284
247.044,259
247.069,230
247.094,185
247.119,120
247.144,50
247.169,-1
247.194,-30
247.219,-60
247.244,-113
247.269,-175
247.294,-198
247.319,-147
247.344,-33
247.369,93
247.394,192
247.419,260
247.444,316
247.469,368
247.494,400
247.519,397
247.544,367
247.569,335
247.594,317
247.619,310
247.644,299
247.669,282
247.694,264
247.719,246
247.744,220
247.769,180
247.794,138
247.819,103
247.844,72
247.869,23
247.894,-48
247.919,-116
247.944,-132
247.969,-71
247.994,46
248.019,170
248.044,262
248.069,320
248.094,363
248.119,398
248.144,414
248.169,400
248.194,363
248.219,324
248.244,301
248.269,290
248.294,271
248.319,234
248.344,183
248.369,135
248.394,108
248.419,98
248.444,86
248.469,52
248.494,-7
248.519,-69
248.544,-93
248.569,-50
248.594,55
248.619,187
248.644,303
248.669,382
248.694,427
248.719,451
248.744,460
248.769,445
248.794,403
248.819,339
248.844,269
248.869,207
248.894,156
248.919,108
248.944,62
248.969,21
248.994,-4
249.019,-12
249.044,-13
249.069,-30
249.094,-78
249.119,-145
249.144,-194
249.169,-184
249.194,-101
249.219,30
249.244,164
249.269,265
249.294,331
249.319,377
249.344,413
249.369,438
249.394,443
249.419,429
249.444,409
249.469,391
249.494,374
249.519,349
249.544,309
249.569,256
249.594,200
249.619,147
249.644,99
249.669,50
249.694,-11
249.719,-87
249.744,-160
249.769,-195
249.794,-161
249.819,-55
249.844,86
249.869,216
249.894,304
249.919,354
249.944,388
249.969,414
249.994,424
250.019,414
250.044,392
250.069,378
250.094,378
250.119,375
250.144,353
250.169,312
250.194,271
250.219,237
250.244,203
250.269,153
250.294,93
250.319,43
250.344,13
250.369,-15
250.394,-71
250.419,-151
250.444,-215
250.469,-209
250.494,-121
250.519,16
250.544,148
250.569,242
250.594,299
250.619,334
250.644,353
250.669,357
250.694,346
250.719,330
250.744,316
250.769,303
250.794,286
250.819,265
250.844,239
250.869,209
250.894,171
250.919,129
250.944,91
250.969,60
250.994,27
251.019,-26
251.044,-97
251.069,-153
251.094,-151
251.119,-73
251.144,53
251.169,181
251.194,273
251.219,327
251.244,361
251.269,382
251.294,387
251.319,374
251.344,350
251.369,330
251.394,318
251.419,308
251.444,292
251.469,267
251.494,235
251.519,196
251.544,153
251.569,107
251.594,62
251.619,17
251.644,-35
251.669,-93
251.694,-133
251.719,-121
251.744,-42
251.769,79
251.794,198
251.819,279
251.844,323
251.869,354
251.894,384
251.919,405
251.944,399
251.969,370
251.994,343
252.019,333
252.044,335
252.069,325
252.094,293
252.119,251
252.144,218
252.169,196
252.194,170
252.219,127
252.244,75
252.269,34
252.294,11
252.319,-13
252.344,-60
252.369,-128
252.394,-179
252.419,-174
252.444,-99
252.469,15
252.494,126
252.519,208
252.544,261
252.569,305
252.594,346
252.619,376
252.644,385
252.669,372
252.694,352
252.719,338
252.744,334
252.769,329
252.794,313
252.819,288
252.844,260
252.869,236
252.894,210
252.919,174
252.944,126
252.969,77
252.994,40
253.019,13
253.044,-20
253.069,-73
253.094,-135
253.119,-171
253.144,-147
253.169,-59
253.194,62
253.219,174
253.244,252
253.269,303
253.294,343
253.319,380
253.344,403
253.369,404
253.394,391
253.419,380
253.444,382
253.469,387
253.494,379
253.519,348
253.544,308
253.569,273
253.594,248
253.619,222
253.644,185
253.669,137
253.694,90
253.719,53
253.744,21
253.769,-22
253.794,-82
253.819,-144
253.844,-176
253.869,-155
253.894,-77
253.919,32
253.944,145
253.969,238
253.994,305
254.019,349
254.044,375
254.069,383
254.094,373
254.119,356
254.144,343
254.169,339
254.194,340
254.219,333
254.244,311
254.269,278
254.294,248
254.319,222
254.344,193
254.369,151
254.394,97
254.419,48
254.444,15
254.469,-6
254.494,-38
254.519,-95
254.544,-159
254.569,-192
254.594,-161
254.619,-70
254.644,43
254.669,143
254.694,218
254.719,279
254.744,340
254.769,391
254.794,415
254.819,410
254.844,392
254.869,383
254.894,385
254.919,384
254.944,363
254.969,326
254.994,288
255.019,258
255.044,230
255.069,193
255.094,148
255.119,106
255.144,75
255.169,43
255.194,-8
255.219,-80
255.244,-144
255.269,-165
255.294,-121
255.319,-27
255.344,82
255.369,176
255.394,245
255.419,295
255.444,331
255.469,352
255.494,354
255.519,342
255.544,330
255.569,328
255.594,334
255.619,334
255.644,319
255.669,292
255.694,261
255.719,229
255.744,188
255.769,129
255.794,63
255.819,10
255.844,-20
255.869,-47
255.894,-96
255.919,-176
255.944,-248
255.969,-258
255.994,-179
256.019,-38
256.044,108
256.069,218
256.094,288
256.119,339
256.144,384
256.169,414
256.194,417
256.219,401
256.244,389
256.269,396
256.294,415
256.319,430
256.344,427
256.369,408
256.394,382
256.419,350
256.444,307
256.469,253
256.494,197
256.519,154
256.544,133
256.569,123
256.594,98
256.619,39
256.644,-53
256.669,-148
256.694,-196
256.719,-169
256.744,-76
256.769,40
256.794,138
256.819,203
256.844,248
256.869,290
256.894,324
256.919,338
256.944,329
256.969,316
256.994,323
257.019,350
257.044,378
257.069,383
257.094,362
257.119,329
257.144,300
257.169,275
257.194,247
257.219,207
257.244,158
257.269,107
257.294,58
257.319,12
257.344,-32
257.369,-79
257.394,-130
257.419,-184
257.444,-221
257.469,-216
257.494,-153
257.519,-45
257.544,73
257.569,168
257.594,231
257.619,275
257.644,315
257.669,348
257.694,360
257.719,349
257.744,327
257.769,315
257.794,321
257.819,332
257.844,334
257.869,322
257.894,307
257.919,299
257.944,289
257.969,264
257.994,219
258.019,163
258.044,115
258.069,76
258.094,29
258.119,-36
258.144,-106
258.169,-141
258.194,-108
258.219,-11
258.244,107
258.269,203
258.294,261
258.319,295
258.344,324
258.369,346
258.394,347
258.419,327
258.444,304
258.469,298
258.494,307
258.519,310
258.544,294
258.569,266
258.594,243
258.619,231
258.644,218
258.669,193
258.694,162
258.719,135
258.744,112
258.769,71
258.794,3
258.819,-70
258.844,-109
258.869,-83
258.894,-5
258.919,84
258.944,155
258.969,203
258.994,242
259.019,276
259.044,298
259.069,299
259.094,285
259.119,266
259.144,250
259.169,236
259.194,219
259.219,200
259.244,178
259.269,151
259.294,114
259.319,70
259.344,27
259.369,-9
259.394,-44
259.419,-83
259.444,-112
259.469,-100
259.494,-24
259.519,103
259.544,243
259.569,351
259.594,413
259.619,440
259.644,452
259.669,454
259.694,442
259.719,419
259.744,399
259.769,391
259.794,391
259.819,381
259.844,351
259.869,307
259.894,265
259.919,233
259.944,203
259.969,161
259.994,107
260.019,53
260.044,10
260.069,-22
260.094,-65
260.119,-128
260.144,-198
260.169,-235
260.194,-204
260.219,-104
260.244,26
260.269,142
260.294,220
260.319,270
260.344,314
260.369,357
260.394,385
260.419,386
260.444,366
260.469,346
260.494,336
260.519,331
260.544,317
260.569,289
260.594,253
260.619,216
260.644,176
260.669,131
260.694,88
260.719,52
260.744,20
260.769,-22
260.794,-81
260.819,-138
260.844,-152
260.869,-99
260.894,6
260.919,123
260.944,218
260.969,285
260.994,340
261.019,384
261.044,406
261.069,396
261.094,367
261.119,346
261.144,345
261.169,352
261.194,344
261.219,317
261.244,283
261.269,253
261.294,221
261.319,178
261.344,125
261.369,78
261.394,48
261.419,21
261.444,-26
261.469,-93
261.494,-146
261.519,-140
261.544,-59
261.569,64
261.594,179
261.619,256
261.644,302
261.669,339
261.694,374
261.719,394
261.744,385
261.769,352
261.794,321
261.819,307
261.844,306
261.869,297
261.894,268
261.919,228
261.944,191
261.969,161
261.994,129
262.019,86
262.044,36
262.069,-5
262.094,-35
262.119,-66
262.144,-117
262.169,-179
262.194,-216
262.219,-190
262.244,-92
262.269,39
262.294,161
262.319,248
262.344,311
262.369,368
262.394,421
262.419,454
262.444,459
262.469,448
262.494,443
262.519,451
262.544,457
262.569,444
262.594,411
262.619,375
262.644,348
262.669,325
262.694,293
262.719,247
262.744,198
262.769,156
262.794,119
262.819,79
262.844,31
262.869,-13
262.894,-49
262.919,-86
262.944,-139
262.969,-207
262.994,-262
263.019,-263
263.044,-193
263.069,-73
263.094,54
263.119,156
263.144,229
263.169,286
263.194,338
263.219,380
263.244,400
263.269,400
263.294,391
263.319,387
263.344,390
263.369,388
263.394,372
263.419,343
263.444,314
263.469,290
263.494,266
263.519,230
263.544,179
263.569,128
263.594,93
263.619,71
263.644,42
263.669,-9
263.694,-67
263.719,-92
263.744,-55
263.769,35
263.794,138
263.819,215
263.844,262
263.869,298
263.894,334
263.919,362
263.944,363
263.969,338
263.994,309
264.019,295
264.044,292
264.069,280
264.094,247
264.119,200
264.144,157
264.169,119
264.194,76
264.219,23
264.244,-31
264.269,-72
264.294,-99
264.319,-130
264.344,-177
264.369,-223
264.394,-234
264.419,-188
264.444,-104
264.469,-19
264.494,41
264.519,90
264.544,152
264.569,234
264.594,314
264.619,357
264.644,353
264.669,324
264.694,307
264.719,325
264.744,371
264.769,422
264.794,451
264.819,451
264.844,429
264.869,398
264.894,368
264.919,340
264.944,311
264.969,280
264.994,251
265.019,225
265.044,191
265.069,139
265.094,72
265.119,19
265.144,19
265.169,87
265.194,200
265.219,312
265.244,390
265.269,433
265.294,458
265.319,476
265.344,481
265.369,466
265.394,440
265.419,422
265.444,416
265.469,407
265.494,373
265.519,310
265.544,233
265.569,160
265.594,89
265.619,13
265.644,-63
265.669,-128
265.694,-172
265.719,-210
265.744,-261
265.769,-321
265.794,-358
265.819,-336
265.844,-253
265.869,-143
265.894,-43
265.919,35
265.944,106
265.969,177
265.994,234
266.019,254
266.044,237
266.069,206
266.094,192
266.119,201
266.144,215
266.169,210
266.194,183
266.219,147
266.244,120
266.269,107
266.294,98
266.319,79
266.344,46
266.369,5
266.394,-26
266.419,-27
266.444,10
266.469,80
266.494,165
266.519,247
266.544,316
266.569,372
266.594,413
266.619,439
266.644,447
266.669,444
266.694,441
266.719,444
266.744,450
266.769,449
266.794,433
266.819,403
266.844,366
266.869,329
266.894,291
266.919,247
266.944,195
266.969,139
266.994,86
267.019,40
267.044,-7
267.069,-70
267.094,-146
267.119,-208
267.144,-222
267.169,-169
267.194,-65
267.219,49
267.244,144
267.269,218
267.294,288
267.319,363
267.344,429
267.369,462
267.394,461
267.419,445
267.444,438
267.469,442
267.494,441
267.519,421
267.544,390
267.569,361
267.594,340
267.619,316
267.644,281
267.669,239
267.694,203
267.719,175
267.744,145
267.769,103
267.794,55
267.819,15
267.844,-14
267.869,-49
267.894,-99
267.919,-155
267.944,-197
267.969,-218
267.994,-235
268.019,-273
268.044,-324
268.069,-348
268.094,-302
268.119,-184
268.144,-36
268.169,94
268.194,193
268.219,276
268.244,362
268.269,445
268.294,506
268.319,531
268.344,531
268.369,527
268.394,529
268.419,531
268.444,521
268.469,495
268.494,461
268.519,424
268.544,388
268.569,353
268.594,315
268.619,272
268.644,222
268.669,173
268.694,135
268.719,117
268.744,110
268.769,97
268.794,65
268.819,16
268.844,-33
268.869,-77
268.894,-122
268.919,-176
268.944,-224
268.969,-236
268.994,-188
269.019,-85
269.044,36
269.069,144
269.094,226
269.119,294
269.144,355
269.169,405
269.194,430
269.219,428
269.244,407
269.269,382
269.294,359
269.319,337
269.344,317
269.369,297
269.394,279
269.419,263
269.444,247
269.469,233
269.494,224
269.519,215
269.544,201
269.569,177
269.594,146
269.619,116
269.644,89
269.669,64
269.694,43
269.719,27
269.744,17
269.769,3
269.794,-25
269.819,-59
269.844,-73
269.869,-36
269.894,58
269.919,185
269.944,308
269.969,408
269.994,490
270.019,570
270.044,645
270.069,705
270.094,743
270.119,768
270.144,787
270.169,784
270.194,716
270.219,546
270.244,279
270.269,-25
270.294,-285
270.319,-438
270.344,-473
270.369,-423
270.394,-336
270.419,-256
270.444,-206
270.469,-194
270.494,-214
270.519,-243
270.544,-249
