df_hash,22ZHK4.QHHSTC
device,HZ2X61
project_hash,29R7
project_name,istanbul_aydin_university
person_hash,29R7.V73B
person_label,V54
date_time_start,2025-10-31_14-24-46.756000_+03
date_time_start_unix,1761906286.756
date_time_end,2025-10-31_14-33-03.437000_+03
length_difference_noticed,no

time,ppg_ir,ppg_ambient,ppg_red
15.414,163940,189,248759
15.419,163949,189,248768
15.424,163951,188,248748
15.429,163959,188,248752
15.434,163972,188,248777
15.439,163965,188,248763
15.444,163962,188,248757
15.449,163980,188,248756
15.454,163974,193,248760
15.459,163963,187,248750
15.464,163951,186,248727
15.469,163925,187,248707
15.474,163918,187,248697
15.479,163882,186,248681
15.484,163858,185,248640
15.489,163833,196,248635
15.494,163815,195,248599
15.499,163779,195,248600
15.504,163746,188,248562
15.509,163721,188,248549
15.514,163692,189,248526
15.519,163643,190,248515
15.524,163631,190,248479
15.529,163608,190,248468
15.533,163575,190,248436
15.538,163560,190,248424
15.543,163544,191,248426
15.548,163519,192,248389
15.553,163508,186,248399
15.558,163483,186,248399
15.563,163464,187,248371
15.568,163457,187,248378
15.573,163435,186,248331
15.578,163415,186,248342
15.583,163408,196,248322
15.588,163381,195,248306
15.593,163354,194,248296
15.598,163339,195,248296
15.603,163326,187,248262
15.608,163306,186,248264
15.613,163304,186,248247
15.618,163285,186,248231
15.623,163254,186,248236
15.628,163253,186,248222
15.633,163227,185,248211
15.638,163194,197,248210
15.643,163178,195,248166
15.648,163176,188,248176
15.653,163146,187,248178
15.658,163141,188,248157
15.663,163113,188,248151
15.668,163107,189,248147
15.673,163096,188,248132
15.677,163094,189,248123
15.682,163065,189,248116
15.687,163057,189,248114
15.692,163036,189,248104
15.697,163051,195,248112
15.702,163027,188,248093
15.707,163022,188,248114
15.712,163032,188,248129
15.717,163025,188,248099
15.722,163021,187,248107
15.727,163039,187,248123
15.732,163025,186,248140
15.737,163031,187,248132
15.742,163020,187,248125
15.747,163016,191,248132
15.752,163016,191,248118
15.757,163010,192,248134
15.762,163007,192,248130
15.767,163000,193,248124
15.772,163006,193,248121
15.777,162988,193,248132
15.782,163003,192,248129
15.787,162992,193,248131
15.792,162997,193,248099
15.797,162974,187,248122
15.802,162985,188,248101
15.807,162977,189,248116
15.812,162977,189,248108
15.817,162982,189,248120
15.821,162966,189,248131
15.826,162975,189,248131
15.831,162980,189,248134
15.836,162965,190,248128
15.841,162982,190,248128
15.846,162967,196,248140
15.851,162969,195,248135
15.856,162973,196,248135
15.861,162977,196,248128
15.866,162951,196,248156
15.871,162983,186,248160
15.876,162973,186,248175
15.881,162976,186,248169
15.886,162993,187,248180
15.891,162999,187,248209
15.896,163017,186,248186
15.901,163008,186,248201
15.906,163015,187,248216
15.911,163024,186,248216
15.916,163035,187,248236
15.921,163025,185,248229
15.926,163033,196,248233
15.931,163039,195,248240
15.936,163049,196,248253
15.941,163035,186,248244
15.946,163045,188,248278
15.951,163059,187,248278
15.956,163068,188,248263
15.961,163080,187,248279
15.965,163061,187,248287
15.970,163060,187,248309
15.975,163096,187,248302
15.980,163097,187,248323
15.985,163094,187,248312
15.990,163107,191,248318
15.995,163108,192,248325
16.000,163132,191,248350
16.005,163126,190,248360
16.010,163121,190,248348
16.015,163113,190,248340
16.020,163123,190,248358
16.025,163132,189,248365
16.030,163139,189,248360
16.035,163149,190,248392
16.040,163141,194,248375
16.045,163155,194,248373
16.050,163141,193,248392
16.055,163166,193,248399
16.060,163146,192,248384
16.065,163184,192,248409
16.070,163183,192,248394
16.075,163177,192,248418
16.080,163183,191,248408
16.085,163186,194,248430
16.090,163195,196,248411
16.095,163171,195,248435
16.100,163183,195,248434
16.104,163201,195,248437
16.109,163192,194,248435
16.114,163203,194,248439
16.119,163185,194,248422
16.124,163199,193,248407
16.129,163199,192,248417
16.134,163204,192,248403
16.139,163191,186,248426
16.144,163186,196,248436
16.149,163189,195,248420
16.154,163185,194,248437
16.159,163197,193,248421
16.164,163203,193,248431
16.169,163194,192,248417
16.174,163191,191,248425
16.179,163212,191,248410
16.184,163213,190,248424
16.189,163203,195,248400
16.194,163216,194,248403
16.199,163207,195,248394
16.204,163199,194,248389
16.209,163197,193,248411
16.214,163210,193,248413
16.219,163200,192,248394
16.224,163212,192,248411
16.229,163202,192,248393
16.234,163198,186,248392
16.239,163191,196,248375
16.244,163200,196,248366
16.248,163187,195,248351
16.253,163195,195,248358
16.258,163185,195,248352
16.263,163187,195,248354
16.268,163198,195,248324
16.273,163195,195,248326
16.278,163172,194,248300
16.283,163164,191,248328
16.288,163165,189,248288
16.293,163181,189,248276
16.298,163193,188,248271
16.303,163182,188,248267
16.308,163149,187,248234
16.313,163152,186,248215
16.318,163136,187,248201
16.323,163102,186,248175
16.328,163070,185,248120
16.333,163037,189,248125
16.338,163015,188,248127
16.343,163007,188,248089
16.348,162970,187,248081
16.353,162954,187,248058
16.358,162934,186,248064
16.363,162885,186,248037
16.368,162883,186,248026
16.373,162853,196,248002
16.378,162819,195,248020
16.383,162809,188,247992
16.388,162789,188,247962
16.392,162772,187,247972
16.397,162760,187,247949
16.402,162727,187,247948
16.407,162705,187,247915
16.412,162681,187,247888
16.417,162674,188,247900
16.422,162648,188,247904
16.427,162651,190,247918
16.432,162612,192,247875
16.437,162602,192,247845
16.442,162574,192,247842
16.447,162569,192,247852
16.452,162531,191,247834
16.457,162517,190,247837
16.462,162514,190,247851
16.467,162512,190,247809
16.472,162474,190,247809
16.477,162428,195,247798
16.482,162441,195,247770
16.487,162427,195,247777
16.492,162398,196,247759
16.497,162372,196,247739
16.502,162350,185,247728
16.507,162336,186,247704
16.512,162316,196,247661
16.517,162288,196,247628
16.522,162252,195,247627
16.527,162243,188,247604
16.532,162231,187,247582
16.536,162188,187,247539
16.541,162153,186,247502
16.546,162133,186,247464
16.551,162122,196,247466
16.556,162080,195,247424
16.561,162071,195,247393
16.566,162076,194,247392
16.571,162071,193,247401
16.576,162078,191,247394
16.581,162084,192,247395
16.586,162063,192,247395
16.591,162067,192,247398
16.596,162066,192,247380
16.601,162046,192,247360
16.606,162048,191,247350
16.611,162038,191,247327
16.616,162014,191,247325
16.621,162022,190,247309
16.626,162017,196,247300
16.631,161998,185,247299
16.636,162004,196,247284
16.641,162000,197,247303
16.646,162004,196,247299
16.651,162005,195,247298
16.656,161993,195,247280
16.661,161995,195,247275
16.666,161980,194,247271
16.671,161984,194,247248
16.676,161974,187,247238
16.680,161960,185,247267
16.685,161966,195,247249
16.690,161959,194,247214
16.695,161958,193,247241
16.700,161966,193,247227
16.705,161951,192,247220
16.710,161946,191,247235
16.715,161947,189,247231
16.720,161958,192,247236
16.725,161955,192,247211
16.730,161970,190,247247
16.735,161956,191,247247
16.740,161957,190,247236
16.745,161968,189,247236
16.750,161979,188,247260
16.755,161972,188,247266
16.760,161985,188,247294
16.765,161983,187,247264
16.770,162007,191,247276
16.775,162007,192,247282
16.780,162012,191,247291
16.785,162018,191,247300
16.790,162014,191,247294
16.795,162028,190,247308
16.800,162033,190,247329
16.805,162031,190,247318
16.810,162033,190,247322
16.815,162045,191,247328
16.819,162042,195,247326
16.824,162047,195,247342
16.829,162046,196,247358
16.834,162069,185,247350
16.839,162082,196,247368
16.844,162075,196,247372
16.849,162092,196,247372
16.854,162086,186,247387
16.859,162092,185,247401
16.864,162086,185,247393
16.869,162083,189,247381
16.874,162098,189,247375
16.879,162111,188,247392
16.884,162116,188,247396
16.889,162112,187,247396
16.894,162120,187,247410
16.899,162129,186,247407
16.904,162120,186,247430
16.909,162149,194,247420
16.914,162158,194,247430
16.919,162155,186,247414
16.924,162172,186,247431
16.929,162172,195,247435
16.934,162178,195,247428
16.939,162170,193,247434
16.944,162175,192,247423
16.949,162188,191,247448
16.954,162180,191,247443
16.959,162179,190,247453
16.963,162211,192,247418
16.968,162221,194,247470
16.973,162243,193,247473
16.978,162222,192,247494
16.983,162238,190,247493
16.988,162223,189,247499
16.993,162232,188,247474
16.998,162240,188,247477
17.003,162259,187,247484
17.008,162260,186,247512
17.013,162279,190,247514
17.018,162275,194,247498
17.023,162279,193,247537
17.028,162298,192,247545
17.033,162320,193,247546
17.038,162308,191,247566
17.043,162319,192,247579
17.048,162332,192,247564
17.053,162341,191,247590
17.058,162349,190,247592
17.063,162359,194,247624
17.068,162382,192,247611
17.073,162390,191,247620
17.078,162393,191,247601
17.083,162396,191,247622
17.088,162418,189,247632
17.093,162424,188,247662
17.098,162430,187,247648
17.103,162444,186,247704
17.107,162461,186,247702
17.112,162469,190,247737
17.117,162489,189,247749
17.122,162488,189,247786
17.127,162542,188,247802
17.132,162530,187,247839
17.137,162549,186,247847
17.142,162571,186,247836
17.147,162586,185,247850
17.152,162583,196,247867
17.157,162596,194,247880
17.162,162609,192,247873
17.167,162611,192,247877
17.172,162620,191,247945
17.177,162633,190,247914
17.182,162642,189,247926
17.187,162653,188,247905
17.192,162658,188,247952
17.197,162690,188,247948
17.202,162698,188,247940
17.207,162721,187,247971
17.212,162734,196,247997
17.217,162726,195,248011
17.222,162741,195,248010
17.227,162746,194,248017
17.232,162751,194,248021
17.237,162757,193,248020
17.242,162780,193,248035
17.247,162791,193,248035
17.251,162814,192,248068
17.256,162815,191,248092
17.261,162836,185,248100
17.266,162847,186,248108
17.271,162862,186,248135
17.276,162862,186,248138
17.281,162876,187,248145
17.286,162865,187,248165
17.291,162875,187,248173
17.296,162901,188,248182
17.301,162923,187,248175
17.306,162928,192,248195
17.311,162929,190,248200
17.316,162950,190,248214
17.321,162966,189,248219
17.326,162980,188,248232
17.331,162989,187,248259
17.336,163003,186,248224
17.341,162989,195,248257
17.346,163007,194,248241
17.351,163011,193,248250
17.356,163013,187,248244
17.361,162999,185,248230
17.366,162990,195,248223
17.371,162963,194,248204
17.376,162955,193,248178
17.381,162933,193,248160
17.386,162917,192,248150
17.391,162898,192,248150
17.395,162888,191,248146
17.400,162870,190,248141
17.405,162849,195,248116
17.410,162831,194,248138
17.415,162805,195,248109
17.420,162796,194,248111
17.425,162784,194,248110
17.430,162768,194,248089
17.435,162768,194,248095
17.440,162754,194,248093
17.445,162734,194,248081
17.450,162744,194,248084
17.455,162708,194,248088
17.460,162706,194,248081
17.465,162696,193,248071
17.470,162690,194,248072
17.475,162677,194,248078
17.480,162655,195,248067
17.485,162651,195,248046
17.490,162636,194,248059
17.495,162620,195,248035
17.500,162614,187,248047
17.505,162614,187,248003
17.510,162578,187,247999
17.515,162551,188,247979
17.520,162545,188,247971
17.525,162537,190,247954
17.530,162521,190,247962
17.534,162509,191,247943
17.539,162491,189,247931
17.544,162485,189,247937
17.549,162464,193,247941
17.554,162457,194,247926
17.559,162448,193,247924
17.564,162425,194,247917
17.569,162433,194,247891
17.574,162427,194,247900
17.579,162411,193,247901
17.584,162404,192,247886
17.589,162383,190,247871
17.594,162382,189,247874
17.599,162387,193,247888
17.604,162377,193,247905
17.609,162371,193,247871
17.614,162376,192,247879
17.619,162390,191,247911
17.624,162399,190,247898
17.629,162407,189,247937
17.634,162409,189,247940
17.639,162408,188,247927
17.644,162422,188,247933
17.649,162423,192,247911
17.654,162419,191,247934
17.659,162420,190,247933
17.664,162419,189,247945
17.669,162405,188,247923
17.674,162411,188,247930
17.678,162418,187,247953
17.683,162417,186,247932
17.688,162427,187,247956
17.693,162420,186,247957
17.698,162415,195,247958
17.703,162421,194,247952
17.708,162419,193,247949
17.713,162422,192,247943
17.718,162412,192,247951
17.723,162415,191,247942
17.728,162427,191,247947
17.733,162419,191,247959
17.738,162410,191,247936
17.743,162421,191,247944
17.748,162425,190,247942
17.753,162427,194,247942
17.758,162421,195,247947
17.763,162423,195,247950
17.768,162433,195,247943
17.773,162437,194,247958
17.778,162443,195,247958
17.783,162443,185,247964
17.788,162469,185,247991
17.793,162495,188,247973
17.798,162444,189,247964
17.803,162464,190,247958
17.808,162474,189,247981
17.813,162479,189,247968
17.818,162483,189,247967
17.822,162496,188,248000
17.827,162491,188,247962
17.832,162494,188,247992
17.837,162507,187,248009
17.842,162509,192,248008
17.847,162519,192,247991
17.852,162514,192,248002
17.857,162513,192,248007
17.862,162527,192,248004
17.867,162526,192,248021
17.872,162525,192,248014
17.877,162548,191,248027
17.882,162547,189,248016
17.887,162549,189,248020
17.892,162549,193,248031
17.897,162565,192,248045
17.902,162572,191,248024
17.907,162573,192,248035
17.912,162579,192,248050
17.917,162576,191,248065
17.922,162590,191,248058
17.927,162603,190,248075
17.932,162621,190,248069
17.937,162624,189,248071
17.942,162614,194,248081
17.947,162634,194,248076
17.952,162642,195,248078
17.957,162641,194,248077
17.962,162633,194,248097
17.966,162664,194,248102
17.971,162663,194,248097
17.976,162672,194,248105
17.981,162672,194,248116
17.986,162668,193,248091
17.991,162684,187,248106
17.996,162695,186,248113
18.001,162695,186,248122
18.006,162702,186,248117
18.011,162719,185,248126
18.016,162706,196,248136
18.021,162735,194,248143
18.026,162739,194,248149
18.031,162735,193,248128
18.036,162759,194,248129
18.041,162760,185,248145
18.046,162768,196,248155
18.051,162775,195,248147
18.056,162777,195,248163
18.061,162793,194,248162
18.066,162796,194,248165
18.071,162791,193,248166
18.076,162819,192,248176
18.081,162804,191,248165
18.086,162818,196,248165
18.091,162827,195,248174
18.096,162841,195,248180
18.101,162851,193,248185
18.106,162851,193,248188
18.110,162857,192,248167
18.115,162877,192,248190
18.120,162877,192,248172
18.125,162894,192,248182
18.130,162885,192,248170
18.135,162903,196,248203
18.140,162906,191,248175
18.145,162911,191,248212
18.150,162911,191,248193
18.155,162920,192,248229
18.160,162949,191,248225
18.165,162948,191,248238
18.170,162959,190,248237
18.175,162962,189,248247
18.180,162987,190,248233
18.185,162973,194,248256
18.190,162988,193,248281
18.195,163013,194,248255
18.200,163001,193,248262
18.205,163028,193,248268
18.210,163028,191,248284
18.215,163022,190,248285
18.220,163045,188,248290
18.225,163055,188,248284
18.230,163068,186,248290
18.235,163070,190,248285
18.240,163067,188,248309
18.245,163079,187,248308
18.249,163087,186,248316
18.254,163106,196,248286
18.259,163086,196,248311
18.264,163100,195,248297
18.269,163093,194,248310
18.274,163077,193,248258
18.279,163057,194,248266
18.284,163055,185,248241
18.289,163048,196,248215
18.294,163015,196,248219
18.299,163011,195,248178
18.304,162987,195,248177
18.309,162954,193,248174
18.314,162936,193,248125
18.319,162912,193,248115
18.324,162903,192,248098
18.329,162842,195,248101
18.334,162864,195,248077
18.339,162844,195,248060
18.344,162830,195,248059
18.349,162827,194,248052
18.354,162810,194,248038
18.359,162788,192,248040
18.364,162790,194,248020
18.369,162783,193,248018
18.374,162767,193,248023
18.379,162747,188,247974
18.384,162752,191,248019
18.389,162740,191,247986
18.393,162711,190,247981
18.398,162722,190,247979
18.403,162693,190,247976
18.408,162699,189,247933
18.413,162683,189,247970
18.418,162677,189,247927
18.423,162655,188,247933
18.428,162637,192,247933
18.433,162633,192,247915
18.438,162616,191,247895
18.443,162597,191,247909
18.448,162608,192,247891
18.453,162591,192,247878
18.458,162595,192,247904
18.463,162582,192,247870
18.468,162586,193,247876
18.473,162560,191,247865
18.478,162551,185,247882
18.483,162554,185,247851
18.488,162533,196,247844
18.493,162532,185,247836
18.498,162532,185,247842
18.503,162529,186,247837
18.508,162526,187,247840
18.513,162532,187,247848
18.518,162532,187,247862
18.523,162556,187,247878
18.528,162561,191,247879
18.533,162578,191,247898
18.537,162572,191,247879
18.542,162577,190,247890
18.547,162563,189,247888
18.552,162571,188,247890
18.557,162587,188,247906
18.562,162580,187,247898
18.567,162563,187,247888
18.572,162578,184,247890
18.577,162584,189,247888
18.582,162576,189,247899
18.587,162576,188,247882
18.592,162582,188,247885
18.597,162583,188,247900
18.602,162574,188,247870
18.607,162575,187,247891
18.612,162584,187,247885
18.617,162567,187,247883
18.622,162576,192,247895
18.627,162583,185,247885
18.632,162587,185,247891
18.637,162591,196,247906
18.642,162583,195,247915
18.647,162594,195,247889
18.652,162610,194,247893
18.657,162596,194,247919
18.662,162612,193,247921
18.667,162617,193,247932
18.672,162599,186,247927
18.677,162618,185,247928
18.681,162613,196,247933
18.686,162624,194,247937
18.691,162617,193,247920
18.696,162627,193,247932
18.701,162641,192,247931
18.706,162646,192,247934
18.711,162664,192,247944
18.716,162656,191,247950
18.721,162652,195,247933
18.726,162663,196,247958
18.731,162683,195,247956
18.736,162676,196,247980
18.741,162675,195,247962
18.746,162689,194,247970
18.751,162702,194,247981
18.756,162689,193,247971
18.761,162708,193,247980
18.766,162717,192,247986
18.771,162713,186,247987
18.776,162720,196,247993
18.781,162720,195,247990
18.786,162733,193,248004
18.791,162741,193,248010
18.796,162748,192,248002
18.801,162749,191,248009
18.806,162756,190,248007
18.811,162769,190,248032
18.816,162780,192,248019
18.821,162784,189,248030
18.825,162807,188,248052
18.830,162799,188,248043
18.835,162803,188,248078
18.840,162817,188,248052
18.845,162815,187,248057
18.850,162823,187,248079
18.855,162837,187,248081
18.860,162849,187,248089
18.865,162856,190,248083
18.870,162852,191,248091
18.875,162877,193,248098
18.880,162875,192,248100
18.885,162874,191,248089
18.890,162877,191,248090
18.895,162894,192,248102
18.900,162898,191,248099
18.905,162898,191,248106
18.910,162894,192,248122
18.915,162903,196,248115
18.920,162903,196,248114
18.925,162930,195,248121
18.930,162940,194,248109
18.935,162949,194,248115
18.940,162956,194,248124
18.945,162963,193,248130
18.950,162963,193,248127
18.955,162951,194,248155
18.960,162966,195,248157
18.964,162967,189,248133
18.969,163009,189,248149
18.974,162993,189,248140
18.979,162999,188,248172
18.984,163011,187,248181
18.989,163014,187,248160
18.994,163050,187,248179
18.999,163053,186,248172
19.004,163051,186,248183
19.009,163041,185,248179
19.014,163058,189,248215
19.019,163059,189,248209
19.024,163074,189,248207
19.029,163075,188,248227
19.034,163090,188,248216
19.039,163101,187,248226
19.044,163113,187,248232
19.049,163114,185,248243
19.054,163127,195,248254
19.059,163128,195,248264
19.064,163171,187,248235
19.069,163159,186,248261
19.074,163164,187,248259
19.079,163164,186,248265
19.084,163176,186,248277
19.089,163181,186,248284
19.094,163209,196,248273
19.099,163192,195,248255
19.104,163215,194,248284
19.108,163179,183,248248
19.113,163188,187,248236
19.118,163176,188,248245
19.123,163159,186,248220
19.128,163146,185,248197
19.133,163136,185,248191
19.138,163109,196,248171
19.143,163100,196,248161
19.148,163060,195,248140
19.153,163055,195,248131
19.158,163025,188,248105
19.163,163000,188,248075
19.168,162978,188,248081
19.173,162971,187,248066
19.178,162966,189,248043
19.183,162934,190,248022
19.188,162927,190,248025
19.193,162899,190,248005
19.198,162887,190,247990
19.203,162892,191,247979
19.208,162867,185,247983
19.213,162870,186,247968
19.218,162853,186,247962
19.223,162836,186,247948
19.228,162824,186,247938
19.233,162815,187,247930
19.238,162798,188,247941
19.243,162784,189,247940
19.248,162780,189,247907
19.252,162760,193,247913
19.257,162772,189,247914
19.262,162736,194,247898
19.267,162715,195,247890
19.272,162712,195,247880
19.277,162685,197,247859
19.282,162701,195,247851
19.287,162678,195,247845
19.292,162682,194,247843
19.297,162657,193,247838
19.302,162653,194,247829
19.307,162640,188,247836
19.312,162629,188,247818
19.317,162615,189,247805
19.322,162609,188,247817
19.327,162605,188,247809
19.332,162588,187,247825
19.337,162576,189,247782
19.342,162592,189,247799
19.347,162569,189,247789
19.352,162578,191,247796
19.357,162561,194,247784
19.362,162568,194,247779
19.367,162561,194,247810
19.372,162573,194,247813
19.377,162593,195,247808
19.382,162587,196,247814
19.387,162583,185,247819
19.392,162607,185,247830
19.396,162598,186,247835
19.401,162596,190,247810
19.406,162580,191,247815
19.411,162594,191,247826
19.416,162598,192,247802
19.421,162597,194,247785
19.426,162594,194,247809
19.431,162601,195,247805
19.436,162580,185,247808
19.441,162602,186,247801
19.446,162584,187,247796
19.451,162589,191,247811
19.456,162587,192,247802
19.461,162577,192,247807
19.466,162574,193,247807
19.471,162588,193,247814
19.476,162578,195,247803
19.481,162578,195,247796
19.486,162567,186,247807
19.491,162594,186,247793
19.496,162577,187,247790
19.501,162597,184,247798
19.506,162582,186,247807
19.511,162598,187,247813
19.516,162606,187,247809
19.521,162593,186,247813
19.526,162601,187,247824
19.531,162597,188,247825
19.536,162603,188,247838
19.540,162614,188,247837
19.545,162614,188,247845
19.550,162606,193,247831
19.555,162619,192,247848
19.560,162632,191,247841
19.565,162626,191,247833
19.570,162644,190,247839
19.575,162635,190,247846
19.580,162655,189,247869
19.585,162648,189,247849
19.590,162661,189,247871
19.595,162653,192,247842
19.600,162664,195,247879
19.605,162674,195,247879
19.610,162681,185,247883
19.615,162684,187,247894
19.620,162694,187,247898
19.625,162694,188,247899
19.630,162713,187,247891
19.635,162711,188,247894
19.640,162719,188,247923
19.645,162732,192,247909
19.650,162726,192,247922
19.655,162725,193,247936
19.660,162748,192,247922
19.665,162750,193,247922
19.670,162755,193,247922
19.675,162753,192,247940
19.679,162758,192,247948
19.684,162783,192,247954
19.689,162777,193,247963
19.694,162793,187,247942
19.699,162784,187,247962
19.704,162788,188,247965
19.709,162800,188,247981
19.714,162807,188,247972
19.719,162819,188,247977
19.724,162826,187,247993
19.729,162813,187,247973
19.734,162853,188,247990
19.739,162842,188,248004
19.744,162850,193,247999
19.749,162851,193,248017
19.754,162863,194,247982
19.759,162862,195,248021
19.764,162887,195,248019
19.769,162883,195,248020
19.774,162858,195,248025
19.779,162889,195,248028
19.784,162899,194,248033
19.789,162911,193,248040
19.794,162922,187,248042
19.799,162945,186,248031
19.804,162919,186,248072
19.809,162942,185,248067
19.814,162938,195,248066
19.819,162948,194,248068
19.823,162967,194,248071
19.828,162976,193,248082
19.833,162955,193,248090
19.838,162972,194,248117
19.843,162990,187,248100
19.848,162989,187,248100
19.853,163005,188,248103
19.858,163005,188,248110
19.863,163016,187,248124
19.868,163025,187,248132
19.873,163025,187,248135
19.878,163043,186,248141
19.883,163050,186,248141
19.888,163006,188,248147
19.893,163066,189,248162
19.898,163066,188,248150
19.903,163080,188,248164
19.908,163090,187,248162
19.913,163098,187,248169
19.918,163100,186,248182
19.923,163106,186,248164
19.928,163099,185,248176
19.933,163124,185,248194
19.938,163144,190,248212
19.943,163137,194,248210
19.948,163141,193,248217
19.953,163157,193,248215
19.958,163152,192,248235
19.963,163176,191,248239
19.967,163188,191,248237
19.972,163186,190,248237
19.977,163201,190,248249
19.982,163189,190,248259
19.987,163209,181,248256
19.992,163222,187,248252
19.997,163221,187,248262
20.002,163231,187,248272
20.007,163238,188,248262
20.012,163249,187,248272
20.017,163255,188,248285
20.022,163269,187,248294
20.027,163261,185,248302
20.032,163265,186,248309
20.037,163300,190,248303
20.042,163284,191,248314
20.047,163297,190,248307
20.052,163314,189,248330
20.057,163321,188,248324
20.062,163328,188,248322
20.067,163332,187,248339
20.072,163346,188,248325
20.077,163342,187,248333
20.082,163367,188,248344
20.087,163347,191,248350
20.092,163364,191,248354
20.097,163378,191,248364
20.102,163404,191,248364
20.107,163412,191,248359
20.111,163420,192,248387
20.116,163416,191,248377
20.121,163419,191,248379
20.126,163427,192,248388
20.131,163428,192,248415
20.136,163435,190,248393
20.141,163427,191,248360
20.146,163417,191,248345
20.151,163401,192,248347
20.156,163384,193,248311
20.161,163363,193,248308
20.166,163331,192,248266
20.171,163316,194,248193
20.176,163290,193,248242
20.181,163287,186,248220
20.186,163251,185,248216
20.191,163225,195,248164
20.196,163187,194,248155
20.201,163172,192,248132
20.206,163153,192,248120
20.211,163135,193,248103
20.216,163117,193,248073
20.221,163098,192,248082
20.226,163073,191,248069
20.231,163054,185,248072
20.236,163064,186,248030
20.241,163034,186,248023
20.246,163021,187,248013
20.251,163010,187,248010
20.255,162997,187,248017
20.260,162985,188,247991
20.265,162956,188,247962
20.270,162939,188,247962
20.275,162931,189,247954
20.280,162910,192,247949
20.285,162885,191,247921
20.290,162888,191,247933
20.295,162858,190,247891
20.300,162828,189,247874
20.305,162831,188,247880
20.310,162821,188,247852
20.315,162799,188,247845
20.320,162786,187,247844
20.325,162763,186,247839
20.330,162760,187,247819
20.335,162743,188,247798
20.340,162723,187,247790
20.345,162703,187,247787
20.350,162694,186,247774
20.355,162688,186,247772
20.360,162676,185,247767
20.365,162648,196,247754
20.370,162647,195,247740
20.375,162625,197,247802
20.380,162626,187,247748
20.385,162621,187,247734
20.390,162615,186,247730
20.394,162603,186,247734
20.399,162607,186,247722
20.404,162600,186,247747
20.409,162623,195,247767
20.414,162631,196,247766
20.419,162647,194,247778
20.424,162615,186,247775
20.429,162639,187,247769
20.434,162643,187,247774
20.439,162619,186,247775
20.444,162639,185,247771
20.449,162619,185,247745
20.454,162627,186,247753
20.459,162605,195,247759
20.464,162615,195,247761
20.469,162596,194,247740
20.474,162608,188,247735
20.479,162597,188,247743
20.484,162582,189,247732
20.489,162581,188,247740
20.494,162596,188,247722
20.499,162575,188,247731
20.504,162594,188,247759
20.509,162579,187,247731
20.514,162572,186,247742
20.519,162575,196,247725
20.524,162572,189,247741
20.529,162579,188,247748
20.534,162571,188,247759
20.538,162585,187,247748
20.543,162590,186,247756
20.548,162582,196,247761
20.553,162585,195,247753
20.558,162591,194,247759
20.563,162592,193,247780
20.568,162576,190,247764
20.573,162590,185,247768
20.578,162607,194,247760
20.583,162598,195,247777
20.588,162588,195,247787
20.593,162601,195,247757
20.598,162603,195,247788
20.603,162586,195,247768
20.608,162603,195,247774
20.613,162602,194,247793
20.618,162619,194,247770
20.623,162623,193,247783
20.628,162627,192,247789
20.633,162628,192,247792
20.638,162633,191,247803
20.643,162633,191,247826
20.648,162638,189,247801
20.653,162649,189,247834
20.658,162658,188,247854
20.663,162660,188,247830
20.668,162656,187,247831
20.673,162682,192,247838
20.678,162673,191,247850
20.682,162679,191,247859
20.687,162690,191,247856
20.692,162692,191,247880
20.697,162691,190,247876
20.702,162702,190,247877
20.707,162708,191,247882
20.712,162706,191,247909
20.717,162723,196,247903
20.722,162736,188,247897
20.727,162750,189,247901
20.732,162741,188,247910
20.737,162737,187,247907
20.742,162731,187,247923
20.747,162753,186,247931
20.752,162764,186,247928
20.757,162755,186,247913
20.762,162772,185,247922
20.767,162766,189,247933
20.772,162782,189,247934
20.777,162779,188,247940
20.782,162784,189,247942
20.787,162791,189,247932
20.792,162790,189,247942
20.797,162804,188,247958
20.802,162821,189,247956
20.807,162832,188,247969
20.812,162834,188,247988
20.817,162830,191,247984
20.822,162838,190,247980
20.826,162843,189,247994
20.831,162854,189,248006
20.836,162869,188,247997
20.841,162855,187,248012
20.846,162878,186,248013
20.851,162882,196,247996
20.856,162889,194,248021
20.861,162888,193,248010
20.866,162884,186,248001
20.871,162904,196,248029
20.876,162909,195,248004
20.881,162909,194,248036
20.886,162914,194,248023
20.891,162919,193,248033
20.896,162923,192,248032
20.901,162941,191,248037
20.906,162957,190,248056
20.911,162960,192,248017
20.916,162963,194,248069
20.921,162959,193,248043
20.926,162970,193,248054
20.931,162973,192,248053
20.936,162992,193,248067
20.941,162965,191,248078
20.946,162980,191,248062
20.951,163001,189,248093
20.956,163021,188,248061
20.961,163043,191,248080
20.965,163032,191,248096
20.970,163021,189,248104
20.975,163036,189,248103
20.980,163040,187,248097
20.985,163049,186,248104
20.990,163065,185,248107
20.995,163069,195,248107
21.000,163074,193,248112
21.005,163074,192,248131
21.010,163095,196,248135
21.015,163096,195,248120
21.020,163110,193,248138
21.025,163111,193,248128
21.030,163131,190,248151
21.035,163126,190,248152
21.040,163141,189,248154
21.045,163151,189,248144
21.050,163155,189,248157
21.055,163157,188,248129
21.060,163169,186,248165
21.065,163177,188,248171
21.070,163178,187,248175
21.075,163184,188,248167
21.080,163190,187,248174
21.085,163202,187,248161
21.090,163205,187,248177
21.095,163215,188,248184
21.100,163232,188,248190
21.105,163229,188,248197
21.109,163242,192,248195
21.114,163255,192,248201
21.119,163266,191,248220
21.124,163274,191,248213
21.129,163272,190,248199
21.134,163288,191,248218
21.139,163289,190,248234
21.144,163290,191,248207
21.149,163313,190,248221
21.154,163309,190,248245
21.159,163336,193,248243
21.164,163346,194,248252
21.169,163351,193,248248
21.174,163358,193,248253
21.179,163360,192,248272
21.184,163362,191,248266
21.189,163372,189,248265
21.194,163369,189,248257
21.199,163373,188,248243
21.204,163343,187,248219
21.209,163336,192,248231
21.214,163310,191,248207
21.219,163301,190,248174
21.224,163289,190,248154
21.229,163253,189,248131
21.234,163245,188,248153
21.239,163202,188,248110
21.244,163201,187,248105
21.249,163163,186,248066
21.253,163122,191,248052
21.258,163093,189,248024
21.263,163084,189,248011
21.268,163062,189,247997
21.273,163020,188,247975
21.278,163001,188,247986
21.283,163012,188,247945
21.288,162978,187,247947
21.293,162978,187,247936
21.298,162953,187,247926
21.303,162932,192,247910
21.308,162923,191,247898
21.313,162898,191,247906
21.318,162885,191,247885
21.323,162861,191,247866
21.328,162859,189,247862
21.333,162835,189,247849
21.338,162825,188,247840
21.343,162798,189,247815
21.348,162770,189,247818
21.353,162763,193,247786
21.358,162747,193,247778
21.363,162737,192,247769
21.368,162705,192,247758
21.373,162692,192,247760
21.378,162680,192,247750
21.383,162663,192,247734
21.388,162657,191,247723
21.393,162634,191,247733
21.397,162626,191,247714
21.402,162623,193,247698
21.407,162590,194,247692
21.412,162601,194,247694
21.417,162574,195,247703
21.422,162567,195,247682
21.427,162546,196,247678
21.432,162543,195,247670
21.437,162524,196,247671
21.442,162536,195,247657
21.447,162535,186,247667
21.452,162520,192,247654
21.457,162526,192,247661
21.462,162521,192,247707
21.467,162530,192,247697
21.472,162542,192,247689
21.477,162534,192,247689
21.482,162539,190,247696
21.487,162520,190,247698
21.492,162531,190,247704
21.497,162528,195,247683
21.502,162517,195,247697
21.507,162512,195,247687
21.512,162515,195,247682
21.517,162506,196,247686
21.522,162499,195,247698
21.527,162497,195,247670
21.532,162499,195,247662
21.537,162490,196,247671
21.541,162492,195,247664
21.546,162476,188,247671
21.551,162469,188,247674
21.556,162488,188,247679
21.561,162466,189,247637
21.566,162470,189,247661
21.571,162460,190,247678
21.576,162466,189,247683
21.581,162454,190,247677
21.586,162467,191,247681
21.591,162470,191,247692
21.596,162476,195,247662
21.601,162471,195,247665
21.606,162479,195,247671
21.611,162480,195,247698
21.616,162480,194,247682
21.621,162481,193,247681
21.626,162479,193,247685
21.631,162499,192,247685
21.636,162488,192,247714
21.641,162465,191,247686
21.646,162490,189,247701
21.651,162499,188,247709
21.656,162487,188,247733
21.661,162499,187,247719
21.666,162517,187,247720
21.671,162514,185,247706
21.676,162524,186,247732
21.680,162513,186,247730
21.685,162511,185,247725
21.690,162512,185,247698
21.695,162536,189,247718
21.700,162541,187,247720
21.705,162536,187,247734
21.710,162527,186,247730
21.715,162547,196,247761
21.720,162550,195,247744
21.725,162548,194,247777
21.730,162558,193,247764
21.735,162564,193,247762
21.740,162609,187,247746
21.745,162576,189,247787
21.750,162557,188,247775
21.755,162595,189,247776
21.760,162583,188,247794
21.765,162593,187,247823
21.770,162611,186,247819
21.775,162615,186,247817
21.780,162603,186,247803
21.785,162603,188,247822
21.790,162623,195,247817
21.795,162613,187,247827
21.800,162646,186,247831
21.805,162640,186,247861
21.810,162650,186,247851
21.815,162644,186,247840
21.820,162653,195,247842
21.824,162651,195,247851
21.829,162673,194,247856
21.834,162678,194,247864
21.839,162673,187,247867
21.844,162677,186,247851
21.849,162679,185,247860
21.854,162708,195,247861
21.859,162687,193,247884
21.864,162693,192,247866
21.869,162695,190,247868
21.874,162709,189,247888
21.879,162720,188,247887
21.884,162729,185,247896
21.889,162728,190,247890
21.894,162740,191,247905
21.899,162733,189,247899
21.904,162744,189,247890
21.909,162745,188,247898
21.914,162745,189,247912
21.919,162760,188,247908
21.924,162781,187,247916
21.929,162790,186,247900
21.934,162781,196,247910
21.939,162798,188,247927
21.944,162794,187,247911
21.949,162801,185,247924
21.954,162806,195,247919
21.959,162805,194,247928
21.964,162810,192,247941
21.968,162827,190,247944
21.973,162838,189,247968
21.978,162831,188,247935
21.983,162848,190,247950
21.988,162858,191,247941
21.993,162851,191,247962
21.998,162852,189,247973
22.003,162860,188,247977
22.008,162874,187,247989
22.013,162895,187,247988
22.018,162900,186,247986
22.023,162913,186,247998
22.028,162912,185,248013
22.033,162933,189,248030
22.038,162922,188,248014
22.043,162937,188,248009
22.048,162964,188,248021
22.053,162930,187,248025
22.058,162931,187,247987
22.063,162909,187,247987
22.068,162892,186,247950
22.073,162861,186,247939
22.078,162860,196,247917
22.083,162841,188,247893
22.088,162797,188,247894
22.093,162782,189,247883
22.098,162753,188,247851
22.103,162728,189,247822
22.108,162705,187,247815
22.112,162693,187,247813
22.117,162656,186,247793
22.122,162647,196,247783
22.127,162615,195,247764
22.132,162596,191,247741
22.137,162564,191,247717
22.142,162545,189,247711
22.147,162540,186,247707
22.152,162513,196,247687
22.157,162504,194,247694
22.162,162474,192,247666
22.167,162483,190,247665
22.172,162462,189,247661
22.177,162437,188,247645
22.182,162430,192,247649
22.187,162420,190,247617
22.192,162395,189,247615
22.197,162380,188,247599
22.202,162362,187,247590
22.207,162353,196,247581
22.212,162314,195,247560
22.217,162309,193,247545
22.222,162302,193,247543
22.227,162283,194,247516
22.232,162253,191,247548
22.237,162244,190,247519
22.242,162249,189,247517
22.247,162227,188,247525
22.252,162223,187,247546
22.256,162216,187,247493
22.261,162187,186,247496
22.266,162183,196,247505
22.271,162177,195,247514
22.276,162172,184,247503
22.281,162157,188,247507
22.286,162145,187,247506
22.291,162134,187,247481
22.296,162124,186,247492
22.301,162128,195,247497
22.306,162129,194,247505
22.311,162126,192,247503
22.316,162132,191,247528
22.321,162132,190,247527
22.326,162133,194,247529
22.331,162144,193,247533
22.336,162158,193,247529
22.341,162142,192,247531
22.346,162139,192,247539
22.351,162146,192,247518
22.356,162125,191,247527
22.361,162135,192,247517
22.366,162129,191,247534
22.371,162143,190,247528
22.376,162136,194,247530
22.381,162131,194,247525
22.386,162135,193,247521
22.391,162123,193,247528
22.395,162127,192,247537
22.400,162125,192,247535
22.405,162118,193,247529
22.410,162109,193,247527
22.415,162124,192,247550
22.420,162122,191,247533
22.425,162118,185,247543
22.430,162120,186,247559
22.435,162126,196,247544
22.440,162133,195,247529
22.445,162130,195,247577
22.450,162124,194,247584
22.455,162115,193,247567
22.460,162141,192,247581
22.465,162130,192,247584
22.470,162130,193,247576
22.475,162144,186,247571
22.480,162145,186,247575
22.485,162148,186,247596
22.490,162153,196,247607
22.495,162147,195,247592
22.500,162145,195,247601
22.505,162177,194,247601
22.510,162178,193,247605
22.515,162179,193,247617
22.520,162185,206,247602
22.525,162180,186,247643
22.530,162213,185,247622
22.535,162203,196,247636
22.539,162194,194,247639
22.544,162190,193,247640
22.549,162210,193,247639
22.554,162208,193,247654
22.559,162210,191,247659
22.564,162232,191,247653
22.569,162207,196,247671
22.574,162237,191,247678
22.579,162247,190,247690
22.584,162237,189,247672
22.589,162259,187,247715
22.594,162261,187,247690
22.599,162274,196,247708
22.604,162281,195,247712
22.609,162277,195,247723
22.614,162284,194,247719
22.619,162292,187,247707
22.624,162300,186,247742
22.629,162312,186,247725
22.634,162317,196,247760
22.639,162345,194,247736
22.644,162337,193,247751
22.649,162331,192,247765
22.654,162340,191,247771
22.659,162341,190,247777
22.664,162370,189,247770
22.669,162363,193,247778
22.674,162383,193,247797
22.679,162379,192,247786
22.683,162389,192,247806
22.688,162401,192,247835
22.693,162398,192,247792
22.698,162403,191,247804
22.703,162401,191,247813
22.708,162420,190,247807
22.713,162427,189,247804
22.718,162426,193,247822
22.723,162450,192,247821
22.728,162460,191,247838
22.733,162462,191,247843
22.738,162459,190,247843
22.743,162472,191,247864
22.748,162479,191,247869
22.753,162467,190,247861
22.758,162479,190,247865
22.763,162505,195,247953
22.768,162513,196,247881
22.773,162517,187,247893
22.778,162521,186,247891
22.783,162527,196,247866
22.788,162543,196,247887
22.793,162558,196,247912
22.798,162567,195,247913
22.803,162575,194,247934
22.808,162587,194,247933
22.813,162539,188,247926
22.818,162586,188,247930
22.823,162596,189,247938
22.827,162595,189,247933
22.832,162614,190,247949
22.837,162626,189,247965
22.842,162623,189,247964
22.847,162650,188,247966
22.852,162636,188,247977
22.857,162669,186,247994
22.862,162664,192,248010
22.867,162681,193,247989
22.872,162679,193,248001
22.877,162683,191,248011
22.882,162694,191,247999
22.887,162699,189,248003
22.892,162715,189,248014
22.897,162714,189,248013
22.902,162716,188,248024
22.907,162747,187,248033
22.912,162747,191,248016
22.917,162747,191,248031
22.922,162758,191,248030
22.927,162749,190,248024
22.932,162780,189,248038
22.937,162791,189,248043
22.942,162789,188,248047
22.947,162802,187,248065
22.952,162817,186,248054
22.957,162833,185,248078
22.962,162848,189,248077
22.967,162846,188,248075
22.971,162854,187,248081
22.976,162863,187,248109
22.981,162866,186,248088
22.986,162891,196,248121
22.991,162904,195,248115
22.996,162895,193,248141
23.001,162906,192,248097
23.006,162920,191,248124
23.011,162923,194,248125
23.016,162900,192,248098
23.021,162898,192,248088
23.026,162889,191,248055
23.031,162849,190,248060
23.036,162843,190,248034
23.041,162815,189,248019
23.046,162795,188,248001
23.051,162762,188,247975
23.056,162751,185,247979
23.061,162724,189,247948
23.066,162709,188,247925
23.071,162659,187,247909
23.076,162627,186,247887
23.081,162605,196,247882
23.086,162592,194,247867
23.091,162569,194,247827
23.096,162546,192,247832
23.101,162534,190,247822
23.106,162513,195,247799
23.110,162503,188,247794
23.115,162478,187,247782
23.120,162471,196,247774
23.125,162479,193,247770
23.130,162431,192,247755
23.135,162433,189,247765
23.140,162415,188,247738
23.145,162398,187,247738
23.150,162371,185,247732
23.155,162375,188,247709
23.160,162340,187,247700
23.165,162330,186,247679
23.170,162361,176,247674
23.175,162311,196,247652
23.180,162292,195,247656
23.185,162263,193,247649
23.190,162257,192,247645
23.195,162249,191,247603
23.200,162225,189,247604
23.205,162218,193,247614
23.210,162203,192,247628
23.215,162213,191,247616
23.220,162185,190,247625
23.225,162170,188,247603
23.230,162176,187,247601
23.235,162153,187,247598
23.240,162152,185,247598
23.245,162143,194,247578
23.250,162155,192,247589
23.254,162130,191,247591
23.259,162129,190,247584
23.264,162123,188,247597
23.269,162124,187,247625
23.274,162135,185,247609
23.279,162128,194,247623
23.284,162151,192,247638
23.289,162154,190,247650
23.294,162162,189,247651
23.299,162149,192,247745
23.304,162168,193,247650
23.309,162157,192,247666
23.314,162161,191,247672
23.319,162175,190,247662
23.324,162156,189,247663
23.329,162154,187,247650
23.334,162156,186,247662
23.339,162169,195,247646
23.344,162153,194,247672
23.349,162133,185,247646
23.354,162176,196,247663
23.359,162162,193,247661
23.364,162157,190,247660
23.369,162174,188,247651
23.374,162167,188,247672
23.379,162165,186,247667
23.384,162179,195,247683
23.389,162185,192,247669
23.394,162179,191,247677
23.398,162191,194,247706
23.403,162188,194,247702
23.408,162204,192,247714
23.413,162196,191,247746
23.418,162207,190,247718
23.423,162219,188,247725
23.428,162209,188,247746
23.433,162224,188,247750
23.438,162231,189,247749
23.443,162237,188,247772
23.448,162236,192,247765
23.453,162251,191,247773
23.458,162255,190,247778
23.463,162263,189,247791
23.468,162276,188,247784
23.473,162267,187,247788
23.478,162264,186,247796
23.483,162276,196,247797
23.488,162282,195,247801
23.493,162301,192,247797
23.498,162286,186,247791
23.503,162295,196,247815
23.508,162319,194,247800
23.513,162302,192,247804
23.518,162305,190,247813
23.523,162314,188,247826
23.528,162317,187,247827
23.533,162346,186,247847
23.538,162340,195,247847
23.542,162356,193,247840
23.547,162358,192,247867
23.552,162385,191,247853
23.557,162385,190,247872
23.562,162390,190,247872
23.567,162403,188,247873
23.572,162406,188,247868
23.577,162403,186,247880
23.582,162400,195,247896
23.587,162424,194,247891
23.592,162411,195,247904
23.597,162425,190,247905
23.602,162423,188,247910
23.607,162444,186,247914
23.612,162442,196,247904
23.617,162465,194,247922
23.622,162449,192,247921
23.627,162470,190,247919
23.632,162469,189,247910
23.637,162487,187,247910
23.642,162506,192,247936
23.647,162519,195,247922
23.652,162507,193,247930
23.657,162514,192,247939
23.662,162523,191,247944
23.667,162522,189,247957
23.672,162538,188,247953
23.677,162522,187,247955
23.682,162548,196,247957
23.686,162557,193,247966
23.691,162566,188,247981
23.696,162567,189,247959
23.701,162593,187,247972
23.706,162574,195,247975
23.711,162594,194,247990
23.716,162600,192,247991
23.721,162597,190,248001
23.726,162633,189,248007
23.731,162641,187,248009
23.736,162649,186,248016
23.741,162653,189,248038
23.746,162667,188,248041
23.751,162664,186,248036
23.756,162695,195,248051
23.761,162679,192,248039
23.766,162699,190,248039
23.771,162694,189,248058
23.776,162724,186,248040
23.781,162725,196,248065
23.786,162746,195,248091
23.791,162751,187,248091
23.796,162761,196,248072
23.801,162759,194,248074
23.806,162760,192,248071
23.811,162769,189,248087
23.816,162779,188,248093
23.821,162804,188,248113
23.825,162800,188,248109
23.830,162823,188,248105
23.835,162846,187,248055
23.840,162856,190,248118
23.845,162854,189,248124
23.850,162860,188,248133
23.855,162863,187,248121
23.860,162883,186,248143
23.865,162886,196,248111
23.870,162887,195,248121
23.875,162899,193,248124
23.880,162909,192,248125
23.885,162966,185,248147
23.890,162918,186,248150
23.895,162921,196,248153
23.900,162958,195,248147
23.905,162967,193,248156
23.910,162971,192,248175
23.915,162968,192,248168
23.920,162991,190,248185
23.925,162993,190,248204
23.930,163005,189,248203
23.935,163040,195,248221
23.940,163050,186,248212
23.945,163040,196,248216
23.950,163053,193,248220
23.955,163068,192,248242
23.960,163072,190,248245
23.965,163075,188,248234
23.969,163090,187,248224
23.974,163110,196,248259
23.979,163117,194,248275
23.984,163134,186,248270
23.989,163141,195,248282
23.994,163165,193,248292
23.999,163156,191,248290
24.004,163185,189,248275
24.009,163171,188,248295
24.014,163159,186,248269
24.019,163164,196,248279
24.024,163163,193,248253
24.029,163156,195,248251
24.034,163141,188,248240
24.039,163129,188,248206
24.044,163107,187,248217
24.049,163090,195,248166
24.054,163064,193,248177
24.059,163044,191,248151
24.064,163016,189,248114
24.069,162981,187,248111
24.074,162978,186,248086
24.079,162935,196,248076
24.084,162922,188,248052
24.089,162902,186,248048
24.094,162875,195,248040
24.099,162865,193,248015
24.104,162842,191,248010
24.109,162846,189,248000
24.113,162842,189,248005
24.118,162806,188,247991
24.123,162831,186,248007
24.128,162802,186,247998
24.133,162790,188,247972
24.138,162787,185,247982
24.143,162778,195,247954
24.148,162753,192,247975
24.153,162734,191,247967
24.158,162734,188,247945
24.163,162715,187,247912
24.168,162688,185,247911
24.173,162689,194,247918
24.178,162688,186,247902
24.183,162662,186,247895
24.188,162642,195,247859
24.193,162634,194,247867
24.198,162626,191,247879
24.203,162626,191,247845
24.208,162610,189,247845
24.213,162604,188,247861
24.218,162594,186,247856
24.223,162582,195,247838
24.228,162575,187,247847
24.233,162575,186,247851
24.238,162564,195,247844
24.243,162568,194,247826
24.248,162548,193,247834
24.253,162548,192,247804
24.257,162547,190,247807
24.262,162540,189,247817
24.267,162545,187,247841
24.272,162548,186,247813
24.277,162546,190,247860
24.282,162561,189,247848
24.287,162571,188,247876
24.292,162568,188,247883
24.297,162572,187,247869
24.302,162576,186,247859
24.307,162576,196,247884
24.312,162577,194,247881
24.317,162578,193,247876
24.322,162598,193,247881
24.327,162581,186,247889
24.332,162580,196,247893
24.337,162587,193,247888
24.342,162591,192,247880
24.347,162586,189,247883
24.352,162575,187,247881
24.357,162576,195,247881
24.362,162575,193,247866
24.367,162568,191,247877
24.372,162566,190,247886
24.377,162569,187,247865
24.382,162564,189,247874
24.387,162575,189,247848
24.392,162566,190,247862
24.397,162572,191,247876
24.401,162568,192,247891
24.406,162573,191,247892
24.411,162597,192,247898
24.416,162586,193,247892
24.421,162550,194,247892
24.426,162597,187,247894
24.431,162613,187,247918
24.436,162592,188,247917
24.441,162609,189,247928
24.446,162629,189,247921
24.451,162623,189,247937
24.456,162640,190,247938
24.461,162647,190,247945
24.466,162645,191,247947
24.471,162647,196,247925
24.476,162652,195,247960
24.481,162655,195,247976
24.486,162647,196,247957
24.491,162658,186,247958
24.496,162665,187,247967
24.501,162667,187,247967
24.506,162679,187,247954
24.511,162675,187,247968
24.516,162683,186,247983
24.521,162683,191,248001
24.526,162693,191,247982
24.531,162710,192,247990
24.536,162713,192,248005
24.540,162724,192,248006
24.545,162716,193,248014
24.550,162738,194,248026
24.555,162730,195,248037
24.560,162748,186,248021
24.565,162763,189,248052
24.570,162762,193,248050
24.575,162775,194,248072
24.580,162791,195,248077
24.585,162790,196,248069
24.590,162785,187,248070
24.595,162807,187,248065
24.600,162803,187,248081
24.605,162818,188,248084
24.610,162823,189,248099
24.615,162836,191,248089
24.620,162835,188,248106
24.625,162843,189,248111
24.630,162861,191,248124
24.635,162864,191,248116
24.640,162864,192,248109
24.645,162869,192,248125
24.650,162876,192,248142
24.655,162904,192,248148
24.660,162899,193,248148
24.665,162908,200,248147
24.670,162928,192,248159
24.675,162927,187,248166
24.680,162936,187,248151
24.684,162931,186,248155
24.689,162926,185,248157
24.694,162952,196,248159
24.699,162959,195,248182
24.704,162967,194,248179
24.709,162966,194,248172
24.714,162972,188,248188
24.719,162989,187,248173
24.724,162999,187,248232
24.729,163010,187,248213
24.734,163007,187,248204
24.739,163017,188,248227
24.744,163032,189,248230
24.749,163041,189,248237
24.754,163057,189,248248
24.759,163065,189,248250
24.764,163058,194,248256
24.769,163080,194,248270
24.774,163090,194,248274
24.779,163111,194,248283
24.784,163129,193,248295
24.789,163142,193,248312
24.794,163136,194,248287
24.799,163138,194,248313
24.804,163152,195,248321
24.809,163173,194,248318
24.814,163170,188,248327
24.819,163179,187,248320
24.824,163189,187,248319
24.828,163185,186,248309
24.833,163178,187,248294
24.838,163155,186,248289
24.843,163145,187,248272
24.848,163124,187,248257
24.853,163097,187,248241
24.858,163086,187,248225
24.863,163074,192,248199
24.868,163059,192,248182
24.873,163031,192,248196
24.878,163001,191,248148
24.883,162989,191,248135
24.888,162962,191,248126
24.893,162950,190,248117
24.898,162922,190,248081
24.903,162911,190,248086
24.908,162892,192,248063
24.913,162871,196,248056
24.918,162859,196,248045
24.923,162853,196,248021
24.928,162849,196,248041
24.933,162825,186,248030
24.938,162828,187,248001
24.943,162813,188,248003
24.948,162803,187,248007
24.953,162794,189,247980
24.958,162792,192,247992
24.963,162764,193,247988
24.968,162772,194,247952
24.972,162748,195,247955
24.977,162721,196,247949
24.982,162735,196,247944
24.987,162722,185,247957
24.992,162708,186,247932
24.997,162687,186,247920
25.002,162700,187,247919
25.007,162675,191,247923
25.012,162678,192,247923
25.017,162644,192,247911
25.022,162658,192,247914
25.027,162633,192,247915
25.032,162634,192,247902
25.037,162630,193,247885
25.042,162630,194,247906
25.047,162621,194,247870
25.052,162604,195,247896
25.057,162613,193,247865
25.062,162597,193,247887
25.067,162604,194,247876
25.072,162598,194,247892
25.077,162611,194,247894
25.082,162607,194,247893
25.087,162614,195,247914
25.092,162621,195,247929
25.097,162643,195,247933
25.102,162666,195,247932
25.107,162651,189,247930
25.112,162658,191,247920
25.116,162649,191,247924
25.121,162646,192,247936
25.126,162639,192,247930
25.131,162649,193,247935
25.136,162664,193,247945
25.141,162652,194,247921
25.146,162673,194,247945
25.151,162663,196,247926
25.156,162668,189,247946
25.161,162670,190,247916
25.166,162664,189,247928
25.171,162675,190,247927
25.176,162676,190,247997
25.181,162660,190,247956
25.186,162665,191,247959
25.191,162676,190,247943
25.196,162670,190,247925
25.201,162672,194,247942
25.206,162668,194,247960
25.211,162676,194,247958
25.216,162666,197,247974
25.221,162692,194,247957
25.226,162698,194,247965
25.231,162693,195,247950
25.236,162712,195,247983
25.241,162710,195,247990
25.246,162709,194,247973
25.251,162727,190,247996
25.255,162705,195,247995
25.260,162741,196,247997
25.265,162756,186,248023
25.270,162746,187,247994
25.275,162744,188,248032
25.280,162749,188,248023
25.285,162756,190,248017
25.290,162765,191,248034
25.295,162764,191,248023
25.300,162772,187,248021
25.305,162782,187,248043
25.310,162794,187,248048
25.315,162794,190,248056
25.320,162803,190,248033
25.325,162789,191,248081
25.330,162801,193,248052
25.335,162817,193,248065
25.340,162829,194,248080
25.345,162825,194,248077
25.350,162847,191,248068
25.355,162856,192,248078
25.360,162853,193,248100
25.365,162861,194,248103
25.370,162888,194,248103
25.375,162874,194,248111
25.380,162889,197,248131
25.385,162893,187,248130
25.390,162900,188,248131
25.395,162895,189,248158
25.399,162916,193,248157
25.404,162943,194,248134
25.409,162936,195,248159
25.414,162944,196,248174
25.419,162952,187,248167
25.424,162965,188,248191
25.429,162967,189,248191
25.434,162966,191,248167
25.439,162989,192,248172
25.444,163014,189,248184
25.449,162984,186,248209
25.454,163000,188,248191
25.459,163019,189,248181
25.464,163014,189,248219
25.469,163033,190,248214
25.474,163028,192,248204
25.479,163044,193,248222
25.484,163052,194,248213
25.489,163065,195,248232
25.494,163078,190,248254
25.499,163073,194,248235
25.504,163086,195,248244
25.509,163089,186,248245
25.514,163094,188,248242
25.519,163101,190,248236
25.524,163106,190,248264
25.529,163127,191,248269
25.534,163127,192,248274
25.539,163138,192,248252
25.543,163141,187,248259
25.548,163152,188,248281
25.553,163159,190,248302
25.558,163167,191,248288
25.563,163180,193,248285
25.568,163204,194,248299
25.573,163202,186,248303
25.578,163207,187,248289
25.583,163224,189,248301
25.588,163226,189,248330
25.593,163233,195,248320
25.598,163243,196,248326
25.603,163250,187,248338
25.608,163266,188,248314
25.613,163260,189,248347
25.618,163281,191,248356
25.623,163293,192,248357
25.628,163297,193,248345
25.633,163309,196,248368
25.638,163324,196,248346
25.643,163326,190,248393
25.648,163345,191,248388
25.653,163346,193,248393
25.658,163363,194,248389
25.663,163362,195,248395
25.668,163374,187,248391
25.673,163379,189,248409
25.678,163396,189,248409
25.683,163408,192,248416
25.687,163401,195,248429
25.692,163432,187,248443
25.697,163430,187,248418
25.702,163438,188,248454
25.707,163448,188,248455
25.712,163460,189,248438
25.717,163468,189,248465
25.722,163484,191,248465
25.727,163492,191,248484
25.732,163476,192,248461
25.737,163497,186,248471
25.742,163519,191,248484
25.747,163509,191,248493
25.752,163512,193,248491
25.757,163532,193,248496
25.762,163545,195,248500
25.767,163558,196,248507
25.772,163558,187,248506
25.777,163567,187,248512
25.782,163582,189,248513
25.787,163577,186,248499
25.792,163592,192,248525
25.797,163605,193,248526
25.802,163603,194,248539
25.807,163628,195,248529
25.812,163637,197,248539
25.817,163656,187,248552
25.822,163645,188,248564
25.826,163678,188,248574
25.831,163669,190,248598
25.836,163696,195,248583
25.841,163705,196,248598
25.846,163718,195,248601
25.851,163716,196,248596
25.856,163721,195,248589
25.861,163718,195,248575
25.866,163706,195,248553
25.871,163684,196,248541
25.876,163653,197,248506
25.881,163634,196,248485
25.886,163610,189,248472
25.891,163584,189,248450
25.896,163577,190,248452
25.901,163553,191,248423
25.906,163514,192,248395
25.911,163508,192,248375
25.916,163475,192,248359
25.921,163456,193,248340
25.926,163423,194,248328
25.931,163406,189,248318
25.936,163386,189,248286
25.941,163369,189,248287
25.946,163355,189,248271
25.951,163346,191,248262
25.956,163334,190,248263
25.961,163313,191,248257
25.966,163307,191,248237
25.970,163294,192,248241
25.975,163278,192,248225
25.980,163279,186,248195
25.985,163255,187,248219
25.990,163244,188,248207
25.995,163236,188,248189
26.000,163227,189,248174
26.005,163216,189,248177
26.010,163195,191,248126
26.015,163179,191,248133
26.020,163173,189,248125
26.025,163155,189,248104
26.030,163153,195,248110
26.035,163125,195,248106
26.040,163116,195,248116
26.045,163107,196,248088
26.050,163084,196,248088
26.055,163069,186,248075
26.060,163056,186,248077
26.065,163064,187,248073
26.070,163053,188,248056
26.075,163041,188,248076
26.080,163042,182,248075
26.085,163021,187,248053
26.090,163018,188,248031
26.095,163019,189,248040
26.100,163009,190,248047
26.105,163007,190,248044
26.110,163007,191,248045
26.114,163002,192,248057
26.119,163012,192,248053
26.124,163006,193,248063
26.129,163020,186,248086
26.134,163033,187,248087
26.139,163040,187,248071
26.144,163028,187,248093
26.149,163019,189,248110
26.154,163031,190,248074
26.159,163017,191,248086
26.164,163042,192,248076
26.169,163030,191,248089
26.174,163009,195,248020
26.179,163010,191,248096
26.184,163013,192,248089
26.189,163027,193,248068
26.194,163021,194,248069
26.199,163019,195,248075
26.204,163008,186,248081
26.209,163016,186,248066
26.214,163022,187,248062
26.219,163008,188,248055
26.224,163013,192,248072
26.229,163010,193,248053
26.234,163020,193,248078
26.239,163032,194,248077
26.244,163023,195,248081
26.249,163020,196,248100
26.254,163026,187,248086
26.258,163020,188,248080
26.263,163033,188,248098
26.268,163012,189,248095
26.273,163042,203,248083
26.278,163035,196,248099
26.283,163047,195,248111
26.288,163029,196,248129
26.293,163049,186,248100
26.298,163039,187,248106
26.303,163048,188,248117
26.308,163056,188,248114
26.313,163060,189,248114
26.318,163052,190,248107
26.323,163060,195,248126
26.328,163068,186,248114
26.333,163077,187,248114
26.338,163069,189,248128
26.343,163085,190,248121
26.348,163088,191,248125
26.353,163089,193,248126
26.358,163088,194,248122
26.363,163092,194,248140
26.368,163103,194,248141
26.373,163103,188,248137
26.378,163103,189,248148
26.383,163114,191,248141
26.388,163114,192,248163
26.393,163130,193,248174
26.398,163133,195,248176
26.402,163150,196,248155
26.407,163145,196,248185
26.412,163155,187,248186
26.417,163154,189,248189
26.422,163159,194,248183
26.427,163176,194,248193
26.432,163185,196,248206
26.437,163196,187,248214
26.442,163201,189,248204
26.447,163213,191,248233
26.452,163199,193,248210
26.457,163204,194,248227
26.462,163227,196,248222
26.467,163196,190,248241
26.472,163231,193,248247
26.477,163220,194,248240
26.482,163238,186,248235
26.487,163262,187,248263
26.492,163247,189,248261
26.497,163257,189,248265
26.502,163273,190,248257
26.507,163274,191,248264
26.512,163281,193,248265
26.517,163279,187,248267
26.522,163288,188,248283
26.527,163306,189,248302
26.532,163291,189,248299
26.537,163301,191,248278
26.541,163295,192,248291
26.546,163326,193,248311
26.551,163334,195,248310
26.556,163330,196,248329
26.561,163343,187,248329
26.566,163352,192,248333
26.571,163364,193,248331
26.576,163377,195,248346
26.581,163367,186,248353
26.586,163389,187,248349
26.591,163387,189,248365
26.596,163398,191,248381
26.601,163400,194,248361
26.606,163408,195,248385
26.611,163411,197,248381
26.616,163429,194,248385
26.621,163435,195,248381
26.626,163433,197,248386
26.631,163448,187,248392
26.636,163451,188,248397
26.641,163463,190,248398
26.646,163469,191,248410
26.651,163491,191,248421
26.656,163467,192,248411
26.661,163497,194,248409
26.666,163500,188,248434
26.671,163495,190,248429
26.676,163521,190,248438
26.681,163514,193,248453
26.685,163541,194,248438
26.690,163538,196,248447
26.695,163549,187,248457
26.700,163552,188,248478
26.705,163556,189,248449
26.710,163577,195,248489
26.715,163576,190,248470
26.720,163570,192,248494
26.725,163604,193,248501
26.730,163598,195,248491
26.735,163603,196,248497
26.740,163614,186,248492
26.745,163631,187,248494
26.750,163615,189,248496
26.755,163630,190,248503
26.760,163633,186,248487
26.765,163643,186,248512
26.770,163652,188,248507
26.775,163663,189,248509
26.780,163658,191,248524
26.785,163677,192,248514
26.790,163687,194,248542
26.795,163698,194,248556
26.800,163681,195,248555
26.805,163713,195,248581
26.810,163716,189,248558
26.815,163728,191,248552
26.820,163733,192,248554
26.825,163746,193,248571
26.829,163743,195,248583
26.834,163765,195,248580
26.839,163774,186,248596
26.844,163787,188,248588
26.849,163788,190,248600
26.854,163804,191,248600
26.859,163802,189,248615
26.864,163811,190,248600
26.869,163806,192,248593
26.874,163818,193,248613
26.879,163798,195,248583
26.884,163790,196,248569
26.889,163783,187,248568
26.894,163759,187,248561
26.899,163746,188,248537
26.904,163715,189,248505
26.909,163696,196,248501
26.914,163669,186,248470
26.919,163645,187,248469
26.924,163616,188,248449
26.929,163586,190,248411
26.934,163572,192,248367
26.939,163543,193,248377
26.944,163523,195,248352
26.949,163491,196,248328
26.954,163476,187,248330
26.959,163456,191,248307
26.964,163450,192,248287
26.969,163408,193,248289
26.973,163406,194,248274
26.978,163394,195,248268
26.983,163375,196,248262
26.988,163365,187,248261
26.993,163326,188,248219
26.998,163314,189,248213
27.003,163327,195,248209
27.008,163296,188,248209
27.013,163299,189,248168
27.018,163279,191,248179
27.023,163251,191,248164
27.028,163234,193,248151
27.033,163229,195,248142
27.038,163196,196,248119
27.043,163168,196,248121
27.048,163155,196,248091
27.053,163163,190,248088
27.058,163143,191,248071
27.063,163120,190,248080
27.068,163111,192,248075
27.073,163094,192,248068
27.078,163070,193,248047
27.083,163084,195,248050
27.088,163067,196,248040
27.093,163053,196,248017
27.098,163029,197,248036
27.103,163029,190,248032
27.108,163023,190,248018
27.113,163018,190,248022
27.117,163006,190,248009
27.122,162987,192,247997
27.127,162995,192,248017
27.132,163000,193,248016
27.137,163009,195,248009
27.142,163009,195,248042
27.147,163011,197,248030
27.152,163021,190,248023
27.157,163016,189,248045
27.162,163004,188,248039
27.167,162993,168,248041
27.172,163006,187,248035
27.177,163002,187,248030
27.182,162997,186,248038
27.187,162998,186,248028
27.192,162999,186,248002
27.197,162985,189,247947
27.202,162970,189,247994
27.207,162973,188,248015
27.212,162983,187,247989
27.217,162961,187,248010
27.222,162960,186,248016
27.227,162959,186,248006
27.232,162949,196,247998
27.237,162973,195,247995
27.242,162951,194,248005
27.247,162954,186,247997
27.252,162952,187,247997
27.256,162969,197,248016
27.261,162948,195,247994
27.266,162946,195,248021
27.271,162967,195,248020
27.276,162954,194,248016
27.281,162954,194,248013
27.286,162945,193,248017
27.291,162970,192,248013
27.296,162959,187,248077
27.301,162967,191,248006
27.306,162968,191,248045
27.311,162972,189,248037
27.316,162980,189,248045
27.321,162988,187,248041
27.326,162966,187,248067
27.331,162979,187,248058
27.336,162991,196,248043
27.341,162963,193,248048
27.346,162990,186,248050
27.351,162988,196,248032
27.356,162990,196,248058
27.361,162983,196,248066
27.366,162984,195,248060
27.371,163002,196,248073
27.376,162990,195,248062
27.381,163020,194,248089
27.386,163007,193,248070
27.391,163014,193,248079
27.396,163013,187,248079
27.400,163008,186,248084
27.405,163024,186,248091
27.410,163031,196,248102
27.415,163056,195,248109
27.420,163056,195,248109
27.425,163065,194,248120
27.430,163073,194,248112
27.435,163062,193,248132
27.440,163083,194,248143
27.445,163086,187,248140
27.450,163097,187,248151
27.455,163105,186,248127
27.460,163098,196,248158
27.465,163101,196,248157
27.470,163116,195,248159
27.475,163122,194,248162
27.480,163116,193,248169
27.485,163121,192,248165
27.490,163131,188,248149
27.495,163135,195,248189
27.500,163145,195,248195
27.505,163129,193,248179
27.510,163143,192,248185
27.515,163158,190,248193
27.520,163159,191,248187
27.525,163155,190,248186
27.530,163157,190,248183
27.535,163163,189,248212
27.540,163173,193,248205
27.544,163157,192,248197
27.549,163166,192,248203
27.554,163190,191,248214
27.559,163187,191,248209
27.564,163202,191,248234
27.569,163196,190,248230
27.574,163201,189,248220
27.579,163221,189,248237
27.584,163222,189,248264
27.589,163230,196,248242
27.594,163240,186,248245
27.599,163236,186,248250
27.604,163257,186,248255
27.609,163270,197,248264
27.614,163259,196,248265
27.619,163278,197,248269
27.624,163273,196,248304
27.629,163302,197,248302
27.634,163297,187,248287
27.639,163295,190,248304
27.644,163309,190,248304
27.649,163302,189,248302
27.654,163312,187,248300
27.659,163331,186,248327
27.664,163316,194,248316
27.669,163356,194,248307
27.674,163337,193,248337
27.679,163333,193,248314
27.684,163328,191,248302
27.688,163307,189,248272
27.693,163294,187,248253
27.698,163279,197,248246
27.703,163257,196,248225
27.708,163237,195,248222
27.713,163200,193,248204
27.718,163178,192,248159
27.723,163134,190,248146
27.728,163111,189,248123
27.733,163088,192,248105
27.738,163073,190,248079
27.743,163024,189,248071
27.748,163007,189,248047
27.753,162989,188,248051
27.758,162969,187,248028
27.763,162949,187,247993
27.768,162943,197,248004
27.773,162910,195,247990
27.778,162909,194,247989
27.783,162904,196,247976
27.788,162886,195,247956
27.793,162836,195,247953
27.798,162841,194,247936
27.803,162812,193,247914
27.808,162802,192,247935
27.813,162799,190,247920
27.818,162772,190,247866
27.823,162753,189,247896
27.828,162729,189,247885
27.832,162721,192,247875
27.837,162695,190,247866
27.842,162697,189,247855
27.847,162673,187,247859
27.852,162656,187,247837
27.857,162633,186,247838
27.862,162619,195,247822
27.867,162608,194,247820
27.872,162593,192,247822
27.877,162582,192,247806
27.882,162564,187,247813
27.887,162556,197,247793
27.892,162529,195,247780
27.897,162528,193,247784
27.902,162529,192,247776
27.907,162507,191,247781
27.912,162497,190,247795
27.917,162490,187,247785
27.922,162487,187,247767
27.927,162476,186,247783
27.932,162477,190,247797
27.937,162491,188,247792
27.942,162503,187,247819
27.947,162496,186,247816
27.952,162501,195,247823
27.957,162499,194,247840
27.962,162519,192,247827
27.967,162508,192,247821
27.971,162493,190,247811
27.976,162494,189,247820
27.981,162484,189,247814
27.986,162471,188,247824
27.991,162484,187,247824
27.996,162512,196,247827
28.001,162484,195,247828
28.006,162482,193,247815
28.011,162480,191,247818
28.016,162486,190,247801
28.021,162475,188,247830
28.026,162484,185,247829
28.031,162468,191,247833
28.036,162470,189,247827
28.041,162470,189,247829
28.046,162462,188,247839
28.051,162465,187,247827
28.056,162477,187,247821
28.061,162466,186,247826
28.066,162461,195,247817
28.071,162466,195,247840
28.076,162468,187,247849
28.081,162463,187,247847
28.086,162476,197,247844
28.091,162472,196,247857
28.096,162475,196,247851
28.101,162485,195,247877
28.106,162477,193,247847
28.111,162477,191,247883
28.115,162490,189,247868
28.120,162476,189,247873
28.125,162500,193,247882
28.130,162496,191,247889
28.135,162488,190,247892
28.140,162509,189,247895
28.145,162528,188,247904
28.150,162524,188,247902
28.155,162518,187,247903
28.160,162525,197,247913
28.165,162515,196,247915
28.170,162532,196,247921
28.175,162531,193,247922
28.180,162537,191,247932
28.185,162545,190,247949
28.190,162551,190,247924
28.195,162548,188,247930
28.200,162555,188,247938
28.205,162567,187,247955
28.210,162558,187,247964
28.215,162579,187,247974
28.220,162578,186,247980
28.225,162595,190,247984
28.230,162584,190,247982
28.235,162605,188,248001
28.240,162607,187,248004
28.245,162603,187,248007
28.250,162627,186,248016
28.255,162622,197,248015
28.259,162621,196,248020
28.264,162632,195,248011
28.269,162631,198,248024
28.274,162629,188,248039
28.279,162650,187,248058
28.284,162643,187,248032
28.289,162656,197,248032
28.294,162665,195,248045
28.299,162679,194,248058
28.304,162676,192,248071
28.309,162669,192,248050
28.314,162692,190,248046
28.319,162710,195,248025
28.324,162693,197,248065
28.329,162691,196,248067
28.334,162714,195,248086
28.339,162726,194,248081
28.344,162717,193,248086
28.349,162719,191,248093
28.354,162735,190,248111
28.359,162748,187,248079
28.364,162749,196,248138
28.369,162774,189,248118
28.374,162775,188,248120
28.379,162761,187,248129
28.384,162778,196,248143
28.389,162794,195,248122
28.394,162796,193,248160
28.399,162799,192,248149
28.403,162809,191,248157
28.408,162834,190,248158
28.413,162829,190,248173
28.418,162826,187,248180
28.423,162834,188,248183
28.428,162844,187,248207
28.433,162868,197,248190
28.438,162858,195,248190
28.443,162872,195,248202
28.448,162890,194,248205
28.453,162880,193,248201
28.458,162898,191,248232
28.463,162897,190,248227
28.468,162909,195,248215
28.473,162922,194,248250
28.478,162924,194,248240
28.483,162933,193,248245
28.488,162941,193,248253
28.493,162951,192,248257
28.498,162955,191,248259
28.503,162970,191,248264
28.508,162982,190,248273
28.513,162968,191,248265
28.518,162985,194,248298
28.523,162981,193,248279
28.528,162994,193,248287
28.533,163015,192,248305
28.538,163017,191,248299
28.543,163026,190,248310
28.547,163031,190,248306
28.552,163036,189,248305
28.557,163045,188,248313
28.562,163068,186,248325
28.567,163068,191,248326
28.572,163069,190,248326
28.577,163058,189,248319
28.582,163069,188,248309
28.587,163086,188,248333
28.592,163099,188,248345
28.597,163100,186,248338
28.602,163131,187,248367
28.607,163128,189,248373
28.612,163138,194,248395
28.617,163158,196,248385
28.622,163149,187,248383
28.627,163162,188,248382
28.632,163168,189,248400
28.637,163178,191,248393
28.642,163204,192,248406
28.647,163201,192,248428
28.652,163230,194,248439
28.657,163227,195,248423
28.662,163236,192,248431
28.667,163233,196,248448
28.672,163264,186,248431
28.677,163252,187,248428
28.682,163253,188,248442
28.686,163259,190,248453
28.691,163262,191,248436
28.696,163245,193,248418
28.701,163238,194,248406
28.706,163213,195,248374
28.711,163206,188,248355
28.716,163161,190,248345
28.721,163143,192,248322
28.726,163122,193,248277
28.731,163099,194,248264
28.736,163057,196,248262
28.741,163040,188,248241
28.746,163002,189,248210
28.751,162968,190,248196
28.756,162950,192,248169
28.761,162926,189,248155
28.766,162905,191,248132
28.771,162879,193,248123
28.776,162858,194,248125
28.781,162842,195,248113
28.786,162816,186,248105
28.791,162795,188,248058
28.796,162781,189,248092
28.801,162769,190,248070
28.806,162735,193,248070
28.811,162750,197,248056
28.816,162718,187,248048
28.821,162688,188,248015
28.826,162695,191,248006
28.830,162669,191,247999
28.835,162644,192,247987
28.840,162636,193,247955
28.845,162630,195,247937
28.850,162586,197,247948
28.855,162578,190,247929
28.860,162546,191,247934
28.865,162554,193,247936
28.870,162533,194,247904
28.875,162522,195,247899
28.880,162505,197,247901
28.885,162478,188,247881
28.890,162478,189,247868
28.895,162473,190,247876
28.900,162451,191,247876
28.905,162453,196,247885
28.910,162428,187,247854
28.915,162419,188,247873
28.920,162397,189,247868
28.925,162395,189,247861
28.930,162391,190,247857
28.935,162384,192,247848
28.940,162381,193,247856
28.945,162364,194,247860
28.950,162369,196,247850
28.955,162369,189,247884
28.960,162384,190,247879
28.965,162387,191,247883
28.970,162403,191,247929
28.974,162409,192,247920
28.979,162396,192,247900
28.984,162386,193,247890
28.989,162392,195,247889
28.994,162408,195,247904
28.999,162385,196,247891
29.004,162382,190,247909
29.009,162383,192,247922
29.014,162395,192,247900
29.019,162392,193,247907
29.024,162376,193,247911
29.029,162383,195,247897
29.034,162378,196,247905
29.039,162383,187,247889
29.044,162372,188,247915
29.049,162384,194,247901
29.054,162370,194,247908
29.059,162369,194,247893
29.064,162360,194,247920
29.069,162375,195,247930
29.074,162376,196,247911
29.079,162378,197,247904
29.084,162393,196,247929
29.089,162377,187,247929
29.094,162394,196,247939
29.099,162379,190,247948
29.104,162384,189,247951
29.109,162382,190,247961
29.114,162394,190,247963
29.118,162391,191,247958
29.123,162397,191,247971
29.128,162412,192,247964
29.133,162413,192,247976
29.138,162413,193,247975
29.143,162413,193,247969
29.148,162426,187,248001
29.153,162427,187,247994
29.158,162418,187,247985
29.163,162444,187,248005
29.168,162450,187,248012
29.173,162461,188,248012
29.178,162441,189,248026
29.183,162450,190,248012
29.188,162460,191,248026
29.193,162464,191,248040
29.198,162463,196,248031
29.203,162482,186,248039
29.208,162476,188,248048
29.213,162487,189,248054
29.218,162484,190,248064
29.223,162486,190,248062
29.228,162508,191,248075
29.233,162507,192,248089
29.238,162517,193,248120
29.243,162519,193,248110
29.248,162531,189,248126
29.253,162534,189,248117
29.258,162554,189,248112
29.262,162554,189,248108
29.267,162570,191,248140
29.272,162549,193,248133
29.277,162566,193,248153
29.282,162588,193,248138
29.287,162576,195,248146
29.292,162596,196,248143
29.297,162590,189,248176
29.302,162610,189,248171
29.307,162606,191,248191
29.312,162622,192,248183
29.317,162629,192,248188
29.322,162630,193,248190
29.327,162635,195,248183
29.332,162650,197,248194
29.337,162657,186,248205
29.342,162690,189,248201
29.347,162657,193,248228
29.352,162670,194,248205
29.357,162686,195,248228
29.362,162684,196,248232
29.367,162687,187,248239
29.372,162696,188,248253
29.377,162714,189,248271
29.382,162720,190,248262
29.387,162733,190,248266
29.392,162732,196,248279
29.397,162743,197,248292
29.401,162746,187,248280
29.406,162759,187,248282
29.411,162760,188,248288
29.416,162771,189,248307
29.421,162775,190,248311
29.426,162789,191,248296
29.431,162796,192,248313
29.436,162789,192,248313
29.441,162818,186,248315
29.446,162809,188,248322
29.451,162817,189,248332
29.456,162839,189,248330
29.461,162849,191,248330
29.466,162831,192,248356
29.471,162864,194,248349
29.476,162854,194,248341
29.481,162873,196,248367
29.486,162878,188,248384
29.491,162895,187,248383
29.496,162895,187,248356
29.501,162905,189,248365
29.506,162911,190,248394
29.511,162929,193,248386
29.516,162920,195,248407
29.521,162945,186,248392
29.526,162935,187,248405
29.531,162938,189,248392
29.536,162950,192,248411
29.541,162964,196,248430
29.545,162974,187,248434
29.550,162988,187,248424
29.555,162993,187,248439
29.560,162997,189,248411
29.565,163000,190,248430
29.570,163019,192,248452
29.575,163010,195,248453
29.580,163020,187,248439
29.585,163007,188,248452
29.590,163050,193,248466
29.595,163043,195,248476
29.600,163055,186,248484
29.605,163051,188,248465
29.610,163065,189,248459
29.615,163093,191,248488
29.620,163101,194,248492
29.625,163104,195,248473
29.630,163108,186,248525
29.635,163116,191,248493
29.640,163144,193,248503
29.645,163135,196,248544
29.650,163144,187,248502
29.655,163158,189,248518
29.660,163157,191,248524
29.665,163172,195,248524
29.670,163166,187,248562
29.675,163187,189,248547
29.680,163209,191,248566
29.685,163228,186,248574
29.689,163221,191,248591
29.694,163236,194,248579
29.699,163240,196,248595
29.704,163256,187,248609
29.709,163273,189,248613
29.714,163287,191,248604
29.719,163266,193,248584
29.724,163268,196,248600
29.729,163273,186,248596
29.734,163249,193,248560
29.739,163229,195,248556
29.744,163208,188,248529
29.749,163181,189,248500
29.754,163169,191,248483
29.759,163128,192,248476
29.764,163118,195,248447
29.769,163100,186,248436
29.774,163058,188,248429
29.779,163038,190,248376
29.784,163010,190,248367
29.789,163000,192,248353
29.794,162971,195,248345
29.799,162948,195,248338
29.804,162929,187,248306
29.809,162919,189,248297
29.814,162919,189,248297
29.819,162893,191,248269
29.824,162866,193,248265
29.829,162860,192,248242
29.833,162839,188,248240
29.838,162826,189,248259
29.843,162813,191,248235
29.848,162802,193,248221
29.853,162778,195,248196
29.858,162787,197,248217
29.863,162747,188,248162
29.868,162741,190,248171
29.873,162730,191,248163
29.878,162696,186,248144
29.883,162706,187,248150
29.888,162686,189,248152
29.893,162672,190,248105
29.898,162681,191,248099
29.903,162639,192,248070
29.908,162644,193,248082
29.913,162628,194,248103
29.918,162626,196,248085
29.923,162605,187,248053
29.928,162599,192,248050
29.933,162597,193,248068
29.938,162587,194,248066
29.943,162572,196,248058
29.948,162566,197,248041
29.953,162552,187,248030
29.958,162559,189,248032
29.963,162541,190,248038
29.968,162543,193,248032
29.973,162545,197,248036
29.977,162554,191,248055
29.982,162578,192,248064
29.987,162573,195,248075
29.992,162581,186,248079
29.997,162590,188,248088
30.002,162582,190,248103
30.007,162574,192,248082
30.012,162584,195,248098
30.017,162582,187,248092
30.022,162591,188,248102
30.027,162600,194,248080
30.032,162582,195,248081
30.037,162580,186,248100
30.042,162587,188,248077
30.047,162601,190,248086
30.052,162576,191,248098
30.057,162596,193,248096
30.062,162597,196,248084
30.067,162586,188,248099
30.072,162589,196,248095
30.077,162586,186,248128
30.082,162593,188,248103
30.087,162590,189,248105
30.092,162585,190,248131
30.097,162601,192,248124
30.102,162619,194,248119
30.107,162601,196,248133
30.112,162607,187,248127
30.116,162605,190,248130
30.121,162627,195,248149
30.126,162635,186,248160
30.131,162627,187,248170
30.136,162618,189,248167
30.141,162630,189,248153
30.146,162642,191,248151
30.151,162653,192,248168
30.156,162657,195,248161
30.161,162658,197,248173
30.166,162676,187,248193
30.171,162679,193,248185
30.176,162684,194,248214
30.181,162681,197,248190
30.186,162678,188,248188
30.191,162706,189,248208
30.196,162696,191,248219
30.201,162706,193,248223
30.206,162721,195,248218
30.211,162711,187,248222
30.216,162721,189,248242
30.221,162728,195,248229
30.226,162731,187,248234
30.231,162737,189,248251
30.236,162755,191,248239
30.241,162757,192,248248
30.246,162748,194,248258
30.251,162767,195,248258
30.256,162773,196,248269
30.260,162765,186,248265
30.265,162790,188,248280
30.270,162771,191,248278
30.275,162799,188,248274
30.280,162815,190,248305
30.285,162821,191,248328
30.290,162843,193,248307
30.295,162835,194,248324
30.300,162832,194,248328
30.305,162852,195,248340
30.310,162851,196,248335
30.315,162858,188,248319
30.320,162867,192,248339
30.325,162862,194,248327
30.330,162872,196,248328
30.335,162891,187,248333
30.340,162886,189,248345
30.345,162892,191,248374
30.350,162909,192,248365
30.355,162911,193,248359
30.360,162925,195,248371
30.365,162938,188,248383
30.370,162951,189,248377
30.375,162941,191,248379
30.380,162952,191,248382
30.385,162956,193,248383
30.390,162978,194,248394
30.395,162981,196,248411
30.400,162995,187,248414
30.404,163004,188,248410
30.409,163000,189,248429
30.414,163011,194,248421
30.419,163010,197,248437
30.424,163021,186,248444
30.429,163028,188,248434
30.434,163040,189,248449
30.439,163036,189,248442
30.444,163051,190,248453
30.449,163053,191,248466
30.454,163082,192,248472
30.459,163084,195,248475
30.464,163096,189,248495
30.469,163094,190,248489
30.474,163116,191,248484
30.479,163125,193,248498
30.484,163119,195,248504
30.489,163138,197,248502
30.494,163138,187,248501
30.499,163139,188,248517
30.504,163157,191,248515
30.509,163168,193,248516
30.514,163172,189,248546
30.519,163186,190,248536
30.524,163189,192,248537
30.529,163196,194,248535
30.534,163199,197,248545
30.539,163211,188,248547
30.544,163221,189,248548
30.548,163218,192,248568
30.553,163232,193,248579
30.558,163265,187,248581
30.563,163258,193,248578
30.568,163277,196,248574
30.573,163279,187,248582
30.578,163284,189,248596
30.583,163285,191,248597
30.588,163291,193,248610
30.593,163311,193,248626
30.598,163314,195,248608
30.603,163319,186,248627
30.608,163338,194,248623
30.613,163343,187,248626
30.618,163352,189,248634
30.623,163351,191,248624
30.628,163372,193,248627
30.633,163377,193,248634
30.638,163400,195,248620
30.643,163401,186,248639
30.648,163424,189,248641
30.653,163422,190,248653
30.658,163452,196,248683
30.663,163458,187,248681
30.668,163462,188,248694
30.673,163474,189,248697
30.678,163485,191,248695
30.683,163491,193,248711
30.687,163497,195,248723
30.692,163516,197,248709
30.697,163507,187,248711
30.702,163511,189,248709
30.707,163515,195,248696
30.712,163515,196,248697
30.717,163495,187,248662
30.722,163492,187,248674
30.727,163488,189,248655
30.732,163459,188,248629
30.737,163423,190,248627
30.742,163420,191,248618
30.747,163385,193,248579
30.752,163360,194,248553
30.757,163347,189,248550
30.762,163319,190,248530
30.767,163293,192,248506
30.772,163280,193,248501
30.777,163263,194,248486
30.782,163226,196,248456
30.787,163224,187,248460
30.792,163212,188,248436
30.797,163194,189,248425
30.802,163162,192,248415
30.807,163153,195,248410
30.812,163146,196,248404
30.817,163147,187,248395
30.822,163126,188,248375
30.827,163120,191,248375
30.831,163113,191,248357
30.836,163094,194,248353
30.841,163076,194,248359
30.846,163074,196,248341
30.851,163073,195,248330
30.856,163044,194,248323
30.861,163037,195,248319
30.866,163013,197,248302
30.871,163002,186,248297
30.876,162993,188,248282
30.881,162982,188,248290
30.886,162976,190,248285
30.891,162960,191,248260
30.896,162949,192,248248
30.901,162954,188,248234
30.906,162912,192,248235
30.911,162922,194,248223
30.916,162915,194,248244
30.921,162898,195,248227
30.926,162882,196,248214
30.931,162884,186,248217
30.936,162878,187,248212
30.941,162847,188,248198
30.946,162864,189,248203
30.951,162862,192,248201
30.956,162866,194,248198
30.961,162860,195,248209
30.966,162842,197,248226
30.971,162855,186,248217
30.975,162869,188,248228
30.980,162880,188,248237
30.985,162880,190,248244
30.990,162881,190,248230
30.995,162878,191,248248
31.000,162884,186,248252
31.005,162883,186,248246
31.010,162891,186,248233
31.015,162896,188,248230
31.020,162873,188,248206
31.025,162894,188,248232
31.030,162884,189,248253
31.035,162887,190,248243
31.040,162867,190,248236
31.045,162885,194,248211
31.050,162880,187,248231
31.055,162897,188,248247
31.060,162892,188,248232
31.065,162896,189,248237
31.070,162884,189,248227
31.075,162895,190,248253
31.080,162898,191,248243
31.085,162902,191,248248
31.090,162892,191,248260
31.095,162921,194,248245
31.100,162895,196,248246
31.105,162891,196,248242
31.110,162917,197,248250
31.115,162906,187,248258
31.119,162915,187,248269
31.124,162921,188,248263
31.129,162923,189,248257
31.134,162917,189,248241
31.139,162927,189,248271
31.144,162933,195,248267
31.149,162932,187,248273
31.154,162932,189,248283
31.159,162950,189,248288
31.164,162951,187,248278
31.169,162954,190,248281
31.174,162961,189,248295
31.179,162960,190,248291
31.184,162944,189,248296
31.189,162959,189,248303
31.194,162961,195,248292
31.199,162979,194,248297
31.204,162983,195,248282
31.209,162992,195,248314
31.214,163000,195,248306
31.219,163016,195,248323
31.224,163012,195,248337
31.229,163004,194,248337
31.234,163022,194,248342
31.239,163041,194,248332
31.244,163038,189,248358
31.249,163055,189,248355
31.254,163065,189,248375
31.259,163053,189,248391
31.263,163081,189,248372
31.268,163075,190,248354
31.273,163096,191,248408
31.278,163095,191,248413
31.283,163103,191,248396
31.288,163116,193,248409
31.293,163123,187,248415
31.298,163125,187,248424
31.303,163143,189,248420
31.308,163136,189,248424
31.313,163154,190,248440
31.318,163153,190,248442
31.323,163169,190,248429
31.328,163176,191,248443
31.333,163173,192,248450
31.338,163211,196,248470
31.343,163183,191,248446
31.348,163197,193,248485
31.353,163205,195,248477
31.358,163196,196,248475
31.363,163223,187,248487
31.368,163218,188,248465
31.373,163232,189,248469
31.378,163238,189,248492
31.383,163257,189,248489
31.388,163257,195,248466
31.393,163252,196,248489
31.398,163276,196,248524
31.402,163276,186,248513
31.407,163288,187,248524
31.412,163281,188,248511
31.417,163304,188,248515
31.422,163291,189,248536
31.427,163314,189,248531
31.432,163317,191,248536
31.437,163333,197,248537
31.442,163335,186,248531
31.447,163343,187,248553
31.452,163351,188,248563
31.457,163353,189,248557
31.462,163359,190,248586
31.467,163372,191,248571
31.472,163399,191,248584
31.477,163400,194,248582
31.482,163399,196,248583
31.487,163411,190,248600
31.492,163415,191,248590
31.497,163427,192,248613
31.502,163414,193,248601
31.507,163432,194,248625
31.512,163431,194,248611
31.517,163470,194,248628
31.522,163463,195,248622
31.527,163474,196,248630
31.532,163483,186,248632
31.537,163490,191,248624
31.542,163490,193,248633
31.546,163509,194,248636
31.551,163506,195,248651
31.556,163523,196,248659
31.561,163541,186,248643
31.566,163534,187,248670
31.571,163550,188,248642
31.576,163550,188,248654
31.581,163560,189,248655
31.586,163563,195,248674
31.591,163580,196,248674
31.596,163594,186,248682
31.601,163601,187,248678
31.606,163598,190,248677
31.611,163619,190,248712
31.616,163615,191,248707
31.621,163630,192,248695
31.626,163632,193,248705
31.631,163636,187,248712
31.636,163654,188,248711
31.641,163670,189,248734
31.646,163663,189,248740
31.651,163691,190,248723
31.656,163677,191,248761
31.661,163697,192,248748
31.666,163700,193,248764
31.671,163710,196,248762
31.676,163713,186,248764
31.681,163737,191,248777
31.686,163743,193,248785
31.690,163749,195,248764
31.695,163775,196,248782
31.700,163783,187,248807
31.705,163796,189,248820
31.710,163783,191,248816
31.715,163800,193,248807
31.720,163830,195,248810
31.725,163829,187,248814
31.730,163831,195,248799
31.735,163831,187,248828
31.740,163813,187,248786
31.745,163809,189,248777
31.750,163803,191,248772
31.755,163783,193,248749
31.760,163758,194,248730
31.765,163742,195,248717
31.770,163722,186,248705
31.775,163693,188,248672
31.780,163683,195,248668
31.785,163665,197,248638
31.790,163635,187,248622
31.795,163603,188,248623
31.800,163584,189,248564
31.805,163565,191,248576
31.810,163547,192,248528
31.815,163521,194,248523
31.820,163488,196,248512
31.825,163476,188,248521
31.830,163467,190,248485
31.834,163452,191,248475
31.839,163428,191,248463
31.844,163426,192,248486
31.849,163403,193,248449
31.854,163387,195,248430
31.859,163368,196,248429
31.864,163362,186,248418
31.869,163349,187,248405
31.874,163355,192,248388
31.879,163309,193,248369
31.884,163297,195,248373
31.889,163292,196,248343
31.894,163273,187,248338
31.899,163258,188,248311
31.904,163256,190,248329
31.909,163240,191,248296
31.914,163225,193,248289
31.919,163201,194,248285
31.924,163206,188,248299
31.929,163183,189,248265
31.934,163167,191,248270
31.939,163163,192,248242
31.944,163157,195,248265
31.949,163129,196,248241
31.954,163134,187,248234
31.959,163120,188,248234
31.964,163106,190,248231
31.969,163085,190,248216
31.974,163085,195,248191
31.978,163070,196,248208
31.983,163058,187,248224
31.988,163070,189,248208
31.993,163063,191,248198
31.998,163069,192,248216
32.003,163077,194,248220
32.008,163068,195,248233
32.013,163084,197,248232
32.018,163095,196,248236
32.023,163099,196,248244
32.028,163080,196,248239
32.033,163064,197,248241
32.038,163074,186,248236
32.043,163076,187,248240
32.048,163068,188,248221
32.053,163081,188,248246
32.058,163059,189,248230
32.063,163067,190,248217
32.068,163082,193,248227
32.073,163048,188,248210
32.078,163065,190,248221
32.083,163056,191,248207
32.088,163058,192,248219
32.093,163050,193,248217
32.098,163053,193,248212
32.103,163043,194,248208
32.108,163058,194,248194
32.113,163055,194,248199
32.117,163076,187,248199
32.122,163067,188,248206
32.127,163052,189,248206
32.132,163053,189,248217
32.137,163056,190,248227
32.142,163049,190,248208
32.147,163067,191,248221
32.152,163058,191,248238
32.157,163062,191,248224
32.162,163063,193,248231
32.167,163073,186,248217
32.172,163057,187,248244
32.177,163066,186,248248
32.182,163082,188,248239
32.187,163071,189,248253
32.192,163074,190,248232
32.197,163075,191,248254
32.202,163078,192,248243
32.207,163072,192,248253
32.212,163096,193,248253
32.217,163090,186,248255
32.222,163080,188,248262
32.227,163109,188,248254
32.232,163101,188,248263
32.237,163103,189,248252
32.242,163102,190,248264
32.247,163114,191,248278
32.252,163106,191,248255
32.257,163119,191,248274
32.261,163120,192,248285
32.266,163136,186,248292
32.271,163118,188,248260
32.276,163135,189,248290
32.281,163131,191,248289
32.286,163155,191,248292
32.291,163150,193,248313
32.296,163148,194,248321
32.301,163156,196,248321
32.306,163171,187,248336
32.311,163189,188,248280
32.316,163184,193,248340
32.321,163200,195,248327
32.326,163195,197,248349
32.331,163195,187,248341
32.336,163199,188,248361
32.341,163215,189,248351
32.346,163227,190,248344
32.351,163215,191,248372
32.356,163208,192,248356
32.361,163282,191,248368
32.366,163223,188,248378
32.371,163243,187,248370
32.376,163232,188,248362
32.381,163245,187,248371
32.386,163225,188,248371
32.391,163246,188,248391
32.396,163256,189,248402
32.401,163273,188,248408
32.405,163271,189,248384
32.410,163272,196,248398
32.415,163287,188,248412
32.420,163288,189,248400
32.425,163293,190,248425
32.430,163294,191,248415
32.435,163318,192,248428
32.440,163299,193,248424
32.445,163318,194,248421
32.450,163329,194,248421
32.455,163334,195,248440
32.460,163338,189,248445
32.465,163340,190,248455
32.470,163337,191,248434
32.475,163349,191,248456
32.480,163361,191,248457
32.485,163378,192,248477
32.490,163374,193,248476
32.495,163371,195,248467
32.500,163392,186,248477
32.505,163401,187,248491
32.510,163395,192,248472
32.515,163411,193,248486
32.520,163416,194,248489
32.525,163419,194,248521
32.530,163432,195,248510
32.535,163426,196,248525
32.540,163448,185,248538
32.545,163465,187,248534
32.549,163468,187,248528
32.554,163474,189,248554
32.559,163469,193,248547
32.564,163496,193,248555
32.569,163475,193,248556
32.574,163504,194,248556
32.579,163486,194,248545
32.584,163490,196,248541
32.589,163482,196,248527
32.594,163457,197,248502
32.599,163437,196,248484
32.604,163427,185,248471
32.609,163393,192,248461
32.614,163380,193,248433
32.619,163357,194,248437
32.624,163320,195,248400
32.629,163309,196,248395
32.634,163287,197,248370
32.639,163257,186,248345
32.644,163229,188,248331
32.649,163209,188,248320
32.654,163206,193,248295
32.659,163174,189,248297
32.664,163148,191,248280
32.669,163132,191,248277
32.674,163127,194,248270
32.679,163109,195,248276
32.684,163092,197,248245
32.689,163077,186,248252
32.693,163065,187,248234
32.698,163031,187,248208
32.703,163021,192,248203
32.708,163031,192,248191
32.713,163013,193,248163
32.718,162987,193,248167
32.723,162967,194,248154
32.728,162942,195,248150
32.733,162933,195,248154
32.738,162935,196,248162
32.743,162922,197,248117
32.748,162896,189,248124
32.753,162863,192,248128
32.758,162864,194,248118
32.763,162859,196,248127
32.768,162839,196,248096
32.773,162826,187,248102
32.778,162803,188,248091
32.783,162814,189,248076
32.788,162795,190,248051
32.793,162775,191,248058
32.798,162757,192,248036
32.803,162748,187,248033
32.808,162738,188,248047
32.813,162746,188,248047
32.818,162747,188,248030
32.823,162720,190,248046
32.828,162717,190,248044
32.832,162720,191,248060
32.837,162734,190,248057
32.842,162752,191,248053
32.847,162757,192,248072
32.852,162742,189,248057
32.857,162742,190,248074
32.862,162733,192,248067
32.867,162732,194,248054
32.872,162728,194,248076
32.877,162732,196,248073
32.882,162732,186,248066
32.887,162726,187,248054
32.892,162725,187,248054
32.897,162717,192,248070
32.902,162732,193,248047
32.907,162720,193,248052
32.912,162716,193,248069
32.917,162715,193,248048
32.922,162699,194,248061
32.927,162686,193,248050
32.932,162691,193,248055
32.937,162706,193,248054
32.942,162686,193,248031
32.947,162690,189,248047
32.952,162676,190,248047
32.957,162690,191,248052
32.962,162696,192,248067
32.967,162703,193,248070
32.972,162698,194,248076
32.976,162692,195,248075
32.981,162706,195,248075
32.986,162704,195,248090
32.991,162714,196,248068
32.996,162714,189,248080
33.001,162720,189,248093
33.006,162718,190,248085
33.011,162725,191,248083
33.016,162725,192,248103
33.021,162709,193,248112
33.026,162739,193,248091
33.031,162735,194,248112
33.036,162724,194,248133
33.041,162723,195,248119
33.046,162739,190,248122
33.051,162742,191,248123
33.056,162730,191,248117
33.061,162745,192,248113
33.066,162748,193,248128
33.071,162748,194,248139
33.076,162756,196,248142
33.081,162765,197,248128
33.086,162779,187,248156
33.091,162778,192,248115
33.096,162780,192,248170
33.101,162792,195,248167
33.106,162780,196,248160
33.111,162802,187,248174
33.116,162804,189,248185
33.120,162808,190,248194
33.125,162814,191,248204
33.130,162811,192,248177
33.135,162806,193,248181
33.140,162806,197,248205
33.145,162833,193,248208
33.150,162847,195,248227
33.155,162834,195,248220
33.160,162846,197,248214
33.165,162854,186,248243
33.170,162857,187,248231
33.175,162870,189,248208
33.180,162860,190,248240
33.185,162895,191,248235
33.190,162883,197,248225
33.195,162901,187,248253
33.200,162884,188,248248
33.205,162894,190,248250
33.210,162918,190,248259
33.215,162908,191,248274
33.220,162899,191,248264
33.225,162913,192,248255
33.230,162934,193,248274
33.235,162930,193,248292
33.240,162942,188,248289
33.245,162947,189,248292
33.250,162961,190,248294
33.255,162953,191,248303
33.260,162967,192,248298
33.264,162963,194,248296
33.269,162986,194,248328
33.274,162992,195,248318
33.279,163003,196,248338
33.284,162993,186,248336
33.289,163013,191,248350
33.294,162999,192,248334
33.299,163031,193,248330
33.304,163023,195,248343
33.309,163035,196,248343
33.314,163047,186,248348
33.319,163021,187,248351
33.324,163017,188,248367
33.329,163012,188,248322
33.334,162998,191,248368
33.339,162995,195,248311
33.344,162981,196,248293
33.349,162967,197,248278
33.354,162928,186,248263
33.359,162900,187,248238
33.364,162900,187,248231
33.369,162863,186,248195
33.374,162833,187,248187
33.379,162811,188,248172
33.384,162761,192,248174
33.389,162764,193,248147
33.394,162747,194,248128
33.399,162704,195,248105
33.404,162703,196,248105
33.408,162670,186,248091
33.413,162661,187,248086
33.418,162646,188,248074
33.423,162626,188,248067
33.428,162619,189,248035
33.433,162604,193,248027
33.438,162567,194,248022
33.443,162555,196,248028
33.448,162542,186,248030
33.453,162526,188,248014
33.458,162493,188,247972
33.463,162477,189,247980
33.468,162456,190,247975
33.473,162446,191,247953
33.478,162422,192,247959
33.483,162406,187,247910
33.488,162402,188,247946
33.493,162384,189,247932
33.498,162359,189,247909
33.503,162346,192,247925
33.508,162346,192,247905
33.513,162326,194,247911
33.518,162311,196,247887
33.523,162297,198,247877
33.528,162282,186,247881
33.533,162264,187,247859
33.538,162248,190,247868
33.543,162250,193,247863
33.547,162237,194,247871
33.552,162223,196,247850
33.557,162217,186,247851
33.562,162224,188,247847
33.567,162207,188,247878
33.572,162190,190,247855
33.577,162204,192,247911
33.582,162217,186,247907
33.587,162222,187,247893
33.592,162240,190,247912
33.597,162234,192,247937
33.602,162240,194,247915
33.607,162235,195,247919
33.612,162240,186,247917
33.617,162240,188,247919
33.622,162216,190,247917
33.627,162231,193,247916
33.632,162213,187,247921
33.637,162226,186,247937
33.642,162232,188,247935
33.647,162223,188,247934
33.652,162222,190,247919
33.657,162216,190,247931
33.662,162213,191,247916
33.667,162214,191,247913
33.672,162217,192,247942
33.677,162213,196,247923
33.682,162220,187,247928
33.687,162209,187,247939
33.691,162197,188,247934
33.696,162201,188,247947
33.701,162219,189,247942
33.706,162220,190,247963
33.711,162226,192,247947
33.716,162214,192,247963
33.721,162215,194,247967
33.726,162203,187,247977
33.731,162225,188,247971
33.736,162222,187,247962
33.741,162228,189,247981
33.746,162224,189,247993
33.751,162234,191,247988
33.756,162240,192,248005
33.761,162239,193,247989
33.766,162250,194,248008
33.771,162236,195,247992
33.776,162247,189,247988
33.781,162257,190,248011
33.786,162273,192,248025
33.791,162278,193,248050
33.796,162277,195,248016
33.801,162284,196,248041
33.806,162283,186,248054
33.811,162287,187,248047
33.816,162294,189,248065
33.821,162277,189,248054
33.826,162327,189,248077
33.831,162302,193,248083
33.835,162319,194,248088
33.840,162320,195,248101
33.845,162333,195,248076
33.850,162325,196,248082
33.855,162341,196,248091
33.860,162349,186,248111
33.865,162333,187,248122
33.870,162361,191,248119
33.875,162374,191,248142
33.880,162377,193,248119
33.885,162371,193,248125
33.890,162395,193,248151
33.895,162381,193,248152
33.900,162384,194,248151
33.905,162395,195,248152
33.910,162420,196,248181
33.915,162409,196,248149
33.920,162426,191,248169
33.925,162412,191,248184
33.930,162434,191,248169
33.935,162438,193,248201
33.940,162433,194,248208
33.945,162459,196,248218
33.950,162438,187,248226
33.955,162476,188,248205
33.960,162481,189,248240
33.965,162468,190,248235
33.970,162488,195,248231
33.975,162502,186,248240
33.979,162501,187,248244
33.984,162520,189,248240
33.989,162516,190,248255
33.994,162528,191,248258
33.999,162535,193,248272
34.004,162538,195,248278
34.009,162554,187,248276
34.014,162553,188,248300
34.019,162563,193,248310
34.024,162579,195,248286
34.029,162575,196,248300
34.034,162586,186,248308
34.039,162593,187,248311
34.044,162594,189,248304
34.049,162608,190,248334
34.054,162614,189,248322
34.059,162631,191,248335
34.064,162625,192,248321
34.069,162637,197,248345
34.074,162663,187,248382
34.079,162660,187,248371
34.084,162671,188,248385
34.089,162671,189,248378
34.094,162673,189,248386
34.099,162691,192,248397
34.104,162692,193,248387
34.109,162720,193,248399
34.114,162717,195,248400
34.119,162732,192,248413
34.123,162727,193,248404
34.128,162739,193,248431
34.133,162749,195,248420
34.138,162755,196,248417
34.143,162789,197,248430
34.148,162779,186,248445
34.153,162782,187,248449
34.158,162797,188,248447
34.163,162816,194,248456
34.168,162805,194,248467
34.173,162833,195,248472
34.178,162837,196,248491
34.183,162823,197,248494
34.188,162845,186,248488
34.193,162848,187,248502
34.198,162873,187,248495
34.203,162871,188,248517
34.208,162896,187,248515
34.213,162891,193,248534
34.218,162911,193,248523
34.223,162911,194,248535
34.228,162923,194,248535
34.233,162938,194,248545
34.238,162945,194,248540
34.243,162952,195,248563
34.248,162966,195,248552
34.253,162966,194,248549
34.258,162979,194,248538
34.262,162981,192,248549
34.267,162984,193,248582
34.272,163005,194,248571
34.277,162999,195,248582
34.282,163007,196,248594
34.287,163034,196,248604
34.292,163042,187,248626
34.297,163048,189,248620
34.302,163068,190,248629
34.307,163078,192,248620
34.312,163079,197,248640
34.317,163085,186,248642
34.322,163103,187,248646
34.327,163099,188,248665
34.332,163123,189,248659
34.337,163134,189,248678
34.342,163132,190,248671
34.347,163150,190,248674
34.352,163147,192,248687
34.357,163167,195,248646
34.362,163181,197,248684
34.367,163170,197,248690
34.372,163159,186,248685
34.377,163153,186,248660
34.382,163143,187,248631
34.387,163125,187,248659
34.392,163099,188,248622
34.397,163091,187,248612
34.402,163071,188,248564
34.406,163064,191,248548
34.411,163001,192,248530
34.416,162987,193,248510
34.421,162951,194,248493
34.426,162934,195,248468
34.431,162902,196,248447
34.436,162877,197,248443
34.441,162852,187,248414
34.446,162832,187,248394
34.451,162804,189,248384
34.456,162773,193,248368
34.461,162758,194,248351
34.466,162762,194,248357
34.471,162727,196,248362
34.476,162722,196,248330
34.481,162706,187,248332
34.486,162689,188,248323
34.491,162674,190,248324
34.496,162664,192,248311
34.501,162637,193,248293
34.506,162632,188,248290
34.511,162611,190,248266
34.516,162589,191,248256
34.521,162562,193,248258
34.526,162569,194,248249
34.531,162551,196,248214
34.536,162525,196,248215
34.541,162520,186,248192
34.546,162510,187,248193
34.550,162494,187,248187
34.555,162461,191,248181
34.560,162438,192,248172
34.565,162443,193,248156
34.570,162424,194,248153
34.575,162409,195,248166
34.580,162401,197,248154
34.585,162392,187,248143
34.590,162383,189,248129
34.595,162378,189,248129
34.600,162368,191,248116
34.605,162349,195,248115
34.610,162337,196,248134
34.615,162325,196,248123
34.620,162342,187,248133
34.625,162338,187,248149
34.630,162330,188,248149
34.635,162340,189,248152
34.640,162355,191,248179
34.645,162362,193,248182
34.650,162404,187,248194
34.655,162380,191,248186
34.660,162355,193,248193
34.665,162350,194,248209
34.670,162363,197,248185
34.675,162371,187,248199
34.680,162350,190,248186
34.685,162360,192,248163
34.690,162359,194,248176
34.694,162353,197,248179
34.699,162358,194,248191
34.704,162352,187,248175
34.709,162345,189,248191
34.714,162347,190,248192
34.719,162338,193,248179
34.724,162343,194,248179
34.729,162336,196,248171
34.734,162344,186,248186
34.739,162359,189,248188
34.744,162342,189,248199
34.749,162335,195,248202
34.754,162341,186,248215
34.759,162355,188,248204
34.764,162363,188,248222
34.769,162350,189,248218
34.774,162362,190,248221
34.779,162360,190,248202
34.784,162358,191,248220
34.789,162367,192,248225
34.794,162379,193,248214
34.799,162386,187,248218
34.804,162391,188,248249
34.809,162378,189,248246
34.814,162400,190,248236
34.819,162394,190,248251
34.824,162383,191,248260
34.829,162405,193,248277
34.834,162399,193,248275
34.838,162417,193,248277
34.843,162417,195,248277
34.848,162423,187,248277
34.853,162413,189,248277
34.858,162419,190,248283
34.863,162438,190,248294
34.868,162441,191,248293
34.873,162454,191,248300
34.878,162451,191,248304
34.883,162464,191,248317
34.888,162472,192,248305
34.893,162461,192,248312
34.898,162487,188,248309
34.903,162491,189,248312
34.908,162508,190,248323
34.913,162499,191,248352
34.918,162525,192,248345
34.923,162511,193,248356
34.928,162516,194,248348
34.933,162529,195,248357
34.938,162557,195,248386
34.943,162536,190,248412
34.948,162574,186,248394
34.953,162566,187,248415
34.958,162569,188,248403
34.963,162567,189,248409
34.968,162584,191,248427
34.973,162598,193,248441
34.977,162590,194,248433
34.982,162611,196,248447
34.987,162624,186,248444
34.992,162625,190,248421
34.997,162622,191,248452
35.002,162648,192,248467
35.007,162660,192,248458
35.012,162649,193,248443
35.017,162659,195,248461
35.022,162672,196,248464
35.027,162664,186,248488
35.032,162672,187,248480
35.037,162685,190,248492
35.042,162702,188,248472
35.047,162708,188,248498
35.052,162717,189,248521
35.057,162718,189,248498
35.062,162743,191,248518
35.067,162731,191,248529
35.072,162764,193,248533
35.077,162768,193,248526
35.082,162768,193,248551
35.087,162786,193,248546
35.092,162783,191,248566
35.097,162799,191,248565
35.102,162826,191,248567
35.107,162817,192,248581
35.112,162831,191,248602
35.117,162816,191,248597
35.121,162824,191,248613
35.126,162850,190,248607
35.131,162846,192,248618
35.136,162856,207,248607
35.141,162875,197,248613
35.146,162897,196,248617
35.151,162892,195,248624
35.156,162890,195,248639
35.161,162909,194,248641
35.166,162913,194,248646
35.171,162917,194,248634
35.176,162933,194,248647
35.181,162940,194,248660
35.186,162941,188,248668
35.191,162939,189,248660
35.196,162961,188,248670
35.201,162971,188,248687
35.206,162968,189,248671
35.211,162980,190,248685
35.216,162987,190,248708
35.221,163005,191,248700
35.226,163017,189,248688
35.231,163036,191,248700
35.236,163025,195,248699
35.241,163038,195,248720
35.246,163045,199,248725
35.251,163067,187,248740
35.256,163076,188,248733
35.261,163080,189,248749
35.265,163083,190,248742
35.270,163107,191,248761
35.275,163110,192,248756
35.280,163113,194,248759
35.285,163138,188,248747
35.290,163140,190,248774
35.295,163138,190,248785
35.300,163143,193,248778
35.305,163144,194,248768
35.310,163140,196,248747
35.315,163113,187,248753
35.320,163086,188,248729
35.325,163085,190,248702
35.330,163065,191,248686
35.335,163037,189,248664
35.340,163005,191,248656
35.345,162994,191,248630
35.350,162964,192,248626
35.355,162938,193,248576
35.360,162925,195,248564
35.365,162900,196,248553
35.370,162885,186,248541
35.375,162868,187,248538
35.380,162846,192,248521
35.385,162828,195,248492
35.390,162820,187,248491
35.395,162789,188,248485
35.400,162775,191,248459
35.405,162773,192,248465
35.409,162761,193,248469
35.414,162763,194,248461
35.419,162747,196,248449
35.424,162721,196,248452
35.429,162725,190,248455
35.434,162693,191,248423
35.439,162696,192,248407
35.444,162673,193,248388
35.449,162683,194,248384
35.454,162652,195,248366
35.459,162646,195,248348
35.464,162624,196,248344
35.469,162622,196,248360
35.474,162615,197,248339
35.479,162613,190,248355
35.484,162592,190,248351
35.489,162587,191,248368
35.494,162578,191,248345
35.499,162592,192,248325
35.504,162566,193,248346
35.509,162560,194,248313
35.514,162552,195,248321
35.519,162545,195,248305
35.524,162522,197,248328
35.529,162538,191,248305
35.534,162524,192,248302
35.539,162537,193,248294
35.544,162527,193,248319
35.548,162540,194,248333
35.553,162532,195,248331
35.558,162552,197,248347
35.563,162563,187,248353
35.568,162549,188,248345
35.573,162557,189,248362
35.578,162574,195,248358
35.583,162568,187,248380
35.588,162571,187,248348
35.593,162577,188,248377
35.598,162573,189,248378
35.603,162559,191,248371
35.608,162575,192,248351
35.613,162572,193,248357
35.618,162582,195,248369
35.623,162574,189,248413
35.628,162570,194,248365
35.633,162578,196,248364
35.638,162589,187,248364
35.643,162577,188,248373
35.648,162597,189,248361
35.653,162572,191,248390
35.658,162581,193,248359
35.663,162580,195,248360
35.668,162575,197,248375
35.673,162592,190,248395
35.678,162589,196,248374
35.683,162598,196,248391
35.688,162592,187,248390
35.692,162588,187,248376
35.697,162600,188,248408
35.702,162599,190,248420
35.707,162609,191,248406
35.712,162618,192,248412
35.717,162633,194,248398
35.722,162621,187,248407
35.727,162638,189,248434
35.732,162652,189,248418
35.737,162658,190,248442
35.742,162650,191,248438
35.747,162662,193,248442
35.752,162667,194,248425
35.757,162665,196,248451
35.762,162683,186,248438
35.767,162686,188,248435
35.772,162673,198,248457
35.777,162694,192,248450
35.782,162696,192,248468
35.787,162701,193,248467
35.792,162704,193,248464
35.797,162711,195,248468
35.802,162726,197,248472
35.807,162733,187,248471
35.812,162729,187,248475
35.817,162744,187,248476
35.822,162748,192,248471
35.827,162758,194,248499
35.832,162771,195,248505
35.836,162776,196,248505
35.841,162790,186,248531
35.846,162790,187,248515
35.851,162802,188,248532
35.856,162808,190,248527
35.861,162806,192,248538
35.866,162813,195,248522
35.871,162831,187,248572
35.876,162843,190,248560
35.881,162864,190,248561
35.886,162862,190,248556
35.891,162884,190,248584
35.896,162879,191,248587
35.901,162875,192,248571
35.906,162895,192,248593
35.911,162892,193,248585
35.916,162948,184,248611
35.921,162901,193,248601
35.926,162916,193,248600
35.931,162923,193,248608
35.936,162934,194,248603
35.941,162943,195,248611
35.946,162950,196,248618
35.951,162971,196,248639
35.956,162972,186,248619
35.961,162938,186,248650
35.966,162979,191,248644
35.971,162978,191,248642
35.976,162989,191,248648
35.980,163002,192,248634
35.985,163011,192,248653
35.990,163029,193,248654
35.995,163026,194,248689
36.000,163029,195,248677
36.005,163049,196,248683
36.010,163051,187,248670
36.015,163062,191,248681
36.020,163077,192,248687
36.025,163077,193,248698
36.030,163076,193,248697
36.035,163098,195,248702
36.040,163117,197,248715
36.045,163127,187,248725
36.050,163129,187,248736
36.055,163121,188,248731
36.060,163140,189,248747
36.065,163146,188,248765
36.070,163171,190,248767
36.075,163184,190,248763
36.080,163193,191,248750
36.085,163189,192,248776
36.090,163198,193,248786
36.095,163198,195,248792
36.100,163225,197,248784
36.105,163215,187,248807
36.110,163237,188,248798
36.115,163249,193,248793
36.120,163258,194,248803
36.124,163281,194,248813
36.129,163275,195,248818
36.134,163286,196,248825
36.139,163297,187,248828
36.144,163321,187,248828
36.149,163326,188,248838
36.154,163325,189,248834
36.159,163310,189,248824
36.164,163308,196,248806
36.169,163301,186,248807
36.174,163286,188,248786
36.179,163280,189,248800
36.184,163246,189,248761
36.189,163231,190,248755
36.194,163233,191,248729
36.199,163202,191,248709
36.204,163172,192,248704
36.209,163160,196,248674
36.214,163124,186,248648
36.219,163113,187,248637
36.224,163091,187,248629
36.229,163059,187,248589
36.234,163049,188,248596
36.239,163020,189,248581
36.244,163020,188,248553
36.249,163007,189,248560
36.254,162997,190,248561
36.259,162986,195,248541
36.263,162971,195,248538
36.268,162950,197,248523
36.273,162949,186,248502
36.278,162934,187,248514
36.283,162910,187,248510
36.288,162923,187,248505
36.293,162895,187,248503
36.298,162892,188,248484
36.303,162875,190,248475
36.308,162859,194,248444
36.313,162858,195,248450
36.318,162850,196,248439
36.323,162823,196,248426
36.328,162834,187,248429
36.333,162809,187,248426
36.338,162786,188,248410
36.343,162781,189,248393
36.348,162782,190,248419
36.353,162757,190,248380
36.358,162740,195,248397
36.363,162748,195,248374
36.368,162729,195,248382
36.373,162730,195,248371
36.378,162703,195,248378
36.383,162719,196,248371
36.388,162725,196,248364
36.393,162702,187,248351
36.398,162703,186,248353
36.403,162700,185,248381
36.407,162687,191,248350
36.412,162691,192,248379
36.417,162696,193,248391
36.422,162713,195,248379
36.427,162710,196,248399
36.432,162720,186,248421
36.437,162728,187,248411
36.442,162714,187,248420
36.447,162734,188,248402
36.452,162729,192,248387
36.457,162731,193,248413
36.462,162741,193,248418
36.467,162743,194,248393
36.472,162754,194,248406
36.477,162742,195,248419
36.482,162735,194,248419
36.487,162730,194,248424
36.492,162743,195,248426
36.497,162742,195,248430
36.502,162764,192,248453
36.507,162747,189,248424
36.512,162743,190,248419
36.517,162753,191,248428
36.522,162762,192,248444
36.527,162743,192,248422
36.532,162742,193,248434
36.537,162759,194,248447
36.542,162760,195,248434
36.547,162762,196,248435
36.551,162757,190,248445
36.556,162780,190,248434
36.561,162777,190,248449
36.566,162769,190,248468
36.571,162789,191,248458
36.576,162794,192,248451
36.581,162789,193,248474
36.586,162784,193,248488
36.591,162810,194,248476
36.596,162811,196,248485
36.601,162804,189,248462
36.606,162803,189,248490
36.611,162824,189,248523
36.616,162838,190,248499
36.621,162837,189,248502
36.626,162843,189,248488
36.631,162835,189,248499
36.636,162862,190,248497
36.641,162856,189,248496
36.646,162858,192,248477
36.651,162860,194,248519
36.656,162888,194,248529
36.661,162897,193,248529
36.666,162880,192,248557
36.671,162903,192,248546
36.676,162914,192,248542
36.681,162927,193,248539
36.686,162937,193,248557
36.691,162948,193,248562
36.695,162975,187,248571
36.700,162949,187,248602
36.705,162943,186,248586
36.710,162963,187,248576
36.715,162965,186,248586
36.720,162998,186,248604
36.725,162989,186,248598
36.730,162991,185,248610
36.735,163001,186,248606
36.740,163005,187,248627
36.745,163015,192,248634
36.750,163012,193,248646
36.755,163010,193,248631
36.760,163037,194,248641
36.765,163046,194,248650
36.770,163040,194,248653
36.775,163059,194,248675
36.780,163061,194,248668
36.785,163070,195,248651
36.790,163079,196,248677
36.795,163092,189,248658
36.800,163092,190,248682
36.805,163101,191,248680
36.810,163093,192,248660
36.815,163109,192,248660
36.820,163132,193,248685
36.825,163133,193,248687
36.830,163127,194,248684
36.835,163146,195,248692
36.839,163169,196,248712
36.844,163175,191,248731
36.849,163183,190,248722
36.854,163184,191,248724
36.859,163180,191,248730
36.864,163196,191,248747
36.869,163211,192,248757
36.874,163220,194,248748
36.879,163235,195,248746
36.884,163238,195,248761
36.889,163240,186,248749
36.894,163264,195,248758
36.899,163260,195,248788
36.904,163263,196,248794
36.909,163289,197,248793
36.914,163293,187,248807
36.919,163291,188,248804
36.924,163303,188,248814
36.929,163312,189,248823
36.934,163331,190,248809
36.939,163379,192,248821
36.944,163331,196,248825
36.949,163349,186,248821
36.954,163343,187,248835
36.959,163365,188,248816
36.964,163379,188,248842
36.969,163363,189,248851
36.974,163387,188,248853
36.978,163381,189,248862
36.983,163422,189,248854
36.988,163411,194,248900
36.993,163422,195,248885
36.998,163438,196,248874
37.003,163446,196,248879
37.008,163448,186,248888
37.013,163468,186,248886
37.018,163479,188,248884
37.023,163482,188,248897
37.028,163487,189,248899
37.033,163495,189,248906
37.038,163504,194,248899
37.043,163516,196,248908
37.048,163519,196,248930
37.053,163525,196,248918
37.058,163550,186,248929
37.063,163545,187,248972
37.068,163568,187,248951
37.073,163561,189,248936
37.078,163589,190,248949
37.083,163594,191,248963
37.088,163586,188,248957
37.093,163601,188,248970
37.098,163620,189,248976
37.103,163622,189,248962
37.108,163641,192,248961
37.113,163649,192,248991
37.118,163654,193,248980
37.122,163662,195,248997
37.127,163667,196,248984
37.132,163669,187,249015
37.137,163680,195,248999
37.142,163700,186,249013
37.147,163705,187,249007
37.152,163719,187,249024
37.157,163778,185,249037
37.162,163739,188,249037
37.167,163748,189,249030
37.172,163758,189,249044
37.177,163757,191,249039
37.182,163788,197,249056
37.187,163785,193,249053
37.192,163784,186,249068
37.197,163810,187,249070
37.202,163811,188,249084
37.207,163826,190,249096
37.212,163860,191,249098
37.217,163843,193,249117
37.222,163850,195,249113
37.227,163851,186,249105
37.232,163868,190,249103
37.237,163887,191,249118
37.242,163885,192,249115
37.247,163896,194,249093
37.252,163864,194,249087
37.257,163867,197,249077
37.262,163854,186,249064
37.266,163840,187,249040
37.271,163820,188,249003
37.276,163786,189,248997
37.281,163778,195,248974
37.286,163743,197,248966
37.291,163721,186,248952
37.296,163701,187,248932
37.301,163661,187,248903
37.306,163658,190,248883
37.311,163630,191,248862
37.316,163610,192,248845
37.321,163581,193,248824
37.326,163559,196,248815
37.331,163545,189,248810
37.336,163528,190,248777
37.341,163507,191,248775
37.346,163514,191,248778
37.351,163487,192,248772
37.356,163470,192,248742
37.361,163458,193,248744
37.366,163448,194,248725
37.371,163444,196,248725
37.376,163409,186,248719
37.381,163402,191,248725
37.386,163401,192,248675
37.391,163398,194,248685
37.396,163384,196,248657
37.401,163357,186,248670
37.406,163357,188,248645
37.410,163339,189,248632
37.415,163325,190,248626
37.420,163310,191,248623
37.425,163295,193,248611
37.430,163297,187,248605
37.435,163274,189,248577
37.440,163273,189,248594
37.445,163259,191,248576
37.450,163249,192,248573
37.455,163218,194,248557
37.460,163218,194,248571
37.465,163204,195,248566
37.470,163201,196,248559
37.475,163192,190,248552
37.480,163197,191,248539
37.485,163180,192,248525
37.490,163166,193,248531
37.495,163159,194,248522
37.500,163168,194,248530
37.505,163155,195,248546
37.510,163181,196,248551
37.515,163180,197,248546
37.520,163185,187,248580
37.525,163196,191,248582
37.530,163187,193,248556
37.535,163196,193,248557
37.540,163193,194,248580
37.545,163180,196,248575
37.550,163174,187,248547
37.554,163185,188,248554
37.559,163178,189,248556
37.564,163184,191,248548
37.569,163186,193,248563
37.574,163179,191,248547
37.579,163177,193,248543
37.584,163182,195,248558
37.589,163177,196,248546
37.594,163191,187,248545
37.599,163172,188,248536
37.604,163180,188,248538
37.609,163170,189,248541
37.614,163166,190,248545
37.619,163165,191,248536
37.624,163178,197,248531
37.629,163157,187,248544
37.634,163167,187,248554
37.639,163176,188,248544
37.644,163182,189,248564
37.649,163170,189,248551
37.654,163171,189,248561
37.659,163181,190,248565
37.664,163176,190,248550
37.669,163180,196,248567
37.674,163168,197,248569
37.679,163199,187,248572
37.684,163210,187,248589
37.689,163206,188,248581
37.693,163191,188,248568
37.698,163209,189,248589
37.703,163212,190,248586
37.708,163226,191,248608
37.713,163219,192,248586
37.718,163183,209,248630
37.723,163216,189,248613
37.728,163240,191,248611
37.733,163237,191,248612
37.738,163234,193,248604
37.743,163231,195,248623
37.748,163241,186,248605
37.753,163237,187,248609
37.758,163241,188,248635
37.763,163264,187,248629
37.768,163261,194,248623
37.773,163276,196,248632
37.778,163282,197,248656
37.783,163290,186,248630
37.788,163307,187,248647
37.793,163280,188,248662
37.798,163310,189,248657
37.803,163301,190,248678
37.808,163317,191,248675
37.813,163305,191,248668
37.818,163340,186,248672
37.823,163334,186,248682
37.828,163331,187,248667
37.833,163348,188,248678
37.837,163356,188,248695
37.842,163356,188,248683
37.847,163356,188,248688
37.852,163373,189,248700
37.857,163364,189,248700
37.862,163378,189,248719
37.867,163391,194,248709
37.872,163391,195,248714
37.877,163416,197,248733
37.882,163406,196,248727
37.887,163404,187,248724
37.892,163421,187,248737
37.897,163434,189,248737
37.902,163429,190,248734
37.907,163432,192,248734
37.912,163446,194,248730
37.917,163452,188,248758
37.922,163453,190,248732
37.927,163460,192,248748
37.932,163471,192,248756
37.937,163471,195,248742
37.942,163478,195,248746
37.947,163490,196,248754
37.952,163490,196,248794
37.957,163503,186,248772
37.962,163452,189,248799
37.967,163522,192,248793
37.972,163523,192,248788
37.977,163527,194,248802
37.981,163565,196,248801
37.986,163556,186,248786
37.991,163561,188,248826
37.996,163547,189,248837
38.001,163572,191,248809
38.006,163592,193,248827
38.011,163599,189,248870
38.016,163579,188,248833
38.021,163596,190,248839
38.026,163590,191,248851
38.031,163611,193,248850
38.036,163604,195,248845
38.041,163628,196,248864
38.046,163622,187,248858
38.051,163634,188,248861
38.056,163630,190,248854
38.061,163647,194,248848
38.066,163648,195,248850
38.071,163660,187,248875
38.076,163665,188,248855
38.081,163679,190,248874
38.086,163679,191,248876
38.091,163678,192,248884
38.096,163696,194,248908
38.101,163715,194,248920
38.106,163720,196,248938
38.111,163729,195,248920
38.116,163736,196,248947
38.121,163749,187,248942
38.125,163747,188,248944
38.130,163767,190,248944
38.135,163764,192,248932
38.140,163779,193,248948
38.145,163779,195,248963
38.150,163779,196,248951
38.155,163794,189,248953
38.160,163826,192,248963
38.165,163799,195,248970
38.170,163823,196,248987
38.175,163823,186,248983
38.180,163846,187,248977
38.185,163844,188,248995
38.190,163861,190,248984
38.195,163874,191,249005
38.200,163869,192,249001
38.205,163924,196,249004
38.210,163894,187,249023
38.215,163898,189,249017
38.220,163889,191,249001
38.225,163919,192,249012
38.230,163908,193,249014
38.235,163907,194,248999
38.240,163909,193,248999
38.245,163882,194,248967
38.250,163870,195,248954
38.255,163886,190,248951
38.260,163843,194,248915
38.265,163828,197,248902
38.269,163780,197,248889
38.274,163774,188,248868
38.279,163744,189,248849
38.284,163702,191,248826
38.289,163683,193,248800
38.294,163670,195,248785
38.299,163639,196,248780
38.304,163608,191,248753
38.309,163613,191,248738
38.314,163582,193,248713
38.319,163544,195,248696
38.324,163539,196,248681
38.329,163525,187,248685
38.334,163508,188,248678
38.339,163501,189,248674
38.344,163470,190,248666
38.349,163482,191,248618
38.354,163464,197,248645
38.359,163446,186,248642
38.364,163446,188,248617
38.369,163432,190,248604
38.374,163418,191,248614
38.379,163406,192,248619
38.384,163372,194,248574
38.389,163368,195,248560
38.394,163356,197,248573
38.399,163344,187,248558
38.404,163329,191,248530
38.408,163311,193,248532
38.413,163306,194,248536
38.418,163287,195,248522
38.423,163279,197,248514
38.428,163282,186,248519
38.433,163258,187,248511
38.438,163238,189,248496
38.443,163231,191,248518
38.448,163211,192,248483
38.453,163200,187,248471
38.458,163198,188,248475
38.463,163184,189,248455
38.468,163183,191,248464
38.473,163197,192,248471
38.478,163173,194,248463
38.483,163190,196,248467
38.488,163175,186,248481
38.493,163167,187,248483
38.498,163175,192,248496
38.503,163177,193,248497
38.508,163193,196,248497
38.513,163166,187,248494
38.518,163187,189,248496
38.523,163166,191,248488
38.528,163163,193,248486
38.533,163175,195,248477
38.538,163175,187,248472
38.543,163172,189,248482
38.548,163167,195,248481
38.552,163170,187,248495
38.557,163174,189,248488
38.562,163154,190,248475
38.567,163163,192,248456
38.572,163150,193,248477
38.577,163168,194,248452
38.582,163157,194,248482
38.587,163159,195,248478
38.592,163153,187,248450
38.597,163152,197,248458
38.602,163131,187,248465
38.607,163146,189,248472
38.612,163134,189,248460
38.617,163149,191,248476
38.622,163135,193,248454
38.627,163148,194,248476
38.632,163142,186,248474
38.637,163151,188,248478
38.642,163144,190,248492
38.647,163154,195,248482
38.652,163150,197,248479
38.657,163154,187,248486
38.662,163150,189,248490
38.667,163147,191,248482
38.672,163139,192,248494
38.677,163149,193,248470
38.682,163169,195,248495
38.687,163160,197,248478
38.692,163166,193,248497
38.696,163156,196,248475
38.701,163176,197,248496
38.706,163170,186,248507
38.711,163169,187,248502
38.716,163188,189,248500
38.721,163192,189,248498
38.726,163200,191,248482
38.731,163211,193,248493
38.736,163184,195,248503
38.741,163185,188,248509
38.746,163214,189,248508
38.751,163220,191,248528
38.756,163226,194,248509
38.761,163219,194,248539
38.766,163225,196,248524
38.771,163245,186,248548
38.776,163249,188,248544
38.781,163261,188,248559
38.786,163246,188,248569
38.791,163266,193,248555
38.796,163266,195,248565
38.801,163287,196,248570
38.806,163276,187,248580
38.811,163282,188,248573
38.816,163286,190,248589
38.821,163291,191,248598
38.826,163306,193,248610
38.831,163307,195,248610
38.836,163316,197,248604
38.840,163304,191,248593
38.845,163305,193,248594
38.850,163318,195,248605
38.855,163329,187,248605
38.860,163347,188,248621
38.865,163342,191,248617
38.870,163353,193,248627
38.875,163353,196,248630
38.880,163362,188,248614
38.885,163346,190,248630
38.890,163354,186,248636
38.895,163360,189,248613
38.900,163376,191,248623
38.905,163384,194,248643
38.910,163391,196,248635
38.915,163419,187,248661
38.920,163415,189,248647
38.925,163413,192,248670
38.930,163420,193,248662
38.935,163417,195,248650
38.940,163441,188,248673
38.945,163447,189,248683
38.950,163452,191,248705
38.955,163454,193,248679
38.960,163478,194,248679
38.965,163465,195,248694
38.970,163470,197,248696
38.975,163489,187,248707
38.980,163492,188,248729
38.984,163512,194,248721
38.989,163513,188,248739
38.994,163532,189,248741
38.999,163539,189,248731
39.004,163512,191,248727
39.009,163526,193,248728
39.014,163543,196,248738
39.019,163558,197,248737
39.024,163567,188,248750
39.029,163565,190,248740
39.034,163559,195,248759
39.039,163567,197,248759
39.044,163582,188,248754
39.049,163597,189,248762
39.054,163602,191,248754
39.059,163611,192,248762
39.064,163620,194,248764
39.069,163627,197,248766
39.074,163634,187,248792
39.079,163648,189,248773
39.084,163639,193,248793
39.089,163655,194,248791
39.094,163646,196,248794
39.099,163655,187,248788
39.104,163674,188,248807
39.109,163671,190,248824
39.114,163701,192,248805
39.119,163679,193,248808
39.123,163726,195,248820
39.128,163715,196,248838
39.133,163725,195,248840
39.138,163749,196,248857
39.143,163744,186,248854
39.148,163758,188,248843
39.153,163761,190,248841
39.158,163761,190,248836
39.163,163755,192,248863
39.168,163752,193,248845
39.173,163757,195,248837
39.178,163738,188,248814
