df_hash,22ZHK4.HAC2HB
device,HZ2X61
project_hash,29R7
project_name,istanbul_aydin_university
person_hash,29R7.4LLJ
person_label,V86
date_time_start,2025-11-04_14-43-49.313000_+03
date_time_start_unix,1762253029.313
date_time_end,2025-11-04_14-52-08.536000_+03
length_difference_noticed,no

time,ppg_med
5.437,409
5.462,470
5.487,567
5.512,620
5.537,599
5.562,578
5.587,634
5.612,737
5.637,776
5.662,713
5.687,646
5.712,681
5.737,776
5.762,782
5.787,646
5.812,503
5.837,495
5.862,566
5.887,514
5.912,273
5.937,20
5.962,-51
5.987,-18
6.012,-146
6.037,-523
6.062,-910
6.087,-1057
6.112,-1063
6.137,-1272
6.162,-1796
6.187,-2326
6.212,-2537
6.237,-2557
6.262,-2827
6.287,-3487
6.312,-4141
6.337,-4374
6.362,-4350
6.387,-4626
6.412,-5379
6.437,-6106
6.462,-6282
6.487,-6117
6.512,-6310
6.537,-7080
6.562,-7795
6.587,-7803
6.612,-7362
6.637,-7349
6.662,-8036
6.687,-8636
6.712,-8334
6.737,-7455
6.762,-7094
6.787,-7591
6.812,-7967
6.837,-7204
6.862,-5711
6.887,-4857
6.912,-5074
6.937,-5138
6.962,-3772
6.987,-1486
7.012,-13
7.037,89
7.062,371
7.087,2460
7.112,5709
7.137,7892
7.162,8267
7.187,8832
7.212,11730
7.237,16131
7.262,19071
7.287,19515
7.312,20140
7.337,23923
7.362,29780
7.387,32767
7.412,32767
7.437,32767
7.462,32767
7.487,32767
7.512,32767
7.537,32767
7.562,32767
7.587,32767
7.612,32767
7.637,32767
7.662,32767
7.687,10898
7.712,-32768
7.737,-32768
7.762,-32768
7.787,-32768
7.812,-32768
7.837,-32768
7.862,-32768
7.887,-32768
7.912,-32768
7.937,-32768
7.962,-32768
7.987,-32768
8.012,-31596
8.037,-26103
8.062,-21097
8.087,-19402
8.112,-19340
8.137,-17489
8.162,-13314
8.187,-9510
8.212,-8134
8.237,-8015
8.262,-6634
8.287,-3561
8.312,-794
8.337,101
8.362,9
8.387,869
8.412,3029
8.437,4938
8.462,5368
8.487,5002
8.512,5373
8.537,6766
8.562,7960
8.587,7977
8.612,7360
8.637,7330
8.662,8125
8.687,8773
8.712,8491
8.737,7707
8.762,7396
8.787,7750
8.812,7997
8.837,7521
8.862,6674
8.887,6239
8.912,6361
8.937,6409
8.962,5881
8.987,5062
9.012,4580
9.037,4556
9.062,4490
9.087,3985
9.112,3260
9.137,2814
9.162,2741
9.187,2649
9.212,2228
9.237,1651
9.262,1306
9.287,1261
9.312,1205
9.337,893
9.362,463
9.387,217
9.412,211
9.437,204
9.462,7
9.487,-278
9.512,-423
9.537,-388
9.562,-354
9.587,-463
9.612,-638
9.637,-703
9.662,-626
9.687,-541
9.712,-558
9.737,-626
9.762,-623
9.787,-525
9.812,-430
9.837,-415
9.862,-442
9.887,-422
9.912,-336
9.937,-254
9.962,-230
9.987,-235
10.012,-203
10.037,-122
10.062,-46
10.087,-18
10.112,-16
10.137,11
10.162,76
10.187,135
10.212,153
10.237,149
10.262,154
10.287,147
10.312,140
10.337,131
10.362,122
10.387,115
10.412,112
10.437,116
10.462,125
10.487,140
10.512,157
10.537,175
10.562,191
10.587,201
10.612,204
10.637,201
10.662,194
10.687,187
10.712,180
10.737,177
10.762,176
10.787,177
10.812,176
10.837,173
10.862,167
10.887,160
10.912,155
10.937,151
10.962,149
10.987,146
11.012,143
11.037,138
11.062,131
11.087,120
11.112,107
11.137,95
11.162,91
11.187,99
11.212,114
11.237,133
11.262,151
11.287,164
11.312,174
11.337,180
11.362,184
11.387,186
11.412,187
11.437,186
11.462,184
11.487,180
11.512,176
11.537,173
11.562,172
11.587,171
11.612,169
11.637,167
11.662,163
11.687,160
11.712,157
11.737,153
11.762,147
11.787,140
11.812,132
11.837,123
11.862,116
11.887,114
11.912,120
11.937,134
11.962,152
11.987,169
12.012,181
12.037,187
12.062,189
12.087,188
12.112,186
12.137,184
12.162,183
12.187,184
12.212,185
12.237,184
12.262,182
12.287,179
12.312,177
12.337,175
12.362,174
12.387,173
12.412,170
12.437,167
12.462,164
12.487,157
12.512,148
12.537,137
12.562,128
12.587,122
12.612,119
12.637,118
12.662,119
12.687,125
12.712,138
12.737,155
12.762,169
12.787,176
12.812,175
12.837,171
12.862,170
12.887,171
12.912,170
12.937,167
12.962,164
12.987,163
13.012,166
13.037,169
13.062,171
13.087,171
13.112,171
13.137,171
13.162,169
13.187,163
13.212,155
13.237,149
13.262,145
13.287,141
13.312,134
13.337,124
13.362,115
13.387,106
13.412,98
13.437,91
13.462,88
13.487,95
13.512,115
13.537,140
13.562,161
13.587,174
13.612,183
13.637,194
13.662,207
13.687,215
13.712,216
13.737,211
13.762,207
13.787,205
13.812,204
13.837,198
13.862,190
13.887,184
13.912,183
13.937,183
13.962,180
13.987,171
14.012,161
14.037,152
14.062,143
14.087,133
14.112,125
14.137,121
14.162,119
14.187,115
14.212,106
14.237,95
14.262,92
14.287,103
14.312,125
14.337,148
14.362,165
14.387,177
14.412,186
14.437,195
14.462,201
14.487,203
14.512,204
14.537,207
14.562,213
14.587,215
14.612,210
14.637,200
14.662,191
14.687,187
14.712,187
14.737,186
14.762,180
14.787,174
14.812,168
14.837,164
14.862,159
14.887,154
14.912,149
14.937,145
14.962,139
14.987,130
15.012,118
15.037,108
15.062,106
15.087,113
15.112,125
15.137,138
15.162,149
15.187,157
15.212,159
15.237,157
15.262,154
15.287,152
15.312,153
15.337,153
15.362,152
15.387,149
15.412,146
15.437,144
15.462,142
15.487,139
15.512,137
15.537,139
15.562,143
15.587,149
15.612,153
15.637,153
15.662,152
15.687,151
15.712,148
15.737,146
15.762,146
15.787,152
15.812,166
15.837,182
15.862,193
15.887,196
15.912,194
15.937,190
15.962,189
15.987,188
16.012,184
16.037,176
16.062,168
16.087,163
16.112,162
16.137,163
16.162,165
16.187,165
16.212,167
16.237,168
16.262,167
16.287,161
16.312,152
16.337,142
16.362,133
16.387,125
16.412,115
16.437,102
16.462,92
16.487,90
16.512,99
16.537,118
16.562,139
16.587,157
16.612,169
16.637,178
16.662,185
16.687,191
16.712,193
16.737,193
16.762,190
16.787,187
16.812,183
16.837,180
16.862,180
16.887,186
16.912,193
16.937,199
16.962,197
16.987,190
17.012,180
17.037,172
17.062,167
17.087,160
17.112,152
17.137,140
17.162,129
17.187,116
17.212,103
17.237,92
17.262,89
17.287,98
17.312,116
17.337,137
17.362,154
17.387,165
17.412,174
17.437,181
17.462,187
17.487,192
17.512,195
17.537,196
17.562,196
17.587,195
17.612,193
17.637,189
17.662,188
17.687,189
17.712,189
17.737,187
17.762,182
17.787,175
17.812,168
17.837,162
17.862,156
17.887,149
17.912,143
17.937,136
17.962,127
17.987,116
18.012,106
18.037,104
18.062,113
18.087,129
18.112,145
18.137,154
18.162,156
18.187,154
18.212,154
18.237,156
18.262,160
18.287,164
18.312,167
18.337,172
18.362,177
18.387,181
18.412,183
18.437,181
18.462,177
18.487,173
18.512,168
18.537,164
18.562,158
18.587,152
18.612,146
18.637,141
18.662,135
18.687,127
18.712,118
18.737,109
18.762,106
18.787,112
18.812,128
18.837,147
18.862,163
18.887,175
18.912,182
18.937,187
18.962,190
18.987,189
19.012,184
19.037,178
19.062,174
19.087,174
19.112,175
19.137,172
19.162,167
19.187,162
19.212,161
19.237,161
19.262,161
19.287,158
19.312,154
19.337,151
19.362,151
19.387,151
19.412,149
19.437,144
19.462,138
19.487,130
19.512,120
19.537,112
19.562,110
19.587,118
19.612,135
19.637,154
19.662,167
19.687,173
19.712,176
19.737,182
19.762,192
19.787,201
19.812,206
19.837,206
19.862,204
19.887,203
19.912,202
19.937,202
19.962,200
19.987,198
20.012,195
20.037,191
20.062,187
20.087,183
20.112,178
20.137,172
20.162,161
20.187,149
20.212,138
20.237,133
20.262,132
20.287,131
20.312,124
20.337,112
20.362,96
20.387,83
20.412,78
20.437,83
20.462,97
20.487,117
20.512,137
20.537,153
20.562,162
20.587,166
20.612,168
20.637,171
20.662,177
20.687,184
20.712,188
20.737,189
20.762,188
20.787,186
20.812,188
20.837,193
20.862,196
20.887,193
20.912,185
20.937,178
20.962,177
20.987,181
21.012,184
21.037,179
21.062,167
21.087,153
21.112,145
21.137,141
21.162,135
21.187,126
21.212,116
21.237,115
21.262,125
21.287,143
21.312,161
21.337,176
21.362,186
21.387,191
21.412,192
21.437,190
21.462,186
21.487,185
21.512,187
21.537,188
21.562,186
21.587,180
21.612,175
21.637,170
21.662,165
21.687,156
21.712,143
21.737,130
21.762,120
21.787,110
21.812,97
21.837,83
21.862,72
21.887,65
21.912,61
21.937,57
21.962,54
21.987,60
22.012,79
22.037,107
22.062,135
22.087,156
22.112,173
22.137,196
22.162,228
22.187,261
22.212,282
22.237,285
22.262,278
22.287,269
22.312,262
22.337,254
22.362,240
22.387,223
22.412,209
22.437,200
22.462,195
22.487,186
22.512,173
22.537,160
22.562,151
22.587,143
22.612,135
22.637,123
22.662,108
22.687,91
22.712,74
22.737,60
22.762,56
22.787,66
22.812,86
22.837,110
22.862,131
22.887,149
22.912,165
22.937,180
22.962,190
22.987,193
23.012,191
23.037,189
23.062,191
23.087,193
23.112,192
23.137,185
23.162,176
23.187,170
23.212,168
23.237,166
23.262,163
23.287,159
23.312,156
23.337,153
23.362,148
23.387,139
23.412,130
23.437,123
23.462,118
23.487,112
23.512,103
23.537,98
23.562,101
23.587,117
23.612,140
23.637,164
23.662,182
23.687,192
23.712,199
23.737,204
23.762,207
23.787,209
23.812,208
23.837,206
23.862,203
23.887,199
23.912,195
23.937,191
23.962,189
23.987,188
24.012,187
24.037,185
24.062,182
24.087,179
24.112,175
24.137,171
24.162,166
24.187,160
24.212,154
24.237,147
24.262,137
24.287,123
24.312,106
24.337,91
24.362,84
24.387,90
24.412,108
24.437,131
24.462,150
24.487,163
24.512,170
24.537,175
24.562,181
24.587,186
24.612,186
24.637,181
24.662,175
24.687,171
24.712,174
24.737,179
24.762,183
24.787,181
24.812,174
24.837,168
24.862,164
24.887,163
24.912,162
24.937,160
24.962,157
24.987,154
25.012,150
25.037,142
25.062,130
25.087,117
25.112,111
25.137,117
25.162,133
25.187,152
25.212,168
25.237,176
25.262,179
25.287,180
25.312,181
25.337,179
25.362,174
25.387,169
25.412,167
25.437,167
25.462,169
25.487,169
25.512,165
25.537,158
25.562,151
25.587,145
25.612,138
25.637,128
25.662,116
25.687,106
25.712,102
25.737,105
25.762,108
25.787,107
25.812,101
25.837,97
25.862,104
25.887,122
25.912,145
25.937,164
25.962,177
25.987,188
26.012,200
26.037,211
26.062,217
26.087,215
26.112,208
26.137,204
26.162,205
26.187,208
26.212,208
26.237,204
26.262,201
26.287,199
26.312,197
26.337,191
26.362,183
26.387,174
26.412,165
26.437,155
26.462,143
26.487,130
26.512,119
26.537,110
26.562,101
26.587,91
26.612,81
26.637,81
26.662,95
26.687,119
26.712,143
26.737,161
26.762,170
26.787,177
26.812,185
26.837,193
26.862,197
26.887,197
26.912,196
26.937,196
26.962,197
26.987,197
27.012,195
27.037,194
27.062,194
27.087,195
27.112,194
27.137,189
27.162,182
27.187,176
27.212,170
27.237,164
27.262,155
27.287,147
27.312,141
27.337,137
27.362,134
27.387,126
27.412,113
27.437,99
27.462,91
27.487,93
27.512,105
27.537,122
27.562,140
27.587,156
27.612,168
27.637,177
27.662,181
27.687,181
27.712,180
27.737,179
27.762,180
27.787,182
27.812,184
27.837,185
27.862,187
27.887,190
27.912,193
27.937,195
27.962,194
27.987,189
28.012,183
28.037,180
28.062,180
28.087,179
28.112,174
28.137,164
28.162,152
28.187,139
28.212,126
28.237,112
28.262,99
28.287,91
28.312,93
28.337,107
28.362,126
28.387,143
28.412,153
28.437,159
28.462,164
28.487,171
28.512,177
28.537,180
28.562,177
28.587,172
28.612,168
28.637,165
28.662,164
28.687,164
28.712,165
28.737,167
28.762,168
28.787,167
28.812,162
28.837,157
28.862,151
28.887,147
28.912,143
28.937,138
28.962,131
28.987,121
29.012,111
29.037,106
29.062,111
29.087,127
29.112,148
29.137,167
29.162,180
29.187,188
29.212,195
29.237,200
29.262,202
29.287,199
29.312,191
29.337,184
29.362,182
29.387,184
29.412,186
29.437,186
29.462,184
29.487,182
29.512,180
29.537,176
29.562,170
29.587,163
29.612,157
29.637,153
29.662,146
29.687,137
29.712,126
29.737,116
29.762,106
29.787,98
29.812,91
29.837,90
29.862,97
29.887,113
29.912,132
29.937,149
29.962,161
29.987,168
30.012,174
30.037,180
30.062,187
30.087,193
30.112,200
30.137,205
30.162,208
30.187,208
30.212,208
30.237,210
30.262,214
30.287,217
30.312,215
30.337,209
30.362,199
30.387,187
30.412,175
30.437,163
30.462,153
30.487,145
30.512,138
30.537,128
30.562,115
30.587,99
30.612,87
30.637,86
30.662,97
30.687,117
30.712,137
30.737,152
30.762,163
30.787,173
30.812,181
30.837,188
30.862,191
30.887,189
30.912,185
30.937,182
30.962,180
30.987,181
31.012,182
31.037,183
31.062,186
31.087,187
31.112,185
31.137,179
31.162,170
31.187,160
31.212,154
31.237,150
31.262,146
31.287,140
31.312,132
31.337,124
31.362,116
31.387,109
31.412,103
31.437,101
31.462,106
31.487,121
31.512,144
31.537,167
31.562,182
31.587,185
31.612,180
31.637,172
31.662,169
31.687,170
31.712,174
31.737,177
31.762,179
31.787,180
31.812,183
31.837,187
31.862,189
31.887,186
31.912,180
31.937,173
31.962,168
31.987,163
32.012,155
32.037,144
32.062,130
32.087,117
32.112,106
32.137,97
32.162,94
32.187,98
32.212,113
32.237,135
32.262,158
32.287,177
32.312,191
32.337,203
32.362,213
32.387,218
32.412,216
32.437,209
32.462,201
32.487,195
32.512,193
32.537,191
32.562,189
32.587,187
32.612,185
32.637,182
32.662,175
32.687,163
32.712,151
32.737,142
32.762,137
32.787,134
32.812,129
32.837,124
32.862,119
32.887,113
32.912,104
32.937,92
32.962,81
32.987,79
33.012,90
33.037,110
33.062,130
33.087,145
33.112,155
33.137,162
33.162,169
33.187,174
33.212,176
33.237,175
33.262,172
33.287,170
33.312,169
33.337,170
33.362,173
33.387,182
33.412,195
33.437,210
33.462,221
33.487,226
33.512,227
33.537,223
33.562,216
33.587,204
33.612,188
33.637,171
33.662,156
33.687,143
33.712,130
33.737,113
33.762,97
33.787,88
33.812,91
33.837,105
33.862,124
33.887,141
33.912,154
33.937,166
33.962,179
33.987,191
34.012,199
34.037,201
34.062,200
34.087,199
34.112,200
34.137,201
34.162,200
34.187,198
34.212,195
34.237,192
34.262,187
34.287,180
34.312,173
34.337,168
34.362,165
34.387,160
34.412,151
34.437,137
34.462,124
34.487,115
34.512,106
34.537,95
34.562,83
34.587,77
34.612,83
34.637,98
34.662,116
34.687,129
34.712,136
34.737,144
34.762,156
34.787,171
34.812,182
34.837,185
34.862,181
34.887,178
34.912,180
34.937,184
34.962,188
34.987,188
35.012,185
35.037,181
35.062,178
35.087,179
35.112,180
35.137,180
35.162,176
35.187,168
35.212,158
35.237,147
35.262,138
35.287,130
35.312,126
35.337,128
35.362,137
35.387,150
35.412,162
35.437,170
35.462,174
35.487,176
35.512,180
35.537,183
35.562,182
35.587,178
35.612,173
35.637,170
35.662,171
35.687,171
35.712,171
35.737,167
35.762,163
35.787,159
35.812,156
35.837,154
35.862,152
35.887,150
35.912,146
35.937,142
35.962,137
35.987,133
36.012,130
36.037,131
36.062,137
36.087,148
36.112,165
36.137,183
36.162,198
36.187,207
36.212,210
36.237,210
36.262,210
36.287,211
36.312,210
36.337,207
36.362,203
36.387,200
36.412,198
36.437,195
36.462,186
36.487,170
36.512,151
36.537,133
36.562,120
36.587,112
36.612,105
36.637,95
36.662,84
36.687,73
36.712,64
36.737,56
36.762,50
36.787,46
36.812,51
36.837,68
36.862,95
36.887,125
36.912,148
36.937,165
36.962,177
36.987,190
37.012,202
37.037,210
37.062,211
37.087,207
37.112,202
37.137,199
37.162,199
37.187,199
37.212,197
37.237,195
37.262,193
37.287,191
37.312,189
37.337,186
37.362,181
37.387,175
37.412,169
37.437,165
37.462,163
37.487,162
37.512,159
37.537,152
37.562,143
37.587,135
37.612,133
37.637,139
37.662,155
37.687,176
37.712,196
37.737,207
37.762,206
37.787,195
37.812,182
37.837,175
37.862,172
37.887,169
37.912,163
37.937,157
37.962,155
37.987,158
38.012,163
38.037,166
38.062,167
38.087,169
38.112,173
38.137,179
38.162,181
38.187,178
38.212,174
38.237,169
38.262,166
38.287,160
38.312,149
38.337,135
38.362,119
38.387,103
38.412,90
38.437,85
38.462,92
38.487,110
38.512,133
38.537,152
38.562,167
38.587,181
38.612,198
38.637,215
38.662,228
38.687,232
38.712,231
38.737,231
38.762,234
38.787,236
38.812,230
38.837,213
38.862,191
38.887,171
38.912,158
38.937,150
38.962,146
38.987,145
39.012,146
39.037,147
39.062,145
39.087,135
39.112,120
39.137,104
39.162,95
39.187,95
39.212,101
39.237,108
39.262,111
39.287,114
39.312,119
39.337,129
39.362,140
39.387,146
39.412,148
39.437,149
39.462,153
39.487,159
39.512,166
39.537,169
39.562,169
39.587,168
39.612,166
39.637,164
39.662,161
39.687,158
39.712,156
39.737,155
39.762,152
39.787,148
39.812,141
39.837,135
39.862,127
39.887,120
39.912,116
39.937,124
39.962,145
39.987,170
40.012,189
40.037,196
40.062,196
40.087,199
40.112,209
40.137,219
40.162,222
40.187,215
40.212,206
40.237,203
40.262,208
40.287,213
40.312,213
40.337,205
40.362,194
40.387,183
40.412,173
40.437,162
40.462,150
40.487,140
40.512,131
40.537,122
40.562,112
40.587,101
40.612,92
40.637,85
40.662,83
40.687,88
40.712,101
40.737,122
40.762,144
40.787,162
40.812,175
40.837,185
40.862,195
40.887,205
40.912,211
40.937,211
40.962,207
40.987,202
41.012,199
41.037,199
41.062,201
41.087,202
41.112,200
41.137,195
41.162,188
41.187,179
41.212,170
41.237,159
41.262,147
41.287,135
41.312,126
41.337,120
41.362,115
41.387,105
41.412,92
41.437,78
41.462,75
41.487,86
41.512,109
41.537,134
41.562,155
41.587,170
41.612,183
41.637,194
41.662,203
41.687,207
41.712,207
41.737,204
41.762,202
41.787,201
41.812,198
41.837,195
41.862,194
41.887,197
41.912,201
41.937,200
41.962,193
41.987,183
42.012,173
42.037,166
42.062,159
42.087,150
42.112,140
42.137,130
42.162,123
42.187,120
42.212,117
42.237,114
42.262,113
42.287,117
42.312,128
42.337,141
42.362,152
42.387,159
42.412,163
42.437,168
42.462,172
42.487,176
42.512,178
42.537,179
42.562,179
42.587,178
42.612,175
42.637,171
42.662,167
42.687,166
42.712,167
42.737,167
42.762,162
42.787,155
42.812,151
42.837,151
42.862,153
42.887,150
42.912,143
42.937,133
42.962,126
42.987,120
43.012,114
43.037,110
43.062,112
43.087,127
43.112,151
43.137,173
43.162,184
43.187,185
43.212,185
43.237,191
43.262,199
43.287,204
43.312,202
43.337,196
43.362,194
43.387,195
43.412,196
43.437,193
43.462,187
43.487,181
43.512,178
43.537,174
43.562,166
43.587,155
43.612,144
43.637,135
43.662,128
43.687,122
43.712,115
43.737,107
43.762,99
43.787,94
43.812,95
43.837,105
43.862,123
43.887,146
43.912,165
43.937,175
43.962,178
43.987,181
44.012,187
44.037,195
44.062,201
44.087,202
44.112,197
44.137,191
44.162,186
44.187,183
44.212,183
44.237,186
44.262,189
44.287,189
44.312,184
44.337,175
44.362,166
44.387,158
44.412,151
44.437,144
44.462,137
44.487,131
44.512,128
44.537,125
44.562,119
44.587,109
44.612,100
44.637,99
44.662,109
44.687,126
44.712,143
44.737,157
44.762,168
44.787,178
44.812,185
44.837,190
44.862,190
44.887,190
44.912,191
44.937,195
44.962,199
44.987,200
45.012,199
45.037,199
45.062,201
45.087,202
45.112,201
45.137,196
45.162,188
45.187,179
45.212,170
45.237,160
45.262,151
45.287,144
45.312,140
45.337,134
45.362,124
45.387,110
45.412,97
45.437,93
45.462,101
45.487,116
45.512,134
45.537,149
45.562,160
45.587,167
45.612,172
45.637,176
45.662,180
45.687,185
45.712,187
45.737,185
45.762,181
45.787,178
45.812,179
45.837,183
45.862,182
45.887,177
45.912,170
45.937,169
45.962,174
45.987,178
46.012,174
46.037,163
46.062,151
46.087,142
46.112,136
46.137,126
46.162,113
46.187,102
46.212,102
46.237,114
46.262,133
46.287,150
46.312,160
46.337,166
46.362,171
46.387,178
46.412,185
46.437,187
46.462,185
46.487,181
46.512,179
46.537,181
46.562,187
46.587,192
46.612,192
46.637,187
46.662,179
46.687,174
46.712,172
46.737,169
46.762,162
46.787,149
46.812,137
46.837,130
46.862,126
46.887,120
46.912,108
46.937,94
46.962,85
46.987,88
47.012,104
47.037,125
47.062,144
47.087,158
47.112,167
47.137,176
47.162,185
47.187,195
47.212,204
47.237,209
47.262,208
47.287,205
47.312,203
47.337,206
47.362,210
47.387,214
47.412,212
47.437,208
47.462,202
47.487,195
47.512,187
47.537,177
47.562,167
47.587,157
47.612,148
47.637,138
47.662,129
47.687,119
47.712,109
47.737,95
47.762,79
47.787,68
47.812,71
47.837,91
47.862,121
47.887,147
47.912,160
47.937,163
47.962,167
47.987,177
48.012,191
48.037,201
48.062,203
48.087,201
48.112,199
48.137,198
48.162,197
48.187,193
48.212,189
48.237,187
48.262,189
48.287,190
48.312,189
48.337,183
48.362,175
48.387,165
48.412,155
48.437,146
48.462,137
48.487,129
48.512,119
48.537,110
48.562,106
48.587,112
48.612,129
48.637,150
48.662,165
48.687,171
48.712,172
48.737,173
48.762,179
48.787,186
48.812,189
48.837,187
48.862,183
48.887,180
48.912,179
48.937,178
48.962,177
48.987,174
49.012,171
49.037,166
49.062,159
49.087,149
49.112,140
49.137,131
49.162,125
49.187,117
49.212,108
49.237,99
49.262,95
49.287,100
49.312,115
49.337,136
49.362,157
49.387,172
49.412,180
49.437,186
49.462,191
49.487,197
49.512,199
49.537,196
49.562,189
49.587,183
49.612,181
49.637,185
49.662,188
49.687,189
49.712,184
49.737,178
49.762,172
49.787,169
49.812,166
49.837,160
49.862,152
49.887,140
49.912,128
49.937,114
49.962,101
49.987,91
50.012,86
50.037,92
50.062,109
50.087,134
50.112,158
50.137,176
50.162,187
50.187,194
50.212,202
50.237,211
50.262,217
50.287,217
50.312,213
50.337,207
50.362,202
50.387,198
50.412,194
50.437,190
50.462,188
50.487,187
50.512,184
50.537,176
50.562,165
50.587,152
50.612,143
50.637,136
50.662,129
50.687,121
50.712,110
50.737,99
50.762,90
50.787,85
50.812,85
50.837,93
50.862,107
50.887,125
50.912,143
50.937,158
50.962,168
50.987,175
51.012,182
51.037,189
51.062,197
51.087,203
51.112,207
51.137,206
51.162,202
51.187,197
51.212,195
51.237,196
51.262,197
51.287,196
51.312,191
51.337,185
51.362,179
51.387,171
51.412,162
51.437,152
51.462,145
51.487,142
51.512,138
51.537,131
51.562,122
51.587,118
51.612,124
51.637,140
51.662,158
51.687,169
51.712,175
51.737,178
51.762,181
51.787,185
51.812,187
51.837,184
51.862,181
51.887,179
51.912,178
51.937,178
51.962,177
51.987,175
52.012,170
52.037,159
52.062,142
52.087,125
52.112,113
52.137,108
52.162,110
52.187,110
52.212,105
52.237,97
52.262,88
52.287,82
52.312,83
52.337,92
52.362,111
52.387,136
52.412,160
52.437,177
52.462,187
52.487,196
52.512,207
52.537,219
52.562,226
52.587,224
52.612,218
52.637,214
52.662,218
52.687,224
52.712,225
52.737,220
52.762,211
52.787,204
52.812,199
52.837,194
52.862,187
52.887,178
52.912,169
52.937,159
52.962,149
52.987,139
53.012,129
53.037,123
53.062,116
53.087,107
53.112,97
53.137,91
53.162,95
53.187,109
53.212,127
53.237,142
53.262,151
53.287,158
53.312,166
53.337,176
53.362,185
53.387,190
53.412,191
53.437,190
53.462,187
53.487,185
53.512,186
53.537,189
53.562,192
53.587,191
53.612,188
53.637,184
53.662,181
53.687,179
53.712,174
53.737,164
53.762,152
53.787,142
53.812,135
53.837,129
53.862,119
53.887,110
53.912,106
53.937,113
53.962,129
53.987,147
54.012,160
54.037,167
54.062,167
54.087,164
54.112,162
54.137,161
54.162,163
54.187,166
54.212,167
54.237,165
54.262,164
54.287,166
54.312,170
54.337,176
54.362,179
54.387,180
54.412,178
54.437,175
54.462,170
54.487,162
54.512,152
54.537,141
54.562,129
54.587,115
54.612,102
54.637,96
54.662,104
54.687,123
54.712,146
54.737,163
54.762,171
54.787,175
54.812,180
54.837,187
54.862,192
54.887,192
54.912,191
54.937,190
54.962,190
54.987,191
55.012,191
55.037,191
55.062,192
55.087,193
55.112,192
55.137,188
55.162,183
55.187,177
55.212,171
55.237,162
55.262,151
55.287,139
55.312,129
55.337,118
55.362,103
55.387,87
55.412,76
55.437,79
55.462,96
55.487,122
55.512,145
55.537,160
55.562,171
55.587,181
55.612,191
55.637,197
55.662,200
55.687,200
55.712,201
55.737,205
55.762,209
55.787,210
55.812,207
55.837,200
55.862,191
55.887,185
55.912,181
55.937,179
55.962,176
55.987,168
56.012,156
56.037,143
56.062,134
56.087,130
56.112,127
56.137,119
56.162,105
56.187,90
56.212,83
56.237,87
56.262,102
56.287,123
56.312,144
56.337,162
56.362,177
56.387,188
56.412,196
56.437,201
56.462,203
56.487,203
56.512,202
56.537,202
56.562,203
56.587,203
56.612,200
56.637,195
56.662,191
56.687,189
56.712,190
56.737,190
56.762,186
56.787,176
56.812,163
56.837,150
56.862,139
56.887,130
56.912,121
56.937,113
56.962,106
56.987,100
57.012,94
57.037,91
57.062,97
57.087,113
57.112,136
57.137,159
57.162,175
57.187,185
57.212,190
57.237,194
57.262,199
57.287,201
57.312,200
57.337,196
57.362,191
57.387,187
57.412,182
57.437,178
57.462,175
57.487,171
57.512,165
57.537,157
57.562,151
57.587,148
57.612,147
57.637,146
57.662,139
57.687,129
57.712,118
57.737,108
57.762,101
57.787,96
57.812,96
57.837,106
57.862,126
57.887,150
57.912,170
57.937,179
57.962,181
57.987,183
58.012,188
58.037,196
58.062,199
58.087,196
58.112,189
58.137,183
58.162,182
58.187,183
58.212,185
58.237,183
58.262,177
58.287,170
58.312,162
58.337,154
58.362,146
58.387,136
58.412,126
58.437,117
58.462,111
58.487,109
58.512,111
58.537,117
58.562,128
58.587,146
58.612,171
58.637,196
58.662,215
58.687,226
58.712,231
58.737,234
58.762,235
58.787,233
58.812,223
58.837,206
58.862,187
58.887,175
58.912,170
58.937,170
58.962,169
58.987,164
59.012,155
59.037,147
59.062,140
59.087,136
59.112,129
59.137,121
59.162,111
59.187,104
59.212,100
59.237,97
59.262,91
59.287,83
59.312,78
59.337,81
59.362,95
59.387,117
59.412,139
59.437,158
59.462,172
59.487,184
59.512,196
59.537,208
59.562,218
59.587,225
59.612,228
59.637,229
59.662,226
59.687,222
59.712,218
59.737,215
59.762,211
59.787,204
59.812,196
59.837,188
59.862,181
59.887,174
59.912,166
59.937,154
59.962,140
59.987,129
60.012,121
60.037,115
60.062,104
60.087,91
60.112,79
60.137,79
60.162,94
60.187,120
60.212,145
60.237,162
60.262,171
60.287,176
60.312,181
60.337,187
60.362,189
60.387,188
60.412,184
60.437,182
60.462,181
60.487,179
60.512,176
60.537,174
60.562,176
60.587,184
60.612,191
60.637,193
60.662,188
60.687,180
60.712,174
60.737,169
60.762,163
60.787,152
60.812,141
60.837,131
60.862,123
60.887,116
60.912,109
60.937,106
60.962,113
60.987,128
61.012,147
61.037,162
61.062,171
61.087,176
61.112,178
61.137,181
61.162,185
61.187,189
61.212,193
61.237,194
61.262,190
61.287,183
61.312,175
61.337,169
61.362,166
61.387,163
61.412,159
61.437,158
61.462,161
61.487,165
61.512,166
61.537,159
61.562,148
61.587,138
61.612,132
61.637,127
61.662,121
61.687,116
61.712,119
61.737,135
61.762,156
61.787,174
61.812,182
61.837,184
61.862,187
61.887,194
61.912,198
61.937,197
61.962,191
61.987,185
62.012,182
62.037,181
62.062,177
62.087,170
62.112,163
62.137,158
62.162,156
62.187,153
62.212,146
62.237,137
62.262,129
62.287,124
62.312,121
62.337,115
62.362,108
62.387,100
62.412,96
62.437,100
62.462,114
62.487,134
62.512,155
62.537,173
62.562,186
62.587,196
62.612,203
62.637,208
62.662,208
62.687,205
62.712,198
62.737,193
62.762,191
62.787,190
62.812,190
62.837,187
62.862,184
62.887,181
62.912,178
62.937,174
62.962,168
62.987,160
63.012,152
63.037,144
63.062,138
63.087,131
63.112,123
63.137,113
63.162,105
63.187,102
63.212,111
63.237,130
63.262,153
63.287,173
63.312,186
63.337,195
63.362,201
63.387,206
63.412,208
63.437,206
63.462,203
63.487,200
63.512,201
63.537,202
63.562,201
63.587,197
63.612,192
63.637,189
63.662,190
63.687,192
63.712,190
63.737,181
63.762,168
63.787,151
63.812,135
63.837,120
63.862,107
63.887,94
63.912,81
63.937,72
63.962,70
63.987,79
64.012,96
64.037,116
64.062,132
64.087,145
64.112,159
64.137,178
64.162,202
64.187,219
64.212,222
64.237,210
64.262,192
64.287,179
64.312,176
64.337,180
64.362,184
64.387,182
64.412,175
64.437,169
64.462,164
64.487,161
64.512,156
64.537,147
64.562,134
64.587,118
64.612,102
64.637,90
64.662,84
64.687,84
64.712,91
64.737,104
64.762,123
64.787,148
64.812,173
64.837,195
64.862,210
64.887,219
64.912,222
64.937,220
64.962,215
64.987,207
65.012,202
65.037,201
65.062,203
65.087,205
65.112,203
65.137,197
65.162,190
65.187,183
65.212,174
65.237,163
65.262,150
65.287,136
65.312,124
65.337,112
65.362,102
65.387,96
65.412,97
65.437,109
65.462,129
65.487,149
65.512,165
65.537,174
65.562,176
65.587,177
65.612,178
65.637,180
65.662,181
65.687,178
65.712,173
65.737,167
65.762,162
65.787,160
65.812,157
65.837,154
65.862,148
65.887,143
65.912,135
65.937,126
65.962,116
65.987,105
66.012,94
66.037,82
66.062,67
66.087,52
66.112,47
66.137,57
66.162,81
66.187,111
66.212,139
66.237,165
66.262,194
66.287,226
66.312,257
66.337,282
66.362,301
66.387,320
66.412,339
66.437,354
66.462,358
66.487,351
66.512,338
66.537,320
66.562,292
66.587,255
66.612,217
66.637,191
66.662,177
66.687,165
66.712,139
66.737,101
66.762,69
66.787,57
66.812,63
66.837,68
66.862,58
66.887,37
66.912,18
66.937,8
66.962,5
66.987,1
67.012,0
67.037,5
67.062,20
67.087,40
67.112,62
67.137,91
67.162,135
67.187,191
67.212,241
67.237,270
67.262,277
67.287,277
67.312,280
67.337,288
67.362,297
67.387,304
67.412,310
67.437,314
67.462,306
67.487,279
67.512,236
67.537,192
67.562,161
67.587,151
67.612,160
67.637,189
67.662,234
67.687,284
67.712,316
67.737,315
67.762,284
67.787,244
67.812,212
67.837,187
67.862,154
67.887,107
67.912,55
67.937,9
67.962,-32
67.987,-78
68.012,-129
68.037,-168
68.062,-180
68.087,-165
68.112,-141
68.137,-120
68.162,-93
68.187,-33
68.212,69
68.237,192
68.262,300
68.287,366
68.312,392
68.337,397
68.362,398
68.387,400
68.412,404
68.437,404
68.462,395
68.487,368
68.512,321
68.537,267
68.562,222
68.587,193
68.612,168
68.637,129
68.662,73
68.687,16
68.712,-26
68.737,-54
68.762,-76
68.787,-92
68.812,-88
68.837,-45
68.862,31
68.887,114
68.912,175
68.937,208
68.962,227
68.987,247
69.012,265
69.037,266
69.062,244
69.087,211
69.112,185
69.137,175
69.162,175
69.187,172
69.212,166
69.237,162
69.262,164
69.287,169
69.312,169
69.337,158
69.362,142
69.387,130
69.412,131
69.437,150
69.462,180
69.487,211
69.512,234
69.537,243
69.562,244
69.587,245
69.612,250
69.637,253
69.662,246
69.687,227
69.712,203
69.737,187
69.762,180
69.787,178
69.812,174
69.837,167
69.862,159
69.887,153
69.912,149
69.937,143
69.962,135
69.987,127
70.012,119
70.037,108
70.062,95
70.087,83
70.112,81
70.137,91
70.162,113
70.187,137
70.212,159
70.237,174
70.262,184
70.287,191
70.312,195
70.337,197
70.362,194
70.387,187
70.412,178
70.437,169
70.462,163
70.487,161
70.512,159
70.537,158
70.562,157
70.587,160
70.612,167
70.637,174
70.662,176
70.687,174
70.712,170
70.737,169
70.762,169
70.787,166
70.812,160
70.837,159
70.862,171
70.887,198
70.912,227
70.937,244
70.962,240
70.987,224
71.012,210
71.037,204
71.062,202
71.087,196
71.112,184
71.137,170
71.162,160
71.187,153
71.212,144
71.237,133
71.262,123
71.287,116
71.312,108
71.337,95
71.362,79
71.387,68
71.412,70
71.437,78
71.462,82
71.487,77
71.512,72
71.537,83
71.562,114
71.587,153
71.612,181
71.637,189
71.662,185
71.687,181
71.712,183
71.737,186
71.762,186
71.787,186
71.812,191
71.837,202
71.862,210
71.887,206
71.912,189
71.937,171
71.962,161
71.987,160
72.012,160
72.037,155
72.062,145
72.087,134
72.112,124
72.137,113
72.162,100
72.187,91
72.212,97
72.237,126
72.262,167
72.287,204
72.312,221
72.337,218
72.362,206
72.387,196
72.412,193
72.437,194
72.462,192
72.487,188
72.512,183
72.537,180
72.562,177
72.587,174
72.612,170
72.637,165
72.662,159
72.687,147
72.712,131
72.737,115
72.762,103
72.787,93
72.812,82
72.837,65
72.862,49
72.887,48
72.912,68
72.937,104
72.962,137
72.987,155
73.012,159
73.037,162
73.062,174
73.087,197
73.112,224
73.137,246
73.162,258
73.187,258
73.212,250
73.237,240
73.262,232
73.287,225
73.312,218
73.337,208
73.362,195
73.387,183
73.412,175
73.437,167
73.462,155
73.487,137
73.512,119
73.537,106
73.562,99
73.587,95
73.612,92
73.637,97
73.662,116
73.687,149
73.712,186
73.737,212
73.762,221
73.787,220
73.812,218
73.837,221
73.862,225
73.887,226
73.912,222
73.937,218
73.962,216
73.987,219
74.012,223
74.037,227
74.062,229
74.087,224
74.112,209
74.137,184
74.162,152
74.187,121
74.212,97
74.237,84
74.262,78
74.287,74
74.312,65
74.337,52
74.362,42
74.387,45
74.412,67
74.437,105
74.462,145
74.487,174
74.512,187
74.537,189
74.562,193
74.587,204
74.612,217
74.637,223
74.662,219
74.687,209
74.712,200
74.737,193
74.762,187
74.787,177
74.812,166
74.837,161
74.862,163
74.887,169
74.912,170
74.937,162
74.962,150
74.987,140
75.012,132
75.037,120
75.062,101
75.087,84
75.112,83
75.137,108
75.162,148
75.187,185
75.212,201
75.237,198
75.262,190
75.287,188
75.312,191
75.337,192
75.362,186
75.387,178
75.412,176
75.437,182
75.462,189
75.487,188
75.512,181
75.537,174
75.562,171
75.587,170
75.612,166
75.637,156
75.662,145
75.687,138
75.712,132
75.737,119
75.762,98
75.787,76
75.812,70
75.837,89
75.862,126
75.887,165
75.912,189
75.937,199
75.962,202
75.987,209
76.012,221
76.037,230
76.062,231
76.087,225
76.112,217
76.137,211
76.162,210
76.187,209
76.212,204
76.237,194
76.262,180
76.287,164
76.312,148
76.337,133
76.362,118
76.387,104
76.412,88
76.437,71
76.462,53
76.487,39
76.512,34
76.537,45
76.562,69
76.587,101
76.612,129
76.637,145
76.662,149
76.687,146
76.712,143
76.737,143
76.762,143
76.787,140
76.812,136
76.837,133
76.862,135
76.887,143
76.912,159
76.937,180
76.962,199
76.987,213
77.012,219
77.037,218
77.062,215
77.087,211
77.112,207
77.137,200
77.162,192
77.187,184
77.212,175
77.237,165
77.262,157
77.287,156
77.312,169
77.337,196
77.362,228
77.387,254
77.412,267
77.437,271
77.462,271
77.487,272
77.512,268
77.537,256
77.562,237
77.587,219
77.612,210
77.637,210
77.662,213
77.687,213
77.712,207
77.737,198
77.762,190
77.787,179
77.812,165
77.837,146
77.862,128
77.887,115
77.912,109
77.937,102
77.962,88
77.987,66
78.012,46
78.037,41
78.062,55
78.087,84
78.112,115
78.137,139
78.162,153
78.187,159
78.212,160
78.237,159
78.262,156
78.287,155
78.312,156
78.337,160
78.362,165
78.387,170
78.412,173
78.437,173
78.462,169
78.487,165
78.512,162
78.537,159
78.562,154
78.587,144
78.612,130
78.637,117
78.662,106
78.687,97
78.712,85
78.737,73
78.762,71
78.787,87
78.812,121
78.837,158
78.862,183
78.887,191
78.912,191
78.937,194
78.962,206
78.987,218
79.012,221
79.037,215
79.062,204
79.087,197
79.112,196
79.137,196
79.162,192
79.187,183
79.212,172
79.237,164
79.262,159
79.287,155
79.312,148
79.337,137
79.362,123
79.387,109
79.412,96
79.437,84
79.462,77
79.487,81
79.512,99
79.537,132
79.562,169
79.587,199
79.612,215
79.637,219
79.662,218
79.687,217
79.712,217
79.737,216
79.762,215
79.787,216
79.812,218
79.837,218
79.862,215
79.887,211
79.912,209
79.937,210
79.962,208
79.987,200
80.012,188
80.037,174
80.062,164
80.087,155
80.112,144
80.137,127
80.162,106
80.187,84
80.212,66
80.237,60
80.262,73
80.287,103
80.312,142
80.337,175
80.362,196
80.387,204
80.412,206
80.437,206
80.462,204
80.487,198
80.512,189
80.537,183
80.562,183
80.587,186
80.612,189
80.637,188
80.662,185
80.687,184
80.712,183
80.737,180
80.762,173
80.787,162
80.812,149
80.837,135
80.862,122
80.887,112
80.912,103
80.937,94
80.962,85
80.987,79
81.012,85
81.037,106
81.062,140
81.087,174
81.112,195
81.137,197
81.162,191
81.187,187
81.212,194
81.237,208
81.262,218
81.287,218
81.312,209
81.337,197
81.362,186
81.387,177
81.412,169
81.437,160
81.462,154
81.487,151
81.512,151
81.537,149
81.562,141
81.587,127
81.612,112
81.637,98
81.662,86
81.687,78
81.712,82
81.737,101
81.762,130
81.787,158
81.812,171
81.837,170
81.862,169
81.887,182
81.912,206
81.937,224
81.962,223
81.987,205
82.012,191
82.037,192
82.062,206
82.087,215
82.112,210
82.137,197
82.162,187
82.187,187
82.212,188
82.237,182
82.262,167
82.287,149
82.312,133
82.337,118
82.362,103
82.387,94
82.412,103
82.437,131
82.462,168
82.487,197
82.512,207
82.537,201
82.562,194
82.587,193
82.612,198
82.637,200
82.662,196
82.687,190
82.712,187
82.737,190
82.762,195
82.787,194
82.812,187
82.837,175
82.862,163
82.887,152
82.912,142
82.937,132
82.962,123
82.987,117
83.012,112
83.037,104
83.062,92
83.087,85
83.112,91
83.137,118
83.162,156
83.187,190
83.212,208
83.237,211
83.262,209
83.287,210
83.312,212
83.337,211
83.362,202
83.387,191
83.412,183
83.437,181
83.462,180
83.487,175
83.512,166
83.537,152
83.562,135
83.587,117
83.612,100
83.637,86
83.662,75
83.687,66
83.712,60
83.737,57
83.762,56
83.787,52
83.812,43
83.837,34
83.862,37
83.887,67
83.912,123
83.937,187
83.962,238
83.987,264
84.012,272
84.037,274
84.062,276
84.087,274
84.112,267
84.137,257
84.162,250
84.187,247
84.212,244
84.237,236
84.262,224
84.287,214
84.312,207
84.337,200
84.362,187
84.387,169
84.412,153
84.437,143
84.462,138
84.487,135
84.512,130
84.537,122
84.562,110
84.587,97
84.612,91
84.637,101
84.662,130
84.687,169
84.712,200
84.737,213
84.762,211
84.787,207
84.812,209
84.837,215
84.862,214
84.887,204
84.912,190
84.937,183
84.962,183
84.987,186
85.012,187
85.037,184
85.062,182
85.087,181
85.112,175
85.137,163
85.162,147
85.187,134
85.212,125
85.237,116
85.262,106
85.287,95
85.312,87
85.337,83
85.362,77
85.387,68
85.412,62
85.437,71
85.462,101
85.487,143
85.512,180
85.537,201
85.562,206
85.587,204
85.612,205
85.637,210
85.662,213
85.687,210
85.712,203
85.737,196
85.762,191
85.787,188
85.812,184
85.837,180
85.862,177
85.887,177
85.912,178
85.937,174
85.962,164
85.987,150
86.012,140
86.037,135
86.062,131
86.087,122
86.112,106
86.137,90
86.162,87
86.187,103
86.212,133
86.237,163
86.262,182
86.287,187
86.312,185
86.337,185
86.362,190
86.387,197
86.412,205
86.437,210
86.462,212
86.487,213
86.512,212
86.537,209
86.562,204
86.587,197
86.612,189
86.637,181
86.662,176
86.687,171
86.712,167
86.737,160
86.762,151
86.787,139
86.812,123
86.837,105
86.862,92
86.887,93
86.912,113
86.937,145
86.962,173
86.987,186
87.012,184
87.037,180
87.062,183
87.087,191
87.112,196
87.137,191
87.162,182
87.187,177
87.212,178
87.237,181
87.262,180
87.287,176
87.312,170
87.337,166
87.362,160
87.387,151
87.412,139
87.437,127
87.462,113
87.487,93
87.512,70
87.537,58
87.562,69
87.587,107
87.612,156
87.637,194
87.662,211
87.687,212
87.712,210
87.737,211
87.762,211
87.787,207
87.812,198
87.837,193
87.862,193
87.887,196
87.912,194
87.937,186
87.962,177
87.987,169
88.012,164
88.037,160
88.062,155
88.087,149
88.112,143
88.137,133
88.162,117
88.187,98
88.212,86
88.237,89
88.262,111
88.287,146
88.312,181
88.337,205
88.362,213
88.387,210
88.412,203
88.437,200
88.462,200
88.487,199
88.512,191
88.537,180
88.562,170
88.587,168
88.612,170
88.637,172
88.662,167
88.687,158
88.712,148
88.737,141
88.762,134
88.787,125
88.812,114
88.837,104
88.862,94
88.887,82
88.912,67
88.937,59
88.962,70
88.987,105
89.012,154
89.037,195
89.062,215
89.087,218
89.112,218
89.137,225
89.162,236
89.187,242
89.212,238
89.237,229
89.262,223
89.287,222
89.312,222
89.337,219
89.362,215
89.387,212
89.412,210
89.437,205
89.462,191
89.487,172
89.512,151
89.537,135
89.562,121
89.587,105
89.612,87
89.637,67
89.662,52
89.687,47
89.712,56
89.737,79
89.762,114
89.787,152
89.812,181
89.837,197
89.862,202
89.887,203
89.912,207
89.937,213
89.962,216
89.987,212
90.012,203
90.037,197
90.062,196
90.087,199
90.112,200
90.137,197
90.162,189
90.187,181
90.212,175
90.237,169
90.262,163
90.287,156
90.312,151
90.337,145
90.362,139
90.387,127
90.412,111
90.437,93
90.462,83
90.487,88
90.512,110
90.537,142
90.562,174
90.587,196
90.612,205
90.637,206
90.662,206
90.687,210
90.712,215
90.737,216
90.762,211
90.787,200
90.812,190
90.837,185
90.862,186
90.887,187
90.912,184
90.937,177
90.962,167
90.987,157
91.012,147
91.037,137
91.062,126
91.087,115
91.112,106
91.137,99
91.162,92
91.187,82
91.212,73
91.237,74
91.262,94
91.287,129
91.312,167
91.337,191
91.362,195
91.387,188
91.412,182
91.437,186
91.462,192
91.487,195
91.512,190
91.537,183
91.562,182
91.587,188
91.612,194
91.637,193
91.662,185
91.687,175
91.712,166
91.737,161
91.762,155
91.787,148
91.812,142
91.837,136
91.862,124
91.887,106
91.912,84
91.937,72
91.962,82
91.987,115
92.012,156
92.037,187
92.062,197
92.087,194
92.112,191
92.137,196
92.162,205
92.187,211
92.212,211
92.237,209
92.262,210
92.287,212
92.312,209
92.337,199
92.362,187
92.387,180
92.412,177
92.437,173
92.462,164
92.487,151
92.512,141
92.537,135
92.562,125
92.587,110
92.612,98
92.637,107
92.662,145
92.687,196
92.712,234
92.737,243
92.762,234
92.787,228
92.812,235
92.837,246
92.862,247
92.887,236
92.912,223
92.937,219
92.962,223
92.987,223
93.012,211
93.037,191
93.062,172
93.087,155
93.112,139
93.137,120
93.162,101
93.187,84
93.212,63
93.237,37
93.262,8
93.287,-7
93.312,4
93.337,42
93.362,89
93.387,123
93.412,139
93.437,142
93.462,143
93.487,146
93.512,149
93.537,148
93.562,145
93.587,141
93.612,140
93.637,139
93.662,138
93.687,137
93.712,136
93.737,134
93.762,131
93.787,130
93.812,136
93.837,151
93.862,169
93.887,186
93.912,195
93.937,193
93.962,184
93.987,173
94.012,168
94.037,179
94.062,204
94.087,237
94.112,262
94.137,274
94.162,273
94.187,267
94.212,261
94.237,251
94.262,236
94.287,216
94.312,199
94.337,193
94.362,195
94.387,200
94.412,203
94.437,203
94.462,199
94.487,191
94.512,178
94.537,161
94.562,146
94.587,139
94.612,136
94.637,131
94.662,119
94.687,103
94.712,86
94.737,71
94.762,59
94.787,53
94.812,59
94.837,82
94.862,119
94.887,159
94.912,186
94.937,195
94.962,195
94.987,195
95.012,199
95.037,205
95.062,206
95.087,202
95.112,196
95.137,194
95.162,193
95.187,193
95.212,191
95.237,189
95.262,190
95.287,190
95.312,189
95.337,183
95.362,174
95.387,163
95.412,152
95.437,139
95.462,126
95.487,115
95.512,106
95.537,98
95.562,91
95.587,90
95.612,100
95.637,123
95.662,155
95.687,183
95.712,198
95.737,198
95.762,192
95.787,191
95.812,197
95.837,205
95.862,208
95.887,205
95.912,199
95.937,194
95.962,191
95.987,189
96.012,184
96.037,180
96.062,176
96.087,174
96.112,170
96.137,162
96.162,152
96.187,143
96.212,134
96.237,121
96.262,101
96.287,79
96.312,66
96.337,73
96.362,101
96.387,137
96.412,165
96.437,178
96.462,179
96.487,178
96.512,184
96.537,196
96.562,206
96.587,210
96.612,207
96.637,202
96.662,199
96.687,198
96.712,197
96.737,193
96.762,185
96.787,175
96.812,164
96.837,153
96.862,142
96.887,131
96.912,123
96.937,117
96.962,110
96.987,100
97.012,90
97.037,93
97.062,115
97.087,154
97.112,195
97.137,219
97.162,221
97.187,209
97.212,200
97.237,199
97.262,203
97.287,200
97.312,188
97.337,172
97.362,163
97.387,166
97.412,175
97.437,183
97.462,185
97.487,182
97.512,176
97.537,167
97.562,155
97.587,141
97.612,129
97.637,120
97.662,113
97.687,102
97.712,86
97.737,73
97.762,77
97.787,103
97.812,144
97.837,184
97.862,207
97.887,209
97.912,201
97.937,195
97.962,198
97.987,205
98.012,209
98.037,205
98.062,196
98.087,189
98.112,186
98.137,188
98.162,188
98.187,184
98.212,179
98.237,174
98.262,171
98.287,166
98.312,156
98.337,141
98.362,125
98.387,109
98.412,94
98.437,78
98.462,63
98.487,58
98.512,72
98.537,104
98.562,143
98.587,177
98.612,199
98.637,210
98.662,218
98.687,226
98.712,231
98.737,232
98.762,230
98.787,228
98.812,227
98.837,224
98.862,217
98.887,210
98.912,205
98.937,202
98.962,197
98.987,189
99.012,180
99.037,173
99.062,169
99.087,160
99.112,145
99.137,126
99.162,110
99.187,99
99.212,88
99.237,76
99.262,68
99.287,74
99.312,99
99.337,133
99.362,164
99.387,182
99.412,190
99.437,195
99.462,198
99.487,200
99.512,198
99.537,194
99.562,193
99.587,193
99.612,192
99.637,190
99.662,189
99.687,192
99.712,197
99.737,200
99.762,196
99.787,185
99.812,173
99.837,161
99.862,150
99.887,138
99.912,126
99.937,114
99.962,99
99.987,82
100.012,66
100.037,62
100.062,79
100.087,116
100.112,159
100.137,189
100.162,198
100.187,193
100.212,187
100.237,188
100.262,192
100.287,194
100.312,191
100.337,186
100.362,184
100.387,185
100.412,186
100.437,184
100.462,180
100.487,178
100.512,178
100.537,174
100.562,163
100.587,147
100.612,135
100.637,131
100.662,131
100.687,126
100.712,113
100.737,98
100.762,97
100.787,117
100.812,152
100.837,186
100.862,204
100.887,205
100.912,201
100.937,202
100.962,208
100.987,212
101.012,209
101.037,201
101.062,195
101.087,196
101.112,199
101.137,198
101.162,191
101.187,181
101.212,173
101.237,167
101.262,160
101.287,151
101.312,141
101.337,131
101.362,121
101.387,106
101.412,88
101.437,76
101.462,86
101.487,119
101.512,164
101.537,199
101.562,212
101.587,206
101.612,197
101.637,197
101.662,205
101.687,209
101.712,203
101.737,189
101.762,177
101.787,172
101.812,172
101.837,171
101.862,168
101.887,163
101.912,157
101.937,147
101.962,134
101.987,120
102.012,107
102.037,96
102.062,85
102.087,72
102.112,66
102.137,77
102.162,111
102.187,157
102.212,198
102.237,220
102.262,224
102.287,220
102.312,219
102.337,222
102.362,223
102.387,218
102.412,209
102.437,201
102.462,200
102.487,203
102.512,205
102.537,203
102.562,196
102.587,187
102.612,177
102.637,167
102.662,154
102.687,139
102.712,125
102.737,112
102.762,98
102.787,80
102.812,63
102.837,57
102.862,73
102.887,111
102.912,158
102.937,196
102.962,215
102.987,218
103.012,215
103.037,211
103.062,206
103.087,195
103.112,182
103.137,176
103.162,180
103.187,191
103.212,201
103.237,205
103.262,203
103.287,197
103.312,189
103.337,176
103.362,159
103.387,142
103.412,131
103.437,123
103.462,116
103.487,104
103.512,90
103.537,76
103.562,63
103.587,54
103.612,53
103.637,67
103.662,100
103.687,144
103.712,183
103.737,205
103.762,212
103.787,215
103.812,221
103.837,231
103.862,236
103.887,233
103.912,224
103.937,218
103.962,218
103.987,221
104.012,221
104.037,218
104.062,213
104.087,208
104.112,200
104.137,189
104.162,176
104.187,164
104.212,155
104.237,146
104.262,134
104.287,119
104.312,104
104.337,89
104.362,75
104.387,63
104.412,60
104.437,75
104.462,109
104.487,152
104.512,187
104.537,205
104.562,210
104.587,212
104.612,217
104.637,225
104.662,228
104.687,222
104.712,212
104.737,204
104.762,202
104.787,203
104.812,204
104.837,202
104.862,197
104.887,190
104.912,182
104.937,173
104.962,164
104.987,155
105.012,144
105.037,133
105.062,121
105.087,109
105.112,98
105.137,85
105.162,73
105.187,66
105.212,75
105.237,101
105.262,139
105.287,172
105.312,189
105.337,191
105.362,185
105.387,183
105.412,185
105.437,186
105.462,183
105.487,178
105.512,177
105.537,179
105.562,180
105.587,176
105.612,170
105.637,168
105.662,175
105.687,185
105.712,190
105.737,184
105.762,170
105.787,153
105.812,138
105.837,124
105.862,109
105.887,95
105.912,91
105.937,106
105.962,140
105.987,182
106.012,218
106.037,235
106.062,237
106.087,233
106.112,231
106.137,232
106.162,228
106.187,216
106.212,201
106.237,192
106.262,192
106.287,196
106.312,196
106.337,188
106.362,178
106.387,168
106.412,160
106.437,148
106.462,129
106.487,108
106.512,89
106.537,74
106.562,59
106.587,42
106.612,25
106.637,18
106.662,31
106.687,65
106.712,113
106.737,159
106.762,192
106.787,208
106.812,213
106.837,218
106.862,228
106.887,238
106.912,239
106.937,229
106.962,215
106.987,207
107.012,209
107.037,212
107.062,205
107.087,187
107.112,167
107.137,156
107.162,153
107.187,148
107.212,134
107.237,117
107.262,106
107.287,103
107.312,102
107.337,92
107.362,77
107.387,68
107.412,78
107.437,109
107.462,148
107.487,186
107.512,214
107.537,232
107.562,240
107.587,240
107.612,237
107.637,233
107.662,232
107.687,230
107.712,226
107.737,221
107.762,220
107.787,224
107.812,229
107.837,227
107.862,216
107.887,201
107.912,186
107.937,173
107.962,158
107.987,140
108.012,120
108.037,100
108.062,80
108.087,59
108.112,39
108.137,26
108.162,28
108.187,46
108.212,76
108.237,110
108.262,141
108.287,168
108.312,190
108.337,206
108.362,218
108.387,224
108.412,224
108.437,220
108.462,215
108.487,213
108.512,218
108.537,225
108.562,227
108.587,221
108.612,209
108.637,198
108.662,190
108.687,181
108.712,165
108.737,146
108.762,131
108.787,124
108.812,117
108.837,101
108.862,76
108.887,58
108.912,62
108.937,89
108.962,125
108.987,155
109.012,173
109.037,184
109.062,196
109.087,209
109.112,217
109.137,218
109.162,216
109.187,215
109.212,216
109.237,216
109.262,213
109.287,208
109.312,204
109.337,200
109.362,192
109.387,181
109.412,171
109.437,165
109.462,163
109.487,162
109.512,155
109.537,140
109.562,123
109.587,114
109.612,120
109.637,143
109.662,173
109.687,198
109.712,207
109.737,199
109.762,183
109.787,167
109.812,157
109.837,150
109.862,147
109.887,148
109.912,152
109.937,156
109.962,155
109.987,152
110.012,149
110.037,149
110.062,149
110.087,145
110.112,135
110.137,124
110.162,117
110.187,108
110.212,90
110.237,63
110.262,41
110.287,43
110.312,75
110.337,122
110.362,162
110.387,180
110.412,183
110.437,183
110.462,186
110.487,188
110.512,182
110.537,170
110.562,162
110.587,162
110.612,167
110.637,169
110.662,165
110.687,160
110.712,159
110.737,160
110.762,159
110.787,151
110.812,139
110.837,128
110.862,117
110.887,107
110.912,96
110.937,94
110.962,108
110.987,141
111.012,183
111.037,220
111.062,241
111.087,248
111.112,251
111.137,258
111.162,267
111.187,273
111.212,273
111.237,268
111.262,266
111.287,270
111.312,277
111.337,283
111.362,284
111.387,280
111.412,273
111.437,263
111.462,248
111.487,225
111.512,199
111.537,175
111.562,158
111.587,145
111.612,128
111.637,106
111.662,86
111.687,80
111.712,94
111.737,122
111.762,148
111.787,162
111.812,163
111.837,159
111.862,153
111.887,142
111.912,123
111.937,101
111.962,82
111.987,73
112.012,71
112.037,71
112.062,69
112.087,66
112.112,65
112.137,61
112.162,54
112.187,45
112.212,41
112.237,45
112.262,51
112.287,53
112.312,54
112.337,61
112.362,80
112.387,104
112.412,122
112.437,134
112.462,152
112.487,187
112.512,237
112.537,283
112.562,307
112.587,311
112.612,310
112.637,313
112.662,320
112.687,320
112.712,308
112.737,291
112.762,275
112.787,261
112.812,247
112.837,232
112.862,221
112.887,216
112.912,213
112.937,207
112.962,195
112.987,184
113.012,177
113.037,171
113.062,162
113.087,147
113.112,133
113.137,122
113.162,112
113.187,101
113.212,91
113.237,94
113.262,115
113.287,148
113.312,177
113.337,188
113.362,186
113.387,180
113.412,176
113.437,172
113.462,163
113.487,148
113.512,134
113.537,126
113.562,126
113.587,129
113.612,134
113.637,137
113.662,137
113.687,133
113.712,129
113.737,132
113.762,142
113.787,155
113.812,160
113.837,154
113.862,137
113.887,116
113.912,94
113.937,74
113.962,64
113.987,70
114.012,95
114.037,126
114.062,146
114.087,148
114.112,141
114.137,141
114.162,155
114.187,176
114.212,191
114.237,197
114.262,201
114.287,212
114.312,226
114.337,234
114.362,231
114.387,221
114.412,209
114.437,200
114.462,189
114.487,172
114.512,153
114.537,135
114.562,122
114.587,114
114.612,106
114.637,99
114.662,92
114.687,90
114.712,97
114.737,116
114.762,149
114.787,192
114.812,233
114.837,261
114.862,274
114.887,278
114.912,280
114.937,283
114.962,283
114.987,275
115.012,262
115.037,248
115.062,237
115.087,227
115.112,218
115.137,211
115.162,205
115.187,200
115.212,192
115.237,179
115.262,164
115.287,149
115.312,135
115.337,118
115.362,96
115.387,74
115.412,57
115.437,49
115.462,47
115.487,48
115.512,55
115.537,74
115.562,109
115.587,149
115.612,181
115.637,195
115.662,196
115.687,197
115.712,204
115.737,211
115.762,208
115.787,196
115.812,182
115.837,177
115.862,183
115.887,193
115.912,199
115.937,200
115.962,201
115.987,204
116.012,205
116.037,199
116.062,186
116.087,174
116.112,166
116.137,158
116.162,144
116.187,120
116.212,97
116.237,89
116.262,103
116.287,131
116.312,155
116.337,163
116.362,159
116.387,152
116.412,149
116.437,151
116.462,150
116.487,145
116.512,142
116.537,143
116.562,149
116.587,154
116.612,154
116.637,149
116.662,145
116.687,143
116.712,144
116.737,143
116.762,141
116.787,137
116.812,133
116.837,127
116.862,116
116.887,102
116.912,91
116.937,92
116.962,111
116.987,144
117.012,181
117.037,211
117.062,227
117.087,228
117.112,223
117.137,219
117.162,217
117.187,214
117.212,205
117.237,194
117.262,186
117.287,187
117.312,192
117.337,196
117.362,192
117.387,181
117.412,169
117.437,158
117.462,147
117.487,134
117.512,119
117.537,109
117.562,106
117.587,106
117.612,99
117.637,86
117.662,81
117.687,96
117.712,136
117.737,187
117.762,228
117.787,251
117.812,258
117.837,262
117.862,266
117.887,268
117.912,261
117.937,246
117.962,230
117.987,218
118.012,212
118.037,208
118.062,205
118.087,201
118.112,196
118.137,190
118.162,181
118.187,168
118.212,154
118.237,140
118.262,128
118.287,119
118.312,110
118.337,101
118.362,88
118.387,75
118.412,69
118.437,79
118.462,108
118.487,149
118.512,185
118.537,205
118.562,206
118.587,199
118.612,196
118.637,201
118.662,207
118.687,208
118.712,200
118.737,189
118.762,181
118.787,179
118.812,181
118.837,183
118.862,184
118.887,181
118.912,175
118.937,164
118.962,150
118.987,135
119.012,122
119.037,113
119.062,101
119.087,83
119.112,60
119.137,45
119.162,54
119.187,92
119.212,143
119.237,184
119.262,197
119.287,189
119.312,179
119.337,180
119.362,191
119.387,200
119.412,199
119.437,194
119.462,192
119.487,196
119.512,197
119.537,188
119.562,173
119.587,160
119.612,151
119.637,146
119.662,138
119.687,128
119.712,120
119.737,114
119.762,104
119.787,89
119.812,72
119.837,65
119.862,79
119.887,112
119.912,150
119.937,183
119.962,204
119.987,215
120.012,220
120.037,222
120.062,221
120.087,216
120.112,209
120.137,204
120.162,202
120.187,204
120.212,204
120.237,198
120.262,187
120.287,175
120.312,168
120.337,167
120.362,166
120.387,162
120.412,156
120.437,154
120.462,158
120.487,163
120.512,158
120.537,148
120.562,144
120.587,158
120.612,189
120.637,218
120.662,228
120.687,217
120.712,199
120.737,189
120.762,189
120.787,193
120.812,194
120.837,193
120.862,192
120.887,195
120.912,196
120.937,196
120.962,196
120.987,200
121.012,206
121.037,207
121.062,199
121.087,184
121.112,168
121.137,155
121.162,141
121.187,122
121.212,97
121.237,71
121.262,50
121.287,42
121.312,51
121.337,75
121.362,107
121.387,133
121.412,146
121.437,146
121.462,144
121.487,149
121.512,160
121.537,169
121.562,169
121.587,164
121.612,161
121.637,165
121.662,174
121.687,181
121.712,183
121.737,179
121.762,173
121.787,165
121.812,154
121.837,144
121.862,137
121.887,132
121.912,125
121.937,114
121.962,106
121.987,112
122.012,136
122.037,171
122.062,202
122.087,218
122.112,221
122.137,218
122.162,216
122.187,218
122.212,217
122.237,213
122.262,205
122.287,198
122.312,193
122.337,191
122.362,190
122.387,187
122.412,179
122.437,168
122.462,156
122.487,146
122.512,135
122.537,123
122.562,111
122.587,100
122.612,90
122.637,81
122.662,70
122.687,63
122.712,72
122.737,101
122.762,144
122.787,184
122.812,206
122.837,212
122.862,209
122.887,209
122.912,213
122.937,214
122.962,211
122.987,205
123.012,202
123.037,200
123.062,199
123.087,198
123.112,199
123.137,203
123.162,207
123.187,204
123.212,195
123.237,184
123.262,175
123.287,166
123.312,154
123.337,138
123.362,122
123.387,110
123.412,102
123.437,92
123.462,84
123.487,89
123.512,112
123.537,149
123.562,183
123.587,201
123.612,206
123.637,207
123.662,211
123.687,217
123.712,218
123.737,213
123.762,209
123.787,211
123.812,215
123.837,217
123.862,215
123.887,213
123.912,212
123.937,211
123.962,204
123.987,194
124.012,184
124.037,176
124.062,168
124.087,154
124.112,137
124.137,125
124.162,120
124.187,114
124.212,101
124.237,84
124.262,79
124.287,95
124.312,128
124.337,159
124.362,172
124.387,168
124.412,160
124.437,158
124.462,162
124.487,164
124.512,159
124.537,150
124.562,145
124.587,146
124.612,150
124.637,153
124.662,152
124.687,148
124.712,142
124.737,136
124.762,129
124.787,122
124.812,113
124.837,105
124.862,99
124.887,93
124.912,89
124.937,85
124.962,84
124.987,94
125.012,120
125.037,159
125.062,198
125.087,222
125.112,229
125.137,227
125.162,225
125.187,226
125.212,225
125.237,219
125.262,213
125.287,213
125.312,218
125.337,223
125.362,223
125.387,217
125.412,208
125.437,199
125.462,188
125.487,175
125.512,161
125.537,149
125.562,141
125.587,135
125.612,128
125.637,121
125.662,115
125.687,107
125.712,96
125.737,87
125.762,91
125.787,115
125.812,155
125.837,194
125.862,217
125.887,223
125.912,221
125.937,220
125.962,221
125.987,219
126.012,214
126.037,210
126.062,209
126.087,211
126.112,209
126.137,205
126.162,201
126.187,201
126.212,202
126.237,199
126.262,190
126.287,178
126.312,166
126.337,155
126.362,142
126.387,131
126.412,122
126.437,117
126.462,109
126.487,95
126.512,80
126.537,74
126.562,88
126.587,119
126.612,156
126.637,182
126.662,192
126.687,189
126.712,184
126.737,182
126.762,185
126.787,189
126.812,192
126.837,192
126.862,191
126.887,192
126.912,195
126.937,196
126.962,191
126.987,182
127.012,175
127.037,173
127.062,173
127.087,167
127.112,151
127.137,129
127.162,111
127.187,97
127.212,84
127.237,68
127.262,60
127.287,71
127.312,103
127.337,142
127.362,169
127.387,177
127.412,175
127.437,178
127.462,188
127.487,196
127.512,194
127.537,183
127.562,176
127.587,177
127.612,184
127.637,188
127.662,186
127.687,181
127.712,177
127.737,175
127.762,172
127.787,166
127.812,155
127.837,140
127.862,125
127.887,110
127.912,99
127.937,88
127.962,76
127.987,64
128.012,63
128.037,82
128.062,123
128.087,170
128.112,206
128.137,222
128.162,226
128.187,228
128.212,234
128.237,238
128.262,234
128.287,225
128.312,218
128.337,217
128.362,220
128.387,220
128.412,217
128.437,213
128.462,211
128.487,207
128.512,200
128.537,190
128.562,180
128.587,171
128.612,160
128.637,145
128.662,124
128.687,101
128.712,82
128.737,72
128.762,75
128.787,94
128.812,125
128.837,159
128.862,186
128.887,199
128.912,202
128.937,203
128.962,207
128.987,211
129.012,210
129.037,203
129.062,196
129.087,193
129.112,194
129.137,196
129.162,196
129.187,194
129.212,191
129.237,188
129.262,183
129.287,176
129.312,169
129.337,160
129.362,149
129.387,135
129.412,118
129.437,101
129.462,87
129.487,77
129.512,75
129.537,89
129.562,119
129.587,155
129.612,181
129.637,189
129.662,181
129.687,174
129.712,177
129.737,188
129.762,194
129.787,189
129.812,179
129.837,172
129.862,171
129.887,169
129.912,161
129.937,150
129.962,143
129.987,141
130.012,140
130.037,132
130.062,120
130.087,111
130.112,107
130.137,104
130.162,93
130.187,79
130.212,76
130.237,98
130.262,138
130.287,178
130.312,200
130.337,202
130.362,196
130.387,192
130.412,193
130.437,194
130.462,192
130.487,189
130.512,189
130.537,191
130.562,194
130.587,196
130.612,197
130.637,198
130.662,198
130.687,193
130.712,185
130.737,175
130.762,165
130.787,154
130.812,142
130.837,128
130.862,115
130.887,103
130.912,92
130.937,87
130.962,96
130.987,124
131.012,164
131.037,201
131.062,221
131.087,223
131.112,219
131.137,220
131.162,228
131.187,234
131.212,230
131.237,219
131.262,210
131.287,207
131.312,209
131.337,209
131.362,207
131.387,204
131.412,200
131.437,191
131.462,176
131.487,156
131.512,137
131.537,123
131.562,113
131.587,101
131.612,86
131.637,70
131.662,61
131.687,65
131.712,83
131.737,114
131.762,148
131.787,175
131.812,190
131.837,192
131.862,190
131.887,191
131.912,196
131.937,201
131.962,200
131.987,194
132.012,188
132.037,188
132.062,192
132.087,197
132.112,197
132.137,194
132.162,189
132.187,183
132.212,175
132.237,163
132.262,150
132.287,141
132.312,137
132.337,133
132.362,123
132.387,107
132.412,95
132.437,101
132.462,128
132.487,168
132.512,202
132.537,216
132.562,212
132.587,202
132.612,198
132.637,200
132.662,202
132.687,196
132.712,183
132.737,172
132.762,171
132.787,175
132.812,177
132.837,171
132.862,161
132.887,153
132.912,149
132.937,148
132.962,144
132.987,137
133.012,130
133.037,121
133.062,110
133.087,95
133.112,82
133.137,84
133.162,109
133.187,151
133.212,189
133.237,207
133.262,202
133.287,188
133.312,181
133.337,183
133.362,186
133.387,182
133.412,171
133.437,163
133.462,167
133.487,177
133.512,182
133.537,176
133.562,164
133.587,155
133.612,154
133.637,154
133.662,146
133.687,131
133.712,111
133.737,94
133.762,81
133.787,71
133.812,66
133.837,72
133.862,96
133.887,132
133.912,169
133.937,196
133.962,207
133.987,211
134.012,214
134.037,221
134.062,227
134.087,227
134.112,221
134.137,212
134.162,207
134.187,206
134.212,207
134.237,206
134.262,204
134.287,201
134.312,199
134.337,194
134.362,183
134.387,167
134.412,153
134.437,145
134.462,139
134.487,127
134.512,107
134.537,91
134.562,93
134.587,120
134.612,160
134.637,193
134.662,210
134.687,214
134.712,216
134.737,219
134.762,219
134.787,213
134.812,203
134.837,197
134.862,196
134.887,197
134.912,195
134.937,191
134.962,188
134.987,189
135.012,186
135.037,176
135.062,159
135.087,143
135.112,131
135.137,120
135.162,107
135.187,89
135.212,73
135.237,63
135.262,64
135.287,77
135.312,101
135.337,131
135.362,160
135.387,181
135.412,191
135.437,199
135.462,211
135.487,223
135.512,227
135.537,219
135.562,208
135.587,208
135.612,221
135.637,236
135.662,238
135.687,225
135.712,205
135.737,188
135.762,175
135.787,161
135.812,143
135.837,128
135.862,121
135.887,115
135.912,102
135.937,83
135.962,72
135.987,85
136.012,121
136.037,160
136.062,181
136.087,181
136.112,173
136.137,173
136.162,181
136.187,187
136.212,183
136.237,172
136.262,165
136.287,166
136.312,169
136.337,169
136.362,163
136.387,158
136.412,157
136.437,155
136.462,146
136.487,130
136.512,114
136.537,104
136.562,99
136.587,93
136.612,82
136.637,74
136.662,81
136.687,107
136.712,146
136.737,183
136.762,204
136.787,210
136.812,208
136.837,206
136.862,205
136.887,202
136.912,197
136.937,191
136.962,189
136.987,188
137.012,187
137.037,184
137.062,180
137.087,179
137.112,178
137.137,174
137.162,165
137.187,151
137.212,135
137.237,119
137.262,103
137.287,88
137.312,77
137.337,77
137.362,95
137.387,128
137.412,168
137.437,204
137.462,227
137.487,237
137.512,241
137.537,246
137.562,253
137.587,256
137.612,252
137.637,242
137.662,232
137.687,229
137.712,233
137.737,237
137.762,236
137.787,230
137.812,219
137.837,205
137.862,187
137.887,165
137.912,143
137.937,125
137.962,109
137.987,92
138.012,71
138.037,54
138.062,48
138.087,59
138.112,86
138.137,121
138.162,156
138.187,184
138.212,201
138.237,205
138.262,198
138.287,190
138.312,186
138.337,188
138.362,192
138.387,192
138.412,189
138.437,187
138.462,188
138.487,187
138.512,183
138.537,176
138.562,168
138.587,162
138.612,155
138.637,145
138.662,134
138.687,125
138.712,118
138.737,106
138.762,89
138.787,74
138.812,77
138.837,106
138.862,148
138.887,183
138.912,197
138.937,194
138.962,189
138.987,190
139.012,195
139.037,194
139.062,187
139.087,181
139.112,180
139.137,183
139.162,183
139.187,179
139.212,172
139.237,164
139.262,156
139.287,145
139.312,134
139.337,127
139.362,124
139.387,121
139.412,112
139.437,95
139.462,80
139.487,76
139.512,91
139.537,123
139.562,162
139.587,195
139.612,212
139.637,212
139.662,201
139.687,190
139.712,184
139.737,184
139.762,185
139.787,184
139.812,183
139.837,185
139.862,192
139.887,199
139.912,203
139.937,203
139.962,203
139.987,205
140.012,206
140.037,202
140.062,192
140.087,178
140.112,163
140.137,144
140.162,117
140.187,82
140.212,48
140.237,31
140.262,40
140.287,75
140.312,121
140.337,163
140.362,192
140.387,208
140.412,217
140.437,223
140.462,228
140.487,230
140.512,232
140.537,234
140.562,237
140.587,237
140.612,232
140.637,224
140.662,218
140.687,216
140.712,215
140.737,209
140.762,196
140.787,181
140.812,168
140.837,157
140.862,140
140.887,118
140.912,98
140.937,86
140.962,82
140.987,75
141.012,63
141.037,56
141.062,68
141.087,104
141.112,150
141.137,185
141.162,199
141.187,199
141.212,196
141.237,196
141.262,196
141.287,192
141.312,189
141.337,191
141.362,198
141.387,201
141.412,199
141.437,194
141.462,194
141.487,198
141.512,199
141.537,194
141.562,183
141.587,172
141.612,162
141.637,152
141.662,139
141.687,125
141.712,111
141.737,99
141.762,87
141.787,82
141.812,97
141.837,135
141.862,183
141.887,217
141.912,222
141.937,205
141.962,190
141.987,191
142.012,200
142.037,204
142.062,196
142.087,182
142.112,175
142.137,176
142.162,177
142.187,173
142.212,166
142.237,162
142.262,161
142.287,157
142.312,145
142.337,130
142.362,118
142.387,110
142.412,100
142.437,84
142.462,67
142.487,59
142.512,70
142.537,101
142.562,142
142.587,179
142.612,205
142.637,215
142.662,213
142.687,206
142.712,201
142.737,200
142.762,201
142.787,199
142.812,193
142.837,187
142.862,183
142.887,182
142.912,180
142.937,176
142.962,169
142.987,161
143.012,152
143.037,142
143.062,131
143.087,122
143.112,114
143.137,104
143.162,90
143.187,74
143.212,67
143.237,77
143.262,108
143.287,150
143.312,188
143.337,213
143.362,223
143.387,224
143.412,225
143.437,227
143.462,228
143.487,224
143.512,215
143.537,206
143.562,202
143.587,203
143.612,208
143.637,211
143.662,211
143.687,208
143.712,202
143.737,193
143.762,180
143.787,165
143.812,151
143.837,142
143.862,137
143.887,131
143.912,116
143.937,95
143.962,78
143.987,80
144.012,102
144.037,139
144.062,176
144.087,204
144.112,220
144.137,226
144.162,226
144.187,223
144.212,218
144.237,212
144.262,208
144.287,204
144.312,200
144.337,196
144.362,194
144.387,194
144.412,193
144.437,190
144.462,182
144.487,172
144.512,162
144.537,149
144.562,133
144.587,115
144.612,98
144.637,83
144.662,71
144.687,61
144.712,57
144.737,69
144.762,100
144.787,143
144.812,181
144.837,200
144.862,200
144.887,195
144.912,197
144.937,205
144.962,211
144.987,207
145.012,197
145.037,190
145.062,188
145.087,188
145.112,185
145.137,178
145.162,173
145.187,169
145.212,164
145.237,152
145.262,139
145.287,130
145.312,128
145.337,125
145.362,111
145.387,87
145.412,70
145.437,76
145.462,108
145.487,149
145.512,180
145.537,191
145.562,188
145.587,183
145.612,183
145.637,184
145.662,182
145.687,177
145.712,173
145.737,175
145.762,182
145.787,188
145.812,189
145.837,183
145.862,173
145.887,163
145.912,151
145.937,138
145.962,125
145.987,114
146.012,105
146.037,98
146.062,92
146.087,89
146.112,97
146.137,118
146.162,151
146.187,186
146.212,213
146.237,224
146.262,221
146.287,211
146.312,202
146.337,198
146.362,197
146.387,196
146.412,195
146.437,194
146.462,194
146.487,196
146.512,199
146.537,200
146.562,198
146.587,195
146.612,188
146.637,178
146.662,163
146.687,144
146.712,127
146.737,113
146.762,104
146.787,100
146.812,102
146.837,112
146.862,136
146.887,171
146.912,208
146.937,236
146.962,246
146.987,241
147.012,229
147.037,218
147.062,211
147.087,205
147.112,199
147.137,193
147.162,188
147.187,186
147.212,186
147.237,184
147.262,181
147.287,178
147.312,174
147.337,169
147.362,158
147.387,143
147.412,128
147.437,116
147.462,108
147.487,98
147.512,83
147.537,66
147.562,55
147.587,59
147.612,81
147.637,115
147.662,152
147.687,179
147.712,193
147.737,196
147.762,196
147.787,197
147.812,200
147.837,202
147.862,201
147.887,198
147.912,196
147.937,196
147.962,196
147.987,195
148.012,191
148.037,186
148.062,182
148.087,179
148.112,173
148.137,166
148.162,159
148.187,152
148.212,142
148.237,126
148.262,103
148.287,85
148.312,87
148.337,113
148.362,153
148.387,188
148.412,205
148.437,205
148.462,197
148.487,193
148.512,191
148.537,189
148.562,183
148.587,177
148.612,174
148.637,176
148.662,178
148.687,177
148.712,171
148.737,163
148.762,157
148.787,153
148.812,146
148.837,134
148.862,117
148.887,99
148.912,84
148.937,72
148.962,62
148.987,55
149.012,57
149.037,73
149.062,104
149.087,141
149.112,171
149.137,186
149.162,189
149.187,193
149.212,204
149.237,222
149.262,238
149.287,243
149.312,239
149.337,232
149.362,226
149.387,221
149.412,212
149.437,200
149.462,187
149.487,177
149.512,170
149.537,164
149.562,155
149.587,143
149.612,130
149.637,119
149.662,111
149.687,102
149.712,93
149.737,89
149.762,99
149.787,128
149.812,169
149.837,209
149.862,236
149.887,247
149.912,249
149.937,248
149.962,248
149.987,244
150.012,235
150.037,223
150.062,213
150.087,208
150.112,205
150.137,201
150.162,196
150.187,190
150.212,183
150.237,171
150.262,154
150.287,136
150.312,122
150.337,116
150.362,113
150.387,106
150.412,93
150.437,80
150.462,71
150.487,68
150.512,73
150.537,88
150.562,117
150.587,155
150.612,190
150.637,209
150.662,209
150.687,202
150.712,199
150.737,205
150.762,211
150.787,209
150.812,200
150.837,193
150.862,192
150.887,195
150.912,194
150.937,187
150.962,180
150.987,176
151.012,174
151.037,168
151.062,155
151.087,142
151.112,131
151.137,122
151.162,108
151.187,87
151.212,74
151.237,84
151.262,118
151.287,161
151.312,190
151.337,196
151.362,189
151.387,184
151.412,188
151.437,193
151.462,191
151.487,180
151.512,171
151.537,171
151.562,177
151.587,180
151.612,176
151.637,166
151.662,160
151.687,158
151.712,157
151.737,151
151.762,140
151.787,128
151.812,119
151.837,112
151.862,101
151.887,91
151.912,90
151.937,105
151.962,136
151.987,172
152.012,201
152.037,214
152.062,213
152.087,207
152.112,203
152.137,203
152.162,203
152.187,200
152.212,193
152.237,188
152.262,186
152.287,186
152.312,184
152.337,178
152.362,169
152.387,162
152.412,158
152.437,151
152.462,138
152.487,120
152.512,102
152.537,90
152.562,82
152.587,75
152.612,68
152.637,69
152.662,86
152.687,121
152.712,163
152.737,198
152.762,219
152.787,228
152.812,231
152.837,234
152.862,235
152.887,232
152.912,227
152.937,223
152.962,221
152.987,219
153.012,216
153.037,213
153.062,211
153.087,210
153.112,207
153.137,199
153.162,187
153.187,175
153.212,166
153.237,158
153.262,148
153.287,137
153.312,125
153.337,114
153.362,101
153.387,88
153.412,80
153.437,87
153.462,110
153.487,144
153.512,175
153.537,195
153.562,202
153.587,203
153.612,203
153.637,202
153.662,200
153.687,196
153.712,192
153.737,190
153.762,189
153.787,188
153.812,190
153.837,193
153.862,196
153.887,197
153.912,191
153.937,182
153.962,172
153.987,163
154.012,154
154.037,144
154.062,133
154.087,122
154.112,110
154.137,96
154.162,81
154.187,72
154.212,77
154.237,99
154.262,133
154.287,164
154.312,182
154.337,185
154.362,183
154.387,183
154.412,188
154.437,195
154.462,195
154.487,187
154.512,177
154.537,171
154.562,172
154.587,175
154.612,175
154.637,169
154.662,160
154.687,152
154.712,148
154.737,144
154.762,138
154.787,129
154.812,119
154.837,109
154.862,97
154.887,87
154.912,86
154.937,106
154.962,146
154.987,192
155.012,225
155.037,234
155.062,224
155.087,210
155.112,201
155.137,199
155.162,196
155.187,191
155.212,186
155.237,186
155.262,188
155.287,189
155.312,184
155.337,175
155.362,166
155.387,161
155.412,157
155.437,151
155.462,142
155.487,131
155.512,120
155.537,108
155.562,93
155.587,74
155.612,57
155.637,52
155.662,66
155.687,96
155.712,134
155.737,170
155.762,196
155.787,211
155.812,217
155.837,218
155.862,216
155.887,211
155.912,206
155.937,202
155.962,201
155.987,202
156.012,203
156.037,203
156.062,201
156.087,198
156.112,195
156.137,191
156.162,187
156.187,183
156.212,177
156.237,171
156.262,166
156.287,160
156.312,153
156.337,144
156.362,134
156.387,129
156.412,137
156.437,164
156.462,202
156.487,238
156.512,258
156.537,255
156.562,235
156.587,211
156.612,193
156.637,185
156.662,183
156.687,180
156.712,173
156.737,165
156.762,161
156.787,163
156.812,166
156.837,167
156.862,165
156.887,163
156.912,164
156.937,166
156.962,163
156.987,153
157.012,140
157.037,131
157.062,127
157.087,122
157.112,114
157.137,107
157.162,113
157.187,137
157.212,171
157.237,197
157.262,204
157.287,192
157.312,173
157.337,159
157.362,149
157.387,139
157.412,127
157.437,116
157.462,111
157.487,115
157.512,126
157.537,137
157.562,145
157.587,147
157.612,144
157.637,136
157.662,129
157.687,126
157.712,128
157.737,130
157.762,126
157.787,113
157.812,97
157.837,88
157.862,97
157.887,127
157.912,168
157.937,204
157.962,225
157.987,230
158.012,226
158.037,221
158.062,216
158.087,211
158.112,203
158.137,197
158.162,195
158.187,198
158.212,199
158.237,194
158.262,182
158.287,168
158.312,158
158.337,150
158.362,141
158.387,128
158.412,112
158.437,97
158.462,86
158.487,78
158.512,73
158.537,75
158.562,91
158.587,123
158.612,163
158.637,200
158.662,222
158.687,229
158.712,230
158.737,229
158.762,230
158.787,229
158.812,225
158.837,220
158.862,218
158.887,220
158.912,224
158.937,226
158.962,222
158.987,214
159.012,204
159.037,193
159.062,180
159.087,165
159.112,152
159.137,140
159.162,130
159.187,116
159.212,97
159.237,81
159.262,78
159.287,98
159.312,134
159.337,174
159.362,200
159.387,208
159.412,203
159.437,195
159.462,192
159.487,191
159.512,190
159.537,184
159.562,178
159.587,174
159.612,174
159.637,175
159.662,174
159.687,171
159.712,169
159.737,170
159.762,172
159.787,169
159.812,158
159.837,142
159.862,128
159.887,119
159.912,113
159.937,104
159.962,89
159.987,80
160.012,89
160.037,119
160.062,161
160.087,193
160.112,203
160.137,197
160.162,191
160.187,195
160.212,207
160.237,218
160.262,221
160.287,217
160.312,214
160.337,213
160.362,212
160.387,205
160.412,193
160.437,180
160.462,168
160.487,160
160.512,151
160.537,141
160.562,131
160.587,122
160.612,111
160.637,95
160.662,78
160.687,71
160.712,84
160.737,117
160.762,156
160.787,184
160.812,192
160.837,185
160.862,179
160.887,180
160.912,184
160.937,181
160.962,169
160.987,157
161.012,154
161.037,157
161.062,157
161.087,147
161.112,134
161.137,126
161.162,126
161.187,127
161.212,124
161.237,120
161.262,123
161.287,136
161.312,149
161.337,151
161.362,144
161.387,142
161.412,160
161.437,194
161.462,228
161.487,245
161.512,243
161.537,233
161.562,227
161.587,224
161.612,219
161.637,210
161.662,201
161.687,195
161.712,192
161.737,186
161.762,177
161.787,169
161.812,164
161.837,160
161.862,154
161.887,143
161.912,128
161.937,115
161.962,105
161.987,99
162.012,94
162.037,89
162.062,88
162.087,92
162.112,108
162.137,136
162.162,174
162.187,213
162.212,241
162.237,255
162.262,258
162.287,261
162.312,266
162.337,272
162.362,272
162.387,265
162.412,258
162.437,256
162.462,258
162.487,259
162.512,255
162.537,246
162.562,239
162.587,233
162.612,226
162.637,215
162.662,200
162.687,186
162.712,171
162.737,154
162.762,131
162.787,106
162.812,88
162.837,87
162.862,106
162.887,138
162.912,174
162.937,202
162.962,212
162.987,203
163.012,180
163.037,151
163.062,120
163.087,81
163.112,29
163.137,-34
163.162,-95
163.187,-132
163.212,-137
163.237,-123
163.262,-105
163.287,-91
163.312,-75
163.337,-54
163.362,-40
163.387,-51
163.412,-92
163.437,-140
163.462,-160
163.487,-131
163.512,-68
163.537,-2
163.562,48
163.587,89
163.612,136
163.637,197
163.662,261
163.687,313
163.712,347
163.737,366
163.762,380
163.787,390
163.812,395
163.837,395
163.862,394
163.887,391
163.912,382
163.937,364
163.962,340
163.987,315
164.012,294
164.037,277
164.062,267
164.087,267
164.112,280
164.137,299
164.162,306
164.187,290
164.212,256
164.237,224
164.262,213
164.287,225
164.312,248
164.337,266
164.362,269
164.387,264
164.412,257
164.437,251
164.462,244
164.487,233
164.512,220
164.537,209
164.562,204
164.587,202
164.612,198
164.637,185
164.662,163
164.687,139
164.712,121
164.737,115
164.762,115
164.787,111
164.812,100
164.837,87
164.862,84
164.887,100
164.912,136
164.937,183
164.962,229
164.987,266
165.012,295
165.037,316
165.062,330
165.087,332
165.112,316
165.137,278
165.162,223
165.187,162
165.212,108
165.237,67
165.262,38
165.287,17
165.312,6
165.337,7
165.362,18
165.387,27
165.412,23
165.437,7
165.462,-2
165.487,9
165.512,44
165.537,82
165.562,105
165.587,111
165.612,113
165.637,122
165.662,136
165.687,143
165.712,138
165.737,128
165.762,123
165.787,123
165.812,121
165.837,114
165.862,115
165.887,133
165.912,163
165.937,178
165.962,156
165.987,100
166.012,37
166.037,-4
166.062,-26
166.087,-43
166.112,-64
166.137,-74
166.162,-46
166.187,26
166.212,123
166.237,208
166.262,261
166.287,287
166.312,299
166.337,307
166.362,306
166.387,290
166.412,266
166.437,242
166.462,226
166.487,216
166.512,210
166.537,208
166.562,212
166.587,221
166.612,230
166.637,235
166.662,237
166.687,239
166.712,239
166.737,231
166.762,217
166.787,203
166.812,202
166.837,213
166.862,224
166.887,225
166.912,213
166.937,202
166.962,201
166.987,212
167.012,223
167.037,227
167.062,224
167.087,221
167.112,222
167.137,224
167.162,220
167.187,210
167.212,195
167.237,176
167.262,155
167.287,135
167.312,119
167.337,109
167.362,98
167.387,81
167.412,59
167.437,46
167.462,58
167.487,94
167.512,142
167.537,180
167.562,200
167.587,206
167.612,206
167.637,207
167.662,205
167.687,200
167.712,194
167.737,189
167.762,187
167.787,187
167.812,186
167.837,186
167.862,185
167.887,180
167.912,167
167.937,147
167.962,126
167.987,108
168.012,93
168.037,77
168.062,60
168.087,48
168.112,51
168.137,73
168.162,109
168.187,147
168.212,176
168.237,195
168.262,208
168.287,217
168.312,224
168.337,229
168.362,231
168.387,230
168.412,229
168.437,230
168.462,235
168.487,242
168.512,249
168.537,251
168.562,249
168.587,239
168.612,225
168.637,206
168.662,183
168.687,158
168.712,134
168.737,114
168.762,98
168.787,82
168.812,65
168.837,49
168.862,41
168.887,48
168.912,71
168.937,105
168.962,139
168.987,166
169.012,182
169.037,190
169.062,194
169.087,200
169.112,208
169.137,215
169.162,217
169.187,215
169.212,212
169.237,213
169.262,221
169.287,230
169.312,234
169.337,227
169.362,211
169.387,193
169.412,176
169.437,164
169.462,154
169.487,145
169.512,132
169.537,114
169.562,91
169.587,67
169.612,52
169.637,60
169.662,93
169.687,138
169.712,177
169.737,194
169.762,193
169.787,188
169.812,191
169.837,199
169.862,204
169.887,199
169.912,188
169.937,178
169.962,173
169.987,172
170.012,168
170.037,164
170.062,162
170.087,163
170.112,160
170.137,149
170.162,133
170.187,120
170.212,116
170.237,115
170.262,106
170.287,90
170.312,81
170.337,95
170.362,135
170.387,184
170.412,220
170.437,229
170.462,220
170.487,211
170.512,211
170.537,216
170.562,215
170.587,204
170.612,192
170.637,188
170.662,190
170.687,190
170.712,182
170.737,167
170.762,153
170.787,145
170.812,140
170.837,129
170.862,112
170.887,94
170.912,82
170.937,74
170.962,67
170.987,61
171.012,65
171.037,88
171.062,130
171.087,177
171.112,214
171.137,232
171.162,240
171.187,247
171.212,258
171.237,266
171.262,262
171.287,246
171.312,223
171.337,203
171.362,192
171.387,188
171.412,188
171.437,187
171.462,182
171.487,168
171.512,147
171.537,124
171.562,106
171.587,96
171.612,88
171.637,79
171.662,64
171.687,51
171.712,48
171.737,63
171.762,93
171.787,129
171.812,162
171.837,187
171.862,205
171.887,217
171.912,224
171.937,225
171.962,220
171.987,210
172.012,200
172.037,193
172.062,192
172.087,196
172.112,201
172.137,203
172.162,200
172.187,192
172.212,180
172.237,166
172.262,155
172.287,153
172.312,158
172.337,164
172.362,159
172.387,141
172.412,114
172.437,94
172.462,94
172.487,117
172.512,154
172.537,190
172.562,217
172.587,232
172.612,239
172.637,240
172.662,238
172.687,232
172.712,225
172.737,217
172.762,210
172.787,203
172.812,197
172.837,191
172.862,185
172.887,180
172.912,175
172.937,169
172.962,162
172.987,154
173.012,144
173.037,134
173.062,123
173.087,110
173.112,96
173.137,83
173.162,74
173.187,74
173.212,87
173.237,113
173.262,144
173.287,168
173.312,181
173.337,182
173.362,180
173.387,178
173.412,176
173.437,172
173.462,167
173.487,167
173.512,173
173.537,184
173.562,189
173.587,185
173.612,174
173.637,165
173.662,160
173.687,157
173.712,150
173.737,140
173.762,131
173.787,128
173.812,127
173.837,121
173.862,112
173.887,108
173.912,120
173.937,152
173.962,190
173.987,219
174.012,230
174.037,227
174.062,220
174.087,217
174.112,216
174.137,213
174.162,207
174.187,201
174.212,200
174.237,201
174.262,199
174.287,191
174.312,177
174.337,162
174.362,150
174.387,143
174.412,140
174.437,136
174.462,129
174.487,118
174.512,103
174.537,93
174.562,98
174.587,124
174.612,165
174.637,204
174.662,227
174.687,229
174.712,219
174.737,207
174.762,197
174.787,188
174.812,179
174.837,175
174.862,178
174.887,185
174.912,186
174.937,176
174.962,159
174.987,145
175.012,138
175.037,135
175.062,129
175.087,119
175.112,108
175.137,97
175.162,86
175.187,74
175.212,70
175.237,86
175.262,122
175.287,167
175.312,199
175.337,209
175.362,205
175.387,200
175.412,201
175.437,200
175.462,192
175.487,177
175.512,165
175.537,162
175.562,163
175.587,160
175.612,151
175.637,144
175.662,144
175.687,148
175.712,149
175.737,142
175.762,135
175.787,131
175.812,129
175.837,121
175.862,106
175.887,93
175.912,101
175.937,135
175.962,182
175.987,222
176.012,242
176.037,247
176.062,247
176.087,250
176.112,251
176.137,246
176.162,234
176.187,221
176.212,212
176.237,206
176.262,199
176.287,192
176.312,187
176.337,189
176.362,191
176.387,189
176.412,177
176.437,158
176.462,141
176.487,131
176.512,126
176.537,120
176.562,106
176.587,87
176.612,69
176.637,66
176.662,84
176.687,121
176.712,167
176.737,208
176.762,234
176.787,244
176.812,244
176.837,239
176.862,234
176.887,229
176.912,222
176.937,215
176.962,208
176.987,201
177.012,196
177.037,192
177.062,186
177.087,179
177.112,167
177.137,154
177.162,140
177.187,128
177.212,117
177.237,107
177.262,97
177.287,87
177.312,78
177.337,70
177.362,66
177.387,70
177.412,89
177.437,124
177.462,165
177.487,196
177.512,208
177.537,205
177.562,199
177.587,202
177.612,211
177.637,214
177.662,208
177.687,197
177.712,192
177.737,196
177.762,203
177.787,203
177.812,194
177.837,184
177.862,180
177.887,181
177.912,181
177.937,172
177.962,157
177.987,143
178.012,132
178.037,118
178.062,96
178.087,74
178.112,67
178.137,86
178.162,127
178.187,171
178.212,198
178.237,200
178.262,190
178.287,182
178.312,184
178.337,191
178.362,193
178.387,187
178.412,176
178.437,169
178.462,168
178.487,170
178.512,168
178.537,161
178.562,151
178.587,141
178.612,129
178.637,118
178.662,109
178.687,104
178.712,101
178.737,98
178.762,92
178.787,87
178.812,94
178.837,122
178.862,167
178.887,213
178.912,241
178.937,247
178.962,240
178.987,234
179.012,231
179.037,228
179.062,217
179.087,204
179.112,195
179.137,197
179.162,202
179.187,200
179.212,189
179.237,174
179.262,164
179.287,160
179.312,154
179.337,141
179.362,123
179.387,107
179.412,94
179.437,83
179.462,74
179.487,73
179.512,89
179.537,122
179.562,161
179.587,192
179.612,207
179.637,213
179.662,215
179.687,215
179.712,208
179.737,192
179.762,176
179.787,170
179.812,177
179.837,190
179.862,198
179.887,199
179.912,197
179.937,196
179.962,192
179.987,181
180.012,164
180.037,150
180.062,146
180.087,146
180.112,140
180.137,121
180.162,96
180.187,85
180.212,98
180.237,131
180.262,171
180.287,203
180.312,223
180.337,232
180.362,235
180.387,231
180.412,222
180.437,212
180.462,205
180.487,200
180.512,196
180.537,188
180.562,180
180.587,176
180.612,178
180.637,184
180.662,186
180.687,180
180.712,166
180.737,149
180.762,134
180.787,122
180.812,111
180.837,96
180.862,80
180.887,70
180.912,76
180.937,100
180.962,135
180.987,165
181.012,180
181.037,179
181.062,172
181.087,169
181.112,173
181.137,180
181.162,185
181.187,188
181.212,192
181.237,195
181.262,197
181.287,195
181.312,191
181.337,189
181.362,189
181.387,187
181.412,178
181.437,164
181.462,152
181.487,146
181.512,141
181.537,132
181.562,119
181.587,114
181.612,130
181.637,168
181.662,208
181.687,229
181.712,223
181.737,201
181.762,183
181.787,177
181.812,178
181.837,174
181.862,161
181.887,150
181.912,148
181.937,156
181.962,163
181.987,161
182.012,149
182.037,138
182.062,131
182.087,127
182.112,121
182.137,110
182.162,100
182.187,93
182.212,86
182.237,76
182.262,68
182.287,72
182.312,95
182.337,133
182.362,171
182.387,198
182.412,210
182.437,217
182.462,224
182.487,230
182.512,230
182.537,222
182.562,210
182.587,202
182.612,201
182.637,203
182.662,204
182.687,202
182.712,199
182.737,194
182.762,187
182.787,174
182.812,158
182.837,141
182.862,129
182.887,123
182.912,118
182.937,106
182.962,90
182.987,75
183.012,73
183.037,92
183.062,127
183.087,168
183.112,201
183.137,222
183.162,232
183.187,238
183.212,242
183.237,244
183.262,242
183.287,236
183.312,232
183.337,229
183.362,229
183.387,228
183.412,224
183.437,218
183.462,212
183.487,205
183.512,196
183.537,184
183.562,169
183.587,154
183.612,139
183.637,124
183.662,108
183.687,91
183.712,75
183.737,65
183.762,64
183.787,76
183.812,99
183.837,132
183.862,167
183.887,195
183.912,210
183.937,213
183.962,209
183.987,205
184.012,205
184.037,205
184.062,203
184.087,198
184.112,194
184.137,194
184.162,195
184.187,192
184.212,186
184.237,180
184.262,178
184.287,176
184.312,167
184.337,150
184.362,132
184.387,118
184.412,110
184.437,100
184.462,84
184.487,72
184.512,76
184.537,102
184.562,140
184.587,172
184.612,186
184.637,189
184.662,192
184.687,200
184.712,208
184.737,207
184.762,195
184.787,182
184.812,175
184.837,175
184.862,176
184.887,172
184.912,166
184.937,161
184.962,160
184.987,157
185.012,148
185.037,134
185.062,119
185.087,108
185.112,100
185.137,91
185.162,78
185.187,68
185.212,72
185.237,97
185.262,139
185.287,182
185.312,211
185.337,220
185.362,217
185.387,213
185.412,213
185.437,213
185.462,210
185.487,203
185.512,198
185.537,197
185.562,198
185.587,194
185.612,183
185.637,171
185.662,165
185.687,163
185.712,159
185.737,147
185.762,131
185.787,119
185.812,113
185.837,107
185.862,92
185.887,71
185.912,56
185.937,62
185.962,94
185.987,139
186.012,182
186.037,210
186.062,227
186.087,238
186.112,248
186.137,255
186.162,257
186.187,255
186.212,254
186.237,254
186.262,256
186.287,256
186.312,253
186.337,248
186.362,242
186.387,233
186.412,219
186.437,201
186.462,183
186.487,166
186.512,151
186.537,136
186.562,119
186.587,101
186.612,84
186.637,73
186.662,71
186.687,82
186.712,106
186.737,138
186.762,170
186.787,190
186.812,197
186.837,194
186.862,191
186.887,194
186.912,200
186.937,202
186.962,195
186.987,182
187.012,172
187.037,171
187.062,177
187.087,182
187.112,180
187.137,175
187.162,172
187.187,172
187.212,169
187.237,158
187.262,140
187.287,122
187.312,109
187.337,98
187.362,85
187.387,74
187.412,76
187.437,99
187.462,140
187.487,181
187.512,202
187.537,199
187.562,187
187.587,180
187.612,182
187.637,186
187.662,181
187.687,169
187.712,158
187.737,156
187.762,159
187.787,160
187.812,154
187.837,144
187.862,136
187.887,133
187.912,130
187.937,123
187.962,112
187.987,103
188.012,99
188.037,97
188.062,92
188.087,85
188.112,81
188.137,90
188.162,114
188.187,149
188.212,187
188.237,218
188.262,238
188.287,246
188.312,245
188.337,237
188.362,226
188.387,214
188.412,204
188.437,194
188.462,185
188.487,180
188.512,183
188.537,193
188.562,205
188.587,209
188.612,204
188.637,193
188.662,179
188.687,167
188.712,156
188.737,146
188.762,140
188.787,136
188.812,131
188.837,121
188.862,110
188.887,111
188.912,132
188.937,170
188.962,211
188.987,239
189.012,252
189.037,256
189.062,258
189.087,259
189.112,253
189.137,242
189.162,230
189.187,223
189.212,218
189.237,209
189.262,195
189.287,183
189.312,178
189.337,177
189.362,173
189.387,162
189.412,147
189.437,135
189.462,128
189.487,121
189.512,110
189.537,95
189.562,82
189.587,74
189.612,68
189.637,63
189.662,63
189.687,77
189.712,106
189.737,142
189.762,171
189.787,187
189.812,193
189.837,194
189.862,197
189.887,200
189.912,204
189.937,205
189.962,206
189.987,205
190.012,204
190.037,205
190.062,208
190.087,209
190.112,203
190.137,190
190.162,177
190.187,169
190.212,164
190.237,158
190.262,146
190.287,131
190.312,117
190.337,105
190.362,93
190.387,80
190.412,76
190.437,91
190.462,126
190.487,167
190.512,194
190.537,199
190.562,191
190.587,183
190.612,183
190.637,184
190.662,179
190.687,167
190.712,154
190.737,149
190.762,153
190.787,158
190.812,159
190.837,157
190.862,155
190.887,158
190.912,162
190.937,162
190.962,155
190.987,142
191.012,129
191.037,115
191.062,99
191.087,79
191.112,61
191.137,55
191.162,71
191.187,105
191.212,148
191.237,185
191.262,210
191.287,227
191.312,239
191.337,246
191.362,248
191.387,244
191.412,240
191.437,241
191.462,245
191.487,248
191.512,246
191.537,242
191.562,238
191.587,235
191.612,228
191.637,213
191.662,193
191.687,173
191.712,158
191.737,147
191.762,136
191.787,123
191.812,109
191.837,96
191.862,85
191.887,81
191.912,89
191.937,112
191.962,147
191.987,182
192.012,206
192.037,219
192.062,223
192.087,224
192.112,224
192.137,222
192.162,218
192.187,213
192.212,208
192.237,205
192.262,204
192.287,204
192.312,206
192.337,205
192.362,200
192.387,189
192.412,175
192.437,161
192.462,146
192.487,130
192.512,116
192.537,107
192.562,103
192.587,99
192.612,88
192.637,72
192.662,66
192.687,85
192.712,127
192.737,175
192.762,203
192.787,204
192.812,190
192.837,180
192.862,180
192.887,183
192.912,180
192.937,172
192.962,164
192.987,162
193.012,162
193.037,161
193.062,155
193.087,150
193.112,147
193.137,144
193.162,135
193.187,120
193.212,105
193.237,94
193.262,89
193.287,83
193.312,73
193.337,60
193.362,51
193.387,54
193.412,73
193.437,107
193.462,147
193.487,187
193.512,219
193.537,241
193.562,252
193.587,254
193.612,249
193.637,242
193.662,234
193.687,230
193.712,230
193.737,233
193.762,234
193.787,231
193.812,225
193.837,214
193.862,201
193.887,188
193.912,177
193.937,171
193.962,166
193.987,158
194.012,144
194.037,126
194.062,113
194.087,107
194.112,105
194.137,100
194.162,95
194.187,100
194.212,126
194.237,169
194.262,211
194.287,234
194.312,237
194.337,231
194.362,228
194.387,230
194.412,231
194.437,227
194.462,221
194.487,217
194.512,217
194.537,214
194.562,206
194.587,198
194.612,194
194.637,196
194.662,196
194.687,188
194.712,172
194.737,153
194.762,136
194.787,121
194.812,109
194.837,101
194.862,101
194.887,104
194.912,103
194.937,93
194.962,84
194.987,89
195.012,116
195.037,155
195.062,187
195.087,202
195.112,201
195.137,196
195.162,192
195.187,191
195.212,186
195.237,179
195.262,173
195.287,172
195.312,176
195.337,182
195.362,187
195.387,192
195.412,194
195.437,193
195.462,190
195.487,187
195.512,186
195.537,187
195.562,185
195.587,176
195.612,163
195.637,147
195.662,132
195.687,121
195.712,120
195.737,136
195.762,169
195.787,209
195.812,237
195.837,243
195.862,230
195.887,212
195.912,200
195.937,195
195.962,190
195.987,182
196.012,176
196.037,176
196.062,181
196.087,182
196.112,175
196.137,158
196.162,139
196.187,126
196.212,119
196.237,110
196.262,97
196.287,82
196.312,72
196.337,74
196.362,82
196.387,83
196.412,65
196.437,33
196.462,5
196.487,5
196.512,39
196.537,94
196.562,147
196.587,182
196.612,201
196.637,212
196.662,223
196.687,232
196.712,232
196.737,221
196.762,202
196.787,181
196.812,163
196.837,151
196.862,143
196.887,135
196.912,123
196.937,107
196.962,90
196.987,79
197.012,75
197.037,76
197.062,77
197.087,76
197.112,77
197.137,84
197.162,90
197.187,89
197.212,81
197.237,80
197.262,99
197.287,139
197.312,187
197.337,226
197.362,250
197.387,266
197.412,282
197.437,297
197.462,305
197.487,302
197.512,293
197.537,292
197.562,301
197.587,315
197.612,324
197.637,322
197.662,311
197.687,296
197.712,279
197.737,264
197.762,250
197.787,242
197.812,240
197.837,244
197.862,249
197.887,251
197.912,244
197.937,230
197.962,211
197.987,195
198.012,187
198.037,186
198.062,188
198.087,187
198.112,181
198.137,172
198.162,163
198.187,156
198.212,149
198.237,143
198.262,138
198.287,136
198.312,133
198.337,125
198.362,114
198.387,102
198.412,94
198.437,88
198.462,82
198.487,72
198.512,63
198.537,56
198.562,50
198.587,39
198.612,26
198.637,18
198.662,26
198.687,51
198.712,88
198.737,122
198.762,149
198.787,170
198.812,188
198.837,201
198.862,205
198.887,200
198.912,191
198.937,182
198.962,177
198.987,174
199.012,169
199.037,162
199.062,154
199.087,144
199.112,132
199.137,119
199.162,108
199.187,100
199.212,93
199.237,87
199.262,78
199.287,69
199.312,60
199.337,54
199.362,57
199.387,75
199.412,111
199.437,158
199.462,199
199.487,224
199.512,234
199.537,241
199.562,253
199.587,268
199.612,276
199.637,272
199.662,261
199.687,251
199.712,248
199.737,250
199.762,251
199.787,246
199.812,237
199.837,226
199.862,212
199.887,198
199.912,184
199.937,174
199.962,166
199.987,156
200.012,143
200.037,128
200.062,115
200.087,101
200.112,89
200.137,84
200.162,92
200.187,118
200.212,153
200.237,185
200.262,201
200.287,204
200.312,204
200.337,207
200.362,213
200.387,215
200.412,212
200.437,207
200.462,206
200.487,204
200.512,200
200.537,192
200.562,186
200.587,188
200.612,194
200.637,197
200.662,192
200.687,181
200.712,168
200.737,156
200.762,144
200.787,130
200.812,115
200.837,101
200.862,87
200.887,73
200.912,62
200.937,61
200.962,78
200.987,106
201.012,136
201.037,157
201.062,167
201.087,171
201.112,177
201.137,182
201.162,183
201.187,178
201.212,170
201.237,165
201.262,166
201.287,171
201.312,177
201.337,181
201.362,183
201.387,181
201.412,177
201.437,172
201.462,166
201.487,162
201.512,156
201.537,150
201.562,143
201.587,137
201.612,129
201.637,118
201.662,104
201.687,95
201.712,101
201.737,126
201.762,163
201.787,199
201.812,222
201.837,230
201.862,231
201.887,233
201.912,236
201.937,238
201.962,234
201.987,226
202.012,218
202.037,214
202.062,211
202.087,206
202.112,198
202.137,189
202.162,182
202.187,179
202.212,177
202.237,171
202.262,160
202.287,147
202.312,137
202.337,129
202.362,123
202.387,118
202.412,113
202.437,108
202.462,102
202.487,93
202.512,81
202.537,78
202.562,92
202.587,125
202.612,166
202.637,198
202.662,211
202.687,209
202.712,205
202.737,208
202.762,215
202.787,219
202.812,217
202.837,211
202.862,208
202.887,209
202.912,209
202.937,203
202.962,194
202.987,185
203.012,180
203.037,178
203.062,175
203.087,167
203.112,156
203.137,143
203.162,128
203.187,112
203.212,98
203.237,88
203.262,82
203.287,78
203.312,76
203.337,83
203.362,103
203.387,139
203.412,180
203.437,212
203.462,224
203.487,218
203.512,206
203.537,200
203.562,201
203.587,203
203.612,199
203.637,191
203.662,185
203.687,185
203.712,189
203.737,190
203.762,184
203.787,176
203.812,169
203.837,168
203.862,170
203.887,172
203.912,171
203.937,167
203.962,160
203.987,154
204.012,148
204.037,141
204.062,132
204.087,120
204.112,113
204.137,118
204.162,142
204.187,180
204.212,215
204.237,233
204.262,230
204.287,212
204.312,193
204.337,181
204.362,175
204.387,174
204.412,175
204.437,181
204.462,191
204.487,201
204.512,204
204.537,201
204.562,193
204.587,186
204.612,180
204.637,175
204.662,171
204.687,165
204.712,156
204.737,144
204.762,125
204.787,100
204.812,71
204.837,45
204.862,31
204.887,36
204.912,65
204.937,110
204.962,157
204.987,190
205.012,205
205.037,209
205.062,211
205.087,214
205.112,215
205.137,211
205.162,203
205.187,198
205.212,198
205.237,202
205.262,203
205.287,200
205.312,196
205.337,194
205.362,194
205.387,191
205.412,181
205.437,167
205.462,152
205.487,140
205.512,128
205.537,116
205.562,103
205.587,89
205.612,81
205.637,84
205.662,103
205.687,138
205.712,182
205.737,222
205.762,244
205.787,246
205.812,234
205.837,219
205.862,209
205.887,204
205.912,201
205.937,201
205.962,205
205.987,213
206.012,216
206.037,210
206.062,194
206.087,178
206.112,169
206.137,164
206.162,157
206.187,143
206.212,126
206.237,112
206.262,103
206.287,92
206.312,73
206.337,52
206.362,40
206.387,48
206.412,76
206.437,114
206.462,150
206.487,177
206.512,193
206.537,199
206.562,200
206.587,202
206.612,209
206.637,217
206.662,221
206.687,219
206.712,214
206.737,213
206.762,219
206.787,225
206.812,223
206.837,213
206.862,204
206.887,203
206.912,206
206.937,203
206.962,192
206.987,179
207.012,169
207.037,159
207.062,140
207.087,112
207.112,91
207.137,97
207.162,131
207.187,172
207.212,198
207.237,200
207.262,191
207.287,185
207.312,186
207.337,184
207.362,176
207.387,166
207.412,163
207.437,168
207.462,176
207.487,177
207.512,173
207.537,169
207.562,167
207.587,162
207.612,153
207.637,140
207.662,129
207.687,123
207.712,116
207.737,104
207.762,86
207.787,73
207.812,74
207.837,96
207.862,132
207.887,172
207.912,205
207.937,223
207.962,229
207.987,227
208.012,223
208.037,221
208.062,217
208.087,209
208.112,198
208.137,190
208.162,188
208.187,189
208.212,187
208.237,179
208.262,168
208.287,159
208.312,151
208.337,141
208.362,125
208.387,107
208.412,92
208.437,84
208.462,79
208.487,68
208.512,55
208.537,51
208.562,71
208.587,117
208.612,173
208.637,219
208.662,241
208.687,246
208.712,244
208.737,244
208.762,245
208.787,242
208.812,233
208.837,225
208.862,223
208.887,225
208.912,224
208.937,217
208.962,206
208.987,198
209.012,195
209.037,193
209.062,184
209.087,168
209.112,151
209.137,139
209.162,132
209.187,125
209.212,113
209.237,98
209.262,83
209.287,76
209.312,82
209.337,101
209.362,131
209.387,164
209.412,192
209.437,208
209.462,213
209.487,213
209.512,214
209.537,216
209.562,218
209.587,217
209.612,214
209.637,213
209.662,215
209.687,217
209.712,214
209.737,205
209.762,196
209.787,189
209.812,186
209.837,182
209.862,173
209.887,157
209.912,139
209.937,124
209.962,115
209.987,108
210.012,96
210.037,77
210.062,55
210.087,43
210.112,54
210.137,87
210.162,131
210.187,172
210.212,199
210.237,211
210.262,216
210.287,220
210.312,224
210.337,226
210.362,226
210.387,224
210.412,219
210.437,214
210.462,207
210.487,201
210.512,195
210.537,189
210.562,182
210.587,174
210.612,164
210.637,154
210.662,145
210.687,135
210.712,125
210.737,115
210.762,103
210.787,86
210.812,67
210.837,54
210.862,57
210.887,81
210.912,117
210.937,151
210.962,170
210.987,176
211.012,181
211.037,191
211.062,207
211.087,219
211.112,221
211.137,215
211.162,208
211.187,207
211.212,211
211.237,214
211.262,211
211.287,204
211.312,196
211.337,189
211.362,183
211.387,172
211.412,155
211.437,135
211.462,117
211.487,103
211.512,90
211.537,76
211.562,67
211.587,74
211.612,103
211.637,146
211.662,188
211.687,211
211.712,216
211.737,211
211.762,209
211.787,211
211.812,213
211.837,212
211.862,211
211.887,211
211.912,211
211.937,209
211.962,205
211.987,204
212.012,207
212.037,210
212.062,203
212.087,185
212.112,165
212.137,150
212.162,142
212.187,134
212.212,123
212.237,109
212.262,99
212.287,90
212.312,80
212.337,71
212.362,76
212.387,105
212.412,154
212.437,201
212.462,226
212.487,226
212.512,215
212.537,209
212.562,210
212.587,214
212.612,215
212.637,213
212.662,211
212.687,210
212.712,208
212.737,204
212.762,201
212.787,201
212.812,200
212.837,195
212.862,184
212.887,168
212.912,152
212.937,138
212.962,125
212.987,116
213.012,111
213.037,107
213.062,97
213.087,80
213.112,68
213.137,72
213.162,98
213.187,136
213.212,169
213.237,188
213.262,195
213.287,201
213.312,206
213.337,208
213.362,204
213.387,198
213.412,198
213.437,204
213.462,210
213.487,211
213.512,208
213.537,205
213.562,204
213.587,202
213.612,196
213.637,188
213.662,180
213.687,174
213.712,167
213.737,154
213.762,138
213.787,123
213.812,112
213.837,101
213.862,87
213.887,73
213.912,68
213.937,82
213.962,114
213.987,153
214.012,184
214.037,199
214.062,201
214.087,200
214.112,203
214.137,212
214.162,223
214.187,228
214.212,226
214.237,220
214.262,215
214.287,213
214.312,212
214.337,207
214.362,197
214.387,184
214.412,172
214.437,159
214.462,142
214.487,125
214.512,113
214.537,109
214.562,108
214.587,98
214.612,79
214.637,65
214.662,76
214.687,116
214.712,168
214.737,207
214.762,218
214.787,211
214.812,201
214.837,199
214.862,199
214.887,193
214.912,183
214.937,177
214.962,179
214.987,185
215.012,186
215.037,178
215.062,170
215.087,167
215.112,166
215.137,162
215.162,153
215.187,142
215.212,135
215.237,130
215.262,120
215.287,105
215.312,89
215.337,78
215.362,75
215.387,77
215.412,86
215.437,108
215.462,146
215.487,192
215.512,228
215.537,243
215.562,243
215.587,237
215.612,234
215.637,232
215.662,227
215.687,218
215.712,211
215.737,210
215.762,211
215.787,211
215.812,208
215.837,207
215.862,209
215.887,210
215.912,205
215.937,193
215.962,178
215.987,167
216.012,159
216.037,152
216.062,142
216.087,127
216.112,110
216.137,93
216.162,80
216.187,79
216.212,96
216.237,130
216.262,170
216.287,202
216.312,220
216.337,224
216.362,222
216.387,218
216.412,213
216.437,208
216.462,203
216.487,198
216.512,191
216.537,183
216.562,178
216.587,178
216.612,182
216.637,185
216.662,183
216.687,174
216.712,166
216.737,158
216.762,150
216.787,140
216.812,128
216.837,121
216.862,119
216.887,118
216.912,112
216.937,105
216.962,107
216.987,125
217.012,157
217.037,188
217.062,205
217.087,206
217.112,200
217.137,199
217.162,205
217.187,212
217.212,214
217.237,209
217.262,200
217.287,192
217.312,188
217.337,185
217.362,180
217.387,171
217.412,158
217.437,147
217.462,139
217.487,134
217.512,128
217.537,117
217.562,102
217.587,89
217.612,79
217.637,70
217.662,63
217.687,63
217.712,78
217.737,112
217.762,159
217.787,204
217.812,233
217.837,243
217.862,241
217.887,237
217.912,236
217.937,235
217.962,229
217.987,220
218.012,211
218.037,204
218.062,200
218.087,194
218.112,184
218.137,172
218.162,160
218.187,149
218.212,136
218.237,121
218.262,105
218.287,91
218.312,81
218.337,68
218.362,51
218.387,31
218.412,21
218.437,33
218.462,71
218.487,126
218.512,184
218.537,228
218.562,254
218.587,264
218.612,263
218.637,258
218.662,255
218.687,256
218.712,257
218.737,254
218.762,245
218.787,233
218.812,225
218.837,224
218.862,226
218.887,223
218.912,212
218.937,195
218.962,180
218.987,170
219.012,162
219.037,151
219.062,135
219.087,115
219.112,95
219.137,80
219.162,77
219.187,90
219.212,118
219.237,153
219.262,182
219.287,197
219.312,202
219.337,203
219.362,206
219.387,210
219.412,208
219.437,199
219.462,187
219.487,178
219.512,175
219.537,177
219.562,182
219.587,185
219.612,186
219.637,181
219.662,170
219.687,155
219.712,140
219.737,129
219.762,122
219.787,116
219.812,106
219.837,90
219.862,72
219.887,59
219.912,60
219.937,77
219.962,108
219.987,144
220.012,173
220.037,189
220.062,194
220.087,195
220.112,202
220.137,215
220.162,228
220.187,235
220.212,235
220.237,236
220.262,244
220.287,256
220.312,264
220.337,264
220.362,259
220.387,260
220.412,271
220.437,285
220.462,293
220.487,291
220.512,286
220.537,282
220.562,280
220.587,275
220.612,272
220.637,283
220.662,315
220.687,362
220.712,404
220.737,421
220.762,414
220.787,396
220.812,381
220.837,371
220.862,361
220.887,348
220.912,332
220.937,315
220.962,295
220.987,269
221.012,241
221.037,213
221.062,184
221.087,150
221.112,108
221.137,59
221.162,11
221.187,-38
221.212,-94
221.237,-158
221.262,-226
221.287,-288
221.312,-347
221.337,-410
221.362,-477
221.387,-539
221.412,-585
221.437,-621
221.462,-668
221.487,-730
221.512,-786
221.537,-798
221.562,-749
221.587,-661
221.612,-566
221.637,-477
221.662,-380
221.687,-260
221.712,-124
221.737,10
221.762,142
221.787,290
221.812,470
221.837,665
221.862,840
221.887,970
221.912,1062
221.937,1125
221.962,1147
221.987,1107
222.012,1009
222.037,897
222.062,819
222.087,780
222.112,740
222.137,667
222.162,581
222.187,532
222.212,539
222.237,570
222.262,571
222.287,525
222.312,461
222.337,412
222.362,377
222.387,334
222.412,279
222.437,240
222.462,238
222.487,260
222.512,268
222.537,245
222.562,214
222.587,205
222.612,219
222.637,228
222.662,212
222.687,179
222.712,148
222.737,112
222.762,51
222.787,-34
222.812,-104
222.837,-116
222.862,-82
222.887,-63
222.912,-106
222.937,-192
222.962,-254
222.987,-245
223.012,-183
223.037,-117
223.062,-75
223.087,-38
223.112,11
223.137,57
223.162,67
223.187,39
223.212,19
223.237,48
223.262,111
223.287,146
223.312,108
223.337,26
223.362,-24
223.387,1
223.412,81
223.437,159
223.462,201
223.487,223
223.512,253
223.537,292
223.562,312
223.587,296
223.612,262
223.637,246
223.662,265
223.687,308
223.712,353
223.737,393
223.762,427
223.787,455
223.812,467
223.837,460
223.862,436
223.887,402
223.912,355
223.937,296
223.962,241
223.987,217
224.012,232
224.037,255
224.062,238
224.087,167
224.112,80
224.137,21
224.162,-12
224.187,-81
224.212,-238
224.237,-456
224.262,-633
224.287,-677
224.312,-581
224.337,-426
224.362,-296
224.387,-223
224.412,-191
224.437,-189
224.462,-234
224.487,-332
224.512,-437
224.537,-474
224.562,-399
224.587,-249
224.612,-92
224.637,40
224.662,180
224.687,364
224.712,568
224.737,709
224.762,732
224.787,671
224.812,630
224.837,678
224.862,795
224.887,893
224.912,907
224.937,846
224.962,766
224.987,709
225.012,680
225.037,669
225.062,673
225.087,689
225.112,695
225.137,656
225.162,558
225.187,431
225.212,327
225.237,272
225.262,248
225.287,219
225.312,171
225.337,115
225.362,60
225.387,-7
225.412,-102
225.437,-210
225.462,-285
225.487,-285
225.512,-215
225.537,-121
225.562,-54
225.587,-37
225.612,-59
225.637,-98
225.662,-132
225.687,-147
225.712,-130
225.737,-81
225.762,-14
225.787,42
225.812,60
225.837,30
225.862,-34
225.887,-106
225.912,-148
225.937,-130
225.962,-49
225.987,59
226.012,142
226.037,165
226.062,137
226.087,99
226.112,87
226.137,99
226.162,118
226.187,132
226.212,148
226.237,175
226.262,203
226.287,211
226.312,197
226.337,185
226.362,201
226.387,244
226.412,285
226.437,297
226.462,281
226.487,255
226.512,238
226.537,232
226.562,240
226.587,267
226.612,311
226.637,351
226.662,361
226.687,342
226.712,327
226.737,351
226.762,403
226.787,434
226.812,404
226.837,320
226.862,229
226.887,163
226.912,115
226.937,68
226.962,40
226.987,77
227.012,196
227.037,349
227.062,452
227.087,465
227.112,421
227.137,387
227.162,392
227.187,399
227.212,362
227.237,282
227.262,207
227.287,176
227.312,177
227.337,166
227.362,117
227.387,54
227.412,15
227.437,15
227.462,32
227.487,40
227.512,34
227.537,29
227.562,33
227.587,36
227.612,29
227.637,16
227.662,9
227.687,10
227.712,2
227.737,-29
227.762,-78
227.787,-116
227.812,-120
227.837,-93
227.862,-63
227.887,-53
227.912,-64
227.937,-72
227.962,-54
227.987,-3
228.012,62
228.037,119
228.062,151
228.087,165
228.112,174
228.137,187
228.162,199
228.187,204
228.212,201
228.237,203
228.262,221
228.287,248
228.312,270
228.337,270
228.362,255
228.387,240
228.412,236
228.437,237
228.462,231
228.487,214
228.512,198
228.537,191
228.562,189
228.587,180
228.612,159
228.637,139
228.662,139
228.687,164
228.712,200
228.737,231
228.762,251
228.787,266
228.812,282
228.837,293
228.862,292
228.887,281
228.912,271
228.937,270
228.962,276
228.987,279
229.012,273
229.037,263
229.062,256
229.087,251
229.112,243
229.137,227
229.162,205
229.187,185
229.212,172
229.237,163
229.262,151
229.287,133
229.312,110
229.337,90
229.362,79
229.387,84
229.412,102
229.437,124
229.462,140
229.487,145
229.512,142
229.537,142
229.562,152
229.587,166
229.612,177
229.637,179
229.662,173
229.687,167
229.712,165
229.737,168
229.762,173
229.787,179
229.812,182
229.837,180
229.862,171
229.887,159
229.912,152
229.937,153
229.962,156
229.987,153
230.012,142
230.037,129
230.062,120
230.087,113
230.112,105
230.137,99
230.162,106
230.187,134
230.212,176
230.237,212
230.262,229
230.287,228
230.312,224
230.337,229
230.362,242
230.387,255
230.412,263
230.437,266
230.462,267
230.487,266
230.512,263
230.537,261
230.562,259
230.587,249
230.612,219
230.637,175
230.662,135
230.687,120
230.712,126
230.737,128
230.762,105
230.787,62
230.812,22
230.837,-1
230.862,-19
230.887,-42
230.912,-61
230.937,-49
230.962,5
230.987,80
231.012,132
231.037,143
231.062,131
231.087,124
231.112,127
231.137,126
231.162,115
231.187,114
231.212,141
231.237,189
231.262,227
231.287,239
231.312,246
231.337,276
231.362,323
231.387,345
231.412,307
231.437,226
231.462,160
231.487,150
231.512,182
231.537,208
231.562,200
231.587,168
231.612,142
231.637,132
231.662,126
231.687,115
231.712,107
231.737,110
231.762,118
231.787,119
231.812,115
231.837,120
231.862,138
231.887,150
231.912,130
231.937,81
231.962,44
231.987,58
232.012,118
232.037,178
232.062,196
232.087,168
232.112,131
232.137,117
232.162,128
232.187,141
232.212,144
232.237,150
232.262,182
232.287,239
232.312,294
232.337,310
232.362,279
232.387,229
232.412,203
232.437,225
232.462,279
232.487,318
232.512,308
232.537,254
232.562,196
232.587,169
232.612,174
232.637,187
232.662,189
232.687,186
232.712,196
232.737,219
232.762,229
232.787,204
232.812,149
232.837,98
232.862,76
232.887,80
232.912,95
232.937,112
232.962,139
232.987,176
233.012,206
233.037,208
233.062,187
233.087,171
233.112,179
233.137,197
233.162,189
233.187,143
233.212,86
233.237,62
233.262,80
233.287,110
233.312,111
233.337,76
233.362,38
233.387,32
233.412,66
233.437,116
233.462,160
233.487,192
233.512,224
233.537,260
233.562,293
233.587,307
233.612,294
233.637,257
233.662,208
233.687,158
233.712,117
233.737,86
233.762,59
233.787,28
233.812,-4
233.837,-24
233.862,-17
233.887,16
233.912,56
233.937,79
233.962,81
233.987,70
234.012,57
234.037,42
234.062,25
234.087,13
234.112,26
234.137,74
234.162,143
234.187,207
234.212,250
234.237,281
234.262,322
234.287,379
234.312,439
234.337,481
234.362,501
234.387,510
234.412,520
234.437,531
234.462,539
234.487,537
234.512,518
234.537,467
234.562,370
234.587,236
234.612,101
234.637,14
234.662,-1
234.687,33
234.712,78
234.737,109
234.762,128
234.787,148
234.812,162
234.837,150
234.862,105
234.887,49
234.912,16
234.937,20
234.962,50
234.987,83
235.012,109
235.037,127
235.062,135
235.087,119
235.112,73
235.137,10
235.162,-43
235.187,-77
235.212,-94
235.237,-106
235.262,-117
235.287,-121
235.312,-121
235.337,-131
235.362,-158
235.387,-187
235.412,-187
235.437,-138
235.462,-50
235.487,53
235.512,153
235.537,244
235.562,324
235.587,385
235.612,412
235.637,408
235.662,393
235.687,386
235.712,392
235.737,399
235.762,392
235.787,372
235.812,346
235.837,325
235.862,308
235.887,290
235.912,264
235.937,229
235.962,190
235.987,160
236.012,150
236.037,157
236.062,163
236.087,148
236.112,113
236.137,82
236.162,75
236.187,85
236.212,84
236.237,56
236.262,18
236.287,-2
236.312,-1
236.337,-3
236.362,-29
236.387,-60
236.412,-52
236.437,21
236.462,133
236.487,224
236.512,256
236.537,236
236.562,203
236.587,182
236.612,176
236.637,176
236.662,182
236.687,196
236.712,217
236.737,237
236.762,257
236.787,287
236.812,329
236.837,367
236.862,371
236.887,329
236.912,254
236.937,177
236.962,120
236.987,93
237.012,97
237.037,129
237.062,176
237.087,215
237.112,226
237.137,217
237.162,217
237.187,246
237.212,295
237.237,331
237.262,340
237.287,338
237.312,350
237.337,382
237.362,416
237.387,436
237.412,450
237.437,472
237.462,495
237.487,490
237.512,440
237.537,361
237.562,291
237.587,253
237.612,233
237.637,204
237.662,153
237.687,95
237.712,45
237.737,5
237.762,-29
237.787,-61
237.812,-87
237.837,-108
237.862,-134
237.887,-167
237.912,-194
237.937,-196
237.962,-176
237.987,-153
238.012,-143
238.037,-137
238.062,-111
238.087,-56
238.112,10
238.137,54
238.162,60
238.187,43
238.212,27
238.237,27
238.262,41
238.287,53
238.312,45
238.337,3
238.362,-65
238.387,-125
238.412,-129
238.437,-51
238.462,80
238.487,203
238.512,261
238.537,252
238.562,216
238.587,195
238.612,202
238.637,226
238.662,252
238.687,279
238.712,308
238.737,339
238.762,373
238.787,414
238.812,455
238.837,474
238.862,446
238.887,380
238.912,329
238.937,345
238.962,423
238.987,500
239.012,509
239.037,449
239.062,389
239.087,394
239.112,452
239.137,478
239.162,394
239.187,208
239.212,11
239.237,-96
239.262,-89
239.287,-27
239.312,-7
239.337,-82
239.362,-231
239.387,-374
239.412,-437
239.437,-397
239.462,-287
239.487,-162
239.512,-63
239.537,2
239.562,49
239.587,87
239.612,115
239.637,131
239.662,138
239.687,148
239.712,175
239.737,225
239.762,291
239.787,350
239.812,373
239.837,343
239.862,271
239.887,198
239.912,169
239.937,195
239.962,248
239.987,290
240.012,306
240.037,306
240.062,303
240.087,289
240.112,249
240.137,194
240.162,158
240.187,166
240.212,209
240.237,251
240.262,271
240.287,282
240.312,307
240.337,342
240.362,353
240.387,319
240.412,264
240.437,233
240.462,244
240.487,266
240.512,258
240.537,215
240.562,176
240.587,175
240.612,204
240.637,220
240.662,200
240.687,166
240.712,159
240.737,193
240.762,240
240.787,263
240.812,249
240.837,219
240.862,198
240.887,188
240.912,178
240.937,155
240.962,123
240.987,90
241.012,61
241.037,40
241.062,31
241.087,40
241.112,60
241.137,76
241.162,73
241.187,51
241.212,28
241.237,22
241.262,38
241.287,61
241.312,73
241.337,71
241.362,60
241.387,55
241.412,59
241.437,63
241.462,58
241.487,42
241.512,25
241.537,22
241.562,36
241.587,60
241.612,79
241.637,87
241.662,91
241.687,102
241.712,119
241.737,133
241.762,136
241.787,135
241.812,143
241.837,164
241.862,185
241.887,186
241.912,162
241.937,131
241.962,114
241.987,120
242.012,140
242.037,157
242.062,166
242.087,171
242.112,176
242.137,176
242.162,170
242.187,171
242.212,191
242.237,234
242.262,282
242.287,310
242.312,308
242.337,291
242.362,280
242.387,285
242.412,296
242.437,298
242.462,284
242.487,257
242.512,229
242.537,207
242.562,192
242.587,184
242.612,179
242.637,169
242.662,149
242.687,121
242.712,94
242.737,76
242.762,71
242.787,71
242.812,71
242.837,73
242.862,79
242.887,90
242.912,103
242.937,116
242.962,131
242.987,154
243.012,185
243.037,217
243.062,238
243.087,248
243.112,252
243.137,259
243.162,269
243.187,279
243.212,283
243.237,282
243.262,279
243.287,275
243.312,270
243.337,260
243.362,244
243.387,225
243.412,210
243.437,207
243.462,220
243.487,246
243.512,269
243.537,274
243.562,258
243.587,230
243.612,205
243.637,193
243.662,190
243.687,189
243.712,184
243.737,176
243.762,167
243.787,156
243.812,139
243.837,115
243.862,88
243.887,61
243.912,33
243.937,2
243.962,-32
243.987,-63
244.012,-84
244.037,-95
244.062,-102
244.087,-111
244.112,-122
244.137,-134
244.162,-142
244.187,-143
244.212,-135
244.237,-114
244.262,-83
244.287,-50
244.312,-19
244.337,13
244.362,54
244.387,107
244.412,165
244.437,217
244.462,259
244.487,301
244.512,350
244.537,403
244.562,447
244.587,472
244.612,482
244.637,488
244.662,500
244.687,515
244.712,523
244.737,517
244.762,502
244.787,486
244.812,476
244.837,475
244.862,479
244.887,480
244.912,472
244.937,452
244.962,422
244.987,388
245.012,354
245.037,319
245.062,275
245.087,222
245.112,165
245.137,117
245.162,82
245.187,55
245.212,29
245.237,2
245.262,-21
245.287,-42
245.312,-65
245.337,-95
245.362,-129
245.387,-158
245.412,-177
245.437,-187
245.462,-197
245.487,-209
245.512,-220
245.537,-226
245.562,-227
245.587,-224
245.612,-218
245.637,-204
245.662,-181
245.687,-151
245.712,-116
245.737,-74
245.762,-17
245.787,55
245.812,136
245.837,205
245.862,255
245.887,293
245.912,332
245.937,373
245.962,399
245.987,394
246.012,358
246.037,309
246.062,266
246.087,237
246.112,217
246.137,200
246.162,190
246.187,193
246.212,206
246.237,222
246.262,235
246.287,251
246.312,277
246.337,314
246.362,349
246.387,372
246.412,381
246.437,385
246.462,390
246.487,393
246.512,382
246.537,354
246.562,312
246.587,269
246.612,235
246.637,214
246.662,204
246.687,197
246.712,188
246.737,170
246.762,144
246.787,117
246.812,96
246.837,86
246.862,86
246.887,93
246.912,105
246.937,122
246.962,142
246.987,158
247.012,165
247.037,162
247.062,156
247.087,154
247.112,158
247.137,166
247.162,172
247.187,173
247.212,166
247.237,153
247.262,135
247.287,118
247.312,102
247.337,89
247.362,79
247.387,71
247.412,67
247.437,68
247.462,73
247.487,82
247.512,93
247.537,105
247.562,119
247.587,136
247.612,155
247.637,172
247.662,181
247.687,175
247.712,158
247.737,141
247.762,136
247.787,142
247.812,150
247.837,150
247.862,143
247.887,139
247.912,140
247.937,132
247.962,98
247.987,38
248.012,-20
248.037,-42
248.062,-11
248.087,57
248.112,130
248.137,182
248.162,211
248.187,228
248.212,243
248.237,263
248.262,288
248.287,313
248.312,327
248.337,324
248.362,309
248.387,297
248.412,300
248.437,313
248.462,320
248.487,310
248.512,291
248.537,282
248.562,292
248.587,312
248.612,321
248.637,301
248.662,245
248.687,150
248.712,23
248.737,-112
248.762,-210
248.787,-233
248.812,-178
248.837,-89
248.862,-24
248.887,-9
248.912,-30
248.937,-53
248.962,-61
248.987,-59
249.012,-56
249.037,-47
249.062,-26
249.087,3
249.112,29
249.137,37
249.162,28
249.187,9
249.212,-12
249.237,-32
249.262,-40
249.287,-21
249.312,24
249.337,79
249.362,112
249.387,109
249.412,85
249.437,69
249.462,76
249.487,102
249.512,134
249.537,170
249.562,217
249.587,283
249.612,357
249.637,427
249.662,483
249.687,523
249.712,546
249.737,550
249.762,538
249.787,524
249.812,522
249.837,539
249.862,561
249.887,572
249.912,564
249.937,543
249.962,520
249.987,501
250.012,480
250.037,454
250.062,426
250.087,399
250.112,371
250.137,337
250.162,288
250.187,225
250.212,153
250.237,78
250.262,7
250.287,-50
250.312,-91
250.337,-115
250.362,-131
250.387,-150
250.412,-176
250.437,-204
250.462,-222
250.487,-225
250.512,-219
250.537,-213
250.562,-211
250.587,-205
250.612,-189
250.637,-163
250.662,-136
250.687,-115
250.712,-98
250.737,-80
250.762,-55
250.787,-29
250.812,-9
250.837,6
250.862,28
250.887,68
250.912,124
250.937,180
250.962,222
250.987,247
251.012,266
251.037,291
251.062,321
251.087,347
251.112,363
251.137,372
251.162,385
251.187,403
251.212,420
251.237,427
251.262,421
251.287,407
251.312,394
251.337,384
251.362,374
251.387,359
251.412,338
251.437,315
251.462,294
251.487,274
251.512,257
251.537,241
251.562,227
251.587,215
251.612,205
251.637,193
251.662,174
251.687,144
251.712,105
251.737,64
251.762,31
251.787,9
251.812,-7
251.837,-26
251.862,-47
251.887,-63
251.912,-65
251.937,-54
251.962,-42
251.987,-37
252.012,-37
252.037,-29
252.062,-5
252.087,32
252.112,73
252.137,109
252.162,137
252.187,163
252.212,187
252.237,209
252.262,223
252.287,227
252.312,217
252.337,191
252.362,151
252.387,110
252.412,86
252.437,91
252.462,121
252.487,162
252.512,197
252.537,218
252.562,228
252.587,229
252.612,227
252.637,221
252.662,217
252.687,214
252.712,214
252.737,212
252.762,206
252.787,199
252.812,192
252.837,186
252.862,175
252.887,158
252.912,139
252.937,123
252.962,110
252.987,98
253.012,83
253.037,68
253.062,59
253.087,63
253.112,80
253.137,104
253.162,131
253.187,156
253.212,172
253.237,178
253.262,176
253.287,174
253.312,178
253.337,187
253.362,190
253.387,186
253.412,180
253.437,185
253.462,200
253.487,217
253.512,223
253.537,222
253.562,224
253.587,239
253.612,258
253.637,270
253.662,268
253.687,260
253.712,256
253.737,257
253.762,258
253.787,255
253.812,252
253.837,251
253.862,245
253.887,232
253.912,218
253.937,219
253.962,243
253.987,274
254.012,282
254.037,251
254.062,193
254.087,139
254.112,108
254.137,95
254.162,81
254.187,55
254.212,23
254.237,-4
254.262,-25
254.287,-49
254.312,-80
254.337,-115
254.362,-143
254.387,-157
254.412,-158
254.437,-144
254.462,-118
254.487,-76
254.512,-23
254.537,32
254.562,80
254.587,108
254.612,111
254.637,99
254.662,92
254.687,112
254.712,159
254.737,212
254.762,245
254.787,247
254.812,236
254.837,239
254.862,269
254.887,317
254.912,362
254.937,391
254.962,399
254.987,392
255.012,378
255.037,370
255.062,381
255.087,409
255.112,439
255.137,453
255.162,449
255.187,445
255.212,455
255.237,466
255.262,444
255.287,373
255.312,272
255.337,182
255.362,131
255.387,109
255.412,88
255.437,54
255.462,16
255.487,-11
255.512,-30
255.537,-50
255.562,-70
255.587,-82
255.612,-81
255.637,-76
255.662,-81
255.687,-95
255.712,-98
255.737,-75
255.762,-35
255.787,-3
255.812,8
255.837,14
255.862,35
255.887,74
255.912,110
255.937,120
255.962,106
255.987,89
256.012,88
256.037,101
256.062,119
256.087,136
256.112,156
256.137,184
256.162,213
256.187,234
256.212,242
256.237,241
256.262,233
256.287,224
256.312,217
256.337,218
256.362,232
256.387,252
256.412,266
256.437,267
256.462,261
256.487,254
256.512,248
256.537,235
256.562,213
256.587,190
256.612,181
256.637,190
256.662,202
256.687,202
256.712,187
256.737,169
256.762,161
256.787,160
256.812,152
256.837,129
256.862,99
256.887,75
256.912,66
256.937,69
256.962,78
256.987,92
257.012,110
257.037,130
257.062,148
257.087,161
257.112,171
257.137,179
257.162,184
257.187,185
257.212,182
257.237,177
257.262,175
257.287,174
257.312,173
257.337,167
257.362,154
257.387,134
257.412,109
257.437,86
257.462,77
257.487,93
257.512,134
257.537,185
257.562,227
257.587,243
257.612,232
257.637,201
257.662,166
257.687,141
257.712,139
257.737,163
257.762,206
257.787,248
257.812,274
257.837,280
257.862,278
257.887,280
257.912,281
257.937,265
257.962,215
257.987,131
258.012,33
258.037,-51
258.062,-107
258.087,-130
258.112,-120
258.137,-80
258.162,-17
258.187,58
258.212,127
258.237,174
258.262,193
258.287,190
258.312,179
258.337,171
258.362,165
258.387,159
258.412,152
258.437,146
258.462,148
258.487,156
258.512,164
258.537,165
258.562,156
258.587,145
258.612,141
258.637,148
258.662,165
258.687,189
258.712,220
258.737,256
258.762,294
258.787,325
258.812,343
258.837,349
258.862,346
258.887,337
258.912,322
258.937,302
258.962,281
258.987,267
259.012,259
259.037,253
259.062,245
259.087,236
259.112,229
259.137,225
259.162,218
259.187,201
259.212,172
259.237,134
259.262,89
259.287,35
259.312,-24
259.337,-83
259.362,-129
259.387,-154
259.412,-159
259.437,-152
259.462,-135
259.487,-105
259.512,-57
259.537,3
259.562,62
259.587,105
259.612,130
259.637,146
259.662,164
259.687,184
259.712,202
259.737,211
259.762,209
259.787,199
259.812,184
259.837,170
259.862,159
259.887,152
259.912,145
259.937,137
259.962,125
259.987,110
260.012,94
260.037,79
260.062,69
260.087,71
260.112,93
260.137,136
260.162,188
260.187,233
260.212,257
260.237,261
260.262,254
260.287,243
260.312,231
260.337,219
260.362,207
260.387,197
260.412,192
260.437,190
260.462,189
260.487,188
260.512,186
260.537,183
260.562,173
260.587,157
260.612,137
260.637,122
260.662,116
260.687,116
260.712,115
260.737,105
260.762,89
260.787,76
260.812,76
260.837,95
260.862,130
260.887,169
260.912,199
260.937,215
260.962,224
260.987,237
261.012,260
261.037,289
261.062,317
261.087,342
261.112,365
261.137,389
261.162,410
261.187,419
261.212,414
261.237,398
261.262,379
261.287,357
261.312,326
261.337,288
261.362,257
261.387,245
261.412,253
261.437,269
261.462,275
261.487,264
261.512,236
261.537,186
261.562,108
261.587,7
261.612,-90
261.637,-147
261.662,-145
261.687,-103
261.712,-62
261.737,-50
261.762,-59
261.787,-62
261.812,-45
261.837,-17
261.862,-1
261.887,-6
261.912,-23
261.937,-37
261.962,-47
261.987,-63
262.012,-89
262.037,-121
262.062,-149
262.087,-170
262.112,-188
262.137,-200
262.162,-192
262.187,-153
262.212,-85
262.237,-7
262.262,61
262.287,114
262.312,159
262.337,202
262.362,245
262.387,279
262.412,298
262.437,309
262.462,320
262.487,336
262.512,355
262.537,372
262.562,381
262.587,383
262.612,381
262.637,374
262.662,362
262.687,349
262.712,333
262.737,317
262.762,298
262.787,279
262.812,263
262.837,255
262.862,254
262.887,252
262.912,240
262.937,219
262.962,193
262.987,167
263.012,146
263.037,131
263.062,129
263.087,147
263.112,180
263.137,213
263.162,229
263.187,224
263.212,210
263.237,202
263.262,205
263.287,208
263.312,202
263.337,186
263.362,172
263.387,165
263.412,162
263.437,156
263.462,147
263.487,139
263.512,134
263.537,127
263.562,110
263.587,85
263.612,65
263.637,56
263.662,53
263.687,43
263.712,21
263.737,3
263.762,8
263.787,44
263.812,95
263.837,139
263.862,163
263.887,176
263.912,190
263.937,212
263.962,234
263.987,242
264.012,234
264.037,216
264.062,202
264.087,196
264.112,196
264.137,191
264.162,173
264.187,145
264.212,120
264.237,106
264.262,103
264.287,107
264.312,112
264.337,120
264.362,134
264.387,148
264.412,150
264.437,132
264.462,101
264.487,80
264.512,87
264.537,118
264.562,150
264.587,162
264.612,150
264.637,132
264.662,128
264.687,141
264.712,160
264.737,169
264.762,164
264.787,153
264.812,145
264.837,143
264.862,143
264.887,141
264.912,136
264.937,129
264.962,121
264.987,117
265.012,116
265.037,117
