df_hash,22ZHK4.FHJ395
device,HZ2X61
project_hash,29R7
project_name,istanbul_aydin_university
person_hash,29R7.JXQ5
person_label,V16
date_time_start,2025-05-23_09-42-38.064000_+03
date_time_start_unix,1747982558.064
date_time_end,2025-05-23_09-51-23.087000_+03
length_difference_noticed,no

time,ppg_med
6.340,575
6.365,661
6.390,798
6.415,871
6.440,842
6.465,812
6.490,891
6.515,1036
6.540,1091
6.565,1001
6.590,907
6.615,956
6.640,1091
6.665,1099
6.690,908
6.715,705
6.740,695
6.765,795
6.790,723
6.815,383
6.840,27
6.865,-72
6.890,-25
6.915,-205
6.940,-735
6.965,-1280
6.990,-1485
7.015,-1492
7.040,-1786
7.065,-2524
7.090,-3270
7.115,-3565
7.140,-3591
7.165,-3971
7.190,-4900
7.215,-5821
7.240,-6146
7.265,-6110
7.290,-6499
7.315,-7559
7.340,-8582
7.365,-8828
7.390,-8593
7.415,-8864
7.440,-9949
7.465,-10957
7.490,-10965
7.515,-10343
7.540,-10324
7.565,-11294
7.590,-12139
7.615,-11712
7.640,-10474
7.665,-9966
7.690,-10670
7.715,-11201
7.740,-10126
7.765,-8023
7.790,-6823
7.815,-7135
7.840,-7228
7.865,-5304
7.890,-2087
7.915,-17
7.940,120
7.965,511
7.990,3451
8.015,8025
8.040,11092
8.065,11610
8.090,12399
8.115,16477
8.140,22673
8.165,26805
8.190,27416
8.215,28287
8.240,32767
8.265,32767
8.290,32767
8.315,32767
8.340,32767
8.365,32767
8.390,32767
8.415,32767
8.440,32767
8.465,32767
8.490,32767
8.515,32767
8.540,32767
8.565,32767
8.590,15066
8.615,-32768
8.640,-32768
8.665,-32768
8.690,-32768
8.715,-32768
8.740,-32768
8.765,-32768
8.790,-32768
8.815,-32768
8.840,-32768
8.865,-32768
8.890,-32768
8.915,-32768
8.940,-32768
8.965,-29282
8.990,-26930
9.015,-26896
9.040,-24348
9.065,-18538
9.090,-13264
9.115,-11421
9.140,-11339
9.165,-9468
9.190,-5204
9.215,-1374
9.240,-180
9.265,-374
9.290,768
9.315,3724
9.340,6310
9.365,6835
9.390,6322
9.415,6958
9.440,9116
9.465,11006
9.490,11188
9.515,10417
9.540,10443
9.565,11623
9.590,12588
9.615,12221
9.640,11126
9.665,10696
9.690,11215
9.715,11596
9.740,10950
9.765,9758
9.790,9121
9.815,9251
9.840,9271
9.865,8477
9.890,7269
9.915,6535
9.940,6445
9.965,6295
9.990,5525
10.015,4453
10.040,3783
10.065,3640
10.090,3451
10.115,2773
10.140,1883
10.165,1380
10.190,1394
10.215,1469
10.240,1195
10.265,706
10.290,414
10.315,429
10.340,448
10.365,206
10.390,-170
10.415,-374
10.440,-332
10.465,-277
10.490,-401
10.515,-610
10.540,-684
10.565,-587
10.590,-502
10.615,-575
10.640,-726
10.665,-781
10.690,-705
10.715,-629
10.740,-661
10.765,-747
10.790,-759
10.815,-677
10.840,-605
10.865,-634
10.890,-720
10.915,-745
10.940,-648
10.965,-471
10.990,-281
11.015,-95
11.040,105
11.065,307
11.090,457
11.115,528
11.140,551
11.165,562
11.190,521
11.215,450
11.240,371
11.265,308
11.290,271
11.315,254
11.340,241
11.365,221
11.390,190
11.415,157
11.440,129
11.465,109
11.490,90
11.515,68
11.540,45
11.565,25
11.590,3
11.615,-29
11.640,-75
11.665,-105
11.690,-79
11.715,18
11.740,160
11.765,284
11.790,344
11.815,345
11.840,330
11.865,332
11.890,346
11.915,342
11.940,307
11.965,263
11.990,248
12.015,276
12.040,325
12.065,363
12.090,374
12.115,364
12.140,344
12.165,315
12.190,271
12.215,213
12.240,151
12.265,94
12.290,34
12.315,-42
12.340,-134
12.365,-207
12.390,-213
12.415,-127
12.440,26
12.465,193
12.490,321
12.515,400
12.540,451
12.565,496
12.590,534
12.615,550
12.640,534
12.665,502
12.690,478
12.715,471
12.740,468
12.765,451
12.790,416
12.815,370
12.840,322
12.865,272
12.890,214
12.915,148
12.940,81
12.965,12
12.990,-67
13.015,-160
13.040,-241
13.065,-264
13.090,-199
13.115,-59
13.140,100
13.165,228
13.190,308
13.215,362
13.240,414
13.265,462
13.290,484
13.315,469
13.340,435
13.365,413
13.390,416
13.415,431
13.440,433
13.465,408
13.490,367
13.515,323
13.540,281
13.565,231
13.590,170
13.615,103
13.640,43
13.665,-14
13.690,-82
13.715,-169
13.740,-252
13.765,-289
13.790,-241
13.815,-110
13.840,59
13.865,213
13.890,324
13.915,399
13.940,459
13.965,514
13.990,549
14.015,555
14.040,536
14.065,517
14.090,517
14.115,531
14.140,539
14.165,529
14.190,504
14.215,474
14.240,444
14.265,404
14.290,349
14.315,282
14.340,217
14.365,158
14.390,98
14.415,31
14.440,-39
14.465,-102
14.490,-156
14.515,-214
14.540,-292
14.565,-379
14.590,-431
14.615,-400
14.640,-273
14.665,-88
14.690,92
14.715,227
14.740,315
14.765,384
14.790,451
14.815,513
14.840,551
14.865,558
14.890,549
14.915,545
14.940,555
14.965,572
14.990,580
15.015,570
15.040,548
15.065,518
15.090,484
15.115,440
15.140,384
15.165,322
15.190,261
15.215,204
15.240,144
15.265,78
15.290,8
15.315,-56
15.340,-114
15.365,-176
15.390,-255
15.415,-340
15.440,-391
15.465,-364
15.490,-245
15.515,-71
15.540,98
15.565,223
15.590,303
15.615,365
15.640,426
15.665,477
15.690,500
15.715,494
15.740,481
15.765,483
15.790,500
15.815,517
15.840,517
15.865,500
15.890,474
15.915,444
15.940,408
15.965,361
15.990,307
16.015,253
16.040,198
16.065,137
16.090,70
16.115,5
16.140,-52
16.165,-111
16.190,-186
16.215,-270
16.240,-324
16.265,-303
16.290,-191
16.315,-19
16.340,151
16.365,279
16.390,362
16.415,427
16.440,488
16.465,541
16.490,567
16.515,564
16.540,550
16.565,545
16.590,555
16.615,570
16.640,572
16.665,557
16.690,531
16.715,498
16.740,461
16.765,414
16.790,355
16.815,291
16.840,227
16.865,165
16.890,102
16.915,36
16.940,-30
16.965,-93
16.990,-154
17.015,-222
17.040,-304
17.065,-388
17.090,-434
17.115,-398
17.140,-268
17.165,-78
17.190,108
17.215,243
17.240,323
17.265,378
17.290,434
17.315,487
17.340,518
17.365,519
17.390,505
17.415,504
17.440,522
17.465,543
17.490,547
17.515,532
17.540,508
17.565,481
17.590,444
17.615,391
17.640,326
17.665,260
17.690,200
17.715,140
17.740,72
17.765,-1
17.790,-68
17.815,-128
17.840,-197
17.865,-285
17.890,-374
17.915,-412
17.940,-353
17.965,-199
17.990,-1
18.015,175
18.040,300
18.065,384
18.090,453
18.115,518
18.140,569
18.165,592
18.190,592
18.215,583
18.240,581
18.265,590
18.290,600
18.315,602
18.340,591
18.365,566
18.390,533
18.415,495
18.440,450
18.465,397
18.490,334
18.515,265
18.540,196
18.565,129
18.590,61
18.615,-8
18.640,-79
18.665,-147
18.690,-213
18.715,-290
18.740,-380
18.765,-463
18.790,-489
18.815,-417
18.840,-248
18.865,-34
18.890,156
18.915,288
18.940,369
18.965,431
18.990,491
19.015,540
19.040,563
19.065,560
19.090,550
19.115,552
19.140,566
19.165,579
19.190,578
19.215,562
19.240,540
19.265,513
19.290,477
19.315,425
19.340,362
19.365,297
19.390,235
19.415,174
19.440,106
19.465,34
19.490,-33
19.515,-91
19.540,-148
19.565,-221
19.590,-312
19.615,-390
19.640,-404
19.665,-318
19.690,-145
19.715,54
19.740,220
19.765,326
19.790,390
19.815,442
19.840,493
19.865,528
19.890,533
19.915,516
19.940,501
19.965,506
19.990,524
20.015,537
20.040,533
20.065,514
20.090,488
20.115,456
20.140,413
20.165,357
20.190,295
20.215,236
20.240,178
20.265,115
20.290,46
20.315,-20
20.340,-79
20.365,-137
20.390,-210
20.415,-298
20.440,-367
20.465,-369
20.490,-273
20.515,-101
20.540,91
20.565,251
20.590,356
20.615,424
20.640,478
20.665,527
20.690,560
20.715,567
20.740,554
20.765,540
20.790,541
20.815,556
20.840,569
20.865,565
20.890,542
20.915,509
20.940,475
20.965,436
20.990,387
21.015,325
21.040,256
21.065,189
21.090,125
21.115,59
21.140,-12
21.165,-84
21.190,-147
21.215,-203
21.240,-269
21.265,-353
21.290,-437
21.315,-470
21.340,-409
21.365,-251
21.390,-46
21.415,141
21.440,272
21.465,354
21.490,419
21.515,482
21.540,538
21.565,569
21.590,573
21.615,566
21.640,568
21.665,582
21.690,595
21.715,595
21.740,577
21.765,551
21.790,521
21.815,485
21.840,438
21.865,381
21.890,319
21.915,261
21.940,204
21.965,142
21.990,72
22.015,1
22.040,-61
22.065,-118
22.090,-184
22.115,-270
22.140,-361
22.165,-412
22.190,-375
22.215,-241
22.240,-52
22.265,124
22.290,249
22.315,326
22.340,388
22.365,454
22.390,511
22.415,537
22.440,528
22.465,509
22.490,505
22.515,520
22.540,535
22.565,533
22.590,514
22.615,490
22.640,465
22.665,429
22.690,375
22.715,309
22.740,245
22.765,186
22.790,127
22.815,60
22.840,-8
22.865,-68
22.890,-123
22.915,-191
22.940,-281
22.965,-365
22.990,-389
23.015,-316
23.040,-155
23.065,33
23.090,193
23.115,301
23.140,379
23.165,451
23.190,521
23.215,571
23.240,589
23.265,583
23.290,574
23.315,578
23.340,591
23.365,601
23.390,597
23.415,578
23.440,548
23.465,511
23.490,468
23.515,417
23.540,357
23.565,290
23.590,222
23.615,159
23.640,99
23.665,37
23.690,-31
23.715,-103
23.740,-170
23.765,-233
23.790,-305
23.815,-394
23.840,-478
23.865,-506
23.890,-434
23.915,-264
23.940,-54
23.965,126
23.990,249
24.015,333
24.040,413
24.065,501
24.090,575
24.115,612
24.140,613
24.165,603
24.190,605
24.215,620
24.240,634
24.265,634
24.290,621
24.315,599
24.340,568
24.365,526
24.390,474
24.415,417
24.440,358
24.465,295
24.490,227
24.515,159
24.540,96
24.565,38
24.590,-20
24.615,-83
24.640,-148
24.665,-213
24.690,-283
24.715,-364
24.740,-440
24.765,-470
24.790,-412
24.815,-261
24.840,-62
24.865,120
24.890,249
24.915,334
24.940,408
24.965,487
24.990,554
25.015,588
25.040,588
25.065,580
25.090,584
25.115,604
25.140,622
25.165,626
25.190,615
25.215,597
25.240,574
25.265,541
25.290,496
25.315,445
25.340,394
25.365,343
25.390,288
25.415,228
25.440,168
25.465,110
25.490,50
25.515,-17
25.540,-89
25.565,-155
25.590,-214
25.615,-280
25.640,-363
25.665,-446
25.690,-484
25.715,-434
25.740,-292
25.765,-101
25.790,78
25.815,212
25.840,303
25.865,376
25.890,445
25.915,505
25.940,545
25.965,561
25.990,565
26.015,566
26.040,572
26.065,580
26.090,585
26.115,581
26.140,564
26.165,535
26.190,499
26.215,459
26.240,414
26.265,362
26.290,303
26.315,242
26.340,183
26.365,125
26.390,67
26.415,9
26.440,-45
26.465,-100
26.490,-164
26.515,-244
26.540,-320
26.565,-354
26.590,-308
26.615,-177
26.640,-3
26.665,157
26.690,273
26.715,348
26.740,407
26.765,463
26.790,510
26.815,534
26.840,533
26.865,523
26.890,521
26.915,533
26.940,548
26.965,553
26.990,539
27.015,511
27.040,477
27.065,440
27.090,399
27.115,350
27.140,291
27.165,230
27.190,169
27.215,108
27.240,46
27.265,-17
27.290,-77
27.315,-133
27.340,-194
27.365,-271
27.390,-358
27.415,-417
27.440,-402
27.465,-291
27.490,-113
27.515,71
27.540,212
27.565,304
27.590,373
27.615,441
27.640,508
27.665,551
27.690,563
27.715,556
27.740,553
27.765,566
27.790,586
27.815,596
27.840,589
27.865,569
27.890,543
27.915,512
27.940,472
27.965,421
27.990,362
28.015,300
28.040,239
28.065,177
28.090,113
28.115,47
28.140,-15
28.165,-71
28.190,-125
28.215,-191
28.240,-276
28.265,-363
28.290,-414
28.315,-384
28.340,-260
28.365,-78
28.390,102
28.415,235
28.440,317
28.465,378
28.490,440
28.515,498
28.540,532
28.565,533
28.590,517
28.615,512
28.640,525
28.665,544
28.690,551
28.715,539
28.740,517
28.765,490
28.790,455
28.815,404
28.840,342
28.865,278
28.890,221
28.915,166
28.940,103
28.965,32
28.990,-37
29.015,-99
29.040,-164
29.065,-247
29.090,-337
29.115,-394
29.140,-372
29.165,-255
29.190,-78
29.215,100
29.240,238
29.265,331
29.290,405
29.315,475
29.340,539
29.365,581
29.390,596
29.415,592
29.440,587
29.465,590
29.490,598
29.515,601
29.540,594
29.565,576
29.590,548
29.615,512
29.640,468
29.665,414
29.690,353
29.715,286
29.740,219
29.765,154
29.790,90
29.815,23
29.840,-45
29.865,-109
29.890,-169
29.915,-232
29.940,-310
29.965,-399
29.990,-466
30.015,-464
30.040,-365
30.065,-189
30.090,5
30.115,164
30.140,269
30.165,341
30.190,410
30.215,481
30.240,536
30.265,557
30.290,551
30.315,541
30.340,547
30.365,564
30.390,577
30.415,571
30.440,550
30.465,522
30.490,492
30.515,455
30.540,404
30.565,345
30.590,286
30.615,231
30.640,174
30.665,110
30.690,43
30.715,-17
30.740,-71
30.765,-130
30.790,-208
30.815,-294
30.840,-347
30.865,-321
30.890,-204
30.915,-31
30.940,136
30.965,259
30.990,337
31.015,396
31.040,456
31.065,508
31.090,536
31.115,534
31.140,519
31.165,512
31.190,521
31.215,531
31.240,529
31.265,510
31.290,484
31.315,457
31.340,422
31.365,374
31.390,313
31.415,249
31.440,191
31.465,135
31.490,73
31.515,4
31.540,-61
31.565,-116
31.590,-166
31.615,-231
31.640,-313
31.665,-382
31.690,-388
31.715,-301
31.740,-137
31.765,45
31.790,194
31.815,292
31.840,362
31.865,431
31.890,502
31.915,558
31.940,582
31.965,580
31.990,570
32.015,570
32.040,581
32.065,594
32.090,597
32.115,586
32.140,562
32.165,528
32.190,488
32.215,441
32.240,387
32.265,327
32.290,265
32.315,205
32.340,147
32.365,86
32.390,22
32.415,-42
32.440,-102
32.465,-159
32.490,-225
32.515,-307
32.540,-388
32.565,-424
32.590,-375
32.615,-235
32.640,-49
32.665,119
32.690,235
32.715,306
32.740,364
32.765,429
32.790,489
32.815,523
32.840,526
32.865,514
32.890,513
32.915,528
32.940,546
32.965,550
32.990,537
33.015,513
33.040,487
33.065,455
33.090,412
33.115,356
33.140,295
33.165,237
33.190,179
33.215,117
33.240,48
33.265,-19
33.290,-80
33.315,-139
33.340,-209
33.365,-293
33.390,-368
33.415,-388
33.440,-319
33.465,-168
33.490,15
33.515,176
33.540,289
33.565,367
33.590,434
33.615,501
33.640,554
33.665,580
33.690,580
33.715,574
33.740,575
33.765,586
33.790,595
33.815,591
33.840,575
33.865,551
33.890,522
33.915,487
33.940,441
33.965,385
33.990,322
34.015,257
34.040,194
34.065,133
34.090,71
34.115,5
34.140,-59
34.165,-123
34.190,-188
34.215,-263
34.240,-349
34.265,-420
34.290,-432
34.315,-352
34.340,-188
34.365,4
34.390,166
34.415,267
34.440,326
34.465,377
34.490,435
34.515,484
34.540,503
34.565,495
34.590,484
34.615,490
34.640,508
34.665,523
34.690,521
34.715,505
34.740,483
34.765,453
34.790,413
34.815,361
34.840,306
34.865,252
34.890,197
34.915,135
34.940,70
34.965,8
34.990,-49
35.015,-113
35.040,-193
35.065,-269
35.090,-296
35.115,-232
35.140,-81
35.165,105
35.190,267
35.215,371
35.240,433
35.265,482
35.290,531
35.315,564
35.340,566
35.365,545
35.390,525
35.415,525
35.440,540
35.465,549
35.490,540
35.515,514
35.540,484
35.565,453
35.590,413
35.615,357
35.640,290
35.665,221
35.690,156
35.715,91
35.740,20
35.765,-55
35.790,-124
35.815,-185
35.840,-250
35.865,-335
35.890,-431
35.915,-497
35.940,-481
35.965,-362
35.990,-169
36.015,32
36.040,191
36.065,295
36.090,369
36.115,439
36.140,510
36.165,562
36.190,581
36.215,573
36.240,561
36.265,563
36.290,576
36.315,585
36.340,577
36.365,554
36.390,525
36.415,492
36.440,450
36.465,393
36.490,327
36.515,263
36.540,205
36.565,147
36.590,79
36.615,7
36.640,-57
36.665,-113
36.690,-174
36.715,-254
36.740,-345
36.765,-402
36.790,-371
36.815,-238
36.840,-42
36.865,147
36.890,285
36.915,370
36.940,433
36.965,497
36.990,558
37.015,596
37.040,599
37.065,583
37.090,572
37.115,578
37.140,593
37.165,600
37.190,591
37.215,568
37.240,537
37.265,502
37.290,458
37.315,401
37.340,334
37.365,264
37.390,198
37.415,133
37.440,63
37.465,-13
37.490,-88
37.515,-154
37.540,-211
37.565,-278
37.590,-362
37.615,-448
37.640,-491
37.665,-444
37.690,-300
37.715,-101
37.740,90
37.765,233
37.790,324
37.815,392
37.840,457
37.865,515
37.890,550
37.915,557
37.940,550
37.965,548
37.990,557
38.015,569
38.040,571
38.065,558
38.090,535
38.115,507
38.140,471
38.165,423
38.190,365
38.215,304
38.240,245
38.265,187
38.290,124
38.315,55
38.340,-10
38.365,-70
38.390,-128
38.415,-198
38.440,-282
38.465,-354
38.490,-369
38.515,-296
38.540,-141
38.565,45
38.590,210
38.615,325
38.640,401
38.665,464
38.690,523
38.715,569
38.740,587
38.765,581
38.790,567
38.815,566
38.840,578
38.865,590
38.890,588
38.915,569
38.940,541
38.965,508
38.990,469
39.015,419
39.040,358
39.065,291
39.090,227
39.115,167
39.140,104
39.165,32
39.190,-44
39.215,-115
39.240,-177
39.265,-239
39.290,-316
39.315,-403
39.340,-468
39.365,-463
39.390,-361
39.415,-182
39.440,15
39.465,175
39.490,278
39.515,346
39.540,409
39.565,474
39.590,524
39.615,542
39.640,531
39.665,518
39.690,520
39.715,535
39.740,546
39.765,543
39.790,526
39.815,503
39.840,474
39.865,432
39.890,375
39.915,312
39.940,253
39.965,199
39.990,140
40.015,71
40.040,0
40.065,-64
40.090,-124
40.115,-196
40.140,-281
40.165,-351
40.190,-355
40.215,-259
40.240,-85
40.265,107
40.290,263
40.315,364
40.340,432
40.365,494
40.390,551
40.415,589
40.440,598
40.465,590
40.490,585
40.515,592
40.540,606
40.565,614
40.590,608
40.615,590
40.640,564
40.665,528
40.690,483
40.715,429
40.740,369
40.765,305
40.790,240
40.815,174
40.840,109
40.865,43
40.890,-26
40.915,-98
40.940,-165
40.965,-226
40.990,-292
41.015,-375
41.040,-468
41.065,-532
41.090,-516
41.115,-394
41.140,-192
41.165,22
41.190,192
41.215,299
41.240,368
41.265,430
41.290,493
41.315,540
41.340,558
41.365,554
41.390,547
41.415,555
41.440,575
41.465,591
41.490,590
41.515,572
41.540,544
41.565,511
41.590,469
41.615,415
41.640,352
41.665,288
41.690,227
41.715,165
41.740,95
41.765,21
41.790,-47
41.815,-107
41.840,-170
41.865,-248
41.890,-337
41.915,-395
41.940,-372
41.965,-245
41.990,-50
42.015,147
42.040,296
42.065,389
42.090,454
42.115,516
42.140,572
42.165,602
42.190,601
42.215,584
42.240,577
42.265,588
42.290,607
42.315,615
42.340,604
42.365,578
42.390,544
42.415,504
42.440,457
42.465,402
42.490,339
42.515,271
42.540,203
42.565,136
42.590,72
42.615,4
42.640,-68
42.665,-142
42.690,-211
42.715,-275
42.740,-349
42.765,-441
42.790,-533
42.815,-573
42.840,-509
42.865,-337
42.890,-108
42.915,101
42.940,246
42.965,339
42.990,418
43.015,501
43.040,577
43.065,621
43.090,631
43.115,627
43.140,630
43.165,646
43.190,663
43.215,669
43.240,664
43.265,650
43.290,626
43.315,589
43.340,540
43.365,484
43.390,427
43.415,367
43.440,300
43.465,227
43.490,152
43.515,80
43.540,10
43.565,-61
43.590,-131
43.615,-198
43.640,-268
43.665,-352
43.690,-446
43.715,-515
43.740,-508
43.765,-398
43.790,-205
43.815,7
43.840,179
43.865,292
43.890,365
43.915,430
43.940,496
43.965,547
43.990,566
44.015,559
44.040,549
44.065,554
44.090,573
44.115,589
44.140,589
44.165,574
44.190,549
44.215,519
44.240,477
44.265,422
44.290,357
44.315,292
44.340,231
44.365,167
44.390,97
44.415,25
44.440,-40
44.465,-97
44.490,-158
44.515,-238
44.540,-328
44.565,-389
44.590,-372
44.615,-257
44.640,-73
44.665,118
44.690,267
44.715,362
44.740,423
44.765,473
44.790,519
44.815,548
44.840,551
44.865,537
44.890,523
44.915,525
44.940,540
44.965,554
44.990,552
45.015,531
45.040,497
45.065,458
45.090,416
45.115,366
45.140,309
45.165,249
45.190,189
45.215,129
45.240,65
45.265,0
45.290,-62
45.315,-119
45.340,-180
45.365,-254
45.390,-339
45.415,-400
45.440,-393
45.465,-291
45.490,-115
45.515,77
45.540,231
45.565,332
45.590,398
45.615,455
45.640,511
45.665,550
45.690,560
45.715,550
45.740,541
45.765,546
45.790,563
45.815,573
45.840,567
45.865,545
45.890,516
45.915,483
45.940,444
45.965,392
45.990,331
46.015,268
46.040,211
46.065,154
46.090,89
46.115,15
46.140,-57
46.165,-119
46.190,-175
46.215,-241
46.240,-329
46.265,-418
46.290,-462
46.315,-414
46.340,-271
46.365,-78
46.390,101
46.415,230
46.440,315
46.465,383
46.490,453
46.515,517
46.540,556
46.565,564
46.590,556
46.615,551
46.640,558
46.665,572
46.690,582
46.715,579
46.740,563
46.765,535
46.790,497
46.815,451
46.840,399
46.865,343
46.890,285
46.915,226
46.940,170
46.965,113
46.990,53
47.015,-9
47.040,-72
47.065,-131
47.090,-193
47.115,-267
47.140,-348
47.165,-400
47.190,-377
47.215,-258
47.240,-73
47.265,113
47.290,254
47.315,344
47.340,410
47.365,478
47.390,542
47.415,581
47.440,588
47.465,579
47.490,577
47.515,589
47.540,604
47.565,607
47.590,599
47.615,584
47.640,565
47.665,534
47.690,487
47.715,428
47.740,366
47.765,306
47.790,246
47.815,181
47.840,115
47.865,50
47.890,-13
47.915,-77
47.940,-141
47.965,-202
47.990,-264
48.015,-337
48.040,-422
48.065,-492
48.090,-500
48.115,-410
48.140,-233
48.165,-28
48.190,143
48.215,260
48.240,341
48.265,417
48.290,496
48.315,558
48.340,587
48.365,589
48.390,585
48.415,592
48.440,608
48.465,621
48.490,624
48.515,619
48.540,606
48.565,582
48.590,544
48.615,494
48.640,439
48.665,383
48.690,324
48.715,261
48.740,198
48.765,140
48.790,85
48.815,26
48.840,-38
48.865,-104
48.890,-164
48.915,-227
48.940,-304
48.965,-389
48.990,-444
49.015,-418
49.040,-290
49.065,-96
49.090,98
49.115,243
49.140,333
49.165,398
49.190,462
49.215,521
49.240,558
49.265,566
49.290,561
49.315,561
49.340,573
49.365,587
49.390,594
49.415,588
49.440,573
49.465,550
49.490,515
49.515,468
49.540,414
49.565,358
49.590,299
49.615,237
49.640,171
49.665,104
49.690,39
49.715,-24
49.740,-86
49.765,-147
49.790,-209
49.815,-279
49.840,-361
49.865,-442
49.890,-481
49.915,-435
49.940,-293
49.965,-91
49.990,106
50.015,252
50.040,345
50.065,415
50.090,485
50.115,551
50.140,594
50.165,607
50.190,604
50.215,606
50.240,621
50.265,639
50.290,648
50.315,644
50.340,629
50.365,606
50.390,574
50.415,532
50.440,483
50.465,430
50.490,373
50.515,309
50.540,240
50.565,172
50.590,108
50.615,45
50.640,-22
50.665,-92
50.690,-156
50.715,-215
50.740,-280
50.765,-364
50.790,-452
50.815,-497
50.840,-449
50.865,-298
50.890,-89
50.915,108
50.940,249
50.965,335
50.990,397
51.015,458
51.040,514
51.065,547
51.090,552
51.115,541
51.140,536
51.165,545
51.190,563
51.215,574
51.240,572
51.265,555
51.290,530
51.315,498
51.340,457
51.365,403
51.390,339
51.415,271
51.440,208
51.465,148
51.490,88
51.515,25
51.540,-37
51.565,-96
51.590,-157
51.615,-231
51.640,-317
51.665,-388
51.690,-396
51.715,-308
51.740,-135
51.765,66
51.790,234
51.815,342
51.840,409
51.865,464
51.890,519
51.915,559
51.940,571
51.965,558
51.990,546
52.015,550
52.040,570
52.065,588
52.090,590
52.115,572
52.140,543
52.165,507
52.190,465
52.215,414
52.240,354
52.265,289
52.290,223
52.315,159
52.340,97
52.365,35
52.390,-29
52.415,-96
52.440,-161
52.465,-224
52.490,-293
52.515,-377
52.540,-463
52.565,-512
52.590,-477
52.615,-341
52.640,-137
52.665,70
52.690,230
52.715,335
52.740,411
52.765,485
52.790,554
52.815,600
52.840,617
52.865,617
52.890,620
52.915,634
52.940,651
52.965,660
52.990,658
53.015,648
53.040,628
53.065,596
53.090,550
53.115,497
53.140,445
53.165,392
53.190,331
53.215,261
53.240,189
53.265,126
53.290,68
53.315,5
53.340,-66
53.365,-139
53.390,-201
53.415,-256
53.440,-324
53.465,-415
53.490,-498
53.515,-515
53.540,-425
53.565,-239
53.590,-23
53.615,157
53.640,278
53.665,359
53.690,429
53.715,499
53.740,552
53.765,578
53.790,582
53.815,582
53.840,592
53.865,609
53.890,624
53.915,628
53.940,620
53.965,600
53.990,571
54.015,534
54.040,491
54.065,441
54.090,384
54.115,320
54.140,252
54.165,188
54.190,128
54.215,67
54.240,2
54.265,-63
54.290,-123
54.315,-183
54.340,-256
54.365,-346
54.390,-424
54.415,-441
54.440,-358
54.465,-187
54.490,13
54.515,181
54.540,292
54.565,361
54.590,416
54.615,469
54.640,508
54.665,521
54.690,514
54.715,506
54.740,514
54.765,532
54.790,548
54.815,549
54.840,535
54.865,511
54.890,480
54.915,441
54.940,391
54.965,332
54.990,271
55.015,212
55.040,152
55.065,87
55.090,18
55.115,-45
55.140,-102
55.165,-160
55.190,-233
55.215,-320
55.240,-390
55.265,-394
55.290,-299
55.315,-124
55.340,73
55.365,236
55.390,342
55.415,410
55.440,469
55.465,525
55.490,563
55.515,572
55.540,562
55.565,556
55.590,566
55.615,587
55.640,601
55.665,600
55.690,585
55.715,562
55.740,531
55.765,490
55.790,440
55.815,384
55.840,324
55.865,262
55.890,200
55.915,139
55.940,79
55.965,16
55.990,-51
56.015,-120
56.040,-184
56.065,-248
56.090,-325
56.115,-413
56.140,-482
56.165,-481
56.190,-376
56.215,-186
56.240,24
56.265,193
56.290,303
56.315,377
56.340,445
56.365,511
56.390,556
56.415,572
56.440,570
56.465,572
56.490,587
56.515,606
56.540,614
56.565,610
56.590,598
56.615,581
56.640,555
56.665,517
56.690,468
56.715,415
56.740,358
56.765,295
56.790,227
56.815,159
56.840,95
56.865,31
56.890,-35
56.915,-103
56.940,-166
56.965,-227
56.990,-302
57.015,-390
57.040,-462
57.065,-464
57.090,-359
57.115,-168
57.140,45
57.165,217
57.190,328
57.215,402
57.240,468
57.265,528
57.290,565
57.315,573
57.340,564
57.365,564
57.390,579
57.415,602
57.440,617
57.465,618
57.490,606
57.515,585
57.540,554
57.565,512
57.590,463
57.615,410
57.640,354
57.665,293
57.690,226
57.715,159
57.740,95
57.765,31
57.790,-35
57.815,-103
57.840,-170
57.865,-239
57.890,-320
57.915,-407
57.940,-466
57.965,-450
57.990,-331
58.015,-135
58.040,74
58.065,239
58.090,340
58.115,402
58.140,454
58.165,502
58.190,531
58.215,533
58.240,521
58.265,517
58.290,532
58.315,554
58.340,565
58.365,559
58.390,541
58.415,519
58.440,489
58.465,445
58.490,387
58.515,324
58.540,263
58.565,203
58.590,136
58.615,60
58.640,-15
58.665,-81
58.690,-142
58.715,-214
58.740,-305
58.765,-392
58.790,-425
58.815,-360
58.840,-199
58.865,9
58.890,201
58.915,338
58.940,423
58.965,481
58.990,531
59.015,566
59.040,577
59.065,565
59.090,549
59.115,548
59.140,564
59.165,581
59.190,584
59.215,568
59.240,541
59.265,511
59.290,473
59.315,420
59.340,353
59.365,281
59.390,213
59.415,150
59.440,83
59.465,8
59.490,-67
59.515,-136
59.540,-202
59.565,-280
59.590,-374
59.615,-452
59.640,-462
59.665,-365
59.690,-176
59.715,42
59.740,225
59.765,342
59.790,411
59.815,462
59.840,508
59.865,535
59.890,533
59.915,514
59.940,504
59.965,515
59.990,538
60.015,552
60.040,548
60.065,529
60.090,504
60.115,471
60.140,424
60.165,364
60.190,298
60.215,233
60.240,168
60.265,97
60.290,22
60.315,-46
60.340,-108
60.365,-179
60.390,-269
60.415,-367
60.440,-425
60.465,-392
60.490,-252
60.515,-45
60.540,161
60.565,316
60.590,412
60.615,474
60.640,524
60.665,562
60.690,578
60.715,569
60.740,550
60.765,542
60.790,553
60.815,569
60.840,573
60.865,556
60.890,525
60.915,492
60.940,456
60.965,410
60.990,347
61.015,273
61.040,202
61.065,137
61.090,74
61.115,5
61.140,-66
61.165,-135
61.190,-201
61.215,-275
61.240,-367
61.265,-455
61.290,-491
61.315,-429
61.340,-265
61.365,-45
61.390,160
61.415,309
61.440,405
61.465,472
61.490,530
61.515,575
61.540,595
61.565,591
61.590,580
61.615,580
61.640,596
61.665,615
61.690,624
61.715,615
61.740,591
61.765,557
61.790,516
61.815,468
61.840,411
61.865,347
61.890,279
61.915,211
61.940,145
61.965,76
61.990,4
62.015,-66
62.040,-130
62.065,-190
62.090,-258
62.115,-343
62.140,-430
62.165,-474
62.190,-424
62.215,-269
62.240,-51
62.265,156
62.290,302
62.315,383
62.340,432
62.365,477
62.390,517
62.415,536
62.440,528
62.465,511
62.490,508
62.515,525
62.540,547
62.565,556
62.590,544
62.615,520
62.640,488
62.665,447
62.690,395
62.715,336
62.740,279
62.765,226
62.790,169
62.815,103
62.840,33
62.865,-28
62.890,-82
62.915,-144
62.940,-229
62.965,-321
62.990,-370
63.015,-321
63.040,-169
63.065,35
63.090,222
63.115,347
63.140,419
63.165,467
63.190,509
63.215,535
63.240,533
63.265,509
63.290,486
63.315,483
63.340,495
63.365,507
63.390,505
63.415,488
63.440,459
63.465,419
63.490,368
63.515,308
63.540,246
63.565,182
63.590,114
63.615,42
63.640,-30
63.665,-98
63.690,-168
63.715,-254
63.740,-350
63.765,-417
63.790,-403
63.815,-278
63.840,-74
63.865,139
63.890,302
63.915,402
63.940,466
63.965,524
63.990,575
64.015,600
64.040,589
64.065,561
64.090,545
64.115,550
64.140,562
64.165,562
64.190,545
64.215,519
64.240,488
64.265,448
64.290,391
64.315,320
64.340,247
64.365,178
64.390,108
64.415,32
64.440,-49
64.465,-123
64.490,-189
64.515,-261
64.540,-353
64.565,-454
64.590,-515
64.615,-483
64.640,-339
64.665,-125
64.690,90
64.715,254
64.740,360
64.765,437
64.790,508
64.815,574
64.840,617
64.865,629
64.890,619
64.915,608
64.940,610
64.965,622
64.990,628
65.015,620
65.040,597
65.065,565
65.090,525
65.115,476
65.140,415
65.165,345
65.190,270
65.215,196
65.240,121
65.265,44
65.290,-30
65.315,-100
65.340,-167
65.365,-240
65.390,-331
65.415,-430
65.440,-499
65.465,-485
65.490,-364
65.515,-160
65.540,61
65.565,238
65.590,350
65.615,419
65.640,479
65.665,539
65.690,583
65.715,593
65.740,578
65.765,561
65.790,563
65.815,579
65.840,588
65.865,576
65.890,550
65.915,518
65.940,483
65.965,437
65.990,375
66.015,304
66.040,237
66.065,177
66.090,116
66.115,46
66.140,-25
66.165,-91
66.190,-153
66.215,-226
66.240,-318
66.265,-400
66.290,-420
66.315,-335
66.340,-156
66.365,59
66.390,244
66.415,365
66.440,437
66.465,489
66.490,535
66.515,565
66.540,569
66.565,552
66.590,538
66.615,541
66.640,559
66.665,574
66.690,571
66.715,548
66.740,513
66.765,474
66.790,431
66.815,380
66.840,317
66.865,245
66.890,171
66.915,99
66.940,28
66.965,-43
66.990,-114
67.015,-179
67.040,-241
67.065,-311
67.090,-401
67.115,-495
67.140,-548
67.165,-505
67.190,-349
67.215,-119
67.240,110
67.265,282
67.290,389
67.315,461
67.340,530
67.365,595
67.390,637
67.415,647
67.440,638
67.465,635
67.490,646
67.515,662
67.540,666
67.565,655
67.590,637
67.615,614
67.640,582
67.665,536
67.690,478
67.715,415
67.740,351
67.765,285
67.790,216
67.815,146
67.840,79
67.865,11
67.890,-61
67.915,-136
67.940,-206
67.965,-267
67.990,-332
68.015,-416
68.040,-510
68.065,-566
68.090,-525
68.115,-366
68.140,-132
68.165,96
68.190,263
68.215,366
68.240,438
68.265,509
68.290,574
68.315,612
68.340,617
68.365,608
68.390,606
68.415,619
68.440,637
68.465,646
68.490,643
68.515,631
68.540,611
68.565,579
68.590,533
68.615,478
68.640,419
68.665,356
68.690,290
68.715,223
68.740,159
68.765,98
68.790,33
68.815,-37
68.840,-109
68.865,-172
68.890,-231
68.915,-302
68.940,-394
68.965,-481
68.990,-507
69.015,-426
69.040,-242
69.065,-14
69.090,185
69.115,322
69.140,405
69.165,468
69.190,524
69.215,567
69.240,582
69.265,575
69.290,566
69.315,574
69.340,597
69.365,619
69.390,626
69.415,615
69.440,591
69.465,561
69.490,522
69.515,471
69.540,408
69.565,340
69.590,273
69.615,206
69.640,133
69.665,52
69.690,-29
69.715,-104
69.740,-169
69.765,-240
69.790,-326
69.815,-416
69.840,-466
69.865,-426
69.890,-282
69.915,-73
69.940,132
69.965,283
69.990,372
70.015,429
70.040,480
70.065,524
70.090,543
70.115,532
70.140,510
70.165,505
70.190,526
70.215,557
70.240,572
70.265,563
70.290,537
70.315,505
70.340,468
70.365,418
70.390,355
70.415,286
70.440,223
70.465,164
70.490,98
70.515,20
70.540,-60
70.565,-130
70.590,-189
70.615,-257
70.640,-349
70.665,-446
70.690,-494
70.715,-438
70.740,-272
70.765,-44
70.790,170
70.815,325
70.840,421
70.865,488
70.890,546
70.915,591
70.940,609
70.965,599
70.990,583
71.015,579
71.040,591
71.065,606
71.090,609
71.115,598
71.140,576
71.165,548
71.190,507
71.215,451
71.240,383
71.265,312
71.290,244
71.315,172
71.340,93
71.365,9
71.390,-68
71.415,-136
71.440,-207
71.465,-298
71.490,-396
71.515,-455
71.540,-422
71.565,-277
71.590,-61
71.615,151
71.640,304
71.665,391
71.690,443
71.715,488
71.740,525
71.765,539
71.790,525
71.815,501
71.840,491
71.865,501
71.890,519
71.915,527
71.940,521
71.965,503
71.990,473
72.015,428
72.040,368
72.065,303
72.090,241
72.115,181
72.140,116
72.165,45
72.190,-25
72.215,-92
72.240,-166
72.265,-254
72.290,-339
72.315,-372
72.340,-307
72.365,-143
72.390,67
72.415,251
72.440,370
72.465,435
72.490,479
72.515,518
72.540,539
72.565,532
72.590,503
72.615,478
72.640,475
72.665,489
72.690,502
72.715,499
72.740,480
72.765,447
72.790,401
72.815,343
72.840,279
72.865,213
72.890,148
72.915,80
72.940,6
72.965,-67
72.990,-139
73.015,-216
73.040,-304
73.065,-391
73.090,-435
73.115,-388
73.140,-238
73.165,-27
73.190,173
73.215,316
73.240,400
73.265,460
73.290,517
73.315,564
73.340,581
73.365,566
73.390,542
73.415,536
73.440,549
73.465,562
73.490,557
73.515,535
73.540,507
73.565,477
73.590,437
73.615,381
73.640,313
73.665,243
73.690,177
73.715,109
73.740,37
73.765,-35
73.790,-101
73.815,-166
73.840,-246
73.865,-342
73.890,-422
73.915,-431
73.940,-335
73.965,-152
73.990,57
74.015,229
74.040,344
74.065,419
74.090,483
74.115,541
74.140,578
74.165,583
74.190,566
74.215,552
74.240,554
74.265,569
74.290,577
74.315,569
74.340,545
74.365,516
74.390,484
74.415,442
74.440,384
74.465,313
74.490,239
74.515,173
74.540,112
74.565,47
74.590,-24
74.615,-96
74.640,-156
74.665,-208
74.690,-269
74.715,-347
74.740,-421
74.765,-439
74.790,-360
74.815,-189
74.840,20
74.865,200
74.890,319
74.915,391
74.940,448
74.965,505
74.990,550
75.015,567
75.040,558
75.065,546
75.090,550
75.115,569
75.140,588
75.165,593
75.190,581
75.215,561
75.240,535
75.265,500
75.290,453
75.315,397
75.340,337
75.365,279
75.390,220
75.415,156
75.440,86
75.465,13
75.490,-53
75.515,-114
75.540,-179
75.565,-257
75.590,-344
75.615,-407
75.640,-402
75.665,-302
75.690,-126
75.715,66
75.740,218
75.765,310
75.790,362
75.815,404
75.840,443
75.865,466
75.890,460
75.915,439
75.940,428
75.965,441
75.990,467
76.015,482
76.040,477
76.065,458
76.090,437
76.115,415
76.140,383
76.165,338
76.190,288
76.215,241
76.240,197
76.265,148
76.290,92
76.315,37
76.340,-12
76.365,-65
76.390,-136
76.415,-219
76.440,-274
76.465,-253
76.490,-137
76.515,40
76.540,219
76.565,350
76.590,427
76.615,474
76.640,516
76.665,551
76.690,569
76.715,566
76.740,558
76.765,562
76.790,581
76.815,599
76.840,599
76.865,580
76.890,551
76.915,516
76.940,471
76.965,409
76.990,334
77.015,257
77.040,185
77.065,113
77.090,35
77.115,-44
77.140,-114
77.165,-171
77.190,-231
77.215,-310
77.240,-398
77.265,-452
77.290,-421
77.315,-291
77.340,-103
77.365,79
77.390,213
77.415,298
77.440,357
77.465,411
77.490,457
77.515,482
77.540,483
77.565,476
77.590,477
77.615,494
77.640,517
77.665,534
77.690,537
77.715,526
77.740,507
77.765,479
77.790,441
77.815,391
77.840,332
77.865,271
77.890,212
77.915,155
77.940,94
77.965,24
77.990,-47
78.015,-115
78.040,-182
78.065,-258
78.090,-348
78.115,-428
78.140,-453
78.165,-383
78.190,-222
78.215,-17
78.240,164
78.265,290
78.290,368
78.315,426
78.340,482
78.365,529
78.390,551
78.415,549
78.440,541
78.465,545
78.490,563
78.515,580
78.540,585
78.565,576
78.590,560
78.615,541
78.640,513
78.665,468
78.690,409
78.715,346
78.740,286
78.765,229
78.790,166
78.815,97
78.840,28
78.865,-30
78.890,-82
78.915,-145
78.940,-231
78.965,-321
78.990,-366
79.015,-320
79.040,-176
79.065,22
79.090,208
79.115,337
79.140,411
79.165,460
79.190,506
79.215,545
79.240,560
79.265,548
79.290,528
79.315,524
79.340,541
79.365,563
79.390,568
79.415,551
79.440,520
79.465,486
79.490,447
79.515,397
79.540,335
79.565,269
79.590,206
79.615,144
79.640,77
79.665,1
79.690,-72
79.715,-137
79.740,-199
79.765,-274
79.790,-366
79.815,-446
79.840,-463
79.865,-377
79.890,-201
79.915,9
79.940,189
79.965,312
79.990,389
80.015,449
80.040,505
80.065,549
80.090,570
80.115,570
80.140,565
80.165,569
80.190,581
80.215,589
80.240,583
80.265,566
80.290,541
80.315,510
80.340,468
80.365,413
80.390,346
80.415,276
80.440,209
80.465,144
80.490,76
80.515,4
80.540,-65
80.565,-127
80.590,-185
80.615,-256
80.640,-344
80.665,-429
80.690,-465
80.715,-411
80.740,-265
80.765,-68
80.790,117
80.815,254
80.840,344
80.865,413
80.890,478
80.915,534
80.940,566
80.965,570
80.990,561
81.015,561
81.040,577
81.065,600
81.090,613
81.115,606
81.140,583
81.165,552
81.190,515
81.215,472
81.240,418
81.265,356
81.290,291
81.315,228
81.340,167
81.365,103
81.390,34
81.415,-33
81.440,-95
81.465,-156
81.490,-227
81.515,-315
81.540,-395
81.565,-421
81.590,-353
81.615,-193
81.640,6
81.665,182
81.690,299
81.715,367
81.740,419
81.765,470
81.790,509
81.815,521
81.840,509
81.865,498
81.890,506
81.915,531
81.940,550
81.965,547
81.990,525
82.015,499
82.040,475
82.065,444
82.090,396
82.115,334
82.140,270
82.165,211
82.190,151
82.215,83
82.240,11
82.265,-54
82.290,-108
82.315,-166
82.340,-245
82.365,-337
82.390,-399
82.415,-378
82.440,-255
82.465,-65
82.490,125
82.515,266
82.540,355
82.565,417
82.590,476
82.615,528
82.640,557
82.665,557
82.690,544
82.715,539
82.740,553
82.765,573
82.790,582
82.815,572
82.840,548
82.865,519
82.890,487
82.915,447
82.940,395
82.965,332
82.990,267
83.015,206
83.040,148
83.065,86
83.090,17
83.115,-52
83.140,-116
83.165,-175
83.190,-240
83.215,-320
83.240,-402
83.265,-444
83.290,-402
83.315,-264
83.340,-67
83.365,125
83.390,268
83.415,358
83.440,419
83.465,475
83.490,525
83.515,555
83.540,558
83.565,548
83.590,545
83.615,558
83.640,576
83.665,583
83.690,573
83.715,550
83.740,522
83.765,489
83.790,446
83.815,390
83.840,323
83.865,256
83.890,195
83.915,135
83.940,72
83.965,4
83.990,-63
84.015,-123
84.040,-179
84.065,-246
84.090,-329
84.115,-403
84.140,-422
84.165,-345
84.190,-176
84.215,32
84.240,212
84.265,328
84.290,390
84.315,432
84.340,476
84.365,513
84.390,527
84.415,517
84.440,505
84.465,511
84.490,533
84.515,554
84.540,555
84.565,538
84.590,513
84.615,481
84.640,439
84.665,381
84.690,316
84.715,254
84.740,199
84.765,141
84.790,75
84.815,4
84.840,-58
84.865,-114
84.890,-179
84.915,-266
84.940,-356
84.965,-399
84.990,-347
85.015,-195
85.040,8
85.065,196
85.090,327
85.115,403
85.140,453
85.165,498
85.190,532
85.215,545
85.240,538
85.265,527
85.290,529
85.315,546
85.340,562
85.365,565
85.390,552
85.415,530
85.440,500
85.465,461
85.490,406
85.515,341
85.540,272
85.565,206
85.590,137
85.615,60
85.640,-23
85.665,-103
85.690,-176
85.715,-249
85.740,-333
85.765,-425
85.790,-493
85.815,-488
85.840,-379
85.865,-179
85.890,55
85.915,261
85.940,405
85.965,493
85.990,557
86.015,618
86.040,674
86.065,709
86.090,717
86.115,713
86.140,719
86.165,746
86.190,775
86.215,777
86.240,732
86.265,641
86.290,525
86.315,405
86.340,299
86.365,211
86.390,142
86.415,87
86.440,35
86.465,-22
86.490,-84
86.515,-145
86.540,-200
86.565,-259
86.590,-336
86.615,-428
86.640,-497
86.665,-490
86.690,-374
86.715,-168
86.740,64
86.765,259
86.790,386
86.815,459
86.840,506
86.865,544
86.890,566
86.915,565
86.940,543
86.965,517
86.990,504
87.015,504
87.040,503
87.065,490
87.090,463
87.115,427
87.140,390
87.165,351
87.190,308
87.215,262
87.240,219
87.265,182
87.290,144
87.315,96
87.340,34
87.365,-34
87.390,-97
87.415,-156
87.440,-225
87.465,-317
87.490,-410
87.515,-452
87.540,-393
87.565,-225
87.590,0
87.615,212
87.640,360
87.665,447
87.690,504
87.715,555
87.740,598
87.765,615
87.790,606
87.815,589
87.840,588
87.865,605
87.890,624
87.915,627
87.940,608
87.965,577
87.990,543
88.015,502
88.040,447
88.065,377
88.090,302
88.115,230
88.140,162
88.165,89
88.190,10
88.215,-67
88.240,-133
88.265,-197
88.290,-275
88.315,-372
88.340,-460
88.365,-481
88.390,-394
88.415,-208
88.440,15
88.465,208
88.490,336
88.515,415
88.540,476
88.565,530
88.590,570
88.615,581
88.640,571
88.665,558
88.690,561
88.715,578
88.740,595
88.765,599
88.790,587
88.815,564
88.840,534
88.865,495
88.890,446
88.915,385
88.940,317
88.965,246
88.990,177
89.015,110
89.040,39
89.065,-34
89.090,-107
89.115,-172
89.140,-234
89.165,-309
89.190,-404
89.215,-490
89.240,-512
89.265,-426
89.290,-238
89.315,-8
89.340,188
89.365,318
89.390,397
89.415,462
89.440,528
89.465,580
89.490,603
89.515,598
89.540,590
89.565,595
89.590,612
89.615,627
89.640,629
89.665,619
89.690,598
89.715,567
89.740,524
89.765,473
89.790,416
89.815,354
89.840,287
89.865,215
89.890,143
89.915,74
89.940,5
89.965,-63
89.990,-131
90.015,-194
90.040,-261
90.065,-345
90.090,-440
90.115,-509
90.140,-495
90.165,-369
90.190,-159
90.215,63
90.240,235
90.265,340
90.290,406
90.315,460
90.340,509
90.365,537
90.390,541
90.415,533
90.440,535
90.465,555
90.490,582
90.515,600
90.540,601
90.565,585
90.590,558
90.615,525
90.640,485
90.665,436
90.690,379
90.715,315
90.740,249
90.765,185
90.790,123
90.815,59
90.840,-6
90.865,-70
90.890,-129
90.915,-193
90.940,-271
90.965,-358
90.990,-417
91.015,-395
91.040,-267
91.065,-63
91.090,149
91.115,309
91.140,404
91.165,460
91.190,506
91.215,545
91.240,562
91.265,551
91.290,531
91.315,525
91.340,543
91.365,570
91.390,582
91.415,571
91.440,544
91.465,511
91.490,476
91.515,433
91.540,377
91.565,310
91.590,240
91.615,174
91.640,109
91.665,41
91.690,-30
91.715,-98
91.740,-159
91.765,-221
91.790,-298
91.815,-394
91.840,-480
91.865,-504
91.890,-422
91.915,-241
91.940,-15
91.965,184
91.990,323
92.015,410
92.040,476
92.065,537
92.090,584
92.115,602
92.140,591
92.165,575
92.190,575
92.215,592
92.240,613
92.265,621
92.290,610
92.315,586
92.340,557
92.365,521
92.390,474
92.415,412
92.440,340
92.465,266
92.490,195
92.515,127
92.540,54
92.565,-23
92.590,-99
92.615,-164
92.640,-224
92.665,-298
92.690,-392
92.715,-483
92.740,-514
92.765,-440
92.790,-263
92.815,-37
92.840,165
92.865,308
92.890,396
92.915,461
92.940,518
92.965,561
92.990,578
93.015,573
93.040,566
93.065,572
93.090,592
93.115,612
93.140,618
93.165,608
93.190,584
93.215,552
93.240,512
93.265,464
93.290,407
93.315,343
93.340,278
93.365,212
93.390,143
93.415,69
93.440,-6
93.465,-76
93.490,-137
93.515,-200
93.540,-278
93.565,-371
93.590,-445
93.615,-447
93.640,-341
93.665,-146
93.690,75
93.715,256
93.740,371
93.765,439
93.790,491
93.815,539
93.840,568
93.865,569
93.890,550
93.915,536
93.940,545
93.965,568
93.990,584
94.015,579
94.040,553
94.065,518
94.090,480
94.115,437
94.140,380
94.165,311
94.190,238
94.215,171
94.240,108
94.265,40
94.290,-35
94.315,-113
94.340,-184
94.365,-250
94.390,-327
94.415,-423
94.440,-513
94.465,-547
94.490,-478
94.515,-307
94.540,-88
94.565,106
94.590,240
94.615,322
94.640,387
94.665,449
94.690,499
94.715,520
94.740,514
94.765,502
94.790,505
94.815,524
94.840,545
94.865,554
94.890,545
94.915,524
94.940,495
94.965,459
94.990,416
95.015,367
95.040,313
95.065,258
95.090,205
95.115,155
95.140,103
95.165,46
95.190,-8
95.215,-55
95.240,-91
95.265,-132
95.290,-189
95.315,-253
95.340,-276
95.365,-206
95.390,-28
95.415,214
95.440,450
95.465,628
95.490,750
95.515,846
95.540,931
95.565,989
95.590,993
95.615,940
95.640,857
95.665,776
95.690,710
95.715,649
95.740,582
95.765,510
95.790,443
95.815,386
95.840,333
95.865,276
95.890,215
95.915,162
95.940,121
95.965,87
95.990,45
96.015,-12
96.040,-81
96.065,-148
96.090,-210
96.115,-281
96.140,-376
96.165,-493
96.190,-595
96.215,-628
96.240,-558
96.265,-401
96.290,-217
96.315,-68
96.340,20
96.365,71
96.390,122
96.415,190
96.440,262
96.465,318
96.490,354
96.515,388
96.540,435
96.565,487
96.590,525
96.615,530
96.640,507
96.665,473
96.690,441
96.715,411
96.740,372
96.765,324
96.790,272
96.815,224
96.840,179
96.865,128
96.890,69
96.915,10
96.940,-42
96.965,-96
96.990,-166
97.015,-248
97.040,-306
97.065,-286
97.090,-157
97.115,53
97.140,275
97.165,443
97.190,541
97.215,598
97.240,648
97.265,695
97.290,716
97.315,702
97.340,667
97.365,644
97.390,644
97.415,651
97.440,639
97.465,599
97.490,541
97.515,482
97.540,425
97.565,361
97.590,288
97.615,211
97.640,138
97.665,71
97.690,4
97.715,-61
97.740,-120
97.765,-172
97.790,-230
97.815,-306
97.840,-383
97.865,-416
97.890,-360
97.915,-208
97.940,-5
97.965,181
97.990,313
98.015,397
98.040,461
98.065,521
98.090,565
98.115,575
98.140,558
98.165,540
98.190,547
98.215,575
98.240,600
98.265,603
98.290,585
98.315,556
98.340,524
98.365,483
98.390,425
98.415,358
98.440,293
98.465,232
98.490,169
98.515,99
98.540,31
98.565,-26
98.590,-80
98.615,-154
98.640,-259
98.665,-372
98.690,-432
98.715,-390
98.740,-249
98.765,-69
98.790,81
98.815,176
98.840,237
98.865,301
98.890,377
98.915,445
98.940,482
98.965,489
98.990,489
99.015,503
99.040,530
99.065,550
99.090,551
99.115,536
99.140,514
99.165,489
99.190,453
99.215,400
99.240,335
99.265,267
99.290,204
99.315,141
99.340,72
99.365,-1
99.390,-70
99.415,-134
99.440,-206
99.465,-300
99.490,-402
99.515,-464
99.540,-435
99.565,-295
99.590,-86
99.615,122
99.640,279
99.665,376
99.690,443
99.715,504
99.740,560
99.765,593
99.790,592
99.815,571
99.840,557
99.865,563
99.890,582
99.915,595
99.940,589
99.965,564
99.990,532
100.015,496
100.040,452
100.065,396
100.090,329
100.115,259
100.140,193
100.165,129
100.190,62
100.215,-7
100.240,-74
100.265,-133
100.290,-195
100.315,-271
100.340,-363
100.365,-436
100.390,-439
100.415,-336
100.440,-143
100.465,78
100.490,259
100.515,373
100.540,439
100.565,490
100.590,537
100.615,567
100.640,569
100.665,553
100.690,545
100.715,559
100.740,583
100.765,597
100.790,589
100.815,566
100.840,536
100.865,499
100.890,447
100.915,381
100.940,309
100.965,244
100.990,183
101.015,119
101.040,49
101.065,-17
101.090,-79
101.115,-149
101.140,-240
101.165,-335
101.190,-384
101.215,-334
101.240,-179
101.265,28
101.290,214
101.315,334
101.340,401
101.365,450
101.390,500
101.415,536
101.440,541
101.465,519
101.490,496
101.515,494
101.540,505
101.565,511
101.590,497
101.615,468
101.640,432
101.665,388
101.690,331
101.715,260
101.740,185
101.765,115
101.790,45
101.815,-31
101.840,-116
101.865,-197
101.890,-266
101.915,-334
101.940,-415
101.965,-501
101.990,-544
102.015,-490
102.040,-322
102.065,-85
102.090,146
102.115,316
102.140,421
102.165,494
102.190,562
102.215,625
102.240,663
102.265,667
102.290,652
102.315,644
102.340,655
102.365,674
102.390,681
102.415,664
102.440,630
102.465,590
102.490,546
102.515,493
102.540,425
102.565,345
102.590,266
102.615,194
102.640,122
102.665,45
102.690,-34
102.715,-109
102.740,-175
102.765,-247
102.790,-339
102.815,-435
102.840,-485
102.865,-435
102.890,-276
102.915,-57
102.940,147
102.965,291
102.990,381
103.015,448
103.040,512
103.065,565
103.090,587
103.115,580
103.140,565
103.165,566
103.190,584
103.215,607
103.240,615
103.265,605
103.290,582
103.315,552
103.340,515
103.365,470
103.390,413
103.415,347
103.440,278
103.465,212
103.490,150
103.515,87
103.540,17
103.565,-57
103.590,-129
103.615,-191
103.640,-253
103.665,-332
103.690,-427
103.715,-500
103.740,-496
103.765,-381
103.790,-180
103.815,40
103.840,215
103.865,327
103.890,398
103.915,456
103.940,508
103.965,538
103.990,541
104.015,528
104.040,524
104.065,538
104.090,563
104.115,581
104.140,582
104.165,567
104.190,542
104.215,510
104.240,469
104.265,418
104.290,357
104.315,293
104.340,232
104.365,174
104.390,115
104.415,53
104.440,-9
104.465,-67
104.490,-123
104.515,-187
104.540,-266
104.565,-344
104.590,-380
104.615,-329
104.640,-181
104.665,22
104.690,217
104.715,353
104.740,428
104.765,473
104.790,511
104.815,540
104.840,546
104.865,526
104.890,503
104.915,499
104.940,518
104.965,541
104.990,544
105.015,524
105.040,493
105.065,463
105.090,430
105.115,383
105.140,321
105.165,252
105.190,188
105.215,128
105.240,63
105.265,-10
105.290,-82
105.315,-142
105.340,-197
105.365,-265
105.390,-356
105.415,-443
105.440,-471
105.465,-394
105.490,-218
105.515,0
105.540,196
105.565,333
105.590,420
105.615,486
105.640,543
105.665,584
105.690,598
105.715,590
105.740,578
105.765,577
105.790,589
105.815,600
105.840,599
105.865,585
105.890,563
105.915,535
105.940,499
105.965,449
105.990,385
106.015,314
106.040,245
106.065,180
106.090,116
106.115,44
106.140,-30
106.165,-101
106.190,-161
106.215,-220
106.240,-295
106.265,-386
106.290,-459
106.315,-457
106.340,-346
106.365,-144
106.390,81
106.415,265
106.440,382
106.465,452
106.490,508
106.515,559
106.540,592
106.565,595
106.590,575
106.615,559
106.640,562
106.665,580
106.690,594
106.715,589
106.740,567
106.765,535
106.790,498
106.815,455
106.840,402
106.865,340
106.890,274
106.915,209
106.940,144
106.965,75
106.990,3
107.015,-67
107.040,-131
107.065,-193
107.090,-265
107.115,-353
107.140,-435
107.165,-462
107.190,-389
107.215,-213
107.240,11
107.265,211
107.290,340
107.315,408
107.340,452
107.365,498
107.390,535
107.415,542
107.440,521
107.465,498
107.490,501
107.515,531
107.540,561
107.565,567
107.590,548
107.615,518
107.640,485
107.665,445
107.690,390
107.715,324
107.740,259
107.765,197
107.790,132
107.815,58
107.840,-18
107.865,-84
107.890,-142
107.915,-210
107.940,-298
107.965,-383
107.990,-410
108.015,-331
108.040,-152
108.065,70
108.090,265
108.115,395
108.140,471
108.165,522
108.190,566
108.215,592
108.240,588
108.265,561
108.290,536
108.315,534
108.340,554
108.365,575
108.390,577
108.415,556
108.440,524
108.465,488
108.490,448
108.515,396
108.540,330
108.565,257
108.590,185
108.615,117
108.640,45
108.665,-30
108.690,-105
108.715,-172
108.740,-237
108.765,-315
108.790,-410
108.815,-494
108.840,-510
108.865,-415
108.890,-218
108.915,18
108.940,217
108.965,345
108.990,417
109.015,470
109.040,523
109.065,561
109.090,569
109.115,550
109.140,532
109.165,536
109.190,558
109.215,576
109.240,575
109.265,556
109.290,530
109.315,499
109.340,456
109.365,397
109.390,328
109.415,259
109.440,192
109.465,121
109.490,44
109.515,-27
109.540,-88
109.565,-146
109.590,-222
109.615,-317
109.640,-395
109.665,-397
109.690,-287
109.715,-86
109.740,135
109.765,310
109.790,414
109.815,472
109.840,515
109.865,553
109.890,573
109.915,564
109.940,542
109.965,531
109.990,542
110.015,562
110.040,569
110.065,556
110.090,529
110.115,499
110.140,463
110.165,412
110.190,342
110.215,265
110.240,193
110.265,126
110.290,55
110.315,-23
110.340,-101
110.365,-168
110.390,-229
110.415,-305
110.440,-403
110.465,-492
110.490,-514
110.515,-422
110.540,-226
110.565,11
110.590,216
110.615,354
110.640,436
110.665,495
110.690,549
110.715,589
110.740,603
110.765,593
110.790,578
110.815,578
110.840,595
110.865,612
110.890,614
110.915,597
110.940,567
110.965,528
110.990,481
111.015,422
111.040,354
111.065,284
111.090,216
111.115,150
111.140,79
111.165,4
111.190,-69
111.215,-136
111.240,-204
111.265,-286
111.290,-383
111.315,-462
111.340,-469
111.365,-368
111.390,-172
111.415,52
111.440,238
111.465,354
111.490,421
111.515,471
111.540,518
111.565,549
111.590,548
111.615,527
111.640,513
111.665,523
111.690,548
111.715,565
111.740,562
111.765,542
111.790,514
111.815,480
111.840,432
111.865,369
111.890,301
111.915,236
111.940,173
111.965,106
111.990,32
112.015,-35
112.040,-91
112.065,-147
112.090,-222
112.115,-316
112.140,-392
112.165,-391
112.190,-279
112.215,-82
112.240,131
112.265,298
112.290,399
112.315,456
112.340,500
112.365,539
112.390,561
112.415,557
112.440,539
112.465,528
112.490,536
112.515,556
112.540,565
112.565,553
112.590,523
112.615,487
112.640,447
112.665,399
112.690,336
112.715,266
112.740,198
112.765,135
112.790,69
112.815,-4
112.840,-83
112.865,-152
112.890,-212
112.915,-279
112.940,-368
112.965,-462
112.990,-510
113.015,-456
113.040,-290
113.065,-64
113.090,147
113.115,298
113.140,390
113.165,458
113.190,523
113.215,578
113.240,607
113.265,608
113.290,597
113.315,594
113.340,607
113.365,624
113.390,632
113.415,623
113.440,601
113.465,569
113.490,531
113.515,484
113.540,424
113.565,354
113.590,280
113.615,211
113.640,148
113.665,84
113.690,11
113.715,-66
113.740,-139
113.765,-201
113.790,-264
113.815,-346
113.840,-441
113.865,-509
113.890,-493
113.915,-364
113.940,-153
113.965,69
113.990,243
114.015,353
114.040,425
114.065,486
114.090,542
114.115,580
114.140,591
114.165,586
114.190,581
114.215,588
114.240,605
114.265,619
114.290,621
114.315,604
114.340,571
114.365,526
114.390,476
114.415,422
114.440,363
114.465,298
114.490,231
114.515,165
114.540,100
114.565,34
114.590,-32
114.615,-95
114.640,-153
114.665,-219
114.690,-304
114.715,-397
114.740,-454
114.765,-421
114.790,-278
114.815,-64
114.840,148
114.865,302
114.890,392
114.915,449
114.940,498
114.965,539
114.990,557
115.015,548
115.040,531
115.065,528
115.090,544
115.115,563
115.140,570
115.165,559
115.190,536
115.215,508
115.240,470
115.265,418
115.290,354
115.315,286
115.340,223
115.365,163
115.390,97
115.415,21
115.440,-59
115.465,-131
115.490,-191
115.515,-254
115.540,-336
115.565,-427
115.590,-484
115.615,-454
115.640,-314
115.665,-97
115.690,126
115.715,300
115.740,407
115.765,474
115.790,529
115.815,578
115.840,607
115.865,610
115.890,598
115.915,591
115.940,600
115.965,618
115.990,629
116.015,624
116.040,602
116.065,570
116.090,529
116.115,481
116.140,422
116.165,354
116.190,284
116.215,217
116.240,154
116.265,87
116.290,12
116.315,-66
116.340,-141
116.365,-204
116.390,-267
116.415,-347
116.440,-445
116.465,-521
116.490,-516
116.515,-395
116.540,-180
116.565,59
116.590,251
116.615,372
116.640,442
116.665,496
116.690,548
116.715,583
116.740,590
116.765,576
116.790,564
116.815,571
116.840,592
116.865,608
116.890,607
116.915,588
116.940,560
116.965,526
116.990,484
117.015,428
117.040,360
117.065,289
117.090,223
117.115,161
117.140,96
117.165,26
117.190,-45
117.215,-111
117.240,-173
117.265,-246
117.290,-335
117.315,-418
117.340,-445
117.365,-372
117.390,-195
117.415,30
117.440,233
117.465,366
117.490,438
117.515,483
117.540,524
117.565,554
117.590,558
117.615,536
117.640,514
117.665,517
117.690,541
117.715,564
117.740,564
117.765,539
117.790,505
117.815,469
117.840,427
117.865,371
117.890,303
117.915,232
117.940,165
117.965,98
117.990,26
118.015,-48
118.040,-117
118.065,-179
118.090,-250
118.115,-340
118.140,-431
118.165,-476
118.190,-423
118.215,-261
118.240,-37
118.265,178
118.290,335
118.315,431
118.340,494
118.365,546
118.390,589
118.415,607
118.440,598
118.465,578
118.490,570
118.515,582
118.540,603
118.565,613
118.590,601
118.615,574
118.640,539
118.665,500
118.690,450
118.715,388
118.740,316
118.765,244
118.790,175
118.815,104
118.840,29
118.865,-45
118.890,-112
118.915,-172
118.940,-240
118.965,-333
118.990,-439
119.015,-510
119.040,-487
119.065,-346
119.090,-122
119.115,109
119.140,287
119.165,394
119.190,456
119.215,504
119.240,545
119.265,568
119.290,562
119.315,542
119.340,531
119.365,543
119.390,567
119.415,583
119.440,580
119.465,558
119.490,527
119.515,489
119.540,441
119.565,383
119.590,317
119.615,250
119.640,184
119.665,114
119.690,40
119.715,-31
119.740,-94
119.765,-155
119.790,-231
119.815,-327
119.840,-415
119.865,-440
119.890,-358
119.915,-173
119.940,53
119.965,250
119.990,377
120.015,447
120.040,493
120.065,530
120.090,551
120.115,542
120.140,514
120.165,495
120.190,501
120.215,525
120.240,542
120.265,538
120.290,517
120.315,489
120.340,455
120.365,407
120.390,342
120.415,271
120.440,205
120.465,142
120.490,74
120.515,0
120.540,-73
120.565,-136
120.590,-200
120.615,-282
120.640,-376
120.665,-440
120.690,-413
120.715,-270
120.740,-48
120.765,175
120.790,339
120.815,435
120.840,494
120.865,547
120.890,592
120.915,609
120.940,590
120.965,558
120.990,544
121.015,559
121.040,586
121.065,597
121.090,580
121.115,545
121.140,508
121.165,468
121.190,416
121.215,347
121.240,268
121.265,194
121.290,126
121.315,56
121.340,-22
121.365,-104
121.390,-178
121.415,-245
121.440,-323
121.465,-420
121.490,-511
121.515,-538
121.540,-453
121.565,-257
121.590,-13
121.615,202
121.640,348
121.665,435
121.690,499
121.715,560
121.740,610
121.765,629
121.790,617
121.815,595
121.840,590
121.865,606
121.890,626
121.915,630
121.940,612
121.965,579
121.990,541
122.015,499
122.040,445
122.065,376
122.090,302
122.115,230
122.140,162
122.165,90
122.190,10
122.215,-72
122.240,-145
122.265,-210
122.290,-284
122.315,-379
122.340,-473
122.365,-513
122.390,-447
122.415,-270
122.440,-34
122.465,183
122.490,334
122.515,422
122.540,481
122.565,534
122.590,577
122.615,591
122.640,576
122.665,553
122.690,550
122.715,570
122.740,594
122.765,599
122.790,581
122.815,549
122.840,514
122.865,472
122.890,418
122.915,351
122.940,281
122.965,215
122.990,153
123.015,87
123.040,16
123.065,-55
123.090,-122
123.115,-191
123.140,-275
123.165,-371
123.190,-444
123.215,-441
123.240,-329
123.265,-129
123.290,93
123.315,274
123.340,385
123.365,446
123.390,489
123.415,526
123.440,546
123.465,540
123.490,517
123.515,503
123.540,511
123.565,535
123.590,552
123.615,549
123.640,527
123.665,496
123.690,459
123.715,410
123.740,349
123.765,282
123.790,219
123.815,159
123.840,96
123.865,27
123.890,-41
123.915,-105
123.940,-169
123.965,-249
123.990,-342
124.015,-408
124.040,-392
124.065,-266
124.090,-58
124.115,160
124.140,326
124.165,424
124.190,480
124.215,522
124.240,554
124.265,561
124.290,540
124.315,511
124.340,497
124.365,508
124.390,527
124.415,536
124.440,528
124.465,502
124.490,463
124.515,407
124.540,339
124.565,269
124.590,203
124.615,141
124.640,73
124.665,-3
124.690,-80
124.715,-153
124.740,-229
124.765,-322
124.790,-418
124.815,-471
124.840,-424
124.865,-262
124.890,-31
124.915,190
124.940,348
124.965,440
124.990,501
125.015,556
125.040,602
125.065,619
125.090,604
125.115,577
125.140,563
125.165,569
125.190,581
125.215,583
125.240,568
125.265,540
125.290,504
125.315,459
125.340,399
125.365,327
125.390,253
125.415,182
125.440,111
125.465,32
125.490,-52
125.515,-133
125.540,-203
125.565,-274
125.590,-361
125.615,-464
125.640,-542
125.665,-536
125.690,-411
125.715,-190
125.740,54
125.765,255
125.790,386
125.815,470
125.840,539
125.865,601
125.890,640
125.915,646
125.940,630
125.965,617
125.990,620
126.015,635
126.040,647
126.065,645
126.090,630
126.115,604
126.140,566
126.165,518
126.190,458
126.215,391
126.240,318
126.265,241
126.290,164
126.315,89
126.340,14
126.365,-60
126.390,-135
126.415,-206
126.440,-271
126.465,-344
126.490,-436
126.515,-534
126.540,-589
126.565,-538
126.590,-363
126.615,-109
126.640,138
126.665,317
126.690,423
126.715,493
126.740,558
126.765,614
126.790,643
126.815,641
126.840,627
126.865,627
126.890,645
126.915,666
126.940,674
126.965,666
126.990,647
127.015,618
127.040,578
127.065,526
127.090,465
127.115,398
127.140,326
127.165,249
127.190,173
127.215,102
127.240,33
127.265,-37
127.290,-113
127.315,-188
127.340,-258
127.365,-330
127.390,-417
127.415,-510
127.440,-565
127.465,-525
127.490,-366
127.515,-127
127.540,113
127.565,295
127.590,404
127.615,470
127.640,521
127.665,563
127.690,585
127.715,582
127.740,568
127.765,563
127.790,573
127.815,591
127.840,603
127.865,599
127.890,581
127.915,553
127.940,515
127.965,467
127.990,408
128.015,343
128.040,277
128.065,213
128.090,150
128.115,82
128.140,8
128.165,-65
128.190,-131
128.215,-192
128.240,-262
128.265,-349
128.290,-435
128.315,-467
128.340,-395
128.365,-215
128.390,22
128.415,240
128.440,389
128.465,471
128.490,520
128.515,559
128.540,584
128.565,581
128.590,552
128.615,524
128.640,521
128.665,544
128.690,571
128.715,578
128.740,562
128.765,534
128.790,501
128.815,461
128.840,405
128.865,336
128.890,263
128.915,197
128.940,134
128.965,67
128.990,-6
129.015,-80
129.040,-144
129.065,-209
129.090,-291
129.115,-391
129.140,-474
129.165,-482
129.190,-374
129.215,-164
129.240,82
129.265,291
129.290,427
129.315,502
129.340,550
129.365,587
129.390,607
129.415,598
129.440,567
129.465,541
129.490,539
129.515,559
129.540,580
129.565,583
129.590,566
129.615,538
129.640,502
129.665,456
129.690,396
129.715,325
129.740,255
129.765,186
129.790,114
129.815,31
129.840,-54
129.865,-130
129.890,-194
129.915,-264
129.940,-353
129.965,-449
129.990,-497
130.015,-442
130.040,-269
130.065,-26
130.090,203
130.115,364
130.140,454
130.165,505
130.190,543
130.215,564
130.240,557
130.265,526
130.290,498
130.315,496
130.340,519
130.365,543
130.390,549
130.415,533
130.440,505
130.465,470
130.490,425
130.515,367
130.540,304
130.565,242
130.590,180
130.615,107
130.640,24
130.665,-57
130.690,-126
130.715,-193
130.740,-278
130.765,-377
130.790,-447
130.815,-425
130.840,-282
130.865,-53
130.890,181
130.915,356
130.940,462
130.965,525
130.990,572
131.015,601
131.040,598
131.065,564
131.090,528
131.115,516
131.140,530
131.165,549
131.190,552
131.215,536
131.240,511
131.265,480
131.290,437
131.315,377
131.340,308
131.365,240
131.390,177
131.415,109
131.440,28
131.465,-56
131.490,-131
131.515,-199
131.540,-275
131.565,-368
131.590,-448
131.615,-457
131.640,-349
131.665,-139
131.690,103
131.715,301
131.740,424
131.765,490
131.790,533
131.815,564
131.840,573
131.865,551
131.890,517
131.915,501
131.940,513
131.965,539
131.990,551
132.015,541
132.040,516
132.065,484
132.090,443
132.115,389
132.140,322
132.165,254
132.190,191
132.215,126
132.240,53
132.265,-26
132.290,-101
132.315,-170
132.340,-247
132.365,-339
132.390,-415
132.415,-419
132.440,-310
132.465,-103
132.490,129
132.515,314
132.540,424
132.565,482
132.590,522
132.615,552
132.640,556
132.665,530
132.690,496
132.715,481
132.740,495
132.765,519
132.790,531
132.815,522
132.840,498
132.865,465
132.890,420
132.915,360
132.940,293
132.965,230
132.990,169
133.015,104
133.040,29
133.065,-46
133.090,-115
133.115,-184
133.140,-268
133.165,-362
133.190,-422
133.215,-388
133.240,-237
133.265,-11
133.290,208
133.315,360
133.340,444
133.365,492
133.390,532
133.415,558
133.440,554
133.465,522
133.490,493
133.515,492
133.540,512
133.565,529
133.590,523
133.615,500
133.640,474
133.665,449
133.690,411
133.715,355
133.740,286
133.765,219
133.790,157
133.815,92
133.840,16
133.865,-60
133.890,-126
133.915,-184
133.940,-256
133.965,-351
133.990,-441
134.015,-463
134.040,-370
134.065,-173
134.090,63
134.115,265
134.140,399
134.165,476
134.190,530
134.215,573
134.240,600
134.265,600
134.290,580
134.315,560
134.340,558
134.365,573
134.390,588
134.415,590
134.440,575
134.465,549
134.490,515
134.515,473
134.540,418
134.565,353
134.590,282
134.615,213
134.640,147
134.665,78
134.690,4
134.715,-69
134.740,-136
134.765,-198
134.790,-268
134.815,-356
134.840,-443
134.865,-481
134.890,-418
134.915,-247
134.940,-16
134.965,197
134.990,341
135.015,418
135.040,462
135.065,501
135.090,534
135.115,544
135.140,530
135.165,510
135.190,510
135.215,532
135.240,556
135.265,562
135.290,548
135.315,525
135.340,498
135.365,464
135.390,414
135.415,350
135.440,284
135.465,223
135.490,162
135.515,94
135.540,20
135.565,-46
135.590,-103
135.615,-163
135.640,-244
135.665,-340
135.690,-405
135.715,-383
135.740,-250
135.765,-40
135.790,174
135.815,337
135.840,433
135.865,488
135.890,526
135.915,551
135.940,552
135.965,527
135.990,497
136.015,488
136.040,506
136.065,534
136.090,548
136.115,540
136.140,514
136.165,480
136.190,438
136.215,384
136.240,318
136.265,250
136.290,187
136.315,127
136.340,61
136.365,-10
136.390,-80
136.415,-143
136.440,-208
136.465,-291
136.490,-386
136.515,-458
136.540,-449
136.565,-328
136.590,-118
136.615,110
136.640,293
136.665,405
136.690,468
136.715,514
136.740,555
136.765,577
136.790,568
136.815,542
136.840,524
136.865,533
136.890,558
136.915,575
136.940,570
136.965,547
136.990,520
137.015,490
137.040,446
137.065,384
137.090,309
137.115,239
137.140,176
137.165,113
137.190,39
137.215,-38
137.240,-109
137.265,-171
137.290,-240
137.315,-326
137.340,-410
137.365,-434
137.390,-351
137.415,-164
137.440,62
137.465,254
137.490,374
137.515,439
137.540,485
137.565,527
137.590,550
137.615,541
137.640,511
137.665,493
137.690,504
137.715,531
137.740,549
137.765,545
137.790,524
137.815,499
137.840,468
137.865,422
137.890,359
137.915,292
137.940,231
137.965,173
137.990,108
138.015,33
138.040,-37
138.065,-98
138.090,-160
138.115,-241
138.140,-334
138.165,-391
138.190,-355
138.215,-208
138.240,3
138.265,203
138.290,341
138.315,417
138.340,463
138.365,500
138.390,522
138.415,517
138.440,494
138.465,477
138.490,482
138.515,502
138.540,515
138.565,510
138.590,492
138.615,468
138.640,436
138.665,388
138.690,327
138.715,263
138.740,201
138.765,139
138.790,71
138.815,1
138.840,-66
138.865,-133
138.890,-212
138.915,-303
138.940,-373
138.965,-368
138.990,-255
139.015,-58
139.040,150
139.065,309
139.090,403
139.115,460
139.140,510
139.165,551
139.190,565
139.215,544
139.240,511
139.265,494
139.290,503
139.315,518
139.340,521
139.365,505
139.390,477
139.415,442
139.440,397
139.465,339
139.490,274
139.515,211
139.540,148
139.565,78
139.590,0
139.615,-77
139.640,-144
139.665,-208
139.690,-289
139.715,-384
139.740,-455
139.765,-443
139.790,-318
139.815,-108
139.840,115
139.865,289
139.890,399
139.915,469
139.940,527
139.965,576
139.990,601
140.015,593
140.040,571
140.065,559
140.090,567
140.115,583
140.140,587
140.165,574
140.190,551
140.215,523
140.240,487
140.265,435
140.290,369
140.315,298
140.340,231
140.365,166
140.390,94
140.415,16
140.440,-57
140.465,-120
140.490,-182
140.515,-262
140.540,-359
140.565,-438
140.590,-440
140.615,-332
140.640,-135
140.665,84
140.690,260
140.715,370
140.740,432
140.765,478
140.790,519
140.815,546
140.840,548
140.865,530
140.890,517
140.915,521
140.940,539
140.965,551
140.990,547
141.015,527
141.040,500
141.065,467
141.090,424
141.115,366
141.140,301
141.165,236
141.190,174
141.215,110
141.240,41
141.265,-27
141.290,-89
141.315,-148
141.340,-219
141.365,-306
141.390,-384
141.415,-400
141.440,-316
141.465,-142
141.490,64
141.515,239
141.540,352
141.565,418
141.590,465
141.615,502
141.640,521
141.665,514
141.690,492
141.715,479
141.740,488
141.765,506
141.790,517
141.815,513
141.840,496
141.865,471
141.890,438
141.915,392
141.940,337
141.965,282
141.990,228
142.015,169
142.040,100
142.065,27
142.090,-36
142.115,-94
142.140,-162
142.165,-247
142.190,-326
142.215,-342
142.240,-256
142.265,-79
142.290,125
142.315,289
142.340,388
142.365,441
142.390,481
142.415,514
142.440,528
142.465,514
142.490,487
142.515,474
142.540,483
142.565,502
142.590,509
142.615,495
142.640,470
142.665,442
142.690,409
142.715,362
142.740,301
142.765,235
142.790,172
142.815,112
142.840,48
142.865,-18
142.890,-82
142.915,-142
142.940,-208
142.965,-290
142.990,-377
143.015,-425
143.040,-385
143.065,-242
143.090,-33
143.115,173
143.140,324
143.165,412
143.190,466
143.215,511
143.240,551
143.265,569
143.290,560
143.315,540
143.340,533
143.365,545
143.390,563
143.415,568
143.440,556
143.465,532
143.490,503
143.515,466
143.540,414
143.565,348
143.590,278
143.615,213
143.640,150
143.665,80
143.690,6
143.715,-63
143.740,-124
143.765,-189
143.790,-270
143.815,-351
143.840,-386
143.865,-328
143.890,-171
143.915,32
143.940,212
143.965,330
143.990,399
144.015,448
144.040,491
144.065,516
144.090,510
144.115,485
144.140,468
144.165,474
144.190,493
144.215,504
144.240,499
144.265,482
144.290,462
144.315,435
144.340,393
144.365,337
144.390,277
144.415,220
144.440,163
144.465,98
144.490,29
144.515,-35
144.540,-97
144.565,-169
144.590,-254
144.615,-326
144.640,-333
144.665,-238
144.690,-60
144.715,138
144.740,295
144.765,390
144.790,447
144.815,492
144.840,527
144.865,535
144.890,514
144.915,484
144.940,469
144.965,478
144.990,494
145.015,498
145.040,485
145.065,463
145.090,434
145.115,393
145.140,337
145.165,272
145.190,209
145.215,152
145.240,91
145.265,22
145.290,-48
145.315,-110
145.340,-168
145.365,-239
145.390,-330
145.415,-411
145.440,-425
145.465,-328
145.490,-135
145.515,86
145.540,267
145.565,379
145.590,447
145.615,503
145.640,557
145.665,591
145.690,589
145.715,565
145.740,545
145.765,549
145.790,569
145.815,582
145.840,575
145.865,551
145.890,521
145.915,486
145.940,439
145.965,377
145.990,308
146.015,238
146.040,169
146.065,96
146.090,18
146.115,-56
146.140,-123
146.165,-189
146.190,-268
146.215,-359
146.240,-427
146.265,-417
146.290,-300
146.315,-101
146.340,113
146.365,280
146.390,380
146.415,438
146.440,484
146.465,525
146.490,544
146.515,535
146.540,511
146.565,501
146.590,515
146.615,537
146.640,547
146.665,536
146.690,513
146.715,487
146.740,454
146.765,406
146.790,342
146.815,273
146.840,210
146.865,150
146.890,86
146.915,14
146.940,-54
146.965,-118
146.990,-188
147.015,-274
147.040,-360
147.065,-399
147.090,-341
147.115,-178
147.140,37
147.165,230
147.190,357
147.215,425
147.240,467
147.265,502
147.290,524
147.315,518
147.340,491
147.365,470
147.390,472
147.415,493
147.440,512
147.465,513
147.490,498
147.515,475
147.540,445
147.565,402
147.590,345
147.615,284
147.640,226
147.665,169
147.690,106
147.715,38
147.740,-25
147.765,-81
147.790,-141
147.815,-220
147.840,-309
147.865,-362
147.890,-326
147.915,-185
147.940,17
147.965,211
147.990,347
148.015,423
148.040,469
148.065,507
148.090,532
148.115,531
148.140,508
148.165,483
148.190,476
148.215,488
148.240,503
148.265,506
148.290,493
148.315,466
148.340,427
148.365,375
148.390,316
148.415,254
148.440,193
148.465,129
148.490,58
148.515,-14
148.540,-82
148.565,-148
148.590,-223
148.615,-315
148.640,-398
148.665,-421
148.690,-340
148.715,-159
148.740,63
148.765,255
148.790,378
148.815,447
148.840,496
148.865,545
148.890,580
148.915,586
148.940,565
148.965,540
148.990,535
149.015,548
149.040,561
149.065,558
149.090,538
149.115,507
149.140,470
149.165,420
149.190,357
149.215,287
149.240,219
149.265,154
149.290,85
149.315,9
149.340,-66
149.365,-136
149.390,-205
149.415,-288
149.440,-387
149.465,-467
149.490,-470
149.515,-360
149.540,-156
149.565,74
149.590,260
149.615,376
149.640,445
149.665,504
149.690,565
149.715,610
149.740,621
149.765,602
149.790,580
149.815,576
149.840,589
149.865,602
149.890,598
149.915,577
149.940,548
149.965,512
149.990,465
150.015,401
150.040,326
150.065,253
150.090,184
150.115,115
150.140,40
150.165,-38
150.190,-110
150.215,-175
150.240,-246
150.265,-336
150.290,-432
150.315,-489
150.340,-452
150.365,-305
150.390,-86
150.415,129
150.440,289
150.465,383
150.490,440
150.515,489
150.540,532
150.565,554
150.590,549
150.615,532
150.640,527
150.665,539
150.690,558
150.715,564
150.740,552
150.765,525
150.790,488
150.815,441
150.840,382
150.865,315
150.890,250
150.915,188
150.940,121
150.965,46
150.990,-29
151.015,-96
151.040,-157
151.065,-229
151.090,-321
151.115,-407
151.140,-431
151.165,-349
151.190,-166
151.215,58
151.240,251
151.265,379
151.290,453
151.315,506
151.340,554
151.365,586
151.390,588
151.415,567
151.440,548
151.465,548
151.490,564
151.515,580
151.540,579
151.565,562
151.590,534
151.615,499
151.640,452
151.665,392
151.690,323
151.715,255
151.740,188
151.765,119
151.790,43
151.815,-33
151.840,-103
151.865,-166
151.890,-236
151.915,-325
151.940,-419
151.965,-474
151.990,-436
152.015,-288
152.040,-68
152.065,152
152.090,316
152.115,411
152.140,465
152.165,508
152.190,544
152.215,559
152.240,547
152.265,525
152.290,517
152.315,532
152.340,554
152.365,563
152.390,551
152.415,526
152.440,496
152.465,456
152.490,401
152.515,334
152.540,269
152.565,213
152.590,155
152.615,83
152.640,1
152.665,-75
152.690,-138
152.715,-201
152.740,-283
152.765,-373
152.790,-419
152.815,-362
152.840,-193
152.865,32
152.890,234
152.915,363
152.940,430
152.965,472
152.990,508
153.015,530
153.040,522
153.065,495
153.090,474
153.115,479
153.140,502
153.165,518
153.190,514
153.215,491
153.240,460
153.265,422
153.290,375
153.315,319
153.340,261
153.365,202
153.390,139
153.415,68
153.440,-4
153.465,-72
153.490,-137
153.515,-212
153.540,-302
153.565,-376
153.590,-380
153.615,-275
153.640,-78
153.665,144
153.690,323
153.715,432
153.740,490
153.765,532
153.790,566
153.815,578
153.840,561
153.865,528
153.890,508
153.915,515
153.940,538
153.965,553
153.990,548
154.015,525
154.040,493
154.065,450
154.090,393
154.115,322
154.140,248
154.165,179
154.190,115
154.215,46
154.240,-29
154.265,-104
154.290,-173
154.315,-245
154.340,-331
154.365,-423
154.390,-478
154.415,-442
154.440,-292
154.465,-66
154.490,160
154.515,328
154.540,424
154.565,480
154.590,526
154.615,563
154.640,576
154.665,558
154.690,532
154.715,524
154.740,541
154.765,565
154.790,572
154.815,555
154.840,526
154.865,492
154.890,450
154.915,394
154.940,327
154.965,259
154.990,198
155.015,137
155.040,67
155.065,-8
155.090,-79
155.115,-146
155.140,-221
155.165,-314
155.190,-397
155.215,-415
155.240,-322
155.265,-129
155.290,95
155.315,279
155.340,392
155.365,453
155.390,499
155.415,537
155.440,553
155.465,536
155.490,503
155.515,484
155.540,492
155.565,512
155.590,523
155.615,517
155.640,499
155.665,475
155.690,439
155.715,384
155.740,317
155.765,249
155.790,188
155.815,126
155.840,55
155.865,-22
155.890,-95
155.915,-162
155.940,-238
155.965,-329
155.990,-407
156.015,-416
156.040,-311
156.065,-106
156.090,127
156.115,316
156.140,428
156.165,487
156.190,532
156.215,572
156.240,591
156.265,576
156.290,541
156.315,519
156.340,526
156.365,551
156.390,567
156.415,557
156.440,525
156.465,485
156.490,441
156.515,389
156.540,327
156.565,259
156.590,191
156.615,122
156.640,47
156.665,-32
156.690,-108
156.715,-178
156.740,-250
156.765,-337
156.790,-431
156.815,-491
156.840,-465
156.865,-328
156.890,-112
156.915,114
156.940,293
156.965,404
156.990,471
157.015,521
157.040,562
157.065,584
157.090,580
157.115,562
157.140,551
157.165,559
157.190,577
157.215,587
157.240,578
157.265,553
157.290,520
157.315,481
157.340,431
157.365,369
157.390,301
157.415,233
157.440,166
157.465,94
157.490,17
157.515,-55
157.540,-119
157.565,-182
157.590,-263
157.615,-361
157.640,-439
157.665,-436
157.690,-318
157.715,-112
157.740,108
157.765,278
157.790,378
157.815,435
157.840,485
157.865,531
157.890,553
157.915,543
157.940,516
157.965,502
157.990,513
158.015,535
158.040,545
158.065,533
158.090,506
158.115,474
158.140,436
158.165,387
158.190,326
158.215,261
158.240,195
158.265,126
158.290,55
158.315,-15
158.340,-80
158.365,-144
158.390,-222
158.415,-314
158.440,-389
158.465,-395
158.490,-295
158.515,-105
158.540,113
158.565,293
158.590,408
158.615,476
158.640,524
158.665,564
158.690,583
158.715,574
158.740,548
158.765,531
158.790,537
158.815,556
158.840,564
158.865,550
158.890,519
158.915,483
158.940,444
158.965,394
158.990,330
159.015,262
159.040,199
159.065,143
159.090,81
159.115,6
159.140,-73
159.165,-143
159.190,-204
159.215,-274
159.240,-364
159.265,-452
159.290,-484
159.315,-409
159.340,-229
159.365,-1
159.390,198
159.415,331
159.440,408
159.465,464
159.490,516
159.515,554
159.540,563
159.565,546
159.590,528
159.615,529
159.640,548
159.665,566
159.690,568
159.715,551
159.740,526
159.765,496
159.790,456
159.815,402
159.840,340
159.865,278
159.890,220
159.915,161
159.940,94
159.965,23
159.990,-42
160.015,-98
160.040,-158
160.065,-236
160.090,-325
160.115,-382
160.140,-356
160.165,-228
160.190,-30
160.215,168
160.240,313
160.265,394
160.290,439
160.315,477
160.340,511
160.365,524
160.390,510
160.415,486
160.440,479
160.465,496
160.490,521
160.515,528
160.540,511
160.565,481
160.590,451
160.615,419
160.640,373
160.665,313
160.690,249
160.715,190
160.740,136
160.765,74
160.790,2
160.815,-67
160.840,-127
160.865,-186
160.890,-262
160.915,-354
160.940,-419
160.965,-400
160.990,-271
161.015,-66
161.040,143
161.065,299
161.090,395
161.115,458
161.140,514
161.165,561
161.190,584
161.215,580
161.240,567
161.265,563
161.290,574
161.315,591
161.340,600
161.365,596
161.390,579
161.415,550
161.440,511
161.465,463
161.490,411
161.515,357
161.540,297
161.565,232
161.590,164
161.615,99
161.640,35
161.665,-31
161.690,-100
161.715,-169
161.740,-236
161.765,-310
161.790,-398
161.815,-478
161.840,-504
161.865,-431
161.890,-254
161.915,-27
161.940,176
161.965,313
161.990,391
162.015,446
162.040,498
162.065,542
162.090,562
162.115,557
162.140,545
162.165,546
162.190,563
162.215,581
162.240,587
162.265,576
162.290,553
162.315,523
162.340,486
162.365,440
162.390,385
162.415,326
162.440,266
162.465,206
162.490,144
162.515,78
162.540,11
162.565,-52
162.590,-109
162.615,-169
162.640,-242
162.665,-326
162.690,-390
162.715,-386
162.740,-283
162.765,-97
162.790,111
162.815,281
162.840,384
162.865,439
162.890,478
162.915,515
162.940,538
162.965,534
162.990,515
163.015,505
163.040,518
163.065,542
163.090,553
163.115,539
163.140,512
163.165,484
163.190,456
163.215,414
163.240,353
163.265,282
163.290,218
163.315,163
163.340,106
163.365,37
163.390,-38
163.415,-106
163.440,-167
163.465,-237
163.490,-326
163.515,-413
163.540,-442
163.565,-367
163.590,-187
163.615,37
163.640,234
163.665,366
163.690,443
163.715,497
163.740,545
163.765,582
163.790,593
163.815,581
163.840,565
163.865,566
163.890,584
163.915,604
163.940,609
163.965,593
163.990,562
164.015,524
164.040,483
164.065,433
164.090,370
164.115,299
164.140,226
164.165,158
164.190,92
164.215,23
164.240,-47
164.265,-116
164.290,-180
164.315,-249
164.340,-336
164.365,-435
164.390,-508
164.415,-502
164.440,-386
164.465,-184
164.490,39
164.515,220
164.540,337
164.565,411
164.590,471
164.615,526
164.640,564
164.665,574
164.690,565
164.715,558
164.740,566
164.765,585
164.790,599
164.815,598
164.840,583
164.865,560
164.890,529
164.915,490
164.940,438
164.965,378
164.990,313
165.015,250
165.040,186
165.065,119
165.090,47
165.115,-24
165.140,-89
165.165,-149
165.190,-217
165.215,-303
165.240,-395
165.265,-452
165.290,-425
165.315,-293
165.340,-87
165.365,124
165.390,283
165.415,377
165.440,432
165.465,478
165.490,520
165.515,543
165.540,535
165.565,513
165.590,505
165.615,521
165.640,548
165.665,562
165.690,552
165.715,526
165.740,494
165.765,457
165.790,409
165.815,349
165.840,285
165.865,225
165.890,168
165.915,104
165.940,33
165.965,-35
165.990,-94
166.015,-153
166.040,-228
166.065,-316
166.090,-381
166.115,-371
166.140,-259
166.165,-70
166.190,133
166.215,296
166.240,401
166.265,464
166.290,512
166.315,548
166.340,565
166.365,558
166.390,541
166.415,533
166.440,544
166.465,563
166.490,571
166.515,558
166.540,527
166.565,488
166.590,447
166.615,400
166.640,343
166.665,279
166.690,215
166.715,155
166.740,93
166.765,23
166.790,-50
166.815,-118
166.840,-176
166.865,-236
166.890,-314
166.915,-408
166.940,-479
166.965,-473
166.990,-357
167.015,-157
167.040,62
167.065,240
167.090,356
167.115,431
167.140,493
167.165,549
167.190,586
167.215,594
167.240,585
167.265,578
167.290,589
167.315,609
167.340,622
167.365,618
167.390,597
167.415,566
167.440,528
167.465,482
167.490,428
167.515,367
167.540,305
167.565,244
167.590,180
167.615,111
167.640,39
167.665,-29
167.690,-92
167.715,-155
167.740,-229
167.765,-320
167.790,-406
167.815,-441
167.840,-385
167.865,-231
167.890,-25
167.915,165
167.940,297
167.965,372
167.990,421
168.015,469
168.040,510
168.065,527
168.090,515
168.115,494
168.140,491
168.165,509
168.190,531
168.215,536
168.240,522
168.265,499
168.290,474
168.315,443
168.340,397
168.365,336
168.390,272
168.415,212
168.440,155
168.465,94
168.490,28
168.515,-34
168.540,-92
168.565,-156
168.590,-239
168.615,-332
168.640,-395
168.665,-379
168.690,-265
168.715,-80
168.740,113
168.765,265
168.790,361
168.815,418
168.840,462
168.865,501
168.890,525
168.915,528
168.940,519
168.965,517
168.990,531
169.015,555
169.040,571
169.065,566
169.090,544
169.115,514
169.140,482
169.165,441
169.190,387
169.215,322
169.240,257
169.265,196
169.290,134
169.315,64
169.340,-12
169.365,-84
169.390,-143
169.415,-203
169.440,-280
169.465,-371
169.490,-434
169.515,-414
169.540,-288
169.565,-88
169.590,116
169.615,270
169.640,365
169.665,426
169.690,480
169.715,529
169.740,556
169.765,556
169.790,542
169.815,538
169.840,551
169.865,572
169.890,583
169.915,574
169.940,549
169.965,515
169.990,479
170.015,436
170.040,384
170.065,322
170.090,258
170.115,196
170.140,136
170.165,73
170.190,4
170.215,-62
170.240,-119
170.265,-168
170.290,-227
170.315,-307
170.340,-389
170.365,-427
170.390,-374
170.415,-223
170.440,-20
170.465,170
170.490,307
170.515,393
170.540,455
170.565,508
170.590,549
170.615,565
170.640,558
170.665,546
170.690,546
170.715,559
170.740,573
170.765,576
170.790,565
170.815,546
170.840,519
170.865,483
170.890,434
170.915,375
170.940,312
170.965,252
170.990,195
171.015,138
171.040,73
171.065,4
171.090,-59
171.115,-114
171.140,-167
171.165,-235
171.190,-322
171.215,-401
171.240,-420
171.265,-339
171.290,-167
171.315,39
171.340,215
171.365,328
171.390,394
171.415,445
171.440,495
171.465,530
171.490,536
171.515,521
171.540,508
171.565,517
171.590,542
171.615,562
171.640,561
171.665,541
171.690,512
171.715,482
171.740,444
171.765,392
171.790,330
171.815,267
171.840,211
171.865,159
171.890,100
171.915,30
171.940,-40
171.965,-102
171.990,-158
172.015,-226
172.040,-312
172.065,-390
172.090,-410
172.115,-329
172.140,-156
172.165,53
172.190,236
172.215,358
172.240,430
172.265,482
172.290,527
172.315,557
172.340,562
172.365,548
172.390,535
172.415,541
172.440,563
172.465,586
172.490,593
172.515,581
172.540,554
172.565,518
172.590,475
172.615,425
172.640,366
172.665,300
172.690,234
172.715,170
172.740,109
172.765,46
172.790,-22
172.815,-91
172.840,-153
172.865,-213
172.890,-285
172.915,-377
172.940,-467
172.965,-502
172.990,-434
173.015,-259
173.040,-30
173.065,177
173.090,317
173.115,396
173.140,449
173.165,498
173.190,538
173.215,553
173.240,543
173.265,529
173.290,533
173.315,558
173.340,583
173.365,590
173.390,575
173.415,548
173.440,520
173.465,488
173.490,441
173.515,379
173.540,310
173.565,247
173.590,189
173.615,128
173.640,58
173.665,-16
173.690,-83
173.715,-145
173.740,-216
173.765,-306
173.790,-392
173.815,-425
173.840,-356
173.865,-185
173.890,37
173.915,239
173.940,378
173.965,458
173.990,509
174.015,551
174.040,581
174.065,584
174.090,565
174.115,545
174.140,545
174.165,566
174.190,589
174.215,592
174.240,573
174.265,540
174.290,504
174.315,464
174.340,411
174.365,345
174.390,272
174.415,201
174.440,133
174.465,62
174.490,-14
174.515,-91
174.540,-158
174.565,-219
174.590,-291
174.615,-385
174.640,-486
174.665,-544
174.690,-504
174.715,-347
174.740,-116
174.765,114
174.790,289
174.815,398
174.840,468
174.865,528
174.890,581
174.915,610
174.940,608
174.965,589
174.990,580
175.015,593
175.040,618
175.065,633
175.090,624
175.115,596
175.140,559
175.165,518
175.190,468
175.215,407
175.240,337
175.265,268
175.290,200
175.315,131
175.340,54
175.365,-26
175.390,-103
175.415,-171
175.440,-243
175.465,-331
175.490,-430
175.515,-497
175.540,-478
175.565,-346
175.590,-129
175.615,100
175.640,278
175.665,383
175.690,441
175.715,486
175.740,528
175.765,551
175.790,544
175.815,522
175.840,512
175.865,527
175.890,554
175.915,569
175.940,560
175.965,535
175.990,505
176.015,468
176.040,419
176.065,356
176.090,289
176.115,226
176.140,165
176.165,99
176.190,26
176.215,-43
176.240,-105
176.265,-171
176.290,-256
176.315,-353
176.340,-418
176.365,-393
176.390,-257
176.415,-44
176.440,172
176.465,335
176.490,433
176.515,491
176.540,535
176.565,570
176.590,584
176.615,572
176.640,551
176.665,542
176.690,553
176.715,570
176.740,575
176.765,561
176.790,534
176.815,503
176.840,468
176.865,420
176.890,353
176.915,275
176.940,201
176.965,134
176.990,68
177.015,-4
177.040,-81
177.065,-151
177.090,-213
177.115,-281
177.140,-370
177.165,-466
177.190,-520
177.215,-476
177.240,-316
177.265,-85
177.290,139
177.315,303
177.340,403
177.365,469
177.390,526
177.415,573
177.440,593
177.465,583
177.490,564
177.515,562
177.540,579
177.565,601
177.590,606
177.615,591
177.640,564
177.665,537
177.690,503
177.715,453
177.740,385
177.765,310
177.790,241
177.815,182
177.840,124
177.865,57
177.890,-16
177.915,-85
177.940,-145
177.965,-211
177.990,-297
178.015,-393
178.040,-453
178.065,-423
178.090,-279
178.115,-62
178.140,152
178.165,304
178.190,388
178.215,437
178.240,482
178.265,522
178.290,537
178.315,520
178.340,496
178.365,492
178.390,515
178.415,543
178.440,551
178.465,535
178.490,507
178.515,477
178.540,438
178.565,383
178.590,315
178.615,251
178.640,196
178.665,140
178.690,72
178.715,-5
178.740,-76
178.765,-136
178.790,-202
178.815,-290
178.840,-382
178.865,-420
178.890,-352
178.915,-177
178.940,45
178.965,242
178.990,372
179.015,447
179.040,501
179.065,549
179.090,584
179.115,591
179.140,575
179.165,556
179.190,553
179.215,568
179.240,586
179.265,589
179.290,571
179.315,537
179.340,496
179.365,451
179.390,401
179.415,341
179.440,274
179.465,206
179.490,140
179.515,74
179.540,2
179.565,-74
179.590,-147
179.615,-210
179.640,-270
179.665,-345
179.690,-439
179.715,-518
179.740,-524
179.765,-414
179.790,-205
179.815,35
179.840,235
179.865,363
179.890,439
179.915,499
179.940,557
179.965,601
179.990,615
180.015,605
180.040,594
180.065,599
180.090,619
180.115,638
180.140,640
180.165,622
180.190,591
180.215,554
180.240,513
180.265,462
180.290,399
180.315,329
180.340,258
180.365,191
180.390,125
180.415,55
180.440,-19
180.465,-90
180.490,-151
180.515,-210
180.540,-286
180.565,-388
180.590,-484
180.615,-514
180.640,-429
180.665,-234
180.690,6
180.715,213
180.740,344
180.765,415
180.790,464
180.815,512
180.840,548
180.865,554
180.890,534
180.915,514
180.940,517
180.965,541
180.990,563
181.015,566
181.040,549
181.065,524
181.090,496
181.115,459
181.140,403
181.165,334
181.190,265
181.215,205
181.240,149
181.265,84
181.290,10
181.315,-61
181.340,-123
181.365,-184
181.390,-264
181.415,-358
181.440,-427
181.465,-410
181.490,-277
181.515,-59
181.540,171
181.565,348
181.590,453
181.615,511
181.640,554
181.665,588
181.690,603
181.715,592
181.740,568
181.765,553
181.790,560
181.815,582
181.840,600
181.865,599
181.890,574
181.915,533
181.940,484
181.965,433
181.990,379
182.015,317
182.040,247
182.065,173
182.090,97
182.115,21
182.140,-54
182.165,-128
182.190,-198
182.215,-266
182.240,-343
182.265,-440
182.290,-541
182.315,-595
182.340,-548
182.365,-378
182.390,-130
182.415,117
182.440,301
182.465,412
182.490,480
182.515,539
182.540,592
182.565,624
182.590,629
182.615,621
182.640,621
182.665,636
182.690,658
182.715,669
182.740,662
182.765,640
182.790,609
182.815,568
182.840,514
182.865,446
182.890,370
182.915,295
182.940,223
182.965,152
182.990,76
183.015,-5
183.040,-88
183.065,-163
183.090,-234
183.115,-317
183.140,-418
183.165,-518
183.190,-560
183.215,-494
183.240,-310
183.265,-62
183.290,169
183.315,333
183.340,429
183.365,492
183.390,548
183.415,591
183.440,604
183.465,588
183.490,567
183.515,566
183.540,587
183.565,613
183.590,621
183.615,608
183.640,583
183.665,554
183.690,517
183.715,464
183.740,393
183.765,316
183.790,243
183.815,174
183.840,101
183.865,22
183.890,-56
183.915,-123
183.940,-184
183.965,-255
183.990,-352
184.015,-454
184.040,-511
184.065,-464
184.090,-297
184.115,-54
184.140,183
184.165,355
184.190,452
184.215,506
184.240,551
184.265,587
184.290,597
184.315,574
184.340,540
184.365,527
184.390,546
184.415,577
184.440,589
184.465,573
184.490,538
184.515,502
184.540,463
184.565,410
184.590,340
184.615,261
184.640,186
184.665,116
184.690,41
184.715,-40
184.740,-121
184.765,-191
184.790,-256
184.815,-337
184.840,-439
184.865,-524
184.890,-531
184.915,-415
184.940,-195
184.965,58
184.990,269
185.015,406
185.040,485
185.065,540
185.090,588
185.115,620
185.140,623
185.165,604
185.190,585
185.215,585
185.240,604
185.265,625
185.290,628
185.315,610
185.340,576
185.365,536
185.390,489
185.415,431
185.440,360
185.465,282
185.490,204
185.515,128
185.540,51
185.565,-29
185.590,-105
185.615,-172
185.640,-235
185.665,-313
185.690,-412
185.715,-510
185.740,-549
185.765,-476
185.790,-287
185.815,-35
185.840,199
185.865,365
185.890,462
185.915,521
185.940,569
185.965,606
185.990,618
186.015,603
186.040,582
186.065,578
186.090,594
186.115,617
186.140,624
186.165,609
186.190,579
186.215,542
186.240,501
186.265,450
186.290,386
186.315,313
186.340,241
186.365,172
186.390,101
186.415,23
186.440,-57
186.465,-130
186.490,-193
186.515,-258
186.540,-344
186.565,-444
186.590,-518
186.615,-500
186.640,-360
186.665,-126
186.690,121
186.715,311
186.740,421
186.765,480
186.790,525
186.815,563
186.840,575
186.865,553
186.890,517
186.915,503
186.940,522
186.965,556
186.990,574
187.015,563
187.040,535
187.065,505
187.090,471
187.115,423
187.140,358
187.165,286
187.190,221
187.215,163
187.240,100
187.265,26
187.290,-49
187.315,-115
187.340,-177
187.365,-254
187.390,-347
187.415,-421
187.440,-413
187.465,-288
187.490,-69
187.515,167
187.540,352
187.565,461
187.590,520
187.615,561
187.640,590
187.665,594
187.690,567
187.715,531
187.740,516
187.765,532
187.790,559
187.815,568
187.840,550
187.865,517
187.890,482
187.915,443
187.940,390
187.965,318
187.990,241
188.015,169
188.040,103
188.065,31
188.090,-49
188.115,-128
188.140,-197
188.165,-265
188.190,-351
188.215,-454
188.240,-530
188.265,-514
188.290,-373
188.315,-136
188.340,115
188.365,309
188.390,425
188.415,491
188.440,543
188.465,588
188.490,610
188.515,601
188.540,574
188.565,559
188.590,568
188.615,590
188.640,602
188.665,593
188.690,568
188.715,536
188.740,498
188.765,444
188.790,375
188.815,300
188.840,229
188.865,162
188.890,89
188.915,7
188.940,-74
188.965,-144
188.990,-210
189.015,-292
189.040,-397
189.065,-491
189.090,-510
189.115,-407
189.140,-194
189.165,56
189.190,264
189.215,393
189.240,462
189.265,512
189.290,558
189.315,588
189.340,586
189.365,559
189.390,536
189.415,540
189.440,565
189.465,589
189.490,590
189.515,569
189.540,537
189.565,500
189.590,453
189.615,391
189.640,319
189.665,248
189.690,182
189.715,113
189.740,36
189.765,-41
189.790,-110
189.815,-174
189.840,-251
189.865,-350
189.890,-444
189.915,-469
189.940,-376
189.965,-173
189.990,69
190.015,273
190.040,399
190.065,464
190.090,506
190.115,541
190.140,558
190.165,547
190.190,519
190.215,502
190.240,510
190.265,531
190.290,544
190.315,537
190.340,515
190.365,486
190.390,449
190.415,397
190.440,331
190.465,261
190.490,194
190.515,128
190.540,56
190.565,-21
190.590,-95
190.615,-165
190.640,-244
190.665,-341
190.690,-433
190.715,-464
190.740,-384
190.765,-191
190.790,53
190.815,271
190.840,416
190.865,498
190.890,550
190.915,591
190.940,614
190.965,605
190.990,573
191.015,546
191.040,545
191.065,566
191.090,585
191.115,583
191.140,560
191.165,525
191.190,483
191.215,429
191.240,360
191.265,282
191.290,206
191.315,136
191.340,64
191.365,-17
191.390,-102
191.415,-179
191.440,-246
191.465,-323
191.490,-423
191.515,-525
191.540,-570
191.565,-500
191.590,-305
191.615,-42
191.640,200
191.665,367
191.690,460
191.715,518
191.740,570
191.765,614
191.790,628
191.815,610
191.840,581
191.865,573
191.890,590
191.915,614
191.940,619
191.965,600
191.990,568
192.015,535
192.040,496
192.065,438
192.090,361
192.115,277
192.140,198
192.165,125
192.190,48
192.215,-34
192.240,-114
192.265,-185
192.290,-256
192.315,-346
192.340,-451
192.365,-530
192.390,-518
192.415,-379
192.440,-143
192.465,113
192.490,314
192.515,436
192.540,503
192.565,552
192.590,597
192.615,624
192.640,619
192.665,592
192.690,570
192.715,572
192.740,595
192.765,614
192.790,610
192.815,583
192.840,546
192.865,505
192.890,457
192.915,397
192.940,324
192.965,247
192.990,174
193.015,104
193.040,30
193.065,-48
193.090,-124
193.115,-191
193.140,-260
193.165,-345
193.190,-443
193.215,-514
193.240,-497
193.265,-359
193.290,-127
193.315,121
193.340,311
193.365,421
193.390,477
193.415,518
193.440,555
193.465,571
193.490,555
193.515,525
193.540,511
193.565,528
193.590,558
193.615,574
193.640,562
193.665,532
193.690,498
193.715,460
193.740,409
193.765,345
193.790,278
193.815,216
193.840,156
193.865,88
193.890,10
193.915,-64
193.940,-127
193.965,-188
193.990,-269
194.015,-366
194.040,-434
194.065,-411
194.090,-267
194.115,-39
194.140,191
194.165,361
194.190,457
194.215,512
194.240,556
194.265,590
194.290,597
194.315,572
194.340,538
194.365,522
194.390,533
194.415,553
194.440,558
194.465,542
194.490,515
194.515,484
194.540,443
194.565,385
194.590,310
194.615,234
194.640,164
194.665,97
194.690,22
194.715,-58
194.740,-135
194.765,-199
194.790,-265
194.815,-351
194.840,-453
194.865,-523
194.890,-498
194.915,-350
194.940,-113
194.965,131
194.990,319
195.015,431
195.040,495
195.065,544
195.090,585
195.115,605
195.140,597
195.165,575
195.190,563
195.215,573
195.240,591
195.265,600
195.290,590
195.315,565
195.340,533
195.365,494
195.390,440
195.415,372
195.440,297
195.465,225
195.490,155
195.515,80
195.540,1
195.565,-75
195.590,-144
195.615,-211
195.640,-293
195.665,-394
195.690,-480
195.715,-496
195.740,-398
195.765,-200
195.790,38
195.815,246
195.840,385
195.865,466
195.890,521
195.915,566
195.940,596
195.965,597
195.990,574
196.015,553
196.040,553
196.065,572
196.090,590
196.115,590
196.140,569
196.165,538
196.190,502
196.215,457
196.240,395
196.265,322
196.290,250
196.315,183
196.340,118
196.365,43
196.390,-36
196.415,-111
196.440,-174
196.465,-239
196.490,-324
196.515,-423
196.540,-489
196.565,-463
196.590,-319
196.615,-92
196.640,141
196.665,320
196.690,428
196.715,490
196.740,536
196.765,569
196.790,580
196.815,565
196.840,541
196.865,532
196.890,546
196.915,569
196.940,580
196.965,573
196.990,550
197.015,518
197.040,477
197.065,421
197.090,354
197.115,284
197.140,219
197.165,156
197.190,86
197.215,10
197.240,-61
197.265,-121
197.290,-178
197.315,-253
197.340,-350
197.365,-436
197.390,-449
197.415,-348
197.440,-145
197.465,90
197.490,285
197.515,406
197.540,471
197.565,514
197.590,548
197.615,563
197.640,548
197.665,518
197.690,499
197.715,509
197.740,536
197.765,553
197.790,545
197.815,516
197.840,478
197.865,435
197.890,384
197.915,324
197.940,258
197.965,192
197.990,124
198.015,50
198.040,-24
198.065,-94
198.090,-159
198.115,-233
198.140,-328
198.165,-423
198.190,-465
198.215,-396
198.240,-212
198.265,30
198.290,249
198.315,395
198.340,474
198.365,522
198.390,564
198.415,594
198.440,592
198.465,564
198.490,536
198.515,533
198.540,554
198.565,578
198.590,582
198.615,562
198.640,528
198.665,488
198.690,438
198.715,374
198.740,302
198.765,233
198.790,168
198.815,100
198.840,21
198.865,-62
198.890,-136
198.915,-200
198.940,-271
198.965,-367
198.990,-469
199.015,-522
199.040,-466
199.065,-289
199.090,-42
199.115,190
199.140,355
199.165,449
199.190,506
199.215,550
199.240,582
199.265,586
199.290,565
199.315,540
199.340,534
199.365,550
199.390,570
199.415,575
199.440,560
199.465,530
199.490,492
199.515,445
199.540,385
199.565,316
199.590,247
199.615,180
199.640,111
199.665,35
199.690,-39
199.715,-104
199.740,-163
199.765,-233
199.790,-330
199.815,-438
199.840,-502
199.865,-462
199.890,-298
199.915,-57
199.940,179
199.965,352
199.990,450
200.015,506
200.040,550
200.065,585
200.090,597
200.115,584
200.140,564
200.165,563
200.190,585
200.215,610
200.240,619
200.265,607
200.290,582
200.315,552
200.340,513
200.365,459
200.390,396
200.415,333
200.440,275
200.465,215
200.490,146
200.515,74
200.540,5
200.565,-63
200.590,-151
200.615,-269
200.640,-384
200.665,-431
200.690,-360
200.715,-183
200.740,30
200.765,201
200.790,300
200.815,351
200.840,391
200.865,430
200.890,450
200.915,439
200.940,412
200.965,397
200.990,411
201.015,440
201.040,458
201.065,455
201.090,435
201.115,409
201.140,376
201.165,332
201.190,277
201.215,215
201.240,151
201.265,83
201.290,10
201.315,-61
201.340,-128
201.365,-196
201.390,-280
201.415,-379
201.440,-453
201.465,-442
201.490,-309
201.515,-78
201.540,174
201.565,373
201.590,495
201.615,565
201.640,615
201.665,654
201.690,665
201.715,640
201.740,601
201.765,578
201.790,586
201.815,607
201.840,616
201.865,601
201.890,571
201.915,534
201.940,489
201.965,427
201.990,349
202.015,266
202.040,186
202.065,107
202.090,22
202.115,-67
202.140,-151
202.165,-224
202.190,-299
202.215,-394
202.240,-498
202.265,-565
202.290,-531
202.315,-376
202.340,-140
202.365,98
202.390,280
202.415,394
202.440,469
202.465,532
202.490,581
202.515,602
202.540,590
202.565,566
202.590,560
202.615,579
202.640,606
202.665,617
202.690,603
202.715,573
202.740,538
202.765,500
202.790,451
202.815,386
202.840,311
202.865,239
202.890,171
202.915,100
202.940,23
202.965,-54
202.990,-122
203.015,-185
203.040,-259
203.065,-357
203.090,-453
203.115,-490
203.140,-416
203.165,-230
203.190,8
203.215,221
203.240,364
203.265,446
203.290,503
203.315,554
203.340,589
203.365,593
203.390,572
203.415,555
203.440,561
203.465,585
203.490,602
203.515,595
203.540,567
203.565,534
203.590,498
203.615,452
203.640,388
203.665,313
203.690,242
203.715,177
203.740,109
203.765,30
203.790,-54
203.815,-131
203.840,-197
203.865,-265
203.890,-351
203.915,-440
203.940,-483
203.965,-428
203.990,-267
204.015,-47
204.040,161
204.065,311
204.090,402
204.115,465
204.140,521
204.165,566
204.190,585
204.215,575
204.240,557
204.265,556
204.290,575
204.315,599
204.340,605
204.365,589
204.390,560
204.415,530
204.440,496
204.465,446
204.490,374
204.515,291
204.540,215
204.565,151
204.590,91
204.615,22
204.640,-51
204.665,-119
204.690,-175
204.715,-233
204.740,-310
204.765,-397
204.790,-451
204.815,-416
204.840,-275
204.865,-68
204.890,132
204.915,275
204.940,359
204.965,414
204.990,466
205.015,511
205.040,534
205.065,530
205.090,518
205.115,521
205.140,544
205.165,570
205.190,582
205.215,574
205.240,557
205.265,536
205.290,507
205.315,460
205.340,394
205.365,323
205.390,259
205.415,202
205.440,141
205.465,71
205.490,0
205.515,-65
205.540,-125
205.565,-193
205.590,-278
205.615,-356
205.640,-377
205.665,-302
205.690,-137
205.715,61
205.740,230
205.765,339
205.790,399
205.815,440
205.840,475
205.865,493
205.890,486
205.915,465
205.940,453
205.965,462
205.990,484
206.015,498
206.040,492
206.065,471
206.090,442
206.115,405
206.140,358
206.165,302
206.190,245
206.215,190
206.240,134
206.265,72
206.290,7
206.315,-53
206.340,-108
206.365,-172
206.390,-252
206.415,-328
206.440,-354
206.465,-289
206.490,-135
206.515,57
206.540,227
206.565,341
206.590,409
206.615,459
206.640,506
206.665,542
206.690,553
206.715,543
206.740,529
206.765,528
206.790,540
206.815,550
206.840,545
206.865,524
206.890,496
206.915,463
206.940,423
206.965,371
206.990,311
207.015,251
207.040,196
207.065,143
207.090,84
207.115,17
207.140,-47
207.165,-106
207.190,-164
207.215,-234
207.240,-315
207.265,-376
207.290,-372
207.315,-275
207.340,-105
207.365,82
207.390,233
207.415,331
207.440,393
207.465,447
207.490,497
207.515,532
207.540,540
207.565,529
207.590,522
207.615,529
207.640,546
207.665,556
207.690,549
207.715,530
207.740,505
207.765,477
207.790,440
207.815,390
207.840,330
207.865,269
207.890,213
207.915,157
207.940,95
207.965,29
207.990,-33
208.015,-90
208.040,-148
208.065,-218
208.090,-298
208.115,-358
208.140,-356
208.165,-264
208.190,-100
208.215,83
208.240,231
208.265,323
208.290,379
208.315,424
208.340,466
208.365,492
208.390,493
208.415,478
208.440,472
208.465,487
208.490,512
208.515,526
208.540,519
208.565,497
208.590,469
208.615,437
208.640,396
208.665,344
208.690,288
208.715,234
208.740,179
208.765,118
208.790,52
208.815,-10
208.840,-67
208.865,-127
208.890,-202
208.915,-283
208.940,-336
208.965,-314
208.990,-201
209.015,-25
209.040,155
209.065,296
209.090,387
209.115,445
209.140,489
209.165,521
209.190,532
209.215,523
209.240,509
209.265,508
209.290,526
209.315,549
209.340,557
209.365,541
209.390,509
209.415,472
209.440,435
209.465,395
209.490,345
209.515,285
209.540,219
209.565,149
209.590,76
209.615,3
209.640,-64
209.665,-122
209.690,-178
209.715,-246
209.740,-333
209.765,-413
209.790,-437
209.815,-367
209.840,-207
209.865,-5
209.890,175
209.915,302
209.940,383
209.965,443
209.990,499
210.015,544
210.040,565
210.065,564
210.090,555
210.115,556
210.140,569
210.165,583
210.190,588
210.215,579
210.240,559
210.265,530
210.290,490
210.315,438
210.340,376
210.365,311
210.390,248
210.415,186
210.440,122
210.465,55
210.490,-12
210.515,-74
210.540,-131
210.565,-192
210.590,-269
210.615,-354
210.640,-412
210.665,-398
210.690,-286
210.715,-103
210.740,91
210.765,242
210.790,334
210.815,391
210.840,441
210.865,488
210.890,514
210.915,511
210.940,492
210.965,485
210.990,501
211.015,525
211.040,535
211.065,523
211.090,501
211.115,477
211.140,450
211.165,410
211.190,353
211.215,291
211.240,236
211.265,184
211.290,125
211.315,57
211.340,-11
211.365,-70
211.390,-128
211.415,-200
211.440,-283
211.465,-341
211.490,-323
211.515,-209
211.540,-27
211.565,162
211.590,308
211.615,400
211.640,456
211.665,499
211.690,532
211.715,547
211.740,540
211.765,524
211.790,517
211.815,526
211.840,543
211.865,551
211.890,541
211.915,516
211.940,483
211.965,448
211.990,406
212.015,352
212.040,288
212.065,223
212.090,163
212.115,104
212.140,41
212.165,-28
212.190,-97
212.215,-159
212.240,-220
212.265,-293
212.290,-377
212.315,-441
212.340,-437
212.365,-332
212.390,-145
212.415,64
212.440,235
212.465,347
212.490,416
212.515,472
212.540,522
212.565,557
212.590,565
212.615,554
212.640,545
212.665,551
212.690,569
212.715,583
212.740,582
212.765,567
212.790,542
212.815,509
212.840,466
212.865,412
212.890,350
212.915,287
212.940,225
212.965,160
212.990,92
213.015,22
213.040,-42
213.065,-102
213.090,-166
213.115,-245
213.140,-337
213.165,-413
213.190,-428
213.215,-348
213.240,-179
213.265,28
213.290,210
213.315,333
213.340,401
213.365,446
213.390,486
213.415,519
213.440,529
213.465,516
213.490,502
213.515,505
213.540,527
213.565,550
213.590,554
213.615,537
213.640,508
213.665,475
213.690,434
213.715,381
213.740,319
213.765,258
213.790,202
213.815,145
213.840,81
213.865,12
213.890,-52
213.915,-111
213.940,-178
213.965,-259
213.990,-334
214.015,-354
214.040,-275
214.065,-104
214.090,104
214.115,282
214.140,394
214.165,453
214.190,493
214.215,528
214.240,547
214.265,539
214.290,513
214.315,494
214.340,499
214.365,521
214.390,537
214.415,531
214.440,505
214.465,471
214.490,429
214.515,378
214.540,316
214.565,250
214.590,185
214.615,120
214.640,49
214.665,-26
214.690,-99
214.715,-164
214.740,-233
214.765,-318
214.790,-408
214.815,-456
214.840,-410
214.865,-255
214.890,-36
214.915,174
214.940,323
214.965,411
214.990,469
215.015,522
215.040,563
215.065,576
215.090,560
215.115,538
215.140,533
215.165,549
215.190,569
215.215,572
215.240,555
215.265,527
215.290,493
215.315,448
215.340,388
215.365,319
215.390,250
215.415,186
215.440,119
215.465,45
215.490,-33
215.515,-105
215.540,-171
215.565,-247
215.590,-339
215.615,-423
215.640,-445
215.665,-360
215.690,-174
215.715,51
215.740,244
215.765,367
215.790,434
215.815,482
215.840,527
215.865,559
215.890,564
215.915,545
215.940,527
215.965,525
215.990,537
216.015,549
216.040,549
216.065,536
216.090,515
216.115,482
216.140,432
216.165,367
216.190,297
216.215,230
216.240,165
216.265,96
216.290,24
216.315,-43
216.340,-107
216.365,-177
216.390,-267
216.415,-359
216.440,-406
216.465,-355
216.490,-196
216.515,20
216.540,222
216.565,359
216.590,436
216.615,483
216.640,522
216.665,547
216.690,544
216.715,517
216.740,490
216.765,485
216.790,502
216.815,520
216.840,521
216.865,502
216.890,470
216.915,430
216.940,380
216.965,319
216.990,253
217.015,186
217.040,121
217.065,51
217.090,-20
217.115,-90
217.140,-159
217.165,-237
217.190,-331
217.215,-419
217.240,-452
217.265,-384
217.290,-212
217.315,11
217.340,214
217.365,352
217.390,434
217.415,491
217.440,543
217.465,582
217.490,590
217.515,570
217.540,548
217.565,546
217.590,563
217.615,578
217.640,575
217.665,554
217.690,524
217.715,488
217.740,441
217.765,379
217.790,309
217.815,242
217.840,181
217.865,116
217.890,41
217.915,-39
217.940,-112
217.965,-178
217.990,-252
218.015,-344
218.040,-432
218.065,-460
218.090,-382
218.115,-199
218.140,27
218.165,224
218.190,350
218.215,418
218.240,466
218.265,511
218.290,545
218.315,549
218.340,530
218.365,511
218.390,514
218.415,534
218.440,551
218.465,548
218.490,528
218.515,500
218.540,466
218.565,422
218.590,365
218.615,299
218.640,234
218.665,173
218.690,109
218.715,40
218.740,-27
218.765,-89
218.790,-152
218.815,-230
218.840,-318
218.865,-378
218.890,-355
218.915,-228
218.940,-27
218.965,175
218.990,323
219.015,408
219.040,459
219.065,503
219.090,537
219.115,545
219.140,524
219.165,498
219.190,492
219.215,510
219.240,532
219.265,534
219.290,514
219.315,482
219.340,446
219.365,403
219.390,348
219.415,283
219.440,218
219.465,155
219.490,88
219.515,16
219.540,-54
219.565,-117
219.590,-177
219.615,-253
219.640,-348
219.665,-430
219.690,-440
219.715,-341
219.740,-152
219.765,64
219.790,242
219.815,360
219.840,435
219.865,495
219.890,548
219.915,580
219.940,581
219.965,563
219.990,548
220.015,552
220.040,572
220.065,588
220.090,588
220.115,568
220.140,536
220.165,497
220.190,450
220.215,393
220.240,326
220.265,258
220.290,192
220.315,127
220.340,60
220.365,-10
220.390,-77
220.415,-136
220.440,-195
220.465,-271
220.490,-365
220.515,-446
220.540,-463
220.565,-378
220.590,-199
220.615,15
220.640,200
220.665,323
220.690,397
220.715,454
220.740,507
220.765,547
220.790,559
220.815,547
220.840,533
220.865,537
220.890,558
220.915,578
220.940,581
220.965,564
220.990,538
221.015,507
221.040,471
221.065,423
221.090,362
221.115,297
221.140,237
221.165,182
221.190,125
221.215,60
221.240,-7
221.265,-70
221.290,-126
221.315,-191
221.340,-274
221.365,-361
221.390,-404
221.415,-355
221.440,-207
221.465,-4
221.490,185
221.515,317
221.540,393
221.565,442
221.590,488
221.615,527
221.640,542
221.665,531
221.690,516
221.715,518
221.740,539
221.765,560
221.790,562
221.815,542
221.840,510
221.865,475
221.890,436
221.915,386
221.940,324
221.965,260
221.990,200
222.015,144
222.040,81
222.065,10
222.090,-60
222.115,-122
222.140,-179
222.165,-249
222.190,-337
222.215,-420
222.240,-445
222.265,-371
222.290,-200
222.315,12
222.340,201
222.365,330
222.390,408
222.415,465
222.440,520
222.465,563
222.490,579
222.515,567
222.540,549
222.565,547
222.590,564
222.615,586
222.640,594
222.665,581
222.690,554
222.715,522
222.740,484
222.765,434
222.790,371
222.815,301
222.840,234
222.865,173
222.890,112
222.915,43
222.940,-31
222.965,-102
222.990,-164
223.015,-227
223.040,-305
223.065,-394
223.090,-455
223.115,-438
223.140,-318
223.165,-119
223.190,95
223.215,267
223.240,375
223.265,439
223.290,487
223.315,529
223.340,556
223.365,560
223.390,550
223.415,546
223.440,557
223.465,577
223.490,589
223.515,583
223.540,562
223.565,535
223.590,501
223.615,456
223.640,398
223.665,333
223.690,270
223.715,213
223.740,157
223.765,93
223.790,22
223.815,-47
223.840,-107
223.865,-167
223.890,-245
223.915,-340
223.940,-419
223.965,-426
223.990,-323
224.015,-131
224.040,85
224.065,256
224.090,359
224.115,415
224.140,460
224.165,502
224.190,525
224.215,518
224.240,495
224.265,486
224.290,501
224.315,526
224.340,538
224.365,526
224.390,501
224.415,472
224.440,436
224.465,387
224.490,325
224.515,262
224.540,205
224.565,148
224.590,83
224.615,12
224.640,-55
224.665,-116
224.690,-182
224.715,-267
224.740,-355
224.765,-396
224.790,-341
224.815,-183
224.840,26
224.865,219
224.890,353
224.915,434
224.940,489
224.965,537
224.990,570
225.015,574
225.040,554
225.065,532
225.090,531
225.115,550
225.140,568
225.165,566
225.190,543
225.215,509
225.240,473
225.265,433
225.290,382
225.315,321
225.340,256
225.365,195
225.390,134
225.415,66
225.440,-9
225.465,-84
225.490,-147
225.515,-207
225.540,-282
225.565,-378
225.590,-462
225.615,-478
225.640,-388
225.665,-203
225.690,18
225.715,210
225.740,341
225.765,423
225.790,483
225.815,535
225.840,572
225.865,583
225.890,575
225.915,565
225.940,569
225.965,586
225.990,601
226.015,599
226.040,578
226.065,546
226.090,510
226.115,471
226.140,421
226.165,360
226.190,292
226.215,226
226.240,165
226.265,102
226.290,32
226.315,-41
226.340,-109
226.365,-171
226.390,-239
226.415,-325
226.440,-417
226.465,-467
226.490,-427
226.515,-282
226.540,-72
226.565,133
226.590,285
226.615,379
226.640,441
226.665,494
226.690,537
226.715,557
226.740,552
226.765,539
226.790,538
226.815,554
226.840,577
226.865,588
226.890,580
226.915,557
226.940,528
226.965,493
226.990,450
227.015,396
227.040,331
227.065,265
227.090,201
227.115,140
227.140,77
227.165,11
227.190,-50
227.215,-107
227.240,-164
227.265,-238
227.290,-330
227.315,-409
227.340,-423
227.365,-331
227.390,-144
227.415,77
227.440,261
227.465,374
227.490,432
227.515,472
227.540,513
227.565,544
227.590,549
227.615,532
227.640,517
227.665,522
227.690,544
227.715,561
227.740,556
227.765,534
227.790,504
227.815,473
227.840,432
227.865,375
227.890,308
227.915,244
227.940,189
227.965,133
227.990,66
228.015,-11
228.040,-86
228.065,-147
228.090,-205
228.115,-279
228.140,-375
228.165,-456
228.190,-466
228.215,-366
228.240,-172
228.265,50
228.290,236
228.315,357
228.340,430
228.365,486
228.390,539
228.415,578
228.440,590
228.465,580
228.490,567
228.515,569
228.540,587
228.565,605
228.590,606
228.615,586
228.640,552
228.665,512
228.690,469
228.715,417
228.740,356
228.765,288
228.790,219
228.815,153
228.840,85
228.865,14
228.890,-56
228.915,-122
228.940,-186
228.965,-260
228.990,-352
229.015,-441
229.040,-479
229.065,-421
229.090,-257
229.115,-36
229.140,172
229.165,321
229.190,411
229.215,471
229.240,523
229.265,566
229.290,585
229.315,577
229.340,561
229.365,559
229.390,573
229.415,591
229.440,595
229.465,580
229.490,553
229.515,520
229.540,480
229.565,427
229.590,362
229.615,294
229.640,230
229.665,168
229.690,103
229.715,30
229.740,-43
229.765,-110
229.790,-172
229.815,-241
229.840,-328
229.865,-418
229.890,-465
229.915,-418
229.940,-263
229.965,-40
229.990,176
230.015,332
230.040,418
230.065,466
230.090,503
230.115,535
230.140,547
230.165,534
230.190,515
230.215,514
230.240,535
230.265,561
230.290,568
230.315,551
230.340,520
230.365,486
230.390,446
230.415,393
230.440,331
230.465,266
230.490,206
230.515,146
230.540,80
230.565,8
230.590,-58
230.615,-118
230.640,-185
230.665,-269
230.690,-353
230.715,-388
230.740,-324
230.765,-158
230.790,59
230.815,254
230.840,385
230.865,458
230.890,507
230.915,546
230.940,566
230.965,555
230.990,522
231.015,497
231.040,501
231.065,526
231.090,544
231.115,538
231.140,512
231.165,478
231.190,441
231.215,394
231.240,330
231.265,258
231.290,188
231.315,124
231.340,59
231.365,-14
231.390,-89
231.415,-157
231.440,-222
231.465,-302
231.490,-399
231.515,-483
231.540,-492
231.565,-386
231.590,-179
231.615,59
231.640,256
231.665,380
231.690,451
231.715,505
231.740,558
231.765,596
231.790,602
231.815,582
231.840,562
231.865,564
231.890,584
231.915,601
231.940,596
231.965,569
231.990,534
232.015,498
232.040,455
232.065,396
232.090,323
232.115,248
232.140,177
232.165,108
232.190,35
232.215,-39
232.240,-109
232.265,-173
232.290,-245
232.315,-338
232.340,-433
232.365,-477
232.390,-418
232.415,-249
232.440,-20
232.465,192
232.490,339
232.515,424
232.540,479
232.565,529
232.590,569
232.615,582
232.640,569
232.665,549
232.690,547
232.715,564
232.740,585
232.765,591
232.790,578
232.815,552
232.840,519
232.865,475
232.890,417
232.915,348
232.940,280
232.965,219
232.990,159
233.015,92
233.040,18
233.065,-51
233.090,-110
233.115,-169
233.140,-246
233.165,-343
233.190,-425
233.215,-436
233.240,-337
233.265,-145
233.290,78
233.315,265
233.340,384
233.365,447
233.390,490
233.415,526
233.440,549
233.465,546
233.490,522
233.515,502
233.540,505
233.565,528
233.590,548
233.615,545
233.640,518
233.665,483
233.690,447
233.715,407
233.740,354
233.765,289
233.790,220
233.815,155
233.840,90
233.865,19
233.890,-54
233.915,-121
233.940,-180
233.965,-243
233.990,-327
234.015,-422
234.040,-479
234.065,-443
234.090,-294
234.115,-72
234.140,149
234.165,315
234.190,418
234.215,483
234.240,537
234.265,580
234.290,601
234.315,594
234.340,577
234.365,571
234.390,583
234.415,604
234.440,613
234.465,603
234.490,577
234.515,541
234.540,499
234.565,448
234.590,385
234.615,315
234.640,244
234.665,176
234.690,109
234.715,36
234.740,-38
234.765,-108
234.790,-173
234.815,-240
234.840,-324
234.865,-419
234.890,-489
234.915,-480
234.940,-361
234.965,-154
234.990,74
235.015,261
235.040,382
235.065,458
235.090,517
235.115,569
235.140,598
235.165,597
235.190,577
235.215,566
235.240,578
235.265,602
235.290,617
235.315,609
235.340,583
235.365,550
235.390,515
235.415,471
235.440,412
235.465,342
235.490,272
235.515,209
235.540,148
235.565,81
235.590,6
235.615,-65
235.640,-129
235.665,-186
235.690,-255
235.715,-343
235.740,-433
235.765,-473
235.790,-414
235.815,-247
235.840,-18
235.865,194
235.890,340
235.915,417
235.940,461
235.965,500
235.990,533
236.015,540
236.040,521
236.065,496
236.090,493
236.115,516
236.140,543
236.165,550
236.190,533
236.215,503
236.240,471
236.265,434
236.290,383
236.315,319
236.340,255
236.365,196
236.390,138
236.415,75
236.440,8
236.465,-55
236.490,-117
236.515,-188
236.540,-275
236.565,-358
236.590,-386
236.615,-313
236.640,-140
236.665,77
236.690,272
236.715,401
236.740,474
236.765,518
236.790,553
236.815,571
236.840,562
236.865,536
236.890,516
236.915,520
236.940,543
236.965,561
236.990,555
237.015,529
237.040,494
237.065,456
237.090,410
237.115,349
237.140,278
237.165,209
237.190,147
237.215,85
237.240,12
237.265,-66
237.290,-139
237.315,-202
237.340,-267
237.365,-350
237.390,-441
237.415,-493
237.440,-453
237.465,-301
237.490,-76
237.515,149
237.540,321
237.565,426
237.590,489
237.615,538
237.640,576
237.665,593
237.690,587
237.715,572
237.740,568
237.765,582
237.790,603
237.815,612
237.840,599
237.865,571
237.890,536
237.915,496
237.940,446
237.965,383
237.990,311
238.015,239
238.040,171
238.065,103
238.090,31
238.115,-40
238.140,-106
238.165,-168
238.190,-239
238.215,-331
238.240,-431
238.265,-491
238.290,-458
238.315,-312
238.340,-89
238.365,137
238.390,309
238.415,411
238.440,469
238.465,513
238.490,549
238.515,566
238.540,558
238.565,540
238.590,536
238.615,556
238.640,584
238.665,597
238.690,585
238.715,556
238.740,523
238.765,486
238.790,438
238.815,374
238.840,302
238.865,234
238.890,174
238.915,113
238.940,43
238.965,-30
238.990,-98
239.015,-162
239.040,-238
239.065,-332
239.090,-414
239.115,-428
239.140,-330
239.165,-133
239.190,95
239.215,281
239.240,394
239.265,455
239.290,499
239.315,538
239.340,556
239.365,541
239.390,509
239.415,491
239.440,500
239.465,524
239.490,537
239.515,529
239.540,505
239.565,472
239.590,428
239.615,367
239.640,296
239.665,227
239.690,167
239.715,108
239.740,37
239.765,-40
239.790,-113
239.815,-179
239.840,-252
239.865,-346
239.890,-439
239.915,-472
239.940,-394
239.965,-207
239.990,29
240.015,236
240.040,373
240.065,454
240.090,513
240.115,566
240.140,602
240.165,606
240.190,584
240.215,563
240.240,561
240.265,576
240.290,589
240.315,586
240.340,567
240.365,540
240.390,504
240.415,453
240.440,386
240.465,312
240.490,244
240.515,182
240.540,119
240.565,44
240.590,-35
240.615,-110
240.640,-175
240.665,-246
240.690,-340
240.715,-443
240.740,-507
240.765,-475
240.790,-327
240.815,-101
240.840,126
240.865,300
240.890,408
240.915,478
240.940,536
240.965,585
240.990,612
241.015,608
241.040,587
241.065,573
241.090,581
241.115,602
241.140,617
241.165,612
241.190,588
241.215,553
241.240,513
241.265,465
241.290,404
241.315,332
241.340,258
241.365,186
241.390,116
241.415,43
241.440,-31
241.465,-101
241.490,-164
241.515,-232
241.540,-318
241.565,-417
241.590,-489
241.615,-477
241.640,-351
241.665,-136
241.690,95
241.715,273
241.740,378
241.765,435
241.790,480
241.815,521
241.840,543
241.865,534
241.890,512
241.915,503
241.940,520
241.965,546
241.990,558
242.015,546
242.040,519
242.065,487
242.090,449
242.115,397
242.140,331
242.165,266
242.190,210
242.215,155
242.240,90
242.265,14
242.290,-58
242.315,-118
242.340,-177
242.365,-254
242.390,-347
242.415,-409
242.440,-384
242.465,-248
242.490,-35
242.515,180
242.540,343
242.565,440
242.590,499
242.615,543
242.640,575
242.665,583
242.690,567
242.715,544
242.740,536
242.765,550
242.790,571
242.815,581
242.840,571
242.865,544
242.890,509
242.915,466
242.940,412
242.965,344
242.990,271
243.015,202
243.040,138
243.065,72
243.090,0
243.115,-76
243.140,-146
243.165,-207
243.190,-277
243.215,-369
243.240,-468
243.265,-523
243.290,-479
243.315,-318
243.340,-85
243.365,143
243.390,311
243.415,412
243.440,476
243.465,529
243.490,575
243.515,599
243.540,595
243.565,579
243.590,573
243.615,586
243.640,608
243.665,620
243.690,613
243.715,588
243.740,551
243.765,507
243.790,455
243.815,394
243.840,328
243.865,261
243.890,196
243.915,131
243.940,61
243.965,-12
243.990,-84
244.015,-152
244.040,-221
244.065,-302
244.090,-394
244.115,-468
244.140,-473
244.165,-371
244.190,-172
244.215,62
244.240,259
244.265,382
244.290,445
244.315,487
244.340,528
244.365,558
244.390,558
244.415,534
244.440,513
244.465,517
244.490,542
244.515,563
244.540,561
244.565,539
244.590,510
244.615,476
244.640,432
244.665,371
244.690,303
244.715,240
244.740,182
244.765,119
244.790,46
244.815,-27
244.840,-91
244.865,-153
244.890,-231
244.915,-332
244.940,-421
244.965,-436
244.990,-334
245.015,-133
245.040,98
245.065,290
245.090,412
245.115,485
245.140,538
245.165,580
245.190,600
245.215,587
245.240,558
245.265,539
245.290,548
245.315,575
245.340,593
245.365,588
245.390,559
245.415,520
245.440,476
245.465,424
245.490,360
245.515,287
245.540,214
245.565,146
245.590,78
245.615,3
245.640,-75
245.665,-150
245.690,-217
245.715,-287
245.740,-377
245.765,-479
245.790,-548
245.815,-525
245.840,-380
245.865,-144
245.890,106
245.915,302
245.940,422
245.965,492
245.990,547
246.015,596
246.040,624
246.065,620
246.090,596
246.115,580
246.140,589
246.165,613
246.190,629
246.215,622
246.240,595
246.265,559
246.290,517
246.315,463
246.340,398
246.365,326
246.390,256
246.415,188
246.440,114
246.465,30
246.490,-53
246.515,-127
246.540,-194
246.565,-271
246.590,-370
246.615,-470
246.640,-515
246.665,-451
246.690,-272
246.715,-31
246.740,190
246.765,345
246.790,432
246.815,487
246.840,533
246.865,566
246.890,572
246.915,551
246.940,528
246.965,525
246.990,542
247.015,563
247.040,567
247.065,552
247.090,523
247.115,484
247.140,430
247.165,364
247.190,294
247.215,228
247.240,168
247.265,103
247.290,31
247.315,-40
247.340,-109
247.365,-182
247.390,-274
247.415,-373
247.440,-433
247.465,-395
247.490,-239
247.515,-8
247.540,215
247.565,375
247.590,464
247.615,517
247.640,560
247.665,589
247.690,588
247.715,559
247.740,527
247.765,518
247.790,534
247.815,553
247.840,554
247.865,534
247.890,502
247.915,463
247.940,412
247.965,344
247.990,267
248.015,192
248.040,122
248.065,50
248.090,-29
248.115,-110
248.140,-184
248.165,-255
248.190,-339
248.215,-440
248.240,-524
248.265,-531
248.290,-414
248.315,-191
248.340,67
248.365,281
248.390,418
248.415,495
248.440,552
248.465,602
248.490,632
248.515,631
248.540,608
248.565,591
248.590,599
248.615,621
248.640,633
248.665,621
248.690,588
248.715,548
248.740,501
248.765,444
248.790,372
248.815,294
248.840,220
248.865,149
248.890,75
248.915,-4
248.940,-84
248.965,-156
248.990,-228
249.015,-317
249.040,-419
249.065,-497
249.090,-492
249.115,-371
249.140,-157
249.165,75
249.190,259
249.215,374
249.240,443
249.265,498
249.290,545
249.315,572
249.340,567
249.365,546
249.390,535
249.415,547
249.440,569
249.465,581
249.490,573
249.515,549
249.540,518
249.565,479
249.590,426
249.615,360
249.640,290
249.665,224
249.690,159
249.715,87
249.740,9
249.765,-66
249.790,-134
249.815,-205
249.840,-294
249.865,-391
249.890,-448
249.915,-405
249.940,-244
249.965,-11
249.990,211
250.015,364
250.040,443
250.065,486
250.090,520
250.115,544
250.140,543
250.165,518
250.190,492
250.215,490
250.240,508
250.265,526
250.290,525
250.315,504
250.340,473
250.365,436
250.390,389
250.415,329
250.440,263
250.465,200
250.490,138
250.515,72
250.540,0
250.565,-71
250.590,-135
250.615,-204
250.640,-291
250.665,-387
250.690,-443
250.715,-400
250.740,-239
250.765,-6
250.790,219
250.815,378
250.840,467
250.865,519
250.890,565
250.915,600
250.940,608
250.965,586
250.990,556
251.015,545
251.040,560
251.065,581
251.090,584
251.115,563
251.140,527
251.165,487
251.190,443
251.215,388
251.240,320
251.265,248
251.290,180
251.315,115
251.340,46
251.365,-28
251.390,-101
251.415,-165
251.440,-228
251.465,-310
251.490,-414
251.515,-508
251.540,-528
251.565,-428
251.590,-220
251.615,29
251.640,243
251.665,383
251.690,462
251.715,516
251.740,566
251.765,603
251.790,612
251.815,594
251.840,574
251.865,574
251.890,593
251.915,612
251.940,612
251.965,591
251.990,557
252.015,519
252.040,475
252.065,419
252.090,350
252.115,277
252.140,209
252.165,144
252.190,75
252.215,-1
252.240,-77
252.265,-143
252.290,-202
252.315,-272
252.340,-367
252.365,-467
252.390,-516
252.415,-459
252.440,-284
252.465,-42
252.490,185
252.515,345
252.540,434
252.565,484
252.590,526
252.615,561
252.640,575
252.665,563
252.690,541
252.715,534
252.740,548
252.765,570
252.790,578
252.815,562
252.840,529
252.865,491
252.890,450
252.915,398
252.940,333
252.965,260
252.990,192
253.015,134
253.040,81
253.065,25
253.090,-32
253.115,-89
253.140,-146
253.165,-217
253.190,-311
253.215,-401
253.240,-432
253.265,-353
253.290,-162
253.315,79
253.340,289
253.365,422
253.390,490
253.415,530
253.440,565
253.465,582
253.490,568
253.515,532
253.540,507
253.565,513
253.590,540
253.615,560
253.640,553
253.665,521
253.690,480
253.715,434
253.740,380
253.765,316
253.790,246
253.815,176
253.840,106
253.865,32
253.890,-42
253.915,-113
253.940,-184
253.965,-266
253.990,-360
254.015,-433
254.040,-429
254.065,-308
254.090,-93
254.115,143
254.140,329
254.165,442
254.190,506
254.215,555
254.240,595
254.265,609
254.290,589
254.315,558
254.340,543
254.365,556
254.390,577
254.415,582
254.440,564
254.465,534
254.490,498
254.515,453
254.540,393
254.565,321
254.590,249
254.615,183
254.640,114
254.665,35
254.690,-46
254.715,-121
254.740,-186
254.765,-261
254.790,-360
254.815,-461
254.840,-504
254.865,-434
254.890,-248
254.915,-9
254.940,201
254.965,338
254.990,414
255.015,467
255.040,517
255.065,552
255.090,553
255.115,527
255.140,502
255.165,503
255.190,525
255.215,545
255.240,544
255.265,523
255.290,492
255.315,456
255.340,407
255.365,344
255.390,275
255.415,210
255.440,150
255.465,86
255.490,13
255.515,-58
255.540,-123
255.565,-187
255.590,-268
255.615,-363
255.640,-427
255.665,-401
255.690,-256
255.715,-31
255.740,192
255.765,351
255.790,438
255.815,486
255.840,526
255.865,556
255.890,560
255.915,535
255.940,505
255.965,496
255.990,510
256.015,529
256.040,533
256.065,516
256.090,483
256.115,439
256.140,386
256.165,325
256.190,263
256.215,204
256.240,143
256.265,76
256.290,6
256.315,-60
256.340,-127
256.365,-206
256.390,-299
256.415,-374
256.440,-375
256.465,-264
256.490,-62
256.515,160
256.540,337
256.565,446
256.590,513
256.615,569
256.640,616
256.665,634
256.690,618
256.715,591
256.740,582
256.765,598
256.790,618
256.815,616
256.840,587
256.865,545
256.890,500
256.915,446
256.940,376
256.965,293
256.990,209
257.015,130
257.040,51
257.065,-32
257.090,-119
257.115,-196
257.140,-265
257.165,-347
257.190,-459
257.215,-580
257.240,-653
257.265,-618
257.290,-468
257.315,-255
257.340,-56
257.365,82
257.390,164
257.415,220
257.440,268
257.465,302
257.490,308
257.515,288
257.540,264
257.565,255
257.590,264
257.615,274
257.640,270
257.665,249
257.690,220
257.715,189
257.740,152
257.765,103
257.790,44
257.815,-12
257.840,-60
257.865,-103
257.890,-150
257.915,-199
257.940,-239
257.965,-262
257.990,-282
258.015,-319
258.040,-372
258.065,-399
258.090,-341
258.115,-161
258.140,116
258.165,423
258.190,696
258.215,909
258.240,1081
258.265,1240
258.290,1395
258.315,1538
258.340,1657
258.365,1757
258.390,1861
258.415,1984
258.440,2124
258.465,2255
258.490,2349
258.515,2384
258.540,2350
258.565,2243
258.590,2050
258.615,1757
258.640,1361
258.665,886
258.690,380
258.715,-105
258.740,-536
258.765,-895
258.790,-1174
258.815,-1366
258.840,-1484
258.865,-1566
258.890,-1659
258.915,-1777
258.940,-1875
258.965,-1881
258.990,-1757
259.015,-1536
259.040,-1303
259.065,-1120
259.090,-986
259.115,-861
259.140,-712
259.165,-554
259.190,-419
259.215,-314
259.240,-207
259.265,-60
259.290,127
259.315,320
259.340,479
259.365,594
259.390,684
259.415,765
259.440,836
259.465,883
259.490,904
259.515,914
259.540,926
259.565,929
259.590,899
259.615,823
259.640,721
259.665,623
259.690,541
259.715,459
259.740,364
259.765,277
259.790,261
