df_hash,22ZHK4.XSPGQY
device,HZ2X61
project_hash,29R7
project_name,istanbul_aydin_university
person_hash,29R7.Y4L3
person_label,V125
date_time_start,2026-04-07_16-37-59.228000_+03
date_time_start_unix,1775561879.228
date_time_end,2026-04-07_16-45-15.946000_+03
length_difference_noticed,no

time,ppg_ir,ppg_ambient,ppg_red
-55.302,278776,170,188238
-55.297,278810,169,188263
-55.292,278818,168,188246
-55.287,278848,168,188258
-55.282,278847,170,188263
-55.277,278865,169,188281
-55.272,278896,168,188275
-55.267,278945,168,188304
-55.262,278923,168,188293
-55.257,278977,168,188310
-55.252,279007,169,188308
-55.247,279014,168,188345
-55.242,279045,168,188337
-55.237,279075,168,188342
-55.232,279113,170,188359
-55.227,279112,169,188368
-55.222,279139,168,188404
-55.217,279180,168,188397
-55.212,279219,171,188401
-55.207,279242,168,188431
-55.202,279277,168,188448
-55.197,279294,170,188459
-55.192,279336,169,188455
-55.187,279368,168,188464
-55.182,279398,168,188471
-55.177,279421,171,188478
-55.172,279428,169,188474
-55.168,279450,169,188472
-55.163,279470,168,188497
-55.158,279503,169,188500
-55.153,279532,168,188504
-55.148,279538,168,188509
-55.143,279566,168,188520
-55.138,279591,168,188509
-55.133,279614,170,188525
-55.128,279646,169,188542
-55.123,279676,169,188552
-55.118,279663,168,188559
-55.113,279708,168,188563
-55.108,279741,169,188565
-55.103,279753,169,188571
-55.098,279783,168,188577
-55.093,279804,168,188558
-55.088,279797,171,188571
-55.083,279826,170,188556
-55.078,279832,169,188573
-55.073,279879,168,188582
-55.068,279886,168,188586
-55.063,279930,171,188609
-55.058,279943,169,188614
-55.053,279959,168,188605
-55.048,279995,168,188610
-55.043,280006,170,188623
-55.038,280091,169,188635
-55.033,280110,168,188670
-55.029,280132,168,188676
-55.024,280170,168,188684
-55.019,280230,170,188719
-55.014,280272,171,188774
-55.009,280314,170,188748
-55.004,280311,169,188772
-54.999,280344,169,188780
-54.994,280357,168,188762
-54.989,280307,168,188741
-54.984,280262,168,188703
-54.979,280199,168,188637
-54.974,280096,170,188610
-54.969,279998,169,188582
-54.964,279828,171,188515
-54.959,279777,170,188468
-54.954,279651,169,188457
-54.949,279536,168,188418
-54.944,279436,168,188391
-54.939,279342,168,188358
-54.934,279264,168,188329
-54.929,279162,170,188320
-54.924,279085,169,188285
-54.919,278986,169,188228
-54.914,278883,170,188185
-54.909,278802,169,188155
-54.904,278720,169,188105
-54.899,278663,168,188083
-54.895,278592,168,188071
-54.890,278527,168,188046
-54.885,278474,170,188027
-54.880,278437,169,187993
-54.875,278391,168,187982
-54.870,278349,168,187975
-54.865,278325,168,187959
-54.860,278263,168,187933
-54.855,278228,168,187921
-54.850,278161,170,187903
-54.845,278135,169,187904
-54.840,278144,168,187881
-54.835,278093,168,187877
-54.830,278058,170,187870
-54.825,278039,170,187848
-54.820,278024,169,187864
-54.815,278010,168,187837
-54.810,277969,168,187863
-54.805,277950,168,187858
-54.800,277910,168,187833
-54.795,277891,168,187836
-54.790,277904,170,187814
-54.785,277860,169,187808
-54.780,277829,169,187799
-54.775,277811,168,187784
-54.770,277792,168,187782
-54.765,277804,168,187786
-54.761,277815,168,187813
-54.756,277825,168,187826
-54.751,277871,171,187858
-54.746,277890,169,187882
-54.741,277928,169,187915
-54.736,277975,168,187916
-54.731,277983,168,187940
-54.726,277990,168,187923
-54.721,277973,168,187926
-54.716,277979,168,187909
-54.711,277957,168,187895
-54.706,277952,170,187888
-54.701,277950,169,187864
-54.696,277930,169,187861
-54.691,277898,168,187848
-54.686,277913,168,187842
-54.681,277928,168,187859
-54.676,277898,170,187847
-54.671,277911,168,187853
-54.666,277925,170,187850
-54.661,277909,169,187859
-54.656,277894,168,187871
-54.651,277894,168,187847
-54.646,277868,168,187822
-54.641,277874,170,187807
-54.636,277840,169,187792
-54.631,277824,168,187782
-54.627,277817,168,187745
-54.622,277776,168,187734
-54.617,277748,168,187712
-54.612,277763,170,187709
-54.607,277774,168,187699
-54.602,277734,168,187708
-54.597,277745,168,187712
-54.592,277784,170,187720
-54.587,277753,169,187712
-54.582,277781,168,187725
-54.577,277774,168,187728
-54.572,277828,168,187729
-54.567,277847,168,187720
-54.562,277851,168,187732
-54.557,277851,169,187751
-54.552,277886,168,187765
-54.547,277910,168,187773
-54.542,277940,168,187790
-54.537,277954,170,187801
-54.532,277973,169,187816
-54.527,278038,168,187851
-54.522,278084,169,187864
-54.517,278100,168,187893
-54.512,278122,168,187897
-54.507,278162,171,187917
-54.502,278189,169,187929
-54.497,278225,169,187970
-54.492,278264,168,187993
-54.488,278301,168,187985
-54.483,278332,170,188007
-54.478,278342,170,188034
-54.473,278369,168,188027
-54.468,278395,170,188043
-54.463,278451,169,188054
-54.458,278469,169,188061
-54.453,278493,168,188075
-54.448,278544,168,188103
-54.443,278568,170,188108
-54.438,278592,169,188119
-54.433,278641,168,188140
-54.428,278690,169,188169
-54.423,278718,169,188185
-54.418,278720,169,188189
-54.413,278746,168,188207
-54.408,278783,168,188207
-54.403,278798,168,188214
-54.398,278840,171,188222
-54.393,278830,170,188207
-54.388,278871,169,188231
-54.383,278866,168,188232
-54.378,278920,169,188220
-54.373,278928,168,188222
-54.368,278941,168,188224
-54.363,278979,170,188241
-54.358,279004,169,188251
-54.354,279045,168,188263
-54.349,279078,168,188280
-54.344,279100,171,188290
-54.339,279144,169,188305
-54.334,279195,168,188342
-54.329,279210,169,188357
-54.324,279222,168,188368
-54.319,279297,168,188365
-54.314,279318,168,188391
-54.309,279320,168,188404
-54.304,279355,170,188407
-54.299,279373,169,188415
-54.294,279426,168,188411
-54.289,279456,168,188427
-54.284,279472,170,188449
-54.279,279525,168,188454
-54.274,279548,170,188482
-54.269,279588,169,188523
-54.264,279636,169,188545
-54.259,279687,168,188578
-54.254,279747,168,188595
-54.249,279803,168,188633
-54.244,279824,170,188646
-54.239,279883,170,188672
-54.234,279911,168,188663
-54.229,279891,169,188652
-54.224,279874,168,188616
-54.220,279818,168,188584
-54.215,279754,168,188558
-54.210,279677,170,188516
-54.205,279592,169,188482
-54.200,279517,168,188439
-54.195,279387,168,188412
-54.190,279319,170,188378
-54.185,279210,171,188365
-54.180,279115,168,188339
-54.175,279044,170,188320
-54.170,278979,169,188289
-54.165,278869,168,188267
-54.160,278804,168,188245
-54.155,278725,168,188224
-54.150,278632,170,188207
-54.145,278577,169,188175
-54.140,278507,168,188157
-54.135,278481,169,188122
-54.130,278380,168,188070
-54.125,278320,170,188057
-54.120,278270,169,188051
-54.115,278240,168,188038
-54.110,278186,168,188009
-54.105,278121,171,187985
-54.100,278092,170,187980
-54.095,278072,169,187983
-54.090,278056,168,187964
-54.085,278022,170,187971
-54.081,278011,169,187939
-54.076,277975,169,187960
-54.071,277973,169,187952
-54.066,277943,169,187943
-54.061,277927,169,187944
-54.056,277904,169,187954
-54.051,277900,170,187937
-54.046,277882,170,187938
-54.041,277839,168,187930
-54.036,277845,168,187947
-54.031,277846,168,187918
-54.026,277812,169,187902
-54.021,277799,168,187899
-54.016,277795,169,187884
-54.011,277769,168,187874
-54.006,277780,169,187877
-54.001,277784,169,187896
-53.996,277787,169,187885
-53.991,277804,168,187933
-53.986,277838,168,187931
-53.981,277880,168,187944
-53.976,277904,168,187988
-53.971,277906,168,187983
-53.966,277921,168,187963
-53.961,277915,168,187962
-53.956,277895,168,187951
-53.951,277922,168,187941
-53.947,277908,168,187946
-53.942,277915,169,187946
-53.937,277913,170,187943
-53.932,277939,170,187942
-53.927,277929,168,187960
-53.922,277981,168,187965
-53.917,277979,168,187988
-53.912,277976,168,187988
-53.907,277978,168,187999
-53.902,277985,168,187999
-53.897,277980,168,187988
-53.892,277984,168,188004
-53.887,277976,169,188002
-53.882,277989,169,187993
-53.877,277989,169,188004
-53.872,277966,170,187987
-53.867,277988,170,187986
-53.862,277979,170,187986
-53.857,278002,170,187992
-53.852,278001,168,188006
-53.847,278003,168,188000
-53.842,278036,169,188011
-53.837,278055,169,188028
-53.832,278060,169,188038
-53.827,278049,169,188042
-53.822,278098,169,188046
-53.817,278093,169,188052
-53.813,278104,169,188051
-53.808,278145,170,188056
-53.803,278158,170,188047
-53.798,278148,170,188062
-53.793,278171,168,188088
-53.788,278204,168,188088
-53.783,278224,168,188076
-53.778,278239,168,188083
-53.773,278250,168,188100
-53.768,278274,168,188111
-53.763,278296,168,188103
-53.758,278285,168,188087
-53.753,278324,168,188107
-53.748,278340,169,188111
-53.743,278376,168,188122
-53.738,278380,168,188124
-53.733,278409,168,188129
-53.728,278410,168,188107
-53.723,278442,168,188119
-53.718,278473,168,188120
-53.713,278502,168,188137
-53.708,278521,168,188154
-53.703,278574,168,188151
-53.698,278561,168,188141
-53.693,278596,168,188187
-53.688,278624,168,188183
-53.683,278653,169,188197
-53.679,278677,168,188195
-53.674,278725,169,188199
-53.669,278760,169,188222
-53.664,278774,169,188227
-53.659,278782,170,188227
-53.654,278818,171,188246
-53.649,278856,168,188257
-53.644,278868,168,188258
-53.639,278898,168,188275
-53.634,278944,169,188282
-53.629,278950,169,188292
-53.624,279001,170,188274
-53.619,279002,170,188292
-53.614,279046,168,188312
-53.609,279080,168,188338
-53.604,279118,168,188296
-53.599,279121,168,188336
-53.594,279171,168,188353
-53.589,279202,168,188359
-53.584,279225,168,188373
-53.579,279280,169,188394
-53.574,279312,169,188414
-53.569,279352,169,188443
-53.564,279359,169,188428
-53.559,279380,170,188453
-53.554,279418,170,188437
-53.549,279454,168,188450
-53.544,279442,169,188474
-53.540,279526,169,188483
-53.535,279555,169,188490
-53.530,279599,170,188523
-53.525,279645,170,188554
-53.520,279693,170,188582
-53.515,279716,170,188593
-53.510,279746,168,188600
-53.505,279800,168,188604
-53.500,279801,168,188623
-53.495,279820,168,188625
-53.490,279808,168,188587
-53.485,279775,168,188565
-53.480,279724,169,188552
-53.475,279659,169,188513
-53.470,279566,169,188463
-53.465,279465,169,188435
-53.460,279375,170,188393
-53.455,279288,170,188376
-53.450,279160,170,188354
-53.445,279102,168,188334
-53.440,279020,168,188292
-53.435,278923,168,188271
-53.430,278838,168,188246
-53.425,278762,168,188212
-53.420,278677,168,188159
-53.415,278584,168,188132
-53.410,278517,168,188097
-53.406,278449,169,188102
-53.401,278404,168,188050
-53.396,278325,168,188039
-53.391,278258,168,188005
-53.386,278213,168,187994
-53.381,278193,168,187967
-53.376,278133,169,187936
-53.371,278113,169,187942
-53.366,278077,169,187931
-53.361,278026,169,187925
-53.356,278010,168,187921
-53.351,278008,168,187894
-53.346,277984,168,187898
-53.341,277935,168,187872
-53.336,277911,168,187878
-53.331,277894,168,187863
-53.326,277838,168,187850
-53.321,277844,168,187824
-53.316,277832,168,187813
-53.311,277791,168,187795
-53.306,277799,168,187791
-53.301,277779,168,187771
-53.296,277744,168,187770
-53.291,277730,168,187741
-53.286,277710,168,187743
-53.281,277674,168,187737
-53.276,277667,168,187725
-53.272,277691,168,187742
-53.267,277719,168,187779
-53.262,277754,168,187793
-53.257,277777,169,187815
-53.252,277818,168,187825
-53.247,277846,168,187837
-53.242,277871,168,187816
-53.237,277872,168,187826
-53.232,277881,168,187813
-53.227,277864,168,187789
-53.222,277852,168,187795
-53.217,277847,169,187785
-53.212,277838,169,187772
-53.207,277843,168,187768
-53.202,277830,168,187784
-53.197,277837,168,187786
-53.192,277864,168,187789
-53.187,277874,168,187795
-53.182,277892,168,187813
-53.177,277942,168,187823
-53.172,277950,169,187834
-53.167,277940,169,187825
-53.162,277966,170,187863
-53.157,277938,168,187841
-53.152,277948,168,187867
-53.147,277972,168,187870
-53.142,277980,168,187833
-53.138,277977,168,187845
-53.133,277960,169,187867
-53.128,277985,169,187883
-53.123,277992,169,187879
-53.118,278023,170,187884
-53.113,277978,168,187892
-53.108,278035,168,187900
-53.103,278075,168,187912
-53.098,278086,168,187927
-53.093,278125,168,187946
-53.088,278127,168,187933
-53.083,278135,168,187946
-53.078,278159,169,187956
-53.073,278180,169,187964
-53.068,278208,169,187975
-53.063,278222,168,187976
-53.058,278242,168,187976
-53.053,278267,168,188003
-53.048,278290,168,187999
-53.043,278314,168,187993
-53.038,278309,168,188008
-53.033,278352,169,187999
-53.028,278363,169,188000
-53.023,278369,169,188015
-53.018,278399,169,188009
-53.013,278430,168,188034
-53.008,278452,169,188033
-53.003,278468,169,188046
-52.999,278515,170,188068
-52.994,278550,169,188095
-52.989,278576,170,188102
-52.984,278585,170,188108
-52.979,278646,170,188121
-52.974,278674,170,188128
-52.969,278714,168,188145
-52.964,278751,170,188166
-52.959,278789,170,188184
-52.954,278810,170,188197
-52.949,278833,170,188202
-52.944,278859,170,188219
-52.939,278887,170,188213
-52.934,278918,171,188222
-52.929,278940,171,188254
-52.924,278992,168,188279
-52.919,279047,168,188292
-52.914,279082,168,188324
-52.909,279101,168,188303
-52.904,279135,169,188331
-52.899,279174,168,188350
-52.894,279201,169,188358
-52.889,279219,168,188348
-52.884,279227,168,188336
-52.879,279242,169,188353
-52.874,279285,169,188340
-52.869,279305,178,188352
-52.865,279331,170,188389
-52.860,279382,170,188391
-52.855,279425,170,188413
-52.850,279442,170,188422
-52.845,279466,170,188424
-52.840,279504,170,188434
-52.835,279548,170,188445
-52.830,279602,170,188474
-52.825,279629,170,188504
-52.820,279688,168,188547
-52.815,279746,168,188573
-52.810,279799,168,188603
-52.805,279838,168,188595
-52.800,279859,168,188628
-52.795,279913,168,188636
-52.790,279935,168,188634
-52.785,279922,168,188653
-52.780,279944,168,188634
-52.775,279912,168,188613
-52.770,279912,170,188593
-52.765,279863,170,188576
-52.760,279805,171,188528
-52.755,279711,168,188514
-52.750,279612,168,188483
-52.745,279544,168,188458
-52.740,279445,168,188427
-52.735,279347,168,188428
-52.731,279268,168,188406
-52.726,279184,168,188393
-52.721,279134,169,188358
-52.716,279052,170,188348
-52.711,278977,170,188329
-52.706,278895,170,188293
-52.701,278817,170,188272
-52.696,278746,170,188230
-52.691,278694,170,188192
-52.686,278634,168,188171
-52.681,278561,168,188137
-52.676,278537,168,188117
-52.671,278469,168,188119
-52.666,278449,168,188102
-52.661,278422,169,188096
-52.656,278409,169,188104
-52.651,278376,170,188098
-52.646,278366,170,188103
-52.641,278362,170,188100
-52.636,278346,170,188082
-52.631,278331,170,188086
-52.626,278300,168,188079
-52.621,278309,168,188072
-52.616,278285,168,188092
-52.611,278278,168,188069
-52.606,278241,168,188045
-52.601,278211,168,188031
-52.597,278208,168,188025
-52.592,278190,168,188006
-52.587,278180,169,188012
-52.582,278149,168,187988
-52.577,278168,170,187991
-52.572,278156,168,187967
-52.567,278130,168,187963
-52.562,278138,168,187962
-52.557,278148,168,187981
-52.552,278180,168,188010
-52.547,278200,168,188027
-52.542,278225,168,188042
-52.537,278262,168,188061
-52.532,278295,168,188056
-52.527,278292,170,188069
-52.522,278293,169,188046
-52.517,278265,169,188025
-52.512,278266,169,188008
-52.507,278264,169,188003
-52.502,278262,169,187999
-52.497,278241,169,187984
-52.492,278253,169,187967
-52.487,278220,170,187978
-52.482,278266,170,187984
-52.477,278280,168,188011
-52.472,278305,168,188027
-52.467,278325,168,188032
-52.462,278297,168,188048
-52.458,278319,168,188039
-52.453,278352,171,188042
-52.448,278356,170,188049
-52.443,278313,170,188060
-52.438,278315,171,188035
-52.433,278308,170,188030
-52.428,278316,168,188026
-52.423,278314,168,188019
-52.418,278306,168,188011
-52.413,278315,168,188027
-52.408,278328,168,188028
-52.403,278339,168,188023
-52.398,278354,168,188048
-52.393,278407,168,188055
-52.388,278382,168,188079
-52.383,278423,168,188081
-52.378,278439,169,188104
-52.373,278477,169,188091
-52.368,278514,169,188107
-52.363,278514,168,188114
-52.358,278518,168,188117
-52.353,278526,168,188129
-52.348,278537,168,188121
-52.343,278560,168,188152
-52.338,278592,168,188139
-52.333,278613,168,188158
-52.328,278629,170,188161
-52.324,278662,169,188179
-52.319,278681,169,188173
-52.314,278688,169,188169
-52.309,278734,169,188195
-52.304,278765,169,188193
-52.299,278804,168,188209
-52.294,278814,168,188238
-52.289,278875,169,188234
-52.284,278877,171,188257
-52.279,278906,170,188290
-52.274,278935,169,188293
-52.269,278962,169,188299
-52.264,279002,169,188327
-52.259,279038,169,188316
-52.254,279055,169,188320
-52.249,279059,169,188329
-52.244,279110,168,188341
-52.239,279136,168,188338
-52.234,279174,169,188368
-52.229,279194,169,188358
-52.224,279229,169,188366
-52.219,279253,170,188387
-52.214,279278,168,188405
-52.209,279304,169,188385
-52.204,279358,168,188409
-52.199,279345,168,188428
-52.194,279394,168,188430
-52.190,279429,168,188452
-52.185,279452,169,188469
-52.180,279470,169,188465
-52.175,279503,169,188468
-52.170,279527,169,188462
-52.165,279513,169,188472
-52.160,279563,169,188465
-52.155,279587,169,188496
-52.150,279638,169,188491
-52.145,279688,169,188524
-52.140,279696,169,188515
-52.135,279736,168,188549
-52.130,279767,168,188571
-52.125,279785,168,188579
-52.120,279812,168,188592
-52.115,279861,170,188614
-52.110,279854,170,188610
-52.105,279885,171,188583
-52.100,279834,168,188544
-52.095,279787,168,188520
-52.090,279711,170,188484
-52.085,279634,170,188443
-52.080,279538,170,188387
-52.075,279454,168,188349
-52.070,279357,168,188328
-52.065,279276,168,188302
-52.060,279208,168,188281
-52.055,279100,168,188265
-52.051,279024,168,188236
-52.046,278934,168,188237
-52.041,278900,168,188201
-52.036,278833,169,188180
-52.031,278776,169,188158
-52.026,278709,171,188141
-52.021,278657,170,188113
-52.016,278617,170,188091
-52.011,278549,170,188073
-52.006,278512,168,188058
-52.001,278442,168,188040
-51.996,278440,168,188029
-51.991,278422,169,188023
-51.986,278404,169,188015
-51.981,278351,169,187988
-51.976,278336,169,187984
-51.971,278333,170,187980
-51.966,278300,170,187984
-51.961,278301,170,187996
-51.956,278272,170,187988
-51.951,278281,170,187982
-51.946,278276,170,187983
-51.941,278274,168,187989
-51.936,278271,168,187994
-51.931,278259,168,187979
-51.926,278250,168,187978
-51.921,278207,168,187972
-51.917,278197,168,187958
-51.912,278182,168,187931
-51.907,278164,168,187922
-51.902,278172,168,187912
-51.897,278162,168,187911
-51.892,278176,168,187931
-51.887,278180,168,187943
-51.882,278245,168,187978
-51.877,278296,168,188012
-51.872,278340,168,188025
-51.867,278379,168,188051
-51.862,278380,168,188049
-51.857,278409,168,188027
-51.852,278386,168,188027
-51.847,278416,169,188001
-51.842,278395,169,188017
-51.837,278412,169,188011
-51.832,278412,168,188005
-51.827,278402,168,188009
-51.822,278404,168,188005
-51.817,278440,168,188010
-51.812,278433,168,188009
-51.807,278434,168,188035
-51.802,278454,168,188016
-51.797,278478,168,188042
-51.792,278480,168,188051
-51.787,278490,168,188053
-51.783,278503,168,188050
-51.778,278486,168,188057
-51.773,278478,168,188054
-51.768,278493,171,188053
-51.763,278495,169,188064
-51.758,278500,170,188081
-51.753,278533,169,188061
-51.748,278521,168,188069
-51.743,278542,171,188070
-51.738,278538,171,188089
-51.733,278563,170,188089
-51.728,278581,170,188097
-51.723,278560,170,188098
-51.718,278612,169,188093
-51.713,278622,169,188120
-51.708,278629,169,188096
-51.703,278655,169,188113
-51.698,278675,170,188127
-51.693,278708,170,188116
-51.688,278700,170,188108
-51.683,278720,170,188145
-51.678,278756,169,188129
-51.673,278745,169,188158
-51.668,278757,168,188126
-51.663,278783,168,188139
-51.658,278806,168,188147
-51.653,278815,168,188156
-51.649,278844,169,188166
-51.644,278862,168,188156
-51.639,278866,168,188175
-51.634,278907,168,188166
-51.629,278925,168,188170
-51.624,278944,168,188181
-51.619,278989,168,188176
-51.614,278991,168,188194
-51.609,279009,170,188203
-51.604,279038,170,188193
-51.599,279083,168,188223
-51.594,279100,168,188224
-51.589,279117,168,188239
-51.584,279178,168,188255
-51.579,279184,168,188269
-51.574,279208,171,188275
-51.569,279240,170,188284
-51.564,279260,169,188285
-51.559,279292,169,188291
-51.554,279321,169,188297
-51.549,279348,171,188309
-51.544,279395,170,188337
-51.539,279421,170,188345
-51.534,279468,169,188367
-51.529,279530,170,188393
-51.524,279546,170,188409
-51.519,279577,169,188417
-51.514,279621,169,188424
-51.510,279648,170,188451
-51.505,279666,169,188451
-51.500,279691,169,188486
-51.495,279723,168,188448
-51.490,279695,168,188447
-51.485,279667,168,188423
-51.480,279601,168,188376
-51.475,279545,168,188342
-51.470,279468,168,188327
-51.465,279381,168,188287
-51.460,279299,168,188249
-51.455,279252,170,188238
-51.450,279150,171,188226
-51.445,279071,171,188199
-51.440,278996,171,188179
-51.435,278936,171,188146
-51.430,278835,171,188151
-51.425,278778,170,188108
-51.420,278724,170,188073
-51.415,278645,169,188039
-51.410,278592,169,188031
-51.405,278530,170,188005
-51.400,278464,170,187966
-51.395,278420,169,187944
-51.390,278390,169,187935
-51.385,278315,168,187916
-51.380,278293,168,187904
-51.376,278282,168,187900
-51.371,278256,168,187878
-51.366,278239,170,187864
-51.361,278222,170,187862
-51.356,278174,168,187853
-51.351,278147,168,187847
-51.346,278141,168,187838
-51.341,278101,170,187841
-51.336,278085,169,187817
-51.331,278083,169,187821
-51.326,278063,168,187816
-51.321,278061,168,187800
-51.316,278011,168,187777
-51.311,278000,168,187781
-51.306,278014,168,187749
-51.301,277981,168,187744
-51.296,277952,168,187734
-51.291,277924,168,187704
-51.286,277889,168,187690
-51.281,277884,168,187674
-51.276,277895,168,187678
-51.271,277896,171,187703
-51.266,277914,171,187714
-51.261,277948,168,187715
-51.256,277976,168,187735
-51.251,277982,168,187739
-51.246,278011,168,187717
-51.242,278002,168,187711
-51.237,277979,168,187680
-51.232,278001,168,187655
-51.227,277959,171,187648
-51.222,277946,171,187633
-51.217,277942,170,187590
-51.212,277943,169,187606
-51.207,277924,169,187613
-51.202,277949,169,187609
-51.197,277962,169,187620
-51.192,277955,168,187605
-51.187,277931,169,187589
-51.182,277941,168,187593
-51.177,277947,168,187595
-51.172,277946,168,187595
-51.167,277953,168,187611
-51.162,277956,169,187599
-51.157,277962,169,187603
-51.152,277951,169,187606
-51.147,277945,169,187598
-51.142,277974,168,187610
-51.137,277978,168,187600
-51.132,278001,168,187616
-51.127,278025,168,187641
-51.122,278059,168,187677
-51.117,278146,168,187704
-51.112,278231,169,187757
-51.107,278283,169,187799
-51.103,278374,168,187852
-51.098,278433,168,187899
-51.093,278473,168,187937
-51.088,278527,168,187956
-51.083,278594,168,187976
-51.078,278637,168,188002
-51.073,278703,168,188031
-51.068,278764,168,188050
-51.063,278791,170,188095
-51.058,278807,169,188099
-51.053,278858,169,188107
-51.048,278868,169,188124
-51.043,278923,168,188149
-51.038,278969,168,188164
-51.033,278999,168,188140
-51.028,279025,171,188170
-51.023,279041,170,188175
-51.018,279107,168,188188
-51.013,279106,168,188180
-51.008,279140,168,188186
-51.003,279168,171,188201
-50.998,279188,170,188204
-50.993,279224,170,188220
-50.988,279265,169,188244
-50.983,279276,169,188265
-50.978,279343,169,188279
-50.973,279375,168,188278
-50.969,279381,170,188278
-50.964,279372,169,188267
-50.959,279362,169,188265
-50.954,279343,169,188229
-50.949,279332,169,188227
-50.944,279365,168,188206
-50.939,279379,168,188203
-50.934,279396,168,188200
-50.929,279371,168,188172
-50.924,279363,168,188150
-50.919,279334,168,188123
-50.914,279314,168,188116
-50.909,279309,168,188090
-50.904,279288,168,188062
-50.899,279262,168,188013
-50.894,279199,168,187962
-50.889,279110,168,187888
-50.884,279004,168,187820
-50.879,278876,168,187717
-50.874,278729,168,187616
-50.869,278583,169,187538
-50.864,278427,169,187478
-50.859,278309,169,187414
-50.854,278219,169,187408
-50.849,278114,168,187366
-50.844,278024,168,187347
-50.839,277936,168,187335
-50.835,277861,168,187288
-50.830,277759,168,187249
-50.825,277690,168,187234
-50.820,277617,169,187203
-50.815,277543,169,187163
-50.810,277474,169,187137
-50.805,277413,169,187103
-50.800,277334,169,187057
-50.795,277272,169,187046
-50.790,277250,168,187030
-50.785,277188,168,186990
-50.780,277120,168,186978
-50.775,277096,168,186947
-50.770,277054,168,186934
-50.765,277036,168,186924
-50.760,277006,168,186932
-50.755,276996,168,186925
-50.750,276957,171,186922
-50.745,276968,171,186933
-50.740,276937,171,186932
-50.735,276927,170,186921
-50.730,276940,170,186931
-50.725,276912,168,186933
-50.720,276904,168,186924
-50.715,276889,171,186935
-50.710,276907,171,186920
-50.705,276863,170,186923
-50.701,276869,170,186921
-50.696,276846,170,186920
-50.691,276850,169,186914
-50.686,276839,169,186919
-50.681,276822,169,186899
-50.676,276812,171,186906
-50.671,276840,171,186902
-50.666,276842,170,186931
-50.661,276890,170,186953
-50.656,276941,170,186964
-50.651,276962,171,186989
-50.646,277008,171,186993
-50.641,276993,170,186983
-50.636,276989,170,186982
-50.631,276981,170,186965
-50.626,276980,168,186971
-50.621,276988,168,186971
-50.616,277009,168,186950
-50.611,276991,168,186957
-50.606,277004,168,186984
-50.601,277036,168,186983
-50.596,277028,168,186998
-50.591,277063,168,187008
-50.586,277069,168,187015
-50.581,277074,168,187013
-50.576,277070,171,187037
-50.571,277082,171,187010
-50.566,277090,171,187023
-50.562,277082,170,187032
-50.557,277077,171,187024
-50.552,277057,171,187011
-50.547,277092,170,187014
-50.542,277073,171,186999
-50.537,277068,171,187019
-50.532,277091,168,187063
-50.527,277141,170,187053
-50.522,277154,169,187080
-50.517,277198,169,187101
-50.512,277216,169,187117
-50.507,277242,168,187127
-50.502,277262,168,187131
-50.497,277279,168,187144
-50.492,277277,171,187132
-50.487,277303,170,187137
-50.482,277329,168,187136
-50.477,277323,168,187147
-50.472,277336,171,187140
-50.467,277332,170,187136
-50.462,277356,169,187137
-50.457,277394,169,187161
-50.452,277409,168,187155
-50.447,277434,168,187167
-50.442,277442,168,187158
-50.437,277452,170,187166
-50.432,277478,168,187170
-50.428,277473,171,187171
-50.423,277492,170,187177
-50.418,277540,169,187185
-50.413,277529,168,187189
-50.408,277559,168,187190
-50.403,277542,168,187186
-50.398,277555,168,187184
-50.393,277557,171,187181
-50.388,277616,170,187187
-50.383,277630,168,187197
-50.378,277662,168,187213
-50.373,277689,170,187232
-50.368,277721,170,187234
-50.363,277727,169,187248
-50.358,277753,168,187241
-50.353,277777,168,187246
-50.348,277808,171,187245
-50.343,277835,170,187246
-50.338,277827,168,187257
-50.333,277884,170,187256
-50.328,277920,170,187296
-50.323,277943,169,187319
-50.318,277980,168,187335
-50.313,278008,168,187337
-50.308,278036,168,187341
-50.303,278067,171,187350
-50.298,278097,170,187389
-50.294,278158,169,187413
-50.289,278224,169,187455
-50.284,278275,170,187466
-50.279,278316,169,187492
-50.274,278352,169,187520
-50.269,278367,168,187543
-50.264,278412,168,187554
-50.259,278438,168,187545
-50.254,278416,170,187523
-50.249,278417,169,187522
-50.244,278382,168,187496
-50.239,278309,168,187446
-50.234,278256,169,187449
-50.229,278174,169,187418
-50.224,278068,168,187368
-50.219,277971,168,187331
-50.214,277884,168,187344
-50.209,277816,171,187314
-50.204,277707,170,187274
-50.199,277643,169,187255
-50.194,277557,169,187220
-50.189,277467,170,187182
-50.184,277378,169,187164
-50.179,277339,169,187124
-50.174,277225,168,187097
-50.169,277174,168,187081
-50.164,277118,171,187048
-50.160,277062,170,187033
-50.155,276990,169,187020
-50.150,276966,169,187019
-50.145,276907,168,186995
-50.140,276882,169,186975
-50.135,276850,169,186977
-50.130,276801,168,186942
-50.125,276771,168,186938
-50.120,276722,168,186917
-50.115,276700,171,186911
-50.110,276635,170,186894
-50.105,276609,169,186881
-50.100,276579,169,186883
-50.095,276556,168,186889
-50.090,276532,168,186849
-50.085,276493,168,186841
-50.080,276441,171,186790
-50.075,276392,170,186793
-50.070,276357,169,186777
-50.065,276349,169,186764
-50.060,276324,168,186756
-50.055,276286,168,186742
-50.050,276274,168,186755
-50.045,276278,168,186751
-50.040,276254,169,186741
-50.035,276268,168,186754
-50.030,276257,168,186761
-50.025,276260,168,186768
-50.021,276311,168,186804
-50.016,276330,168,186839
-50.011,276376,171,186858
-50.006,276396,170,186889
-50.001,276440,170,186902
-49.996,276445,170,186924
-49.991,276451,169,186895
-49.986,276446,168,186896
-49.981,276437,168,186869
-49.976,276441,168,186872
-49.971,276420,171,186868
-49.966,276400,170,186858
-49.961,276395,170,186847
-49.956,276382,170,186851
-49.951,276385,169,186847
-49.946,276394,169,186856
-49.941,276410,169,186845
-49.936,276406,169,186859
-49.931,276424,168,186867
-49.926,276419,168,186865
-49.921,276417,171,186877
-49.916,276384,169,186858
-49.911,276408,169,186866
-49.906,276397,169,186849
-49.901,276402,168,186851
-49.896,276418,169,186840
-49.891,276411,169,186858
-49.887,276412,168,186860
-49.882,276418,168,186861
-49.877,276422,171,186866
-49.872,276406,170,186846
-49.867,276426,169,186858
-49.862,276425,168,186855
-49.857,276404,168,186828
-49.852,276412,168,186834
-49.847,276393,169,186817
-49.842,276398,168,186811
-49.837,276419,168,186796
-49.832,276449,168,186830
-49.827,276454,171,186837
-49.822,276503,171,186881
-49.817,276536,170,186901
-49.812,276555,169,186890
-49.807,276590,169,186920
-49.802,276591,169,186923
-49.797,276626,170,186923
-49.792,276608,169,186927
-49.787,276612,169,186911
-49.782,276614,169,186902
-49.777,276614,168,186888
-49.772,276622,168,186875
-49.767,276642,168,186866
-49.762,276608,171,186860
-49.757,276621,170,186853
-49.753,276657,169,186852
-49.748,276667,171,186869
-49.743,276652,170,186874
-49.738,276682,169,186886
-49.733,276722,169,186887
-49.728,276722,168,186892
-49.723,276755,168,186905
-49.718,276784,168,186929
-49.713,276823,168,186929
-49.708,276828,168,186952
-49.703,276876,168,186978
-49.698,276889,171,186969
-49.693,276903,170,186978
-49.688,276906,170,186970
-49.683,276976,169,186989
-49.678,277003,168,187009
-49.673,277016,168,187014
-49.668,277061,168,187029
-49.663,277064,171,187050
-49.658,277118,169,187070
-49.653,277142,171,187074
-49.648,277179,170,187074
-49.643,277199,169,187090
-49.638,277243,168,187122
-49.633,277292,168,187120
-49.628,277314,168,187156
-49.623,277346,170,187180
-49.618,277404,169,187186
-49.614,277440,169,187218
-49.609,277450,169,187231
-49.604,277504,170,187239
-49.599,277517,170,187254
-49.594,277546,169,187261
-49.589,277529,168,187245
-49.584,277528,168,187237
-49.579,277480,168,187217
-49.574,277423,170,187223
-49.569,277354,170,187166
-49.564,277292,168,187134
-49.559,277199,168,187105
-49.554,277114,169,187097
-49.549,277041,168,187062
-49.544,276948,168,187068
-49.539,276906,171,187062
-49.534,276843,169,187025
-49.529,276787,169,187009
-49.524,276705,168,187021
-49.519,276652,168,187010
-49.514,276599,168,186995
-49.509,276526,171,186954
-49.504,276454,168,186935
-49.499,276369,168,186893
-49.494,276347,168,186869
-49.489,276285,171,186842
-49.484,276229,170,186814
-49.480,276182,169,186783
-49.475,276150,168,186781
-49.470,276124,168,186774
-49.465,276084,168,186781
-49.460,276074,168,186765
-49.455,276037,168,186763
-49.450,276007,168,186761
-49.445,276003,171,186754
-49.440,275982,170,186735
-49.435,275950,169,186732
-49.430,275917,168,186723
-49.425,275895,168,186712
-49.420,275862,168,186718
-49.415,275820,168,186711
-49.410,275800,168,186696
-49.405,275802,170,186706
-49.400,275791,169,186697
-49.395,275775,169,186685
-49.390,275766,168,186697
-49.385,275737,168,186697
-49.380,275726,171,186687
-49.375,275706,170,186675
-49.370,275685,169,186688
-49.365,275720,169,186681
-49.360,275724,170,186684
-49.355,275742,169,186704
-49.350,275761,168,186710
-49.346,275789,168,186732
-49.341,275820,168,186727
-49.336,275819,171,186724
-49.331,275843,171,186713
-49.326,275820,170,186719
-49.321,275813,169,186691
-49.316,275798,168,186690
-49.311,275801,169,186698
-49.306,275800,169,186684
-49.301,275810,168,186680
-49.296,275816,168,186698
-49.291,275819,171,186704
-49.286,275827,170,186709
-49.281,275841,170,186709
-49.276,275862,169,186714
-49.271,275868,169,186721
-49.266,275878,168,186733
-49.261,275878,169,186735
-49.256,275888,168,186741
-49.251,275903,168,186744
-49.246,275866,168,186737
-49.241,275884,172,186739
-49.236,275881,170,186744
-49.231,275871,169,186771
-49.226,275888,169,186750
-49.221,275930,168,186764
-49.216,275949,168,186780
-49.212,275954,169,186793
-49.207,275972,168,186804
-49.202,276014,168,186829
-49.197,276027,168,186837
-49.192,276041,168,186839
-49.187,276033,171,186836
-49.182,276063,170,186827
-49.177,276099,170,186851
-49.172,276108,169,186875
-49.167,276141,170,186922
-49.162,276152,169,186907
-49.157,276190,169,186908
-49.152,276187,168,186899
-49.147,276224,168,186897
-49.142,276236,171,186920
-49.137,276266,170,186906
-49.132,276279,169,186918
-49.127,276321,169,186939
-49.122,276385,168,186952
-49.117,276407,169,186968
-49.112,276438,169,186990
-49.107,276455,169,187022
-49.102,276494,168,187036
-49.097,276536,168,187057
-49.092,276572,171,187082
-49.087,276606,170,187084
-49.082,276660,169,187102
-49.077,276674,169,187122
-49.073,276717,168,187138
-49.068,276747,170,187105
-49.063,276763,168,187166
-49.058,276820,168,187172
-49.053,276855,171,187198
-49.048,276875,170,187190
-49.043,276921,170,187239
-49.038,276956,169,187234
-49.033,276994,168,187264
-49.028,277026,168,187291
-49.023,277069,168,187293
-49.018,277101,169,187301
-49.013,277123,168,187327
-49.008,277159,168,187305
-49.003,277212,168,187338
-48.998,277228,171,187340
-48.993,277277,170,187381
-48.988,277291,170,187391
-48.983,277349,169,187414
-48.978,277397,169,187423
-48.973,277410,168,187412
-48.968,277439,168,187438
-48.963,277464,170,187445
-48.958,277484,170,187446
-48.953,277531,168,187456
-48.948,277538,168,187446
-48.943,277570,168,187467
-48.939,277594,170,187479
-48.934,277630,169,187494
-48.929,277657,169,187510
-48.924,277687,168,187502
-48.919,277732,169,187519
-48.914,277756,168,187536
-48.909,277790,168,187563
-48.904,277859,171,187581
-48.899,277886,170,187628
-48.894,277930,169,187619
-48.889,277967,168,187649
-48.884,277996,168,187678
-48.879,278048,171,187696
-48.874,278088,169,187707
-48.869,278114,172,187707
-48.864,278130,171,187720
-48.859,278118,170,187709
-48.854,278094,169,187679
-48.849,278034,168,187645
-48.844,277968,168,187624
-48.839,277879,171,187587
-48.834,277786,170,187545
-48.829,277684,169,187513
-48.824,277579,170,187451
-48.819,277504,169,187469
-48.814,277411,168,187432
-48.809,277348,168,187440
-48.805,277274,170,187395
-48.800,277209,169,187395
-48.795,277144,168,187372
-48.790,277097,168,187367
-48.785,277002,171,187343
-48.780,276941,169,187318
-48.775,276883,171,187288
-48.770,276850,170,187297
-48.765,276796,169,187261
-48.760,276756,169,187260
-48.755,276707,168,187227
-48.750,276683,168,187220
-48.745,276640,168,187222
-48.740,276626,171,187214
-48.735,276579,170,187201
-48.730,276568,169,187201
-48.725,276545,170,187200
-48.720,276537,170,187191
-48.715,276511,168,187171
-48.710,276506,168,187167
-48.705,276435,168,187159
-48.700,276432,171,187172
-48.695,276383,170,187152
-48.690,276384,169,187142
-48.685,276395,169,187131
-48.680,276364,168,187118
-48.675,276343,169,187122
-48.671,276330,168,187106
-48.666,276311,168,187102
-48.661,276307,168,187091
-48.656,276291,170,187095
-48.651,276300,169,187081
-48.646,276263,168,187091
-48.641,276278,168,187093
-48.636,276312,171,187102
-48.631,276355,171,187134
-48.626,276378,168,187138
-48.621,276417,171,187173
-48.616,276435,170,187169
-48.611,276456,168,187167
-48.606,276464,168,187148
-48.601,276427,168,187140
-48.596,276428,168,187150
-48.591,276414,170,187113
-48.586,276446,170,187116
-48.581,276445,170,187126
-48.576,276454,168,187144
-48.571,276449,168,187122
-48.566,276452,168,187132
-48.561,276476,172,187149
-48.556,276500,170,187158
-48.551,276489,169,187158
-48.546,276498,168,187155
-48.541,276504,168,187178
-48.536,276501,171,187168
-48.532,276532,168,187171
-48.527,276513,171,187166
-48.522,276536,170,187189
-48.517,276548,169,187197
-48.512,276557,168,187191
-48.507,276564,168,187195
-48.502,276548,171,187205
-48.497,276595,170,187226
-48.492,276610,169,187230
-48.487,276613,169,187233
-48.482,276675,168,187310
-48.477,276655,168,187248
-48.472,276655,168,187258
-48.467,276695,170,187269
-48.462,276724,169,187292
-48.457,276727,169,187281
-48.452,276748,168,187277
-48.447,276734,172,187294
-48.442,276771,170,187273
-48.437,276810,169,187313
-48.432,276797,171,187309
-48.427,276802,170,187304
-48.422,276846,169,187312
-48.417,276867,168,187310
-48.412,276867,171,187313
-48.407,276888,170,187311
-48.402,276900,169,187320
-48.398,276919,168,187330
-48.393,276957,168,187343
-48.388,277013,171,187374
-48.383,277013,168,187379
-48.378,277049,171,187403
-48.373,277080,170,187429
-48.368,277124,169,187433
-48.363,277160,168,187437
-48.358,277180,168,187470
-48.353,277197,171,187463
-48.348,277241,170,187482
-48.343,277257,169,187492
-48.338,277303,169,187551
-48.333,277312,169,187506
-48.328,277364,168,187539
-48.323,277388,168,187516
-48.318,277392,171,187538
-48.313,277431,169,187555
-48.308,277444,168,187573
-48.303,277492,171,187573
-48.298,277529,170,187590
-48.293,277564,169,187614
-48.288,277629,170,187631
-48.283,277629,168,187646
-48.278,277636,172,187644
-48.273,277707,170,187664
-48.268,277733,169,187664
-48.264,277763,169,187681
-48.259,277798,168,187699
-48.254,277843,171,187720
-48.249,277879,170,187751
-48.244,277930,169,187755
-48.239,277970,170,187778
-48.234,277977,169,187779
-48.229,278015,168,187795
-48.224,278078,168,187822
-48.219,278076,170,187810
-48.214,278124,169,187815
-48.209,278109,168,187813
-48.204,278109,171,187794
-48.199,278053,169,187787
-48.194,277996,168,187765
-48.189,277946,169,187717
-48.184,277871,168,187718
-48.179,277809,168,187683
-48.174,277732,170,187671
-48.169,277678,169,187681
-48.164,277601,168,187672
-48.159,277550,168,187658
-48.154,277499,171,187637
-48.149,277416,169,187632
-48.144,277367,169,187629
-48.139,277315,169,187604
-48.134,277257,168,187594
-48.130,277192,168,187572
-48.125,277147,171,187558
-48.120,277137,169,187569
-48.115,277096,168,187570
-48.110,277109,168,187594
-48.105,277103,170,187599
-48.100,277114,169,187629
-48.095,277104,168,187659
-48.090,277127,169,187682
-48.085,277167,168,187722
-48.080,277158,168,187745
-48.075,277172,170,187769
-48.070,277195,169,187795
-48.065,277218,168,187836
-48.060,277240,171,187878
-48.055,277284,170,187913
-48.050,277331,169,187957
-48.045,277353,170,187996
-48.040,277361,169,188014
-48.035,277391,169,188045
-48.030,277402,168,188075
-48.025,277423,171,188081
-48.020,277440,170,188100
-48.015,277461,169,188117
-48.010,277472,168,188126
-48.005,277476,171,188134
-48.000,277465,170,188146
-47.995,277485,171,188158
-47.991,277512,170,188181
-47.986,277561,169,188202
-47.981,277641,168,188252
-47.976,277646,168,188297
-47.971,277720,171,188321
-47.966,277749,170,188347
-47.961,277780,169,188350
-47.956,277790,169,188347
-47.951,277776,168,188317
-47.946,277753,169,188308
-47.941,277773,168,188296
-47.936,277764,168,188294
-47.931,277768,171,188284
-47.926,277777,170,188301
-47.921,277768,169,188291
-47.916,277776,168,188284
-47.911,277758,168,188293
-47.906,277763,171,188266
-47.901,277777,170,188255
-47.896,277755,169,188276
-47.891,277742,168,188245
-47.886,277714,168,188244
-47.881,277724,171,188206
-47.876,277700,170,188198
-47.871,277689,169,188191
-47.866,277668,168,188198
-47.861,277681,168,188170
-47.857,277667,171,188154
-47.852,277660,170,188153
-47.847,277657,168,188132
-47.842,277686,171,188122
-47.837,277668,170,188155
-47.832,277674,169,188139
-47.827,277675,168,188150
-47.822,277708,168,188151
-47.817,277730,171,188154
-47.812,277737,170,188149
-47.807,277765,169,188175
-47.802,277785,169,188160
-47.797,277789,170,188143
-47.792,277791,169,188174
-47.787,277818,168,188154
-47.782,277807,171,188152
-47.777,277843,170,188156
-47.772,277858,169,188151
-47.767,277892,168,188181
-47.762,277897,168,188177
-47.757,277918,168,188178
-47.752,277953,170,188206
-47.747,277972,168,188210
-47.742,278007,168,188211
-47.737,278025,171,188209
-47.732,278053,170,188211
-47.727,278068,169,188223
-47.723,278089,168,188232
-47.718,278100,168,188250
-47.713,278148,170,188245
-47.708,278170,169,188268
-47.703,278185,170,188261
-47.698,278230,169,188269
-47.693,278258,168,188293
-47.688,278259,168,188290
-47.683,278274,170,188290
-47.678,278286,169,188275
-47.673,278339,168,188275
-47.668,278364,171,188286
-47.663,278386,170,188325
-47.658,278463,169,188338
-47.653,278492,170,188365
-47.648,278527,169,188378
-47.643,278561,168,188386
-47.638,278603,168,188396
-47.633,278621,170,188426
-47.628,278669,169,188457
-47.623,278704,168,188448
-47.618,278694,168,188447
-47.613,278712,171,188415
-47.608,278652,170,188404
-47.603,278634,168,188333
-47.598,278524,168,188309
-47.593,278445,168,188280
-47.588,278376,171,188236
-47.584,278305,170,188220
-47.579,278226,169,188198
-47.574,278154,169,188192
-47.569,278097,168,188185
-47.564,278028,171,188157
-47.559,277948,170,188138
-47.554,277891,171,188122
-47.549,277832,169,188117
-47.544,277783,169,188093
-47.539,277757,168,188086
-47.534,277689,168,188071
-47.529,277615,170,188050
-47.524,277581,169,188030
-47.519,277544,169,188015
-47.514,277514,168,187988
-47.509,277470,168,187972
-47.504,277406,168,187949
-47.499,277401,171,187947
-47.494,277361,171,187946
-47.489,277354,169,187936
-47.484,277364,169,187946
-47.479,277314,168,187933
-47.474,277278,168,187924
-47.469,277269,171,187908
-47.464,277239,170,187900
-47.459,277201,170,187947
-47.454,277201,170,187889
-47.450,277187,169,187901
-47.445,277198,168,187885
-47.440,277167,168,187861
-47.435,277125,168,187849
-47.430,277120,170,187845
-47.425,277105,169,187845
-47.420,277092,168,187820
-47.415,277098,168,187812
-47.410,277059,169,187792
-47.405,277051,168,187789
-47.400,277038,168,187796
-47.395,277074,171,187802
-47.390,277104,170,187832
-47.385,277133,169,187852
-47.380,277168,168,187880
-47.375,277209,168,187901
-47.370,277250,171,187901
-47.365,277267,170,187904
-47.360,277250,168,187893
-47.355,277250,170,187891
-47.350,277253,169,187878
-47.345,277292,169,187868
-47.340,277283,168,187871
-47.335,277297,172,187890
-47.330,277303,170,187902
-47.325,277363,169,187914
-47.320,277360,169,187936
-47.316,277374,168,187938
-47.311,277391,169,187946
-47.306,277410,169,187964
-47.301,277423,168,187974
-47.296,277398,168,187945
-47.291,277403,170,187947
-47.286,277401,169,187954
-47.281,277381,168,187927
-47.276,277375,171,187925
-47.271,277383,170,187906
-47.266,277361,169,187913
-47.261,277374,171,187915
-47.256,277380,170,187908
-47.251,277391,168,187927
-47.246,277435,168,187939
-47.241,277429,171,187928
-47.236,277463,170,187927
-47.231,277475,169,187923
-47.226,277483,169,187930
-47.221,277480,168,187934
-47.216,277505,169,187907
-47.211,277521,168,187949
-47.206,277558,168,187949
-47.201,277557,171,187932
-47.196,277548,170,187930
-47.191,277582,169,187924
-47.186,277597,168,187929
-47.182,277589,168,187924
-47.177,277632,171,187926
-47.172,277621,170,187936
-47.167,277631,168,187936
-47.162,277659,169,187924
-47.157,277687,168,187911
-47.152,277694,168,187936
-47.147,277719,171,187927
-47.142,277747,170,187939
-47.137,277781,170,187938
-47.132,277808,169,187952
-47.127,277841,168,187976
-47.122,277861,168,187979
-47.117,277878,169,187975
-47.112,277882,168,187972
-47.107,277916,168,187984
-47.102,277943,168,187977
-47.097,277956,171,187992
-47.092,277987,170,188020
-47.087,278035,169,188024
-47.082,278089,169,188033
-47.077,278132,168,188041
-47.072,278133,168,188043
-47.067,278146,168,188058
-47.062,278196,168,188070
-47.057,278242,171,188079
-47.052,278256,170,188092
-47.047,278274,170,188084
-47.043,278258,168,188092
-47.038,278261,168,188071
-47.033,278215,168,188046
-47.028,278135,171,188033
-47.023,278069,169,187971
-47.018,277991,168,187941
-47.013,277876,169,187919
-47.008,277808,169,187874
-47.003,277718,168,187854
-46.998,277653,168,187816
-46.993,277561,171,187806
-46.988,277507,170,187789
-46.983,277447,169,187778
-46.978,277379,169,187764
-46.973,277302,168,187725
-46.968,277246,170,187713
-46.963,277199,169,187685
-46.958,277148,168,187676
-46.953,277103,168,187654
-46.948,277066,171,187652
-46.943,277017,170,187639
-46.938,277004,169,187617
-46.933,276953,168,187618
-46.928,276935,168,187573
-46.923,276888,172,187577
-46.918,276853,169,187564
-46.913,276841,168,187550
-46.909,276814,168,187544
-46.904,276789,171,187547
-46.899,276757,170,187537
-46.894,276759,170,187539
-46.889,276734,169,187514
-46.884,276687,168,187498
-46.879,276671,168,187490
-46.874,276646,169,187488
-46.869,276622,168,187464
-46.864,276581,171,187485
-46.859,276594,170,187458
-46.854,276567,169,187468
-46.849,276547,169,187443
-46.844,276530,168,187433
-46.839,276532,172,187422
-46.834,276516,170,187412
-46.829,276521,170,187428
-46.824,276542,171,187434
-46.819,276572,170,187455
-46.814,276590,169,187497
-46.809,276633,168,187514
-46.804,276677,171,187517
-46.799,276705,170,187527
-46.794,276748,169,187531
-46.789,276715,169,187532
-46.784,276725,168,187511
-46.779,276718,168,187515
-46.775,276738,170,187489
-46.770,276751,170,187505
-46.765,276728,169,187508
-46.760,276752,168,187522
-46.755,276762,168,187538
-46.750,276812,168,187549
-46.745,276832,170,187551
-46.740,276827,170,187565
-46.735,276862,169,187585
-46.730,276870,168,187589
-46.725,276855,170,187576
-46.720,276863,169,187577
-46.715,276875,168,187570
-46.710,276892,168,187579
-46.705,276890,171,187553
-46.700,276894,170,187575
-46.695,276886,170,187579
-46.690,276912,169,187577
-46.685,276908,168,187598
-46.680,276963,168,187581
-46.675,276954,169,187611
-46.670,276982,168,187604
-46.665,277005,168,187640
-46.660,277028,171,187631
-46.655,277044,169,187650
-46.650,277073,169,187643
-46.645,277074,168,187663
-46.641,277106,168,187660
-46.636,277113,168,187657
-46.631,277137,168,187680
-46.626,277183,168,187703
-46.621,277209,168,187706
-46.616,277223,171,187727
-46.611,277260,168,187729
-46.606,277296,169,187729
-46.601,277302,169,187736
-46.596,277337,168,187740
-46.591,277365,168,187757
-46.586,277391,168,187758
-46.581,277410,169,187773
-46.576,277455,168,187773
-46.571,277482,168,187801
-46.566,277533,168,187818
-46.561,277538,168,187831
-46.556,277582,171,187835
-46.551,277644,170,187858
-46.546,277679,169,187884
-46.541,277731,169,187924
-46.536,277762,168,187935
-46.531,277805,169,187960
-46.526,277838,169,187956
-46.521,277877,169,188000
-46.516,277925,168,188018
-46.511,277975,168,188054
-46.506,278046,171,188077
-46.502,278110,170,188123
-46.497,278147,170,188149
-46.492,278222,168,188201
-46.487,278266,168,188208
-46.482,278347,168,188232
-46.477,278375,168,188290
-46.472,278426,172,188294
-46.467,278453,170,188328
-46.462,278438,170,188314
-46.457,278401,169,188309
-46.452,278375,168,188277
-46.447,278303,168,188260
-46.442,278243,168,188230
-46.437,278140,171,188209
-46.432,278059,170,188170
-46.427,277965,170,188143
-46.422,277882,169,188121
-46.417,277823,169,188114
-46.412,277752,168,188108
-46.407,277681,168,188111
-46.402,277623,168,188085
-46.397,277559,168,188068
-46.392,277503,171,188025
-46.387,277438,172,188015
-46.382,277382,168,187949
-46.377,277318,168,187939
-46.372,277246,171,187910
-46.368,277181,170,187874
-46.363,277134,169,187858
-46.358,277100,168,187864
-46.353,277064,168,187844
-46.348,277012,168,187810
-46.343,276995,171,187805
-46.338,276940,168,187783
-46.333,276931,171,187763
-46.328,276883,170,187765
-46.323,276859,169,187763
-46.318,276848,169,187750
-46.313,276811,168,187739
-46.308,276760,168,187718
-46.303,276748,168,187736
-46.298,276739,168,187712
-46.293,276692,171,187702
-46.288,276679,168,187681
-46.283,276650,168,187656
-46.278,276637,168,187660
-46.273,276621,171,187640
-46.268,276589,171,187647
-46.263,276580,169,187625
-46.258,276559,169,187624
-46.253,276539,168,187621
-46.248,276525,168,187595
-46.243,276533,168,187594
-46.238,276529,169,187582
-46.234,276554,168,187609
-46.229,276575,168,187629
-46.224,276591,168,187625
-46.219,276605,171,187638
-46.214,276669,171,187655
-46.209,276679,170,187634
-46.204,276664,170,187645
-46.199,276673,170,187634
-46.194,276695,169,187631
-46.189,276711,171,187638
-46.184,276690,170,187626
-46.179,276711,169,187649
-46.174,276704,169,187627
-46.169,276732,169,187639
-46.164,276735,168,187648
-46.159,276766,168,187649
-46.154,276780,168,187682
-46.149,276800,171,187686
-46.144,276815,170,187679
-46.139,276822,168,187699
-46.134,276833,171,187700
-46.129,276843,171,187690
-46.124,276829,170,187701
-46.119,276829,170,187703
-46.114,276858,169,187686
-46.109,276839,168,187686
-46.104,276858,168,187711
-46.099,276872,171,187702
-46.095,276887,168,187671
-46.090,276914,170,187699
-46.085,276904,170,187714
-46.080,276948,169,187713
-46.075,276945,168,187734
-46.070,276964,168,187732
-46.065,277017,168,187740
-46.060,277037,168,187737
-46.055,277063,171,187750
-46.050,277070,170,187779
-46.045,277095,168,187778
-46.040,277125,168,187796
-46.035,277147,168,187774
-46.030,277160,168,187807
-46.025,277194,168,187797
-46.020,277205,171,187798
-46.015,277238,170,187805
-46.010,277230,169,187814
-46.005,277302,169,187820
-46.000,277301,169,187846
-45.995,277336,170,187829
-45.990,277362,169,187857
-45.985,277407,169,187871
-45.980,277452,168,187867
-45.975,277464,168,187886
-45.970,277480,171,187887
-45.965,277520,170,187885
-45.961,277541,169,187917
-45.956,277575,169,187931
-45.951,277634,168,187937
-45.946,277646,170,187935
-45.941,277660,169,187942
-45.936,277719,168,187946
-45.931,277727,168,187959
-45.926,277753,171,187978
-45.921,277792,171,187994
-45.916,277838,170,188014
-45.911,277859,169,188012
-45.906,277925,169,188025
-45.901,277926,168,188050
-45.896,277955,169,188069
-45.891,278014,168,188083
-45.886,278043,168,188100
-45.881,278075,171,188106
-45.876,278101,170,188109
-45.871,278107,169,188126
-45.866,278144,169,188115
-45.861,278183,169,188127
-45.856,278245,168,188166
-45.851,278275,169,188152
-45.846,278316,169,188188
-45.841,278380,168,188209
-45.836,278431,168,188234
-45.831,278430,171,188256
-45.827,278487,170,188260
-45.822,278497,169,188281
-45.817,278511,170,188261
-45.812,278487,169,188257
-45.807,278470,169,188227
-45.802,278390,169,188174
-45.797,278288,171,188136
-45.792,278209,171,188096
-45.787,278106,170,188051
-45.782,277961,170,188038
-45.777,277884,170,188000
-45.772,277781,169,187961
-45.767,277719,169,187944
-45.762,277612,168,187939
-45.757,277563,168,187919
-45.752,277457,168,187887
-45.747,277406,168,187841
-45.742,277326,168,187812
-45.737,277241,168,187780
-45.732,277175,168,187769
-45.727,277112,168,187734
-45.722,277063,171,187711
-45.717,276993,171,187701
-45.712,276962,170,187672
-45.707,276938,170,187662
-45.702,276879,168,187638
-45.697,276849,168,187611
-45.693,276840,171,187637
-45.688,276789,171,187598
-45.683,276789,170,187590
-45.678,276709,169,187571
-45.673,276712,169,187571
-45.668,276669,168,187564
-45.663,276652,168,187569
-45.658,276632,168,187569
-45.653,276619,168,187560
-45.648,276589,168,187561
-45.643,276559,171,187536
-45.638,276526,171,187517
-45.633,276500,170,187496
-45.628,276485,170,187488
-45.623,276470,169,187476
-45.618,276425,169,187479
-45.613,276415,169,187458
-45.608,276397,169,187463
-45.603,276377,171,187465
-45.598,276396,170,187448
-45.593,276392,169,187440
-45.588,276383,169,187468
-45.583,276422,168,187493
-45.578,276449,168,187498
-45.573,276486,168,187511
-45.568,276528,171,187554
-45.563,276527,171,187543
-45.558,276550,169,187532
-45.554,276558,168,187529
-45.549,276553,171,187524
-45.544,276563,170,187521
-45.539,276570,169,187507
-45.534,276561,169,187513
-45.529,276569,168,187514
-45.524,276580,168,187500
-45.519,276593,171,187532
-45.514,276632,170,187528
-45.509,276667,168,187551
-45.504,276655,169,187548
-45.499,276667,168,187551
-45.494,276671,168,187568
-45.489,276683,168,187568
-45.484,276702,171,187576
-45.479,276701,170,187572
-45.474,276701,169,187577
-45.469,276718,169,187567
-45.464,276715,169,187573
-45.459,276707,171,187574
-45.454,276715,170,187572
-45.449,276732,170,187573
-45.444,276747,170,187580
-45.439,276774,169,187588
-45.434,276809,169,187607
-45.429,276791,168,187611
-45.424,276814,168,187604
-45.420,276856,168,187627
-45.415,276867,168,187627
-45.410,276873,168,187618
-45.405,276901,168,187633
-45.400,276904,168,187656
-45.395,276942,168,187657
-45.390,276949,168,187644
-45.385,276982,172,187647
-45.380,277027,171,187658
-45.375,277047,170,187682
-45.370,277066,170,187678
-45.365,277096,169,187673
-45.360,277103,169,187683
-45.355,277127,168,187683
-45.350,277135,168,187678
-45.345,277170,168,187696
-45.340,277219,171,187708
-45.335,277240,170,187737
-45.330,277283,169,187757
-45.325,277313,169,187776
-45.320,277371,168,187789
-45.315,277423,169,187836
-45.310,277440,169,187821
-45.305,277478,168,187828
-45.300,277503,168,187843
-45.295,277530,171,187844
-45.290,277584,170,187862
-45.286,277611,170,187877
-45.281,277655,169,187910
-45.276,277686,169,187925
-45.271,277724,168,187926
-45.266,277763,170,187950
-45.261,277814,169,187960
-45.256,277862,169,187999
-45.251,277897,169,188000
-45.246,277928,168,188016
-45.241,277969,168,188032
-45.236,278003,168,188040
-45.231,278042,170,188058
-45.226,278076,170,188057
-45.221,278092,169,188068
-45.216,278152,170,188082
-45.211,278194,170,188092
-45.206,278232,169,188119
-45.201,278253,169,188111
-45.196,278299,168,188120
-45.191,278311,168,188146
-45.186,278342,168,188152
-45.181,278365,171,188174
-45.176,278431,171,188181
-45.171,278472,170,188192
-45.166,278469,168,188201
-45.161,278539,170,188193
-45.156,278560,169,188230
-45.152,278577,169,188233
-45.147,278621,168,188242
-45.142,278663,168,188253
-45.137,278699,170,188268
-45.132,278733,169,188273
-45.127,278777,168,188308
-45.122,278815,168,188313
-45.117,278841,169,188318
-45.112,278910,168,188357
-45.107,278923,168,188364
-45.102,278981,170,188378
-45.097,279005,170,188399
-45.092,279002,169,188398
-45.087,279076,169,188408
-45.082,279088,168,188419
-45.077,279168,168,188441
-45.072,279222,171,188466
-45.067,279253,168,188482
-45.062,279314,171,188517
-45.057,279354,170,188535
-45.052,279382,169,188551
-45.047,279406,169,188571
-45.042,279409,168,188557
-45.037,279439,168,188536
-45.032,279397,171,188516
-45.027,279331,170,188459
-45.022,279238,169,188421
-45.017,279130,171,188380
-45.013,279016,169,188323
-45.008,278901,169,188283
-45.003,278806,168,188263
-44.998,278676,168,188245
-44.993,278582,171,188207
-44.988,278495,170,188197
-44.983,278381,170,188173
-44.978,278315,169,188151
-44.973,278265,170,188113
-44.968,278130,168,188084
-44.963,278079,168,188052
-44.958,278018,171,188036
-44.953,277922,169,187995
-44.948,277864,169,187963
-44.943,277775,168,187932
-44.938,277753,168,187894
-44.933,277695,172,187888
-44.928,277645,171,187877
-44.923,277612,168,187850
-44.918,277587,168,187858
-44.913,277564,171,187824
-44.908,277528,170,187824
-44.903,277509,169,187845
-44.898,277507,168,187837
-44.893,277468,168,187819
-44.888,277460,171,187834
-44.883,277443,171,187830
-44.879,277447,170,187836
-44.874,277417,171,187826
-44.869,277376,171,187810
-44.864,277367,169,187779
-44.859,277359,169,187779
-44.854,277333,168,187778
-44.849,277317,168,187786
-44.844,277315,171,187744
-44.839,277291,170,187755
-44.834,277277,169,187742
-44.829,277271,168,187736
-44.824,277277,169,187718
-44.819,277237,169,187724
-44.814,277258,168,187716
-44.809,277249,168,187744
-44.804,277285,171,187750
-44.799,277332,170,187763
-44.794,277371,169,187791
-44.789,277400,168,187806
-44.784,277425,168,187815
-44.779,277444,168,187824
-44.774,277457,168,187795
-44.769,277449,168,187770
-44.764,277440,171,187798
-44.759,277476,170,187787
-44.754,277472,169,187805
-44.749,277491,168,187790
-44.745,277490,171,187800
-44.740,277523,170,187810
-44.735,277527,169,187842
-44.730,277554,168,187835
-44.725,277556,169,187854
-44.720,277550,168,187866
-44.715,277580,168,187870
-44.710,277593,171,187872
-44.705,277609,170,187877
-44.700,277597,169,187867
-44.695,277618,169,187885
-44.690,277617,168,187875
-44.685,277615,168,187879
-44.680,277641,169,187870
-44.675,277686,168,187902
-44.670,277661,168,187893
-44.665,277679,170,187898
-44.660,277690,170,187901
-44.655,277716,169,187931
-44.650,277756,168,187936
-44.645,277764,168,187944
-44.640,277795,171,187953
-44.635,277824,170,187979
-44.630,277879,168,187987
-44.625,277868,168,187987
-44.620,277894,168,187997
-44.615,277930,170,188007
-44.611,277945,169,188015
-44.606,277979,169,188029
-44.601,277991,168,188038
-44.596,278002,168,188039
-44.591,278018,168,188052
-44.586,278063,171,188077
-44.581,278090,168,188069
-44.576,278122,168,188096
-44.571,278164,171,188117
-44.566,278209,171,188113
-44.561,278249,170,188117
-44.556,278286,169,188128
-44.551,278309,169,188147
-44.546,278336,168,188169
-44.541,278346,168,188171
-44.536,278412,171,188187
-44.531,278446,171,188187
-44.526,278458,170,188199
-44.521,278507,169,188223
-44.516,278533,168,188243
-44.511,278558,168,188247
-44.506,278616,172,188255
-44.501,278659,170,188281
-44.496,278681,170,188295
-44.491,278718,169,188317
-44.486,278769,170,188301
-44.481,278797,170,188345
-44.476,278839,170,188374
-44.472,278878,169,188384
-44.467,278933,169,188407
-44.462,278988,169,188405
-44.457,279016,169,188417
-44.452,279036,168,188425
-44.447,279075,171,188457
-44.442,279138,170,188479
-44.437,279179,168,188489
-44.432,279217,168,188518
-44.427,279250,171,188514
-44.422,279272,170,188534
-44.417,279324,170,188548
-44.412,279355,169,188569
-44.407,279383,169,188582
-44.402,279445,169,188590
-44.397,279471,168,188602
-44.392,279518,168,188611
-44.387,279554,169,188637
-44.382,279572,169,188658
-44.377,279608,168,188668
-44.372,279657,168,188661
-44.367,279664,172,188670
-44.362,279724,171,188697
-44.357,279747,170,188713
-44.352,279793,169,188720
-44.347,279818,169,188748
-44.342,279877,168,188753
-44.338,279913,170,188781
-44.333,279967,169,188784
-44.328,280008,169,188820
-44.323,280018,168,188836
-44.318,280069,168,188836
-44.313,280102,171,188853
-44.308,280141,171,188872
-44.303,280203,169,188912
-44.298,280245,169,188919
-44.293,280272,168,188938
-44.288,280327,170,188963
-44.283,280407,169,188989
-44.278,280439,168,189003
-44.273,280472,168,189020
-44.268,280514,168,189054
-44.263,280576,171,189053
-44.258,280544,171,189045
-44.253,280527,170,189028
-44.248,280484,169,188983
-44.243,280396,168,188934
-44.238,280339,168,188891
-44.233,280231,171,188853
-44.228,280138,170,188821
-44.223,280008,169,188798
-44.218,279921,169,188768
-44.213,279810,168,188749
-44.208,279688,172,188722
-44.204,279614,170,188692
-44.199,279507,169,188682
-44.194,279422,170,188628
-44.189,279347,169,188606
-44.184,279217,169,188571
-44.179,279176,168,188555
-44.174,279076,168,188520
-44.169,279016,168,188491
-44.164,278964,172,188485
-44.159,278914,171,188460
-44.154,278837,170,188435
-44.149,278808,169,188402
-44.144,278796,171,188406
-44.139,278750,170,188395
-44.134,278708,169,188387
-44.129,278703,169,188373
-44.124,278686,169,188366
-44.119,278680,168,188373
-44.114,278664,168,188387
-44.109,278647,171,188382
-44.104,278626,170,188369
-44.099,278622,170,188373
-44.094,278614,168,188386
-44.089,278611,171,188366
-44.084,278604,171,188370
-44.079,278601,170,188369
-44.074,278581,170,188367
-44.069,278590,169,188341
-44.065,278574,169,188355
-44.060,278585,169,188353
-44.055,278582,168,188348
-44.050,278579,168,188318
-44.045,278553,170,188323
-44.040,278553,170,188319
-44.035,278584,169,188327
-44.030,278589,169,188356
-44.025,278650,168,188358
-44.020,278660,168,188391
-44.015,278706,171,188418
-44.010,278755,170,188414
-44.005,278797,169,188440
-44.000,278772,168,188417
-43.995,278783,169,188424
-43.990,278782,169,188417
-43.985,278770,168,188417
-43.980,278776,171,188406
-43.975,278793,170,188416
-43.970,278833,169,188416
-43.965,278833,168,188451
-43.960,278854,168,188456
-43.955,278898,171,188459
-43.950,278895,171,188426
-43.945,278893,168,188476
-43.940,278929,171,188485
-43.935,278915,170,188484
-43.931,278934,169,188481
-43.926,278935,169,188494
-43.921,278928,168,188489
-43.916,278934,168,188481
-43.911,278923,171,188484
-43.906,278920,170,188477
-43.901,278959,171,188479
-43.896,278923,171,188479
-43.891,278928,171,188463
-43.886,278952,170,188483
-43.881,278960,169,188489
-43.876,278997,168,188511
-43.871,278998,168,188522
-43.866,279020,168,188521
-43.861,279051,168,188514
-43.856,279072,171,188532
-43.851,279112,168,188538
-43.846,279112,169,188555
-43.841,279120,169,188548
-43.836,279138,168,188567
-43.831,279184,168,188564
-43.826,279183,168,188586
-43.821,279221,168,188593
-43.816,279259,168,188601
-43.811,279296,171,188591
-43.806,279293,171,188613
-43.801,279317,168,188622
-43.797,279356,168,188635
-43.792,279391,168,188642
-43.787,279411,171,188651
-43.782,279431,170,188682
-43.777,279483,170,188691
-43.772,279519,169,188692
-43.767,279528,168,188710
-43.762,279579,168,188731
-43.757,279622,171,188745
-43.752,279653,168,188761
-43.747,279692,168,188770
-43.742,279715,170,188770
-43.737,279761,170,188795
-43.732,279786,169,188802
-43.727,279801,168,188817
-43.722,279822,168,188825
-43.717,279873,171,188836
-43.712,279888,170,188854
-43.707,279930,169,188859
-43.702,279979,168,188872
-43.697,279988,171,188880
-43.692,280029,170,188895
-43.687,280067,169,188913
-43.682,280099,169,188908
-43.677,280128,168,188920
-43.672,280155,168,188918
-43.667,280193,168,188945
-43.663,280216,171,188977
-43.658,280252,170,188965
-43.653,280260,168,188982
-43.648,280325,171,188996
-43.643,280354,170,188996
-43.638,280373,169,189034
-43.633,280430,168,189018
-43.628,280475,168,189041
-43.623,280494,170,189070
-43.618,280541,170,189097
-43.613,280604,169,189101
-43.608,280629,170,189134
-43.603,280670,169,189139
-43.598,280713,168,189163
-43.593,280739,168,189159
-43.588,280749,171,189154
-43.583,280770,170,189151
-43.578,280735,169,189139
-43.573,280714,168,189105
-43.568,280656,168,189049
-43.563,280558,171,189007
-43.558,280511,168,188959
-43.553,280415,169,188916
-43.548,280311,168,188893
-43.543,280203,168,188877
-43.538,280112,171,188855
-43.533,280016,170,188817
-43.528,279924,170,188791
-43.524,279843,169,188772
-43.519,279721,169,188738
-43.514,279637,168,188720
-43.509,279562,169,188705
-43.504,279501,168,188679
-43.499,279445,171,188641
-43.494,279365,170,188617
-43.489,279308,170,188595
-43.484,279258,169,188573
-43.479,279209,168,188546
-43.474,279165,168,188547
-43.469,279140,170,188530
-43.464,279097,170,188508
-43.459,279074,168,188493
-43.454,279071,170,188465
-43.449,279043,169,188481
-43.444,279007,168,188454
-43.439,278976,168,188458
-43.434,278996,168,188471
-43.429,278965,171,188451
-43.424,278959,171,188459
-43.419,278959,170,188447
-43.414,278977,170,188462
-43.409,278956,171,188442
-43.404,278939,171,188446
-43.399,278917,170,188434
-43.394,278899,169,188412
-43.390,278870,169,188409
-43.385,278865,169,188405
-43.380,278843,168,188374
-43.375,278864,168,188381
-43.370,278858,168,188380
-43.365,278908,168,188403
-43.360,278940,168,188423
-43.355,278977,168,188446
-43.350,279027,168,188464
-43.345,279062,171,188469
-43.340,279066,170,188488
-43.335,279082,170,188478
-43.330,279103,169,188440
-43.325,279103,169,188443
-43.320,279103,168,188453
-43.315,279106,170,188429
-43.310,279108,169,188441
-43.305,279117,169,188420
-43.300,279132,168,188431
-43.295,279171,168,188455
-43.290,279178,168,188471
-43.285,279191,171,188480
-43.280,279177,170,188469
-43.275,279194,169,188479
-43.270,279200,169,188470
-43.265,279184,170,188472
-43.260,279190,170,188470
-43.256,279198,169,188477
-43.251,279197,169,188477
-43.246,279195,168,188475
-43.241,279160,168,188462
-43.236,279169,168,188475
-43.231,279219,168,188465
-43.226,279210,171,188481
-43.221,279231,170,188511
-43.216,279238,168,188489
-43.211,279237,168,188489
-43.206,279254,171,188500
-43.201,279281,171,188520
-43.196,279279,170,188514
-43.191,279323,169,188520
-43.186,279327,169,188519
-43.181,279359,169,188537
-43.176,279368,169,188528
-43.171,279393,168,188524
-43.166,279394,168,188543
-43.161,279405,168,188560
-43.156,279426,171,188521
-43.151,279444,170,188553
-43.146,279471,170,188539
-43.141,279488,169,188555
-43.136,279525,169,188560
-43.131,279527,169,188563
-43.126,279561,168,188568
-43.122,279580,169,188558
-43.117,279615,168,188591
-43.112,279623,171,188572
-43.107,279644,170,188568
-43.102,279643,170,188579
-43.097,279692,169,188587
-43.092,279701,169,188585
-43.087,279766,169,188619
-43.082,279764,168,188632
-43.077,279797,168,188608
-43.072,279852,169,188636
-43.067,279865,169,188629
-43.062,279909,169,188668
-43.057,279915,168,188659
-43.052,279912,168,188652
-43.047,279955,168,188671
-43.042,279963,172,188656
-43.037,280004,171,188684
-43.032,280047,170,188708
-43.027,280081,170,188713
-43.022,280135,168,188744
-43.017,280191,171,188759
-43.012,280201,171,188774
-43.007,280263,170,188776
-43.002,280284,170,188794
-42.997,280310,169,188807
-42.992,280370,169,188819
-42.987,280380,168,188829
-42.983,280391,168,188827
-42.978,280381,168,188806
-42.973,280312,169,188757
-42.968,280253,168,188717
-42.963,280161,168,188684
-42.958,280075,168,188646
-42.953,279976,171,188597
-42.948,279896,170,188589
-42.943,279815,170,188559
-42.938,279741,169,188544
-42.933,279636,169,188525
-42.928,279561,168,188525
-42.923,279439,169,188490
-42.918,279396,169,188461
-42.913,279331,168,188435
-42.908,279227,168,188416
-42.903,279172,171,188406
-42.898,279117,171,188349
-42.893,279043,170,188349
-42.888,278998,169,188324
-42.883,278922,169,188297
-42.878,278882,168,188285
-42.873,278831,169,188271
-42.868,278823,169,188253
-42.863,278808,169,188252
-42.858,278767,168,188236
-42.853,278743,168,188237
-42.849,278729,168,188226
-42.844,278701,170,188218
-42.839,278684,170,188214
-42.834,278683,169,188223
-42.829,278673,173,188233
-42.824,278661,172,188218
-42.819,278640,170,188211
-42.814,278628,170,188210
-42.809,278607,169,188218
-42.804,278622,169,188205
-42.799,278594,169,188171
-42.794,278586,168,188178
-42.789,278579,168,188149
-42.784,278553,171,188152
-42.779,278531,168,188131
-42.774,278512,168,188125
-42.769,278520,168,188119
-42.764,278550,171,188130
-42.759,278554,170,188175
-42.754,278620,169,188175
-42.749,278655,169,188195
-42.744,278680,169,188205
-42.739,278713,168,188207
-42.734,278711,168,188208
-42.729,278729,171,188195
-42.724,278694,171,188170
-42.719,278705,171,188152
-42.715,278718,171,188169
-42.710,278709,170,188167
-42.705,278707,170,188146
-42.700,278730,169,188159
-42.695,278725,169,188155
-42.690,278754,168,188191
-42.685,278757,168,188171
-42.680,278784,169,188189
-42.675,278745,169,188194
-42.670,278751,168,188184
-42.665,278745,168,188188
-42.660,278717,168,188181
-42.655,278736,168,188166
-42.650,278734,171,188161
-42.645,278757,171,188151
-42.640,278747,170,188149
-42.635,278720,169,188153
-42.630,278728,171,188160
-42.625,278750,170,188157
-42.620,278754,170,188153
-42.615,278758,169,188165
-42.610,278782,168,188165
-42.605,278778,168,188176
-42.600,278804,168,188179
-42.595,278828,168,188179
-42.590,278847,168,188197
-42.585,278862,169,188227
-42.580,278889,169,188188
-42.576,278881,168,188189
-42.571,278912,168,188218
-42.566,278933,168,188189
-42.561,278939,168,188208
-42.556,278938,171,188199
-42.551,278960,171,188199
-42.546,278951,171,188194
-42.541,278977,170,188206
-42.536,279009,172,188205
-42.531,279026,169,188216
-42.526,279045,168,188227
-42.521,279079,168,188225
-42.516,279102,171,188223
-42.511,279125,170,188247
-42.506,279121,170,188247
-42.501,279178,169,188267
-42.496,279198,168,188256
-42.491,279232,168,188280
-42.486,279263,170,188278
-42.481,279289,169,188307
-42.476,279307,169,188327
-42.471,279370,168,188331
-42.466,279418,168,188348
-42.461,279436,171,188349
-42.456,279435,171,188353
-42.451,279481,169,188358
-42.446,279514,169,188378
-42.442,279552,168,188399
-42.437,279613,172,188427
-42.432,279636,168,188452
-42.427,279686,171,188462
-42.422,279715,170,188476
-42.417,279758,169,188501
-42.412,279798,169,188519
-42.407,279830,168,188541
-42.402,279850,168,188541
-42.397,279860,168,188531
-42.392,279856,170,188520
-42.387,279802,169,188478
-42.382,279740,168,188458
-42.377,279652,171,188391
-42.372,279551,170,188361
-42.367,279442,170,188333
-42.362,279345,169,188280
-42.357,279221,169,188258
-42.352,279124,168,188239
-42.347,279041,168,188207
-42.342,278945,171,188184
-42.337,278866,168,188167
-42.332,278782,168,188144
-42.327,278702,171,188107
-42.322,278606,170,188075
-42.317,278565,170,188045
-42.312,278484,169,188010
-42.308,278401,169,188004
-42.303,278341,168,187960
-42.298,278286,168,187931
-42.293,278223,173,187927
-42.288,278174,168,187901
-42.283,278138,168,187882
-42.278,278105,171,187877
-42.273,278059,171,187847
-42.268,278063,169,187837
-42.263,278006,169,187825
-42.258,277968,168,187808
-42.253,277946,168,187794
-42.248,277924,171,187791
-42.243,277892,168,187779
-42.238,277866,168,187778
-42.233,277837,168,187781
-42.228,277826,171,187766
-42.223,277812,170,187768
-42.218,277802,170,187756
-42.213,277752,169,187737
-42.208,277739,168,187741
-42.203,277705,168,187699
-42.198,277699,168,187715
-42.193,277640,168,187697
-42.188,277644,168,187665
-42.183,277616,168,187654
-42.178,277594,168,187657
-42.174,277615,171,187658
-42.169,277604,170,187672
-42.164,277654,169,187673
-42.159,277668,168,187696
-42.154,277667,168,187683
-42.149,277700,171,187702
-42.144,277710,168,187695
-42.139,277726,168,187677
-42.134,277699,168,187670
-42.129,277706,171,187654
-42.124,277710,170,187638
-42.119,277695,169,187636
-42.114,277686,169,187616
-42.109,277685,168,187617
-42.104,277691,172,187614
-42.099,277709,170,187613
-42.094,277706,168,187635
-42.089,277699,171,187634
-42.084,277714,171,187634
-42.079,277733,170,187630
-42.074,277704,169,187633
-42.069,277709,168,187629
-42.064,277705,168,187632
-42.059,277703,168,187617
-42.054,277699,171,187623
-42.049,277686,170,187626
-42.044,277707,168,187641
-42.039,277713,168,187647
-42.035,277727,171,187625
-42.030,277708,170,187639
-42.025,277730,169,187649
-42.020,277744,169,187652
-42.015,277778,168,187654
-42.010,277782,168,187663
-42.005,277810,172,187666
-42.000,277815,168,187674
-41.995,277827,168,187669
-41.990,277858,171,187676
-41.985,277875,170,187671
-41.980,277887,169,187689
-41.975,277914,169,187697
-41.970,277936,168,187719
-41.965,277957,168,187711
-41.960,277961,171,187712
-41.955,277966,170,187722
-41.950,277990,168,187720
-41.945,278009,168,187722
-41.940,278029,171,187723
-41.935,278048,170,187722
-41.930,278086,169,187749
-41.925,278091,169,187740
-41.920,278121,168,187756
-41.915,278132,168,187756
-41.910,278175,168,187755
-41.905,278195,171,187774
-41.901,278198,168,187777
-41.896,278231,168,187793
-41.891,278278,171,187797
-41.886,278280,170,187809
-41.881,278322,169,187809
-41.876,278355,169,187848
-41.871,278396,168,187853
-41.866,278432,172,187849
-41.861,278454,170,187852
-41.856,278459,169,187864
-41.851,278487,170,187851
-41.846,278512,169,187873
-41.841,278541,169,187875
-41.836,278591,168,187903
-41.831,278644,168,187919
-41.826,278649,171,187943
-41.821,278715,170,187950
-41.816,278739,169,187971
-41.811,278756,169,187984
-41.806,278805,169,188018
-41.801,278840,170,188014
-41.796,278855,169,188004
-41.791,278845,168,187993
-41.786,278784,168,187943
-41.781,278731,171,187924
-41.776,278650,170,187884
-41.771,278543,169,187823
-41.767,278430,168,187788
-41.762,278322,168,187761
-41.757,278209,169,187689
-41.752,278117,168,187682
-41.747,278016,168,187672
-41.742,277946,171,187638
-41.737,277838,170,187630
-41.732,277766,169,187607
-41.727,277709,168,187566
-41.722,277626,168,187544
-41.717,277557,171,187529
-41.712,277479,170,187495
-41.707,277425,168,187454
-41.702,277389,171,187457
-41.697,277302,170,187431
-41.692,277238,169,187403
-41.687,277188,169,187380
-41.682,277142,168,187372
-41.677,277124,168,187346
-41.672,277084,171,187333
-41.667,277040,169,187321
-41.662,277004,169,187312
-41.657,276998,171,187299
-41.652,276948,168,187291
-41.647,276906,171,187291
-41.642,276863,169,187275
-41.637,276869,168,187278
-41.632,276851,171,187255
-41.628,276806,170,187246
-41.623,276787,170,187228
-41.618,276725,169,187225
-41.613,276712,169,187229
-41.608,276731,168,187196
-41.603,276706,171,187195
-41.598,276640,170,187184
-41.593,276643,169,187165
-41.588,276621,168,187176
-41.583,276594,168,187136
-41.578,276571,171,187128
-41.573,276584,170,187149
-41.568,276614,169,187158
-41.563,276625,168,187191
-41.558,276675,169,187199
-41.553,276692,169,187194
-41.548,276715,168,187204
-41.543,276712,168,187194
-41.538,276692,171,187162
-41.533,276686,170,187138
-41.528,276655,169,187137
-41.523,276673,168,187117
-41.518,276695,172,187136
-41.513,276700,170,187161
-41.508,276716,168,187144
-41.503,276703,171,187149
-41.498,276732,170,187151
-41.494,276747,169,187169
-41.489,276767,168,187189
-41.484,276770,168,187198
-41.479,276774,170,187223
-41.474,276824,169,187231
-41.469,276826,168,187250
-41.464,276849,173,187235
-41.459,276830,168,187254
-41.454,276830,168,187242
-41.449,276851,171,187235
-41.444,276842,170,187246
-41.439,276833,169,187258
-41.434,276839,168,187260
-41.429,276857,168,187260
-41.424,276880,170,187260
-41.419,276887,169,187273
-41.414,276911,171,187297
-41.409,276947,169,187300
-41.404,276945,168,187319
-41.399,276981,168,187312
-41.394,277011,170,187320
-41.389,277013,169,187336
-41.384,277055,168,187347
-41.379,277068,168,187354
-41.374,277092,171,187355
-41.369,277087,169,187354
-41.364,277145,168,187364
-41.360,277142,168,187373
-41.355,277160,171,187375
-41.350,277169,170,187384
-41.345,277199,169,187382
-41.340,277205,168,187408
-41.335,277239,168,187397
-41.330,277260,171,187415
-41.325,277268,171,187415
-41.320,277313,170,187437
-41.315,277317,171,187422
-41.310,277345,170,187437
-41.305,277369,169,187451
-41.300,277400,168,187460
-41.295,277450,168,187448
-41.290,277466,168,187461
-41.285,277512,171,187466
-41.280,277520,170,187471
-41.275,277533,169,187493
-41.270,277576,168,187504
-41.265,277596,169,187512
-41.260,277628,169,187526
-41.255,277652,168,187525
-41.250,277712,171,187535
-41.245,277739,170,187552
-41.240,277735,169,187561
-41.235,277770,168,187573
-41.230,277800,171,187587
-41.226,277834,170,187596
-41.221,277879,170,187621
-41.216,277871,168,187601
-41.211,277918,170,187610
-41.206,277943,170,187629
-41.201,277995,169,187636
-41.196,278021,169,187637
-41.191,278058,168,187652
-41.186,278103,171,187679
-41.181,278111,170,187693
-41.176,278145,170,187717
-41.171,278135,169,187700
-41.166,278214,170,187717
-41.161,278235,169,187738
-41.156,278284,169,187738
-41.151,278321,168,187758
-41.146,278348,168,187785
-41.141,278376,171,187800
-41.136,278436,170,187812
-41.131,278468,169,187834
-41.126,278483,168,187834
-41.121,278496,170,187855
-41.116,278484,169,187832
-41.111,278474,168,187802
-41.106,278426,168,187764
-41.101,278344,170,187713
-41.096,278273,169,187693
-41.091,278157,169,187633
-41.087,278063,168,187619
-41.082,277947,171,187576
-41.077,277825,170,187545
-41.072,277762,168,187512
-41.067,277606,169,187498
-41.062,277532,168,187465
-41.057,277446,168,187435
-41.052,277383,171,187423
-41.047,277275,170,187386
-41.042,277201,169,187349
-41.037,277148,168,187329
-41.032,277049,168,187295
-41.027,276989,171,187272
-41.022,276921,168,187243
-41.017,276865,171,187223
-41.012,276829,169,187187
-41.007,276764,169,187173
-41.002,276731,168,187165
-40.997,276676,171,187149
-40.992,276650,170,187128
-40.987,276619,169,187115
-40.982,276588,168,187110
-40.977,276541,168,187091
-40.972,276521,169,187079
-40.967,276518,168,187074
-40.962,276477,168,187064
-40.957,276459,171,187058
-40.953,276424,171,187046
-40.948,276413,170,187049
-40.943,276367,169,187017
-40.938,276342,168,187007
-40.933,276315,168,186989
-40.928,276281,168,186988
-40.923,276251,170,186967
-40.918,276262,169,186968
-40.913,276227,168,186943
-40.908,276206,168,186940
-40.903,276185,171,186901
-40.898,276162,170,186906
-40.893,276184,169,186906
-40.888,276185,169,186933
-40.883,276214,168,186937
-40.878,276215,168,186944
-40.873,276240,168,186948
-40.868,276285,171,186958
-40.863,276294,169,186957
-40.858,276306,169,186952
-40.853,276295,168,186938
-40.848,276293,168,186940
-40.843,276285,171,186932
-40.838,276292,169,186915
-40.833,276290,169,186901
-40.828,276265,169,186916
-40.823,276297,169,186895
-40.819,276294,168,186905
-40.814,276312,168,186884
-40.809,276277,171,186895
-40.804,276307,170,186915
-40.799,276311,169,186917
-40.794,276332,168,186915
-40.789,276317,168,186895
-40.784,276324,168,186915
-40.779,276341,168,186919
-40.774,276310,168,186920
-40.769,276321,171,186910
-40.764,276308,170,186915
-40.759,276306,168,186906
-40.754,276319,168,186891
-40.749,276324,171,186887
-40.744,276321,170,186890
-40.739,276328,169,186881
-40.734,276337,168,186891
-40.729,276342,170,186902
-40.724,276375,170,186892
-40.719,276393,169,186910
-40.714,276413,168,186925
-40.709,276453,171,186945
-40.704,276447,170,186941
-40.699,276467,169,186940
-40.694,276512,169,186961
-40.689,276507,168,186962
-40.685,276523,168,186962
-40.680,276551,168,186971
-40.675,276576,168,186960
-40.670,276600,168,186962
-40.665,276567,170,186972
-40.660,276612,170,186975
-40.655,276632,169,186978
-40.650,276669,169,186976
-40.645,276676,168,187000
-40.640,276719,168,187012
-40.635,276734,168,186976
-40.630,276778,168,187007
-40.625,276802,168,187029
-40.620,276809,171,187040
-40.615,276844,170,187043
-40.610,276904,169,187052
-40.605,276910,168,187082
-40.600,276943,168,187091
-40.595,276968,171,187089
-40.590,277002,170,187110
-40.585,277061,168,187130
-40.580,277097,170,187143
-40.575,277112,169,187153
-40.570,277151,169,187187
-40.565,277180,168,187193
-40.560,277212,168,187208
-40.555,277267,171,187219
-40.550,277292,170,187225
-40.546,277310,169,187218
-40.541,277351,168,187238
-40.536,277366,169,187246
-40.531,277394,169,187244
-40.526,277420,168,187247
-40.521,277430,168,187254
-40.516,277475,168,187278
-40.511,277509,170,187280
-40.506,277542,170,187293
-40.501,277561,169,187302
-40.496,277567,168,187328
-40.491,277599,168,187311
-40.486,277663,171,187317
-40.481,277681,171,187335
-40.476,277709,170,187340
-40.471,277744,169,187355
-40.466,277748,169,187358
-40.461,277772,168,187354
-40.456,277829,168,187371
-40.451,277852,168,187383
-40.446,277874,171,187390
-40.441,277931,170,187396
-40.436,277944,168,187419
-40.431,277957,171,187424
-40.426,277984,170,187433
-40.421,278022,169,187437
-40.416,278056,168,187456
-40.412,278104,168,187480
-40.407,278152,168,187497
-40.402,278175,171,187509
-40.397,278229,170,187526
-40.392,278249,170,187566
-40.387,278307,168,187553
-40.382,278309,171,187551
-40.377,278327,170,187577
-40.372,278321,170,187556
-40.367,278286,170,187526
-40.362,278233,169,187488
-40.357,278174,169,187457
-40.352,278087,168,187414
-40.347,277978,168,187389
-40.342,277851,168,187354
-40.337,277753,168,187322
-40.332,277650,168,187296
-40.327,277567,168,187270
-40.322,277471,168,187224
-40.317,277366,168,187212
-40.312,277256,171,187178
-40.307,277193,171,187157
-40.302,277115,170,187117
-40.297,277036,170,187090
-40.292,276980,171,187065
-40.287,276922,171,187034
-40.282,276855,171,187016
-40.278,276814,170,186990
-40.273,276744,170,186969
-40.268,276705,170,186945
-40.263,276662,169,186928
-40.258,276603,170,186903
-40.253,276581,170,186886
-40.248,276539,170,186882
-40.243,276521,169,186863
-40.238,276508,169,186843
-40.233,276483,169,186852
-40.228,276461,168,186843
-40.223,276450,169,186842
-40.218,276447,168,186845
-40.213,276378,168,186835
-40.208,276398,171,186819
-40.203,276366,170,186821
-40.198,276362,169,186808
-40.193,276337,171,186805
-40.188,276338,170,186797
-40.183,276309,170,186785
-40.178,276297,169,186777
-40.173,276289,168,186793
-40.168,276278,168,186778
-40.163,276248,168,186757
-40.158,276264,171,186751
-40.153,276237,170,186751
-40.148,276259,169,186754
-40.144,276289,169,186763
-40.139,276333,168,186779
-40.134,276334,168,186809
-40.129,276375,168,186794
-40.124,276388,170,186810
-40.119,276408,170,186799
-40.114,276424,169,186804
-40.109,276418,168,186793
-40.104,276426,168,186795
-40.099,276395,168,186793
-40.094,276442,168,186784
-40.089,276440,170,186791
-40.084,276452,169,186788
-40.079,276419,168,186801
-40.074,276462,168,186809
-40.069,276453,170,186819
-40.064,276470,169,186816
-40.059,276481,168,186827
-40.054,276498,168,186837
-40.049,276520,168,186833
-40.044,276490,168,186857
-40.039,276520,171,186852
-40.034,276508,170,186826
-40.029,276497,169,186832
-40.024,276520,168,186828
-40.019,276519,171,186825
-40.014,276517,169,186838
-40.009,276528,168,186837
-40.005,276556,168,186836
-40.000,276573,169,186851
-39.995,276548,168,186863
-39.990,276591,171,186863
-39.985,276606,170,186865
-39.980,276632,169,186881
-39.975,276649,169,186894
-39.970,276640,168,186878
-39.965,276688,168,186893
-39.960,276716,171,186905
-39.955,276717,170,186915
-39.950,276734,168,186899
-39.945,276755,171,186910
-39.940,276771,170,186907
-39.935,276806,169,186935
-39.930,276807,168,186929
-39.925,276833,168,186932
-39.920,276866,171,186935
-39.915,276898,170,186958
-39.910,276902,169,186958
-39.905,276943,168,186975
-39.900,276962,169,186966
-39.895,276983,168,186977
-39.890,276999,168,186976
-39.885,277016,168,187000
-39.880,277056,168,186994
-39.875,277087,168,187006
-39.871,277137,171,187016
-39.866,277129,170,187018
-39.861,277156,170,187033
-39.856,277192,169,187061
-39.851,277244,171,187075
-39.846,277271,170,187057
-39.841,277287,170,187080
-39.836,277344,169,187097
-39.831,277390,169,187114
-39.826,277386,169,187127
-39.821,277429,168,187131
-39.816,277477,168,187137
-39.811,277476,168,187148
-39.806,277496,170,187183
-39.801,277546,168,187166
-39.796,277578,168,187181
-39.791,277634,168,187198
-39.786,277656,171,187222
-39.781,277693,170,187236
-39.776,277729,170,187246
-39.771,277774,169,187251
-39.766,277796,168,187269
-39.761,277829,168,187283
-39.756,277876,169,187301
-39.751,277896,168,187310
-39.746,277921,168,187316
-39.741,277969,171,187323
-39.737,278001,170,187340
-39.732,278035,169,187355
-39.727,278060,169,187366
-39.722,278105,169,187368
-39.717,278130,168,187373
-39.712,278143,168,187367
-39.707,278185,169,187412
-39.702,278227,168,187420
-39.697,278252,168,187414
-39.692,278292,168,187440
-39.687,278314,168,187443
-39.682,278337,171,187454
-39.677,278385,170,187469
-39.672,278411,169,187475
-39.667,278421,169,187486
-39.662,278462,169,187488
-39.657,278493,170,187503
-39.652,278527,169,187526
-39.647,278566,169,187548
-39.642,278604,169,187551
-39.637,278625,168,187583
-39.632,278683,168,187584
-39.627,278702,168,187598
-39.622,278748,168,187601
-39.617,278767,168,187600
-39.612,278826,172,187614
-39.607,278852,168,187660
-39.602,278918,168,187676
-39.598,278956,168,187711
-39.593,279000,168,187735
-39.588,279064,171,187746
-39.583,279076,170,187759
-39.578,279098,170,187797
-39.573,279153,169,187787
-39.568,279119,168,187777
-39.563,279106,169,187801
-39.558,279060,168,187716
-39.553,279002,171,187679
-39.548,278908,170,187642
-39.543,278792,169,187612
-39.538,278697,169,187593
-39.533,278611,168,187542
-39.528,278504,168,187515
-39.523,278434,171,187500
-39.518,278331,170,187484
-39.513,278202,171,187475
-39.508,278151,171,187450
-39.503,278072,170,187415
-39.498,278009,169,187395
-39.493,277917,169,187357
-39.488,277876,168,187328
-39.483,277780,168,187312
-39.478,277716,171,187297
-39.473,277692,170,187265
-39.468,277638,169,187248
-39.464,277600,171,187218
-39.459,277552,170,187214
-39.454,277509,169,187208
-39.449,277508,168,187205
-39.444,277481,168,187198
-39.439,277483,168,187191
-39.434,277450,168,187176
-39.429,277451,171,187190
-39.424,277430,170,187188
-39.419,277418,169,187191
-39.414,277458,168,187171
-39.409,277419,168,187191
-39.404,277389,171,187199
-39.399,277392,170,187196
-39.394,277382,169,187179
-39.389,277375,169,187178
-39.384,277341,168,187174
-39.379,277361,168,187166
-39.374,277356,171,187156
-39.369,277322,169,187163
-39.364,277320,168,187138
-39.359,277312,171,187139
-39.354,277272,169,187112
-39.349,277291,168,187122
-39.344,277341,168,187129
-39.339,277322,171,187137
-39.334,277335,170,187157
-39.330,277394,169,187188
-39.325,277438,168,187184
-39.320,277450,168,187192
-39.315,277463,168,187210
-39.310,277469,168,187186
-39.305,277485,168,187200
-39.300,277480,170,187183
-39.295,277445,169,187176
-39.290,277466,168,187160
-39.285,277464,168,187141
-39.280,277448,168,187168
-39.275,277470,170,187160
-39.270,277497,169,187171
-39.265,277516,170,187185
-39.260,277524,170,187201
-39.255,277534,169,187198
-39.250,277557,168,187219
-39.245,277552,168,187227
-39.240,277550,171,187221
-39.235,277558,169,187234
-39.230,277557,169,187226
-39.225,277570,168,187221
-39.220,277562,169,187206
-39.215,277568,168,187203
-39.210,277547,168,187197
-39.205,277563,170,187215
-39.200,277566,170,187216
-39.196,277568,169,187217
-39.191,277597,168,187228
-39.186,277605,168,187231
-39.181,277653,171,187216
-39.176,277648,169,187241
-39.171,277658,171,187246
-39.166,277676,170,187252
-39.161,277693,169,187266
-39.156,277700,168,187243
-39.151,277706,168,187256
-39.146,277740,171,187263
-39.141,277733,169,187275
-39.136,277773,168,187269
-39.131,277793,168,187266
-39.126,277792,168,187248
-39.121,277810,168,187289
-39.116,277825,171,187265
-39.111,277848,170,187285
-39.106,277871,170,187275
-39.101,277897,169,187286
-39.096,277892,169,187292
-39.091,277925,168,187284
-39.086,277963,168,187301
-39.081,277957,171,187309
-39.076,278009,170,187332
-39.071,278038,168,187336
-39.066,278051,168,187352
-39.061,278091,171,187348
-39.057,278147,170,187357
-39.052,278175,170,187373
-39.047,278206,169,187400
-39.042,278226,169,187394
-39.037,278255,169,187405
-39.032,278261,168,187436
-39.027,278310,168,187467
-39.022,278348,169,187443
-39.017,278363,169,187464
-39.012,278394,169,187461
-39.007,278418,168,187469
-39.002,278460,168,187471
-38.997,278489,168,187489
-38.992,278512,171,187493
-38.987,278521,170,187514
-38.982,278558,169,187514
-38.977,278580,170,187535
-38.972,278620,168,187538
-38.967,278650,172,187546
-38.962,278710,170,187555
-38.957,278738,169,187569
-38.952,278749,169,187569
-38.947,278764,168,187567
-38.942,278771,168,187583
-38.937,278811,171,187574
-38.932,278849,170,187595
-38.927,278875,168,187597
-38.923,278907,171,187615
-38.918,278952,170,187613
-38.913,278946,169,187624
-38.908,278992,169,187635
-38.903,279029,169,187644
-38.898,279065,168,187656
-38.893,279094,168,187667
-38.888,279114,168,187668
-38.883,279146,170,187669
-38.878,279162,168,187712
-38.873,279224,171,187704
-38.868,279249,170,187710
-38.863,279300,170,187738
-38.858,279310,169,187756
-38.853,279348,168,187749
-38.848,279375,168,187775
-38.843,279397,171,187790
-38.838,279439,170,187809
-38.833,279483,169,187820
-38.828,279525,171,187851
-38.823,279568,170,187849
-38.818,279595,170,187876
-38.813,279639,169,187895
-38.808,279686,168,187920
-38.803,279706,168,187923
-38.798,279738,168,187964
-38.793,279766,168,187963
-38.789,279782,171,187955
-38.784,279789,171,187929
-38.779,279762,168,187891
-38.774,279725,171,187880
-38.769,279640,170,187837
-38.764,279564,169,187791
-38.759,279457,169,187752
-38.754,279373,168,187712
-38.749,279269,168,187668
-38.744,279154,171,187643
-38.739,279079,170,187626
-38.734,278991,171,187558
-38.729,278887,171,187561
-38.724,278788,170,187531
-38.719,278711,169,187502
-38.714,278593,169,187479
-38.709,278548,169,187456
-38.704,278477,168,187439
-38.699,278435,168,187396
-38.694,278376,168,187377
-38.689,278313,168,187352
-38.684,278274,169,187322
-38.679,278208,169,187318
-38.674,278181,169,187304
-38.669,278151,169,187272
-38.664,278137,169,187282
-38.659,278111,169,187279
-38.655,278092,169,187271
-38.650,278082,169,187250
-38.645,278071,169,187266
-38.640,278055,169,187257
-38.635,278078,171,187266
-38.630,278032,168,187248
-38.625,278018,168,187241
-38.620,278006,171,187254
-38.615,278017,170,187250
-38.610,278015,170,187235
-38.605,277959,170,187240
-38.600,277984,169,187216
-38.595,278001,169,187238
-38.590,277966,169,187209
-38.585,277968,170,187199
-38.580,277947,169,187192
-38.575,277909,169,187180
-38.570,277926,168,187167
-38.565,277923,168,187145
-38.560,277933,168,187159
-38.555,277959,168,187171
-38.550,277969,171,187195
-38.545,277994,170,187191
-38.540,278027,169,187207
-38.535,278051,170,187219
-38.530,278065,169,187220
-38.525,278068,169,187204
-38.520,278071,168,187188
-38.516,278066,168,187164
-38.511,278053,171,187169
-38.506,278035,170,187150
-38.501,278038,169,187142
-38.496,278036,168,187154
-38.491,278058,171,187153
-38.486,278048,168,187161
-38.481,278058,168,187169
-38.476,278059,172,187162
-38.471,278070,170,187166
-38.466,278081,170,187175
-38.461,278060,169,187187
-38.456,278085,168,187177
-38.451,278086,168,187167
-38.446,278075,170,187177
-38.441,278083,172,187171
-38.436,278092,168,187180
-38.431,278093,168,187189
-38.426,278070,168,187173
-38.421,278108,170,187182
-38.416,278097,170,187166
-38.411,278111,169,187170
-38.406,278113,168,187166
-38.401,278115,168,187192
-38.396,278133,171,187182
-38.391,278140,168,187181
-38.386,278159,168,187195
-38.382,278195,171,187206
-38.377,278181,170,187199
-38.372,278192,169,187190
-38.367,278223,168,187211
-38.362,278237,168,187208
-38.357,278268,168,187217
-38.352,278269,171,187226
-38.347,278277,171,187247
-38.342,278291,168,187218
-38.337,278332,168,187257
-38.332,278370,171,187257
-38.327,278366,170,187261
-38.322,278403,170,187249
-38.317,278429,169,187268
-38.312,278429,169,187275
-38.307,278484,168,187277
-38.302,278483,168,187289
-38.297,278507,171,187291
-38.292,278529,168,187303
-38.287,278567,168,187327
-38.282,278577,171,187341
-38.277,278631,170,187359
-38.272,278650,170,187360
-38.267,278662,169,187354
-38.262,278726,168,187383
-38.257,278762,168,187397
-38.252,278788,171,187414
-38.248,278814,170,187422
-38.243,278851,171,187434
-38.238,278879,170,187452
-38.233,278899,169,187447
-38.228,278947,168,187462
-38.223,278978,168,187479
-38.218,278983,170,187482
-38.213,279037,169,187498
-38.208,279055,168,187513
-38.203,279068,168,187508
-38.198,279104,168,187497
-38.193,279119,168,187527
-38.188,279171,168,187533
-38.183,279162,168,187555
-38.178,279210,171,187561
-38.173,279217,171,187595
-38.168,279270,170,187582
-38.163,279275,169,187586
-38.158,279324,169,187590
-38.153,279365,168,187610
-38.148,279429,169,187623
-38.143,279405,169,187655
-38.138,279438,168,187637
-38.133,279456,168,187638
-38.128,279493,168,187662
-38.123,279509,171,187656
-38.118,279546,170,187683
-38.113,279590,170,187709
-38.109,279650,169,187722
-38.104,279693,168,187737
-38.099,279717,170,187775
-38.094,279751,169,187773
-38.089,279781,169,187811
-38.084,279811,168,187803
-38.079,279831,168,187826
-38.074,279871,168,187824
-38.069,279860,170,187825
-38.064,279875,170,187804
-38.059,279833,169,187812
-38.054,279852,168,187781
-38.049,279758,169,187731
-38.044,279672,170,187691
-38.039,279589,169,187677
-38.034,279519,169,187635
-38.029,279443,168,187622
-38.024,279332,171,187581
-38.019,279234,170,187582
-38.014,279151,169,187562
-38.009,279087,168,187550
-38.004,279025,169,187526
-37.999,278940,171,187496
-37.994,278853,170,187470
-37.989,278783,169,187449
-37.984,278717,168,187409
-37.979,278661,168,187389
-37.975,278600,171,187380
-37.970,278546,170,187367
-37.965,278524,169,187357
-37.960,278450,168,187329
-37.955,278444,168,187323
-37.950,278441,168,187339
-37.945,278413,168,187311
-37.940,278402,171,187322
-37.935,278358,170,187317
-37.930,278374,169,187309
-37.925,278337,168,187311
-37.920,278351,168,187296
-37.915,278334,171,187305
-37.910,278311,170,187300
-37.905,278319,170,187311
-37.900,278312,170,187310
-37.895,278299,169,187294
-37.890,278289,169,187297
-37.885,278267,168,187281
-37.880,278267,168,187275
-37.875,278276,168,187273
-37.870,278227,168,187263
-37.865,278232,172,187260
-37.860,278223,170,187233
-37.855,278207,168,187248
-37.850,278240,168,187260
-37.845,278248,171,187270
-37.841,278263,170,187285
-37.836,278313,170,187316
-37.831,278343,169,187334
-37.826,278399,169,187336
-37.821,278386,169,187347
-37.816,278432,168,187343
-37.811,278420,168,187335
-37.806,278432,170,187316
-37.801,278413,169,187309
-37.796,278406,169,187301
-37.791,278419,169,187291
-37.786,278405,169,187299
-37.781,278414,168,187302
-37.776,278419,168,187315
-37.771,278451,171,187300
-37.766,278455,170,187332
-37.761,278447,169,187330
-37.756,278468,168,187345
-37.751,278467,171,187337
-37.746,278472,170,187346
-37.741,278465,170,187339
-37.736,278448,170,187342
-37.731,278461,169,187326
-37.726,278428,168,187333
-37.721,278414,168,187317
-37.716,278431,171,187304
-37.711,278423,171,187289
-37.707,278417,168,187301
-37.702,278418,168,187307
-37.697,278430,171,187300
-37.692,278432,170,187310
-37.687,278483,170,187320
-37.682,278471,169,187323
-37.677,278484,169,187333
-37.672,278497,168,187345
-37.667,278520,168,187341
-37.662,278544,168,187367
-37.657,278555,168,187355
-37.652,278566,168,187368
-37.647,278561,168,187376
-37.642,278578,171,187382
-37.637,278585,170,187366
-37.632,278607,169,187360
-37.627,278618,169,187368
-37.622,278650,168,187379
-37.617,278633,168,187371
-37.612,278673,168,187367
-37.607,278690,170,187405
-37.602,278715,170,187392
-37.597,278719,169,187411
-37.592,278739,169,187420
-37.587,278781,168,187419
-37.582,278793,168,187422
-37.577,278806,171,187433
-37.572,278818,170,187428
-37.568,278837,169,187425
-37.563,278890,170,187447
-37.558,278878,170,187444
-37.553,278896,169,187436
-37.548,278898,168,187448
-37.543,278936,168,187450
-37.538,278968,171,187464
-37.533,278995,170,187479
-37.528,279004,169,187484
-37.523,279038,169,187487
-37.518,279043,168,187496
-37.513,279073,170,187519
-37.508,279100,169,187494
-37.503,279122,169,187526
-37.498,279154,169,187523
-37.493,279155,168,187533
-37.488,279161,168,187529
-37.483,279203,168,187540
-37.478,279227,171,187542
-37.473,279223,170,187534
-37.468,279268,169,187554
-37.463,279305,171,187568
-37.458,279347,170,187599
-37.453,279378,169,187612
-37.448,279388,169,187615
-37.443,279429,169,187622
-37.438,279456,168,187633
-37.434,279485,168,187643
-37.429,279503,171,187666
-37.424,279519,170,187671
-37.419,279542,170,187660
-37.414,279530,168,187656
-37.409,279503,171,187622
-37.404,279453,171,187583
-37.399,279382,170,187540
-37.394,279317,170,187501
-37.389,279244,170,187464
-37.384,279138,169,187447
-37.379,279037,169,187426
-37.374,278948,168,187382
-37.369,278873,169,187361
-37.364,278768,169,187344
-37.359,278702,169,187325
-37.354,278633,169,187287
-37.349,278541,168,187263
-37.344,278458,168,187236
-37.339,278394,168,187208
-37.334,278321,171,187171
-37.329,278256,170,187154
-37.324,278197,169,187129
-37.319,278148,171,187107
-37.314,278091,168,187075
-37.309,278062,168,187078
-37.304,278015,168,187052
-37.300,277994,171,187053
-37.295,277981,171,187026
-37.290,277939,170,187015
-37.285,277914,169,187008
-37.280,277890,169,186999
-37.275,277887,168,186997
-37.270,277877,170,187004
-37.265,277864,170,186982
-37.260,277819,169,186989
-37.255,277824,169,186970
-37.250,277841,169,186976
-37.245,277786,168,186963
-37.240,277803,168,186955
-37.235,277763,168,186955
-37.230,277776,168,186947
-37.225,277752,171,186923
-37.220,277726,168,186929
-37.215,277717,168,186905
-37.210,277681,168,186887
-37.205,277692,171,186921
-37.200,277696,171,186921
-37.195,277725,171,186920
-37.190,277755,171,186952
-37.185,277776,170,186970
-37.180,277792,170,186983
-37.175,277843,169,186987
-37.170,277847,169,186978
-37.166,277845,169,186964
-37.161,277820,168,186947
-37.156,277809,168,186942
-37.151,277811,168,186918
-37.146,277804,168,186908
-37.141,277793,171,186906
-37.136,277802,170,186909
-37.131,277804,169,186900
-37.126,277807,169,186917
-37.121,277802,171,186923
-37.116,277798,170,186927
-37.111,277797,169,186933
-37.106,277811,169,186923
-37.101,277796,169,186915
-37.096,277798,168,186907
-37.091,277786,168,186918
-37.086,277753,168,186892
-37.081,277750,168,186894
-37.076,277752,168,186885
-37.071,277741,169,186873
-37.066,277741,168,186875
-37.061,277724,168,186861
-37.056,277741,168,186872
-37.051,277724,172,186871
-37.046,277717,170,186853
-37.041,277746,170,186857
-37.036,277738,170,186878
-37.031,277750,169,186878
-37.027,277775,171,186867
-37.022,277795,170,186882
-37.017,277797,169,186869
-37.012,277779,169,186874
-37.007,277797,168,186875
-37.002,277812,169,186858
-36.997,277806,168,186861
-36.992,277802,168,186865
-36.987,277826,168,186863
-36.982,277831,168,186871
-36.977,277821,168,186850
-36.972,277845,168,186862
-36.967,277865,168,186859
-36.962,277867,168,186882
-36.957,277894,168,186854
-36.952,277897,168,186866
-36.947,277940,168,186873
-36.942,277937,168,186892
-36.937,277947,168,186894
-36.932,277954,168,186904
-36.927,277979,169,186897
-36.922,278004,169,186909
-36.917,278029,168,186888
-36.912,278039,168,186923
-36.907,278052,168,186907
-36.902,278060,168,186912
-36.897,278100,168,186919
-36.893,278107,168,186931
-36.888,278133,171,186949
-36.883,278149,170,186957
-36.878,278179,178,186962
-36.873,278186,168,186946
-36.868,278194,168,186933
-36.863,278218,168,186950
-36.858,278244,168,186943
-36.853,278273,171,186947
-36.848,278299,171,186974
-36.843,278337,171,187011
-36.838,278362,170,186997
-36.833,278402,171,186954
-36.828,278414,171,187022
-36.823,278441,170,187032
-36.818,278452,169,187033
-36.813,278482,169,187041
-36.808,278462,169,187053
-36.803,278489,169,187036
-36.798,278475,169,187025
-36.793,278412,169,186993
-36.788,278385,168,186985
-36.783,278324,170,186933
-36.778,278212,170,186897
-36.773,278103,169,186852
-36.768,278024,169,186834
-36.763,277945,169,186800
-36.759,277859,169,186785
-36.754,277749,168,186762
-36.749,277684,168,186746
-36.744,277611,171,186707
-36.739,277517,171,186688
-36.734,277432,168,186662
-36.729,277360,168,186630
-36.724,277309,168,186600
-36.719,277236,168,186573
-36.714,277178,168,186565
-36.709,277115,168,186506
-36.704,277067,171,186486
-36.699,276984,170,186470
-36.694,276942,170,186441
-36.689,276900,169,186394
-36.684,276860,171,186394
-36.679,276817,171,186370
-36.674,276792,171,186388
-36.669,276760,170,186361
-36.664,276749,169,186342
-36.659,276675,169,186333
-36.654,276658,169,186319
-36.649,276640,168,186312
-36.644,276600,169,186287
-36.639,276565,168,186295
-36.634,276552,170,186279
-36.629,276487,169,186256
-36.625,276491,169,186255
-36.620,276491,169,186252
-36.615,276415,169,186230
-36.610,276381,169,186204
-36.605,276353,168,186193
-36.600,276340,168,186177
-36.595,276295,168,186164
-36.590,276285,168,186132
-36.585,276266,171,186127
-36.580,276259,170,186134
-36.575,276290,170,186160
-36.570,276299,170,186151
-36.565,276308,169,186158
-36.560,276316,169,186158
-36.555,276340,168,186174
-36.550,276338,168,186167
-36.545,276321,168,186132
-36.540,276301,168,186105
-36.535,276276,169,186085
-36.530,276270,168,186076
-36.525,276232,168,186067
-36.520,276229,168,186048
-36.515,276219,168,186034
-36.510,276233,168,186036
-36.505,276205,168,186036
-36.500,276211,168,186031
-36.495,276189,168,186014
-36.490,276193,169,185998
-36.486,276188,168,186027
-36.481,276196,171,186014
-36.476,276173,171,186004
-36.471,276156,171,186005
-36.466,276155,171,186012
-36.461,276123,171,185988
-36.456,276137,171,185976
-36.451,276107,171,185971
-36.446,276095,170,185942
-36.441,276062,168,185946
-36.436,276085,168,185923
-36.431,276058,172,185911
-36.426,276063,171,185919
-36.421,276061,171,185905
-36.416,276072,171,185910
-36.411,276068,170,185914
-36.406,276083,170,185903
-36.401,276078,170,185908
-36.396,276078,170,185915
-36.391,276112,168,185902
-36.386,276110,168,185903
-36.381,276100,168,185879
-36.376,276095,168,185874
-36.371,276103,168,185885
-36.366,276140,171,185892
-36.361,276136,171,185903
-36.356,276174,170,185934
-36.352,276215,170,185946
-36.347,276251,170,185972
-36.342,276259,168,185991
-36.337,276290,171,185990
-36.332,276306,171,185992
-36.327,276302,170,185976
-36.322,276322,171,185950
-36.317,276287,171,185928
-36.312,276272,171,185907
-36.307,276281,170,185890
-36.302,276263,170,185885
-36.297,276269,173,185882
-36.292,276298,168,185901
-36.287,276334,168,185891
-36.282,276373,168,185915
-36.277,276384,168,185933
-36.272,276425,168,185948
-36.267,276470,171,185966
-36.262,276514,171,185986
-36.257,276570,170,186029
-36.252,276601,170,186080
-36.247,276662,168,186110
-36.242,276699,168,186140
-36.237,276735,168,186138
-36.232,276772,171,186133
-36.227,276796,170,186121
-36.222,276781,170,186126
-36.218,276819,170,186143
-36.213,276840,169,186138
-36.208,276871,169,186127
-36.203,276846,169,186096
-36.198,276851,170,186048
-36.193,276811,169,185967
-36.188,276757,169,185895
-36.183,276695,168,185800
-36.178,276662,168,185733
-36.173,276642,168,185671
-36.168,276641,168,185638
-36.163,276645,168,185619
-36.158,276630,171,185586
-36.153,276629,171,185573
-36.148,276636,170,185571
-36.143,276642,169,185556
-36.138,276682,169,185579
-36.133,276655,169,185556
-36.128,276609,168,185560
-36.123,276541,168,185517
-36.118,276461,168,185479
-36.113,276381,168,185462
-36.108,276317,171,185430
-36.103,276196,170,185387
-36.098,276112,168,185363
-36.093,276031,168,185344
-36.088,275972,168,185348
-36.083,275911,171,185309
-36.079,275843,170,185292
-36.074,275795,170,185283
-36.069,275766,169,185265
-36.064,275688,169,185255
-36.059,275644,168,185234
-36.054,275581,168,185228
-36.049,275522,169,185182
-36.044,275497,168,185137
-36.039,275448,168,185148
-36.034,275391,168,185114
-36.029,275388,171,185115
-36.024,275354,170,185098
-36.019,275335,169,185091
-36.014,275329,169,185115
-36.009,275329,168,185097
-36.004,275284,169,185089
-35.999,275225,170,185038
-35.994,275195,169,185003
-35.989,275084,169,184945
-35.984,275029,168,184866
-35.979,274940,168,184811
-35.974,274860,168,184755
-35.969,274809,168,184701
-35.964,274743,168,184657
-35.959,274679,168,184663
-35.954,274676,169,184623
-35.949,274662,168,184615
-35.945,274608,168,184600
-35.940,274558,168,184576
-35.935,274529,168,184560
-35.930,274507,171,184536
-35.925,274465,170,184534
-35.920,274464,170,184521
-35.915,274485,170,184533
-35.910,274487,169,184533
-35.905,274509,170,184557
-35.900,274525,169,184563
-35.895,274567,168,184574
-35.890,274534,168,184561
-35.885,274529,168,184527
-35.880,274488,171,184486
-35.875,274479,170,184447
-35.870,274438,169,184397
-35.865,274369,169,184342
-35.860,274347,168,184320
-35.855,274320,169,184279
-35.850,274281,168,184273
-35.845,274286,168,184247
-35.840,274282,168,184240
-35.835,274280,170,184239
-35.830,274238,169,184225
-35.825,274232,169,184217
-35.820,274241,168,184206
-35.815,274202,168,184177
-35.811,274166,168,184148
-35.806,274132,171,184114
-35.801,274116,171,184115
-35.796,274112,170,184105
-35.791,274108,170,184113
-35.786,274110,169,184105
-35.781,274112,169,184107
-35.776,274138,169,184112
-35.771,274107,168,184131
-35.766,274142,168,184143
-35.761,274153,169,184115
-35.756,274141,168,184141
-35.751,274156,169,184163
-35.746,274195,168,184191
-35.741,274229,168,184207
-35.736,274273,171,184241
-35.731,274312,171,184279
-35.726,274344,170,184292
-35.721,274396,170,184300
-35.716,274404,169,184346
-35.711,274478,168,184372
-35.706,274468,169,184380
-35.701,274501,168,184394
-35.696,274507,168,184415
-35.691,274518,168,184428
-35.686,274535,168,184425
-35.681,274547,171,184423
-35.677,274589,169,184438
-35.672,274629,169,184464
-35.667,274663,169,184489
-35.662,274703,168,184494
-35.657,274706,168,184518
-35.652,274726,171,184526
-35.647,274758,170,184526
-35.642,274751,170,184528
-35.637,274803,169,184546
-35.632,274815,169,184563
-35.627,274864,168,184562
-35.622,274874,168,184594
-35.617,274924,171,184606
-35.612,274940,168,184630
-35.607,275024,168,184680
-35.602,275038,168,184683
-35.597,275017,171,184647
-35.592,274994,170,184609
-35.587,274944,169,184549
-35.582,274924,169,184507
-35.577,274891,169,184479
-35.572,274892,168,184456
-35.567,274869,168,184434
-35.562,274883,169,184427
-35.557,274908,168,184417
-35.552,274901,168,184405
-35.547,274906,168,184392
-35.542,274900,168,184387
-35.538,274923,170,184384
-35.533,274933,170,184404
-35.528,274961,169,184377
-35.523,274942,169,184364
-35.518,274933,168,184358
-35.513,274930,169,184316
-35.508,274879,169,184267
-35.503,274878,168,184222
-35.498,274848,168,184147
-35.493,274767,168,184053
-35.488,274669,171,183937
-35.483,274563,170,183832
-35.478,274459,169,183717
-35.473,274374,169,183591
-35.468,274224,170,183446
-35.463,274032,170,183256
-35.458,273847,169,183054
-35.453,273583,169,182826
-35.448,273353,168,182574
-35.443,273109,168,182309
-35.438,272797,168,182031
-35.433,272478,171,181723
-35.428,272161,170,181442
-35.423,271797,170,181163
-35.418,271492,168,180906
-35.413,271222,171,180719
-35.408,271046,170,180580
-35.404,270797,170,180415
-35.399,270600,169,180280
-35.394,270383,169,180097
-35.389,270121,168,179929
-35.384,269879,168,179793
-35.379,269676,168,179623
-35.374,269494,171,179466
-35.369,269259,169,179295
-35.364,268968,169,179077
-35.359,268683,168,178849
-35.354,268437,168,178640
-35.349,268198,171,178475
-35.344,268011,170,178319
-35.339,267903,170,178248
-35.334,267732,169,178121
-35.329,267519,168,177940
-35.324,267236,168,177701
-35.319,266933,169,177444
-35.314,266643,168,177226
-35.309,266392,168,177036
-35.304,266212,168,176881
-35.299,266035,171,176758
-35.294,265897,171,176665
-35.289,265773,170,176570
-35.284,265646,169,176436
-35.279,265465,169,176299
-35.274,265258,169,176138
-35.270,265068,170,175992
-35.265,264934,169,175856
-35.260,264775,169,175756
-35.255,264667,168,175642
-35.250,264559,168,175553
-35.245,264432,168,175477
-35.240,264330,171,175407
-35.235,264282,171,175346
-35.230,264201,170,175293
-35.225,264144,171,175282
-35.220,264092,169,175193
-35.215,264076,169,175190
-35.210,264010,168,175130
-35.205,264003,168,175104
-35.200,264024,168,175129
-35.195,264057,171,175137
-35.190,264092,170,175151
-35.185,264149,169,175204
-35.180,264209,169,175246
-35.175,264235,170,175279
-35.170,264307,170,175300
-35.165,264337,170,175295
-35.160,264325,169,175308
-35.155,264318,169,175288
-35.150,264328,169,175276
-35.145,264274,168,175222
-35.140,264232,168,175178
-35.136,264179,168,175147
-35.131,264182,171,175121
-35.126,264183,168,175110
-35.121,264202,168,175115
-35.116,264208,168,175119
-35.111,264213,170,175125
-35.106,264249,170,175119
-35.101,264267,169,175154
-35.096,264281,168,175137
-35.091,264239,168,175115
-35.086,264218,168,175068
-35.081,264114,168,174966
-35.076,264022,169,174842
-35.071,263804,170,174705
-35.066,263644,169,174543
-35.061,263519,169,174445
-35.056,263419,168,174343
-35.051,263323,168,174289
-35.046,263249,168,174195
-35.041,263139,168,174080
-35.036,262990,171,173934
-35.031,262819,170,173796
-35.026,262649,168,173614
-35.021,262468,171,173450
-35.016,262332,170,173295
-35.011,262152,169,173151
-35.006,262017,169,173037
-35.001,261875,168,172903
-34.997,261761,168,172773
-34.992,261652,168,172677
-34.987,261546,171,172579
-34.982,261454,171,172486
-34.977,261381,168,172407
-34.972,261310,168,172331
-34.967,261270,171,172293
-34.962,261252,170,172249
-34.957,261206,170,172225
-34.952,261166,169,172200
-34.947,261184,169,172183
-34.942,261211,168,172184
-34.937,261209,168,172168
-34.932,261232,172,172223
-34.927,261300,168,172223
-34.922,261336,172,172264
-34.917,261405,171,172311
-34.912,261467,170,172353
-34.907,261579,170,172418
-34.902,261683,170,172490
-34.897,261763,170,172573
-34.892,261868,170,172635
-34.887,261977,169,172700
-34.882,262078,171,172783
-34.877,262187,168,172872
-34.872,262291,168,172949
-34.867,262407,168,173013
-34.863,262533,168,173097
-34.858,262641,168,173181
-34.853,262736,171,173274
-34.848,262872,170,173347
-34.843,262990,169,173451
-34.838,263107,169,173526
-34.833,263205,170,173609
-34.828,263340,170,173718
-34.823,263475,169,173797
-34.818,263583,169,173874
-34.813,263679,168,173943
-34.808,263773,168,174012
-34.803,263862,171,174086
-34.798,263940,170,174140
-34.793,264042,169,174209
-34.788,264126,168,174242
-34.783,264204,171,174286
-34.778,264252,170,174345
-34.773,264333,170,174384
-34.768,264407,169,174425
-34.763,264453,170,174480
-34.758,264547,170,174534
-34.753,264658,171,174602
-34.748,264737,171,174662
-34.743,264856,168,174744
-34.738,264973,168,174801
-34.733,265034,169,174865
-34.729,265095,169,174924
-34.724,265208,170,174965
-34.719,265271,170,175037
-34.714,265358,170,175089
-34.709,265432,170,175142
-34.704,265484,170,175188
-34.699,265537,169,175230
-34.694,265542,169,175250
-34.689,265559,170,175277
-34.684,265532,168,175257
-34.679,265503,169,175269
-34.674,265461,169,175268
-34.669,265409,168,175289
-34.664,265398,168,175287
-34.659,265377,168,175312
-34.654,265365,168,175362
-34.649,265383,169,175370
-34.644,265372,169,175426
-34.639,265378,170,175459
-34.634,265340,170,175467
-34.629,265321,170,175489
-34.624,265344,170,175509
-34.619,265341,171,175517
-34.614,265346,171,175539
-34.609,265337,171,175525
-34.604,265276,171,175528
-34.599,265279,171,175518
-34.594,265243,168,175514
-34.590,265236,169,175527
-34.585,265248,169,175542
-34.580,265271,169,175584
-34.575,265277,170,175622
-34.570,265310,169,175646
-34.565,265343,169,175669
-34.560,265363,169,175682
-34.555,265390,170,175731
-34.550,265414,170,175758
-34.545,265438,171,175793
-34.540,265462,168,175815
-34.535,265493,169,175834
-34.530,265511,169,175879
-34.525,265548,169,175886
-34.520,265541,170,175915
-34.515,265584,171,175929
-34.510,265612,168,175963
-34.505,265613,168,175987
-34.500,265665,168,176034
-34.495,265698,168,176064
-34.490,265729,170,176098
-34.485,265806,171,176142
-34.480,265853,168,176184
-34.475,265908,168,176227
-34.470,265978,168,176284
-34.465,266046,168,176315
-34.460,266104,168,176334
-34.456,266156,169,176368
-34.451,266185,169,176382
-34.446,266250,170,176417
-34.441,266259,168,176429
-34.436,266289,168,176434
-34.431,266296,169,176433
-34.426,266303,169,176454
-34.421,266311,169,176434
-34.416,266347,169,176451
-34.411,266368,170,176470
-34.406,266388,170,176481
-34.401,266381,170,176485
-34.396,266432,168,176488
-34.391,266396,168,176471
-34.386,266418,168,176476
-34.381,266423,168,176491
-34.376,266455,169,176498
-34.371,266451,169,176500
-34.366,266467,170,176490
-34.361,266423,170,176464
-34.356,266443,170,176446
-34.351,266441,170,176435
-34.346,266427,168,176430
-34.341,266441,168,176426
-34.336,266398,168,176390
-34.331,266432,169,176408
-34.326,266449,169,176399
-34.322,266462,170,176407
-34.317,266488,170,176433
-34.312,266500,170,176445
-34.307,266527,171,176445
-34.302,266550,171,176439
-34.297,266576,169,176464
-34.292,266601,169,176463
-34.287,266672,169,176493
-34.282,266706,170,176527
-34.277,266745,170,176517
-34.272,266778,170,176547
-34.267,266816,171,176564
-34.262,266840,171,176581
-34.257,266890,171,176582
-34.252,266900,170,176611
-34.247,266943,170,176599
-34.242,266985,170,176634
-34.237,267015,171,176631
-34.232,267062,171,176670
-34.227,267082,171,176664
-34.222,267149,168,176698
-34.217,267180,168,176712
-34.212,267223,168,176732
-34.207,267283,168,176759
-34.202,267337,168,176779
-34.197,267394,168,176831
-34.192,267459,168,176870
-34.188,267520,168,176911
-34.183,267558,168,176942
-34.178,267600,169,176965
-34.173,267693,169,177003
-34.168,267754,169,177030
-34.163,267809,169,177087
-34.158,267907,169,177134
-34.153,267971,168,177174
-34.148,268034,168,177235
-34.143,268134,168,177264
-34.138,268221,168,177349
-34.133,268306,168,177418
-34.128,268471,168,177497
-34.123,268544,168,177562
-34.118,268646,168,177636
-34.113,268747,168,177718
-34.108,268875,168,177797
-34.103,268982,169,177858
-34.098,269091,169,177949
-34.093,269195,169,178021
-34.088,269317,169,178114
-34.083,269467,169,178190
-34.078,269591,169,178269
-34.073,269678,169,178353
-34.068,269776,169,178421
-34.063,269915,169,178498
-34.058,270026,169,178595
-34.053,270139,171,178680
-34.049,270251,171,178742
-34.044,270343,171,178806
-34.039,270434,171,178869
-34.034,270506,168,178930
-34.029,270611,168,178970
-34.024,270684,168,179028
-34.019,270757,168,179071
-34.014,270855,168,179125
-34.009,270932,168,179190
-34.004,271005,169,179248
-33.999,271112,170,179298
-33.994,271170,170,179346
-33.989,271254,170,179394
-33.984,271344,170,179450
-33.979,271421,170,179518
-33.974,271509,170,179563
-33.969,271561,170,179592
-33.964,271635,171,179647
-33.959,271701,171,179683
-33.954,271754,170,179701
-33.949,271785,171,179719
-33.944,271821,171,179725
-33.939,271826,168,179737
-33.934,271833,168,179724
-33.929,271847,168,179727
-33.924,271824,168,179704
-33.919,271791,169,179661
-33.915,271705,170,179617
-33.910,271625,170,179550
-33.905,271520,168,179495
-33.900,271380,169,179418
-33.895,271260,169,179368
-33.890,271132,169,179293
-33.885,271003,170,179244
-33.880,270871,170,179166
-33.875,270762,170,179090
-33.870,270629,171,179018
-33.865,270506,171,178923
-33.860,270353,168,178834
-33.855,270224,169,178738
-33.850,270058,169,178649
-33.845,269916,169,178531
-33.840,269737,169,178405
-33.835,269564,169,178280
-33.830,269405,169,178152
-33.825,269238,169,178009
-33.820,269063,170,177901
-33.815,268976,170,177789
-33.810,268832,168,177714
-33.805,268771,168,177642
-33.800,268657,168,177563
-33.795,268560,169,177512
-33.790,268466,169,177440
-33.785,268393,170,177357
-33.781,268308,170,177302
-33.776,268211,170,177243
-33.771,268136,171,177181
-33.766,268041,168,177108
-33.761,267963,169,177051
-33.756,267887,169,176996
-33.751,267783,169,176893
-33.746,267662,169,176807
-33.741,267550,169,176697
-33.736,267391,169,176584
-33.731,267238,169,176473
-33.726,267113,169,176380
-33.721,267001,170,176267
-33.716,266840,170,176149
-33.711,266685,169,175984
-33.706,266519,169,175875
-33.701,266401,170,175776
-33.696,266340,169,175696
-33.691,266261,169,175642
-33.686,266185,169,175567
-33.681,266141,169,175511
-33.676,266091,170,175470
-33.671,266063,170,175411
-33.666,266004,173,175444
-33.661,265963,168,175322
-33.656,265934,169,175284
-33.651,265873,169,175217
-33.646,265753,169,175146
-33.642,265672,169,175047
-33.637,265571,169,174964
-33.632,265511,169,174923
-33.627,265460,169,174877
-33.622,265430,170,174844
-33.617,265414,168,174853
-33.612,265407,169,174819
-33.607,265404,169,174821
-33.602,265407,170,174828
-33.597,265411,170,174819
-33.592,265400,170,174801
-33.587,265407,171,174807
-33.582,265426,171,174811
-33.577,265440,171,174806
-33.572,265442,168,174799
-33.567,265485,169,174818
-33.562,265475,169,174813
-33.557,265494,169,174815
-33.552,265493,170,174813
-33.547,265523,170,174805
-33.542,265512,171,174804
-33.537,265494,171,174807
-33.532,265531,168,174809
-33.527,265561,168,174817
-33.522,265582,168,174796
-33.517,265551,170,174798
-33.512,265534,171,174776
-33.508,265544,171,174758
-33.503,265552,168,174727
-33.498,265543,168,174724
-33.493,265526,168,174702
-33.488,265527,168,174709
-33.483,265515,168,174675
-33.478,265522,168,174646
-33.473,265501,169,174612
-33.468,265459,168,174580
-33.463,265428,168,174558
-33.458,265417,168,174522
-33.453,265419,168,174496
-33.448,265415,169,174498
-33.443,265438,170,174479
-33.438,265433,170,174470
-33.433,265442,171,174483
-33.428,265461,171,174479
-33.423,265504,168,174505
-33.418,265572,169,174552
-33.413,265644,169,174589
-33.408,265708,170,174634
-33.403,265779,170,174671
-33.398,265829,171,174723
-33.393,265924,171,174773
-33.388,265985,171,174803
-33.383,266066,168,174833
-33.378,266143,168,174881
-33.374,266239,168,174947
-33.369,266299,169,174996
-33.364,266364,170,175047
-33.359,266449,170,175091
-33.354,266519,171,175140
-33.349,266569,171,175162
-33.344,266635,171,175202
-33.339,266676,171,175215
-33.334,266719,172,175219
-33.329,266728,168,175240
-33.324,266782,169,175250
-33.319,266805,169,175262
-33.314,266841,169,175283
-33.309,266869,169,175316
-33.304,266897,169,175313
-33.299,266922,169,175303
-33.294,266926,170,175310
-33.289,266969,169,175313
-33.284,267008,170,175343
-33.279,267027,170,175354
-33.274,267125,168,175378
-33.269,267146,169,175397
-33.264,267202,170,175434
-33.259,267229,170,175454
-33.254,267284,171,175499
-33.249,267321,168,175502
-33.244,267373,168,175526
-33.240,267406,168,175551
-33.235,267449,168,175589
-33.230,267525,168,175619
-33.225,267590,171,175662
-33.220,267617,171,175675
-33.215,267665,171,175686
-33.210,267700,171,175693
-33.205,267705,168,175710
-33.200,267725,168,175705
-33.195,267758,168,175711
-33.190,267773,168,175715
-33.185,267759,168,175714
-33.180,267782,168,175693
-33.175,267746,169,175661
-33.170,267712,169,175646
-33.165,267648,170,175620
-33.160,267594,169,175583
-33.155,267555,169,175564
-33.150,267466,168,175550
-33.145,267401,168,175540
-33.140,267371,168,175539
-33.135,267311,168,175532
-33.130,267257,172,175520
-33.125,267226,170,175508
-33.120,267152,170,175514
-33.115,267107,169,175508
-33.110,267097,169,175505
-33.105,267025,169,175487
-33.101,266998,169,175480
-33.096,266947,169,175450
-33.091,266898,169,175456
-33.086,266874,168,175439
-33.081,266856,170,175409
-33.076,266801,170,175401
-33.071,266750,170,175373
-33.066,266750,170,175377
-33.061,266743,170,175365
-33.056,266747,170,175346
-33.051,266744,170,175352
-33.046,266706,171,175350
-33.041,266706,171,175346
-33.036,266696,171,175348
-33.031,266677,168,175325
-33.026,266622,169,175304
-33.021,266617,169,175295
-33.016,266583,169,175270
-33.011,266573,169,175258
-33.006,266552,169,175236
-33.001,266523,170,175216
-32.996,266497,170,175199
-32.991,266457,170,175181
-32.986,266451,170,175189
-32.981,266476,168,175177
-32.976,266439,168,175162
-32.971,266447,168,175177
-32.967,266459,168,175164
-32.962,266449,168,175168
-32.957,266485,168,175201
-32.952,266531,168,175215
-32.947,266579,168,175252
-32.942,266599,168,175257
-32.937,266650,168,175290
-32.932,266677,169,175285
-32.927,266704,169,175303
-32.922,266691,169,175281
-32.917,266669,169,175271
-32.912,266670,170,175264
-32.907,266679,170,175263
-32.902,266672,170,175252
-32.897,266693,169,175258
-32.892,266710,169,175275
-32.887,266716,171,175284
-32.882,266728,169,175300
-32.877,266728,169,175308
-32.872,266773,169,175321
-32.867,266802,169,175338
-32.862,266817,169,175370
-32.857,266853,170,175365
-32.852,266840,170,175383
-32.847,266867,170,175391
-32.842,266876,170,175402
-32.837,266857,168,175386
-32.833,266881,168,175397
-32.828,266904,168,175394
-32.823,266900,168,175403
-32.818,266943,168,175440
-32.813,266978,168,175444
-32.808,266964,169,175445
-32.803,266995,169,175457
-32.798,267016,169,175468
-32.793,267047,169,175478
-32.788,267065,168,175491
-32.783,267096,168,175514
-32.778,267139,168,175523
-32.773,267146,168,175559
-32.768,267175,168,175549
-32.763,267211,168,175549
-32.758,267206,169,175565
-32.753,267205,169,175549
-32.748,267224,170,175547
-32.743,267233,171,175545
-32.738,267252,169,175537
-32.733,267256,169,175552
-32.728,267282,169,175564
-32.723,267302,170,175568
-32.718,267345,171,175582
-32.713,267390,168,175601
-32.708,267413,168,175604
-32.703,267435,168,175607
-32.699,267449,168,175623
-32.694,267493,168,175641
-32.689,267516,168,175666
-32.684,267535,168,175671
-32.679,267598,168,175705
-32.674,267612,168,175719
-32.669,267651,168,175746
-32.664,267684,169,175747
-32.659,267732,169,175765
-32.654,267765,169,175799
-32.649,267801,169,175795
-32.644,267834,170,175800
-32.639,267849,168,175836
-32.634,267890,168,175831
-32.629,267906,168,175852
-32.624,267923,169,175857
-32.619,267971,169,175880
-32.614,267959,169,175899
-32.609,267985,169,175903
-32.604,268014,170,175903
-32.599,268064,170,175917
-32.594,268142,168,175928
-32.589,268133,170,175941
-32.584,268167,171,175968
-32.579,268201,168,175976
-32.574,268227,168,175988
-32.569,268234,168,176011
-32.564,268291,169,176015
-32.560,268339,169,176041
-32.555,268400,169,176088
-32.550,268443,170,176110
-32.545,268476,168,176126
-32.540,268520,168,176158
-32.535,268581,168,176176
-32.530,268607,168,176202
-32.525,268657,168,176209
-32.520,268669,169,176206
-32.515,268692,169,176230
-32.510,268697,169,176202
-32.505,268709,169,176209
-32.500,268657,170,176182
-32.495,268597,168,176157
-32.490,268539,168,176132
-32.485,268489,168,176112
-32.480,268403,168,176102
-32.475,268340,168,176088
-32.470,268293,168,176095
-32.465,268254,169,176082
