df_hash,22ZHK4.GBZGPG
device,HZ2X61
project_hash,29R7
project_name,istanbul_aydin_university
person_hash,29R7.8F48
person_label,V13
date_time_start,2025-05-22_11-00-48.415000_+03
date_time_start_unix,1747900848.415
date_time_end,2025-05-22_11-08-33.854000_+03
length_difference_noticed,no

time,ppg_med
5.319,471
5.344,541
5.369,653
5.394,714
5.419,690
5.444,666
5.469,730
5.494,849
5.519,894
5.544,821
5.569,744
5.594,784
5.619,894
5.644,901
5.669,745
5.694,579
5.719,570
5.744,652
5.769,593
5.794,315
5.819,24
5.844,-58
5.869,-21
5.894,-168
5.919,-601
5.944,-1047
5.969,-1216
5.994,-1223
6.019,-1464
6.044,-2067
6.069,-2677
6.094,-2920
6.119,-2943
6.144,-3254
6.169,-4014
6.194,-4767
6.219,-5035
6.244,-5008
6.269,-5326
6.294,-6193
6.319,-7029
6.344,-7233
6.369,-7043
6.394,-7265
6.419,-8152
6.444,-8976
6.469,-8985
6.494,-8478
6.519,-8462
6.544,-9253
6.569,-9945
6.594,-9597
6.619,-8587
6.644,-8170
6.669,-8743
6.694,-9175
6.719,-8298
6.744,-6580
6.769,-5596
6.794,-5846
6.819,-5919
6.844,-4347
6.869,-1717
6.894,-21
6.919,98
6.944,422
6.969,2826
6.994,6566
7.019,9079
7.044,9512
7.069,10163
7.094,13498
7.119,18564
7.144,21949
7.169,22461
7.194,23182
7.219,27536
7.244,32767
7.269,32767
7.294,32767
7.319,32767
7.344,32767
7.369,32767
7.394,32767
7.419,32767
7.444,32767
7.469,32767
7.494,32767
7.519,32767
7.544,32767
7.569,12594
7.594,-32768
7.619,-32768
7.644,-32768
7.669,-32768
7.694,-32768
7.719,-32768
7.744,-32768
7.769,-32768
7.794,-32768
7.819,-32768
7.844,-32768
7.869,-32768
7.894,-32768
7.919,-30083
7.944,-24286
7.969,-22320
7.994,-22248
8.019,-20122
8.044,-15320
8.069,-10939
8.094,-9352
8.119,-9211
8.144,-7619
8.169,-4073
8.194,-879
8.219,158
8.244,50
8.269,1028
8.294,3498
8.319,5682
8.344,6165
8.369,5737
8.394,6158
8.419,7758
8.444,9134
8.469,9157
8.494,8455
8.519,8439
8.544,9382
8.569,10162
8.594,9868
8.619,8987
8.644,8644
8.669,9061
8.694,9358
8.719,8818
8.744,7840
8.769,7322
8.794,7435
8.819,7467
8.844,6847
8.869,5894
8.894,5326
8.919,5278
8.944,5181
8.969,4580
8.994,3730
9.019,3199
9.044,3095
9.069,2970
9.094,2467
9.119,1784
9.144,1362
9.169,1275
9.194,1174
9.219,787
9.244,283
9.269,10
9.294,26
9.319,48
9.344,-148
9.369,-447
9.394,-587
9.419,-517
9.444,-444
9.469,-537
9.494,-706
9.519,-751
9.544,-622
9.569,-466
9.594,-413
9.619,-427
9.644,-398
9.669,-315
9.694,-281
9.719,-356
9.744,-469
9.769,-503
9.794,-444
9.819,-379
9.844,-379
9.869,-414
9.894,-403
9.919,-329
9.944,-250
9.969,-211
9.994,-187
10.019,-123
10.044,-13
10.069,84
10.094,127
10.119,141
10.144,173
10.169,215
10.194,287
10.219,379
10.244,470
10.269,548
10.294,615
10.319,688
10.344,764
10.369,819
10.394,821
10.419,766
10.444,697
10.469,674
10.494,726
10.519,824
10.544,904
10.569,915
10.594,852
10.619,747
10.644,645
10.669,579
10.694,551
10.719,537
10.744,512
10.769,466
10.794,412
10.819,366
10.844,336
10.869,306
10.894,257
10.919,188
10.944,117
10.969,46
10.994,-58
11.019,-255
11.044,-569
11.069,-960
11.094,-1352
11.119,-1696
11.144,-2002
11.169,-2309
11.194,-2635
11.219,-2956
11.244,-3250
11.269,-3528
11.294,-3814
11.319,-4107
11.344,-4376
11.369,-4600
11.394,-4807
11.419,-5044
11.444,-5328
11.469,-5626
11.494,-5892
11.519,-6109
11.544,-6291
11.569,-6440
11.594,-6530
11.619,-6540
11.644,-6483
11.669,-6387
11.694,-6246
11.719,-6024
11.744,-5701
11.769,-5310
11.794,-4901
11.819,-4459
11.844,-3906
11.869,-3188
11.894,-2338
11.919,-1432
11.944,-479
11.969,599
11.994,1870
12.019,3281
12.044,4721
12.069,6167
12.094,7726
12.119,9496
12.144,11422
12.169,13356
12.194,15256
12.219,17269
12.244,19544
12.269,22007
12.294,24405
12.319,26621
12.344,28864
12.369,31413
12.394,32767
12.419,32767
12.444,32767
12.469,32767
12.494,32767
12.519,32767
12.544,32767
12.569,32767
12.594,30723
12.619,22180
12.644,8339
12.669,-8827
12.694,-25815
12.719,-32768
12.744,-32768
12.769,-32768
12.794,-32768
12.819,-32768
12.844,-32768
12.869,-32768
12.894,-32768
12.919,-26239
12.944,-17830
12.969,-14785
12.994,-15600
13.019,-16795
13.044,-16138
13.069,-14523
13.094,-14848
13.119,-19073
13.144,-26126
13.169,-32332
13.194,-32768
13.219,-28519
13.244,-17642
13.269,-4277
13.294,7789
13.319,15558
13.344,17697
13.369,14720
13.394,8501
13.419,1432
13.444,-4304
13.469,-7040
13.494,-5603
13.519,644
13.544,11534
13.569,25758
13.594,32767
13.619,32767
13.644,32767
13.669,32767
13.694,32767
13.719,32767
13.744,27518
13.769,13986
13.794,2977
13.819,-5116
13.844,-10738
13.869,-14554
13.894,-17182
13.919,-19102
13.944,-20394
13.969,-20397
13.994,-17889
14.019,-12068
14.044,-3624
14.069,5239
14.094,12202
14.119,16496
14.144,19229
14.169,21966
14.194,24899
14.219,26420
14.244,24511
14.269,18548
14.294,9796
14.319,266
14.344,-8766
14.369,-17174
14.394,-25142
14.419,-32151
14.444,-32768
14.469,-32768
14.494,-32768
14.519,-27061
14.544,-17760
14.569,-8536
14.594,-1227
14.619,3336
14.644,5533
14.669,6352
14.694,6402
14.719,5426
14.744,2909
14.769,-797
14.794,-4051
14.819,-4826
14.844,-2151
14.869,3312
14.894,10037
14.919,16822
14.944,23166
14.969,28692
14.994,32619
15.019,32767
15.044,32767
15.069,30093
15.094,26476
15.119,22517
15.144,17916
15.169,12410
15.194,6346
15.219,456
15.244,-4755
15.269,-9210
15.294,-12855
15.319,-15312
15.344,-16142
15.369,-15433
15.394,-14001
15.419,-12964
15.444,-13119
15.469,-14684
15.494,-17411
15.519,-20765
15.544,-24088
15.569,-26875
15.594,-29053
15.619,-30841
15.644,-32110
15.669,-31958
15.694,-29264
15.719,-23979
15.744,-17732
15.769,-12786
15.794,-10115
15.819,-8582
15.844,-6181
15.869,-2115
15.894,2505
15.919,6024
15.944,8065
15.969,9779
15.994,12346
16.019,15563
16.044,18088
16.069,18940
16.094,18457
16.119,17744
16.144,17436
16.169,17244
16.194,16624
16.219,15573
16.244,14586
16.269,13977
16.294,13515
16.319,12788
16.344,11743
16.369,10698
16.394,9899
16.419,9224
16.444,8403
16.469,7383
16.494,6372
16.519,5541
16.544,4818
16.569,4027
16.594,3151
16.619,2344
16.644,1717
16.669,1188
16.694,609
16.719,-29
16.744,-590
16.769,-969
16.794,-1229
16.819,-1516
16.844,-1891
16.869,-2279
16.894,-2576
16.919,-2742
16.944,-2793
16.969,-2742
16.994,-2596
17.019,-2416
17.044,-2298
17.069,-2293
17.094,-2350
17.119,-2366
17.144,-2292
17.169,-2157
17.194,-2013
17.219,-1871
17.244,-1718
17.269,-1564
17.294,-1443
17.319,-1371
17.344,-1323
17.369,-1261
17.394,-1186
17.419,-1129
17.444,-1107
17.469,-1103
17.494,-1101
17.519,-1113
17.544,-1149
17.569,-1167
17.594,-1090
17.619,-881
17.644,-604
17.669,-375
17.694,-258
17.719,-213
17.744,-150
17.769,-31
17.794,107
17.819,212
17.844,278
17.869,342
17.894,427
17.919,510
17.944,544
17.969,511
17.994,434
18.019,356
18.044,303
18.069,280
18.094,272
18.119,261
18.144,231
18.169,176
18.194,95
18.219,-1
18.244,-106
18.269,-198
18.294,-249
18.319,-228
18.344,-131
18.369,7
18.394,138
18.419,231
18.444,296
18.469,360
18.494,428
18.519,481
18.544,499
18.569,493
18.594,495
18.619,512
18.644,524
18.669,501
18.694,447
18.719,390
18.744,352
18.769,320
18.794,268
18.819,189
18.844,107
18.869,40
18.894,-25
18.919,-120
18.944,-243
18.969,-343
18.994,-355
19.019,-263
19.044,-114
19.069,21
19.094,105
19.119,152
19.144,193
19.169,241
19.194,286
19.219,315
19.244,332
19.269,349
19.294,375
19.319,406
19.344,434
19.369,453
19.394,452
19.419,426
19.444,377
19.469,320
19.494,261
19.519,193
19.544,106
19.569,10
19.594,-47
19.619,-18
19.644,100
19.669,256
19.694,383
19.719,461
19.744,523
19.769,600
19.794,683
19.819,728
19.844,717
19.869,682
19.894,666
19.919,670
19.944,633
19.969,492
19.994,234
20.019,-98
20.044,-446
20.069,-766
20.094,-1023
20.119,-1172
20.144,-1177
20.169,-1054
20.194,-870
20.219,-702
20.244,-573
20.269,-441
20.294,-261
20.319,-39
20.344,166
20.369,308
20.394,389
20.419,451
20.444,523
20.469,598
20.494,652
20.519,678
20.544,688
20.569,697
20.594,701
20.619,689
20.644,652
20.669,595
20.694,527
20.719,454
20.744,376
20.769,293
20.794,198
20.819,84
20.844,-37
20.869,-134
20.894,-166
20.919,-116
20.944,-13
20.969,92
20.994,167
21.019,214
21.044,258
21.069,307
21.094,344
21.119,354
21.144,340
21.169,322
21.194,309
21.219,296
21.244,273
21.269,245
21.294,228
21.319,228
21.344,230
21.369,218
21.394,184
21.419,130
21.444,57
21.469,-32
21.494,-121
21.519,-171
21.544,-146
21.569,-50
21.594,72
21.619,171
21.644,232
21.669,281
21.694,345
21.719,421
21.744,478
21.769,497
21.794,491
21.819,486
21.844,494
21.869,496
21.894,473
21.919,422
21.944,357
21.969,291
21.994,226
22.019,160
22.044,100
22.069,46
22.094,-10
22.119,-87
22.144,-175
22.169,-238
22.194,-229
22.219,-140
22.244,-14
22.269,91
22.294,150
22.319,184
22.344,227
22.369,290
22.394,348
22.419,378
22.444,381
22.469,380
22.494,388
22.519,393
22.544,377
22.569,334
22.594,278
22.619,220
22.644,163
22.669,102
22.694,39
22.719,-14
22.744,-58
22.769,-110
22.794,-180
22.819,-256
22.844,-295
22.869,-259
22.894,-150
22.919,-14
22.944,98
22.969,173
22.994,229
23.019,288
23.044,350
23.069,396
23.094,415
23.119,416
23.144,420
23.169,433
23.194,441
23.219,432
23.244,405
23.269,370
23.294,334
23.319,290
23.344,232
23.369,171
23.394,120
23.419,82
23.444,35
23.469,-37
23.494,-120
23.519,-168
23.544,-143
23.569,-49
23.594,67
23.619,159
23.644,216
23.669,261
23.694,312
23.719,365
23.744,395
23.769,396
23.794,384
23.819,383
23.844,397
23.869,405
23.894,393
23.919,360
23.944,319
23.969,277
23.994,229
24.019,173
24.044,116
24.069,63
24.094,8
24.119,-60
24.144,-138
24.169,-189
24.194,-174
24.219,-87
24.244,32
24.269,134
24.294,193
24.319,227
24.344,263
24.369,307
24.394,340
24.419,347
24.444,338
24.469,332
24.494,338
24.519,343
24.544,329
24.569,299
24.594,266
24.619,238
24.644,205
24.669,157
24.694,98
24.719,44
24.744,1
24.769,-42
24.794,-99
24.819,-157
24.844,-179
24.869,-135
24.894,-31
24.919,89
24.944,189
24.969,255
24.994,307
25.019,360
25.044,406
25.069,427
25.094,417
25.119,392
25.144,374
25.169,368
25.194,360
25.219,337
25.244,300
25.269,263
25.294,232
25.319,197
25.344,145
25.369,80
25.394,18
25.419,-27
25.444,-64
25.469,-114
25.494,-180
25.519,-234
25.544,-230
25.569,-152
25.594,-25
25.619,93
25.644,169
25.669,207
25.694,244
25.719,305
25.744,378
25.769,433
25.794,453
25.819,454
25.844,461
25.869,482
25.894,498
25.919,490
25.944,457
25.969,415
25.994,379
26.019,345
26.044,299
26.069,240
26.094,181
26.119,131
26.144,81
26.169,16
26.194,-63
26.219,-124
26.244,-126
26.269,-63
26.294,32
26.319,114
26.344,159
26.369,183
26.394,211
26.419,251
26.444,285
26.469,297
26.494,290
26.519,285
26.544,292
26.569,304
26.594,305
26.619,293
26.644,279
26.669,268
26.694,253
26.719,219
26.744,163
26.769,99
26.794,45
26.819,0
26.844,-49
26.869,-113
26.894,-173
26.919,-195
26.944,-155
26.969,-66
26.994,34
27.019,114
27.044,168
27.069,209
27.094,249
27.119,283
27.144,299
27.169,295
27.194,284
27.219,279
27.244,281
27.269,284
27.294,282
27.319,276
27.344,271
27.369,264
27.394,244
27.419,208
27.444,164
27.469,125
27.494,90
27.519,47
27.544,-10
27.569,-62
27.594,-75
27.619,-28
27.644,62
27.669,156
27.694,222
27.719,260
27.744,291
27.769,330
27.794,368
27.819,389
27.844,388
27.869,379
27.894,378
27.919,384
27.944,383
27.969,367
27.994,340
28.019,311
28.044,283
28.069,247
28.094,200
28.119,148
28.144,104
28.169,62
28.194,8
28.219,-61
28.244,-121
28.269,-136
28.294,-85
28.319,10
28.344,105
28.369,168
28.394,202
28.419,229
28.444,262
28.469,294
28.494,312
28.519,314
28.544,311
28.569,311
28.594,310
28.619,299
28.644,278
28.669,252
28.694,227
28.719,197
28.744,156
28.769,109
28.794,69
28.819,42
28.844,18
28.869,-17
28.894,-62
28.919,-89
28.944,-69
28.969,0
28.994,94
29.019,176
29.044,230
29.069,267
29.094,299
29.119,327
29.144,341
29.169,336
29.194,322
29.219,317
29.244,325
29.269,337
29.294,336
29.319,315
29.344,280
29.369,244
29.394,211
29.419,173
29.444,119
29.469,52
29.494,-9
29.519,-39
29.544,-20
29.569,38
29.594,108
29.619,162
29.644,196
29.669,224
29.694,257
29.719,291
29.744,305
29.769,291
29.794,264
29.819,244
29.844,240
29.869,238
29.894,221
29.919,191
29.944,166
29.969,157
29.994,151
30.019,128
30.044,84
30.069,42
30.094,38
30.119,79
30.144,143
30.169,199
30.194,231
30.219,251
30.244,270
30.269,287
30.294,291
30.319,276
30.344,256
30.369,245
30.394,245
30.419,239
30.444,214
30.469,171
30.494,128
30.519,94
30.544,65
30.569,27
30.594,-21
30.619,-62
30.644,-72
30.669,-39
30.694,22
30.719,88
30.744,139
30.769,177
30.794,211
30.819,247
30.844,280
30.869,302
30.894,311
30.919,313
30.944,314
30.969,310
30.994,295
31.019,266
31.044,231
31.069,199
31.094,173
31.119,140
31.144,91
31.169,31
31.194,-14
31.219,-22
31.244,13
31.269,77
31.294,144
31.319,203
31.344,252
31.369,297
31.394,336
31.419,364
31.444,374
31.469,368
31.494,354
31.519,340
31.544,325
31.569,303
31.594,266
31.619,215
31.644,156
31.669,94
31.694,32
31.719,-29
31.744,-88
31.769,-128
31.794,-128
31.819,-81
31.844,-1
31.869,79
31.894,140
31.919,184
31.944,232
31.969,296
31.994,363
32.019,410
32.044,422
32.069,411
32.094,394
32.119,381
32.144,364
32.169,333
32.194,290
32.219,247
32.244,209
32.269,169
32.294,118
32.319,64
32.344,25
32.369,17
32.394,39
32.419,75
32.444,110
32.469,136
32.494,155
32.519,173
32.544,191
32.569,209
32.594,224
32.619,231
32.644,227
32.669,216
32.694,202
32.719,192
32.744,181
32.769,165
32.794,143
32.819,118
32.844,92
32.869,58
32.894,9
32.919,-43
32.944,-71
32.969,-49
32.994,22
33.019,108
33.044,172
33.069,202
33.094,216
33.119,236
33.144,267
33.169,296
33.194,312
33.219,316
33.244,316
33.269,314
33.294,300
33.319,271
33.344,233
33.369,202
33.394,186
33.419,179
33.444,171
33.469,155
33.494,135
33.519,118
33.544,112
33.569,122
33.594,150
33.619,192
33.644,237
33.669,273
33.694,295
33.719,306
33.744,307
33.769,298
33.794,278
33.819,252
33.844,232
33.869,224
33.894,222
33.919,217
33.944,205
33.969,189
33.994,174
34.019,155
34.044,121
34.069,71
34.094,20
34.119,-10
34.144,-9
34.169,18
34.194,60
34.219,104
34.244,145
34.269,182
34.294,212
34.319,234
34.344,247
34.369,250
34.394,243
34.419,227
34.444,206
34.469,190
34.494,180
34.519,172
34.544,159
34.569,138
34.594,115
34.619,94
34.644,72
34.669,51
34.694,39
34.719,52
34.744,95
34.769,154
34.794,205
34.819,232
34.844,243
34.869,254
34.894,275
34.919,296
34.944,302
34.969,292
34.994,275
35.019,263
35.044,257
35.069,248
35.094,231
35.119,204
35.144,174
35.169,145
35.194,122
35.219,103
35.244,85
35.269,64
35.294,39
35.319,24
35.344,35
35.369,79
35.394,138
35.419,189
35.444,221
35.469,244
35.494,275
35.519,315
35.544,348
35.569,359
35.594,349
35.619,334
35.644,326
35.669,319
35.694,302
35.719,272
35.744,239
35.769,212
35.794,191
35.819,170
35.844,146
35.869,117
35.894,84
35.919,42
35.944,-7
35.969,-48
35.994,-56
36.019,-24
36.044,28
36.069,75
36.094,102
36.119,124
36.144,159
36.169,211
36.194,264
36.219,299
36.244,309
36.269,300
36.294,275
36.319,233
36.344,181
36.369,133
36.394,107
36.419,102
36.444,106
36.469,107
36.494,105
36.519,108
36.544,112
36.569,105
36.594,81
36.619,53
36.644,55
36.669,105
36.694,187
36.719,264
36.744,307
36.769,312
36.794,296
36.819,275
36.844,248
36.869,210
36.894,164
36.919,122
36.944,98
36.969,95
36.994,106
37.019,118
37.044,123
37.069,120
37.094,109
37.119,94
37.144,78
37.169,60
37.194,35
37.219,2
37.244,-31
37.269,-50
37.294,-38
37.319,4
37.344,64
37.369,125
37.394,177
37.419,224
37.444,274
37.469,328
37.494,382
37.519,427
37.544,460
37.569,483
37.594,502
37.619,523
37.644,546
37.669,570
37.694,588
37.719,603
37.744,622
37.769,651
37.794,687
37.819,705
37.844,679
37.869,598
37.894,480
37.919,360
37.944,262
37.969,183
37.994,105
38.019,20
38.044,-60
38.069,-115
38.094,-135
38.119,-130
38.144,-120
38.169,-114
38.194,-108
38.219,-96
38.244,-77
38.269,-61
38.294,-52
38.319,-52
38.344,-57
38.369,-65
38.394,-72
38.419,-75
38.444,-70
38.469,-62
38.494,-66
38.519,-90
38.544,-121
38.569,-136
38.594,-114
38.619,-62
38.644,-4
38.669,37
38.694,63
38.719,88
38.744,125
38.769,174
38.794,227
38.819,279
38.844,332
38.869,384
38.894,424
38.919,436
38.944,419
38.969,386
38.994,356
39.019,335
39.044,314
39.069,275
39.094,209
39.119,124
39.144,42
39.169,-10
39.194,-16
39.219,32
39.244,127
39.269,244
39.294,351
39.319,424
39.344,460
39.369,476
39.394,494
39.419,519
39.444,540
39.469,535
39.494,496
39.519,428
39.544,347
39.569,267
39.594,194
39.619,135
39.644,93
39.669,69
39.694,50
39.719,19
39.744,-30
39.769,-83
39.794,-114
39.819,-103
39.844,-59
39.869,-7
39.894,30
39.919,52
39.944,72
39.969,100
39.994,135
40.019,166
40.044,190
40.069,209
40.094,232
40.119,257
40.144,279
40.169,292
40.194,298
40.219,300
40.244,297
40.269,290
40.294,276
40.319,252
40.344,213
40.369,162
40.394,109
40.419,72
40.444,67
40.469,92
40.494,127
40.519,150
40.544,154
40.569,148
40.594,148
40.619,158
40.644,172
40.669,185
40.694,199
40.719,220
40.744,247
40.769,270
40.794,278
40.819,271
40.844,258
40.869,246
40.894,236
40.919,221
40.944,193
40.969,156
40.994,120
41.019,100
41.044,104
41.069,132
41.094,173
41.119,210
41.144,236
41.169,251
41.194,263
41.219,276
41.244,287
41.269,288
41.294,279
41.319,268
41.344,264
41.369,267
41.394,268
41.419,256
41.444,232
41.469,206
41.494,184
41.519,159
41.544,123
41.569,74
41.594,28
41.619,6
41.644,17
41.669,53
41.694,91
41.719,116
41.744,124
41.769,125
41.794,128
41.819,136
41.844,140
41.869,136
41.894,124
41.919,109
41.944,96
41.969,87
41.994,77
42.019,62
42.044,45
42.069,36
42.094,42
42.119,61
42.144,79
42.169,88
42.194,93
42.219,110
42.244,147
42.269,197
42.294,241
42.319,260
42.344,253
42.369,235
42.394,223
42.419,226
42.444,246
42.469,278
42.494,314
42.519,345
42.544,365
42.569,373
42.594,373
42.619,370
42.644,361
42.669,336
42.694,295
42.719,244
42.744,191
42.769,142
42.794,92
42.819,44
42.844,13
42.869,19
42.894,66
42.919,133
42.944,192
42.969,226
42.994,240
43.019,250
43.044,263
43.069,276
43.094,281
43.119,277
43.144,271
43.169,268
43.194,265
43.219,256
43.244,236
43.269,209
43.294,182
43.319,158
43.344,137
43.369,113
43.394,82
43.419,45
43.444,15
43.469,3
43.494,19
43.519,57
43.544,102
43.569,140
43.594,166
43.619,184
43.644,199
43.669,214
43.694,224
43.719,227
43.744,224
43.769,220
43.794,219
43.819,219
43.844,219
43.869,216
43.894,208
43.919,194
43.944,177
43.969,158
43.994,136
44.019,110
44.044,79
44.069,51
44.094,39
44.119,54
44.144,94
44.169,142
44.194,181
44.219,204
44.244,215
44.269,224
44.294,232
44.319,238
44.344,241
44.369,244
44.394,251
44.419,261
44.444,267
44.469,265
44.494,255
44.519,238
44.544,218
44.569,198
44.594,173
44.619,141
44.644,101
44.669,60
44.694,29
44.719,21
44.744,42
44.769,86
44.794,138
44.819,184
44.844,219
44.869,244
44.894,266
44.919,284
44.944,297
44.969,300
44.994,294
45.019,281
45.044,266
45.069,253
45.094,242
45.119,229
45.144,214
45.169,194
45.194,168
45.219,135
45.244,93
45.269,46
45.294,2
45.319,-24
45.344,-23
45.369,2
45.394,42
45.419,81
45.444,112
45.469,134
45.494,151
45.519,168
45.544,185
45.569,203
45.594,220
45.619,236
45.644,251
45.669,265
45.694,274
45.719,275
45.744,263
45.769,242
45.794,221
45.819,203
45.844,184
45.869,155
45.894,113
45.919,73
45.944,56
45.969,75
45.994,120
46.019,167
46.044,198
46.069,215
46.094,231
46.119,255
46.144,279
46.169,292
46.194,290
46.219,283
46.244,283
46.269,295
46.294,307
46.319,305
46.344,283
46.369,246
46.394,206
46.419,170
46.444,140
46.469,109
46.494,74
46.519,41
46.544,23
46.569,33
46.594,69
46.619,118
46.644,163
46.669,198
46.694,226
46.719,254
46.744,278
46.769,292
46.794,289
46.819,273
46.844,252
46.869,233
46.894,216
46.919,199
46.944,181
46.969,163
46.994,147
47.019,135
47.044,121
47.069,103
47.094,76
47.119,42
47.144,10
47.169,-6
47.194,3
47.219,37
47.244,84
47.269,129
47.294,164
47.319,192
47.344,216
47.369,239
47.394,258
47.419,270
47.444,275
47.469,275
47.494,272
47.519,268
47.544,265
47.569,261
47.594,253
47.619,236
47.644,213
47.669,188
47.694,163
47.719,134
47.744,98
47.769,64
47.794,47
47.819,59
47.844,97
47.869,142
47.894,176
47.919,197
47.944,215
47.969,233
47.994,249
48.019,252
48.044,244
48.069,235
48.094,232
48.119,235
48.144,237
48.169,232
48.194,222
48.219,209
48.244,195
48.269,179
48.294,160
48.319,141
48.344,119
48.369,92
48.394,63
48.419,46
48.444,55
48.469,90
48.494,135
48.519,170
48.544,188
48.569,202
48.594,223
48.619,249
48.644,266
48.669,268
48.694,261
48.719,258
48.744,262
48.769,264
48.794,256
48.819,242
48.844,228
48.869,218
48.894,204
48.919,182
48.944,155
48.969,132
48.994,111
49.019,84
49.044,50
49.069,21
49.094,20
49.119,54
49.144,105
49.169,149
49.194,171
49.219,183
49.244,201
49.269,229
49.294,255
49.319,269
49.344,271
49.369,271
49.394,274
49.419,273
49.444,261
49.469,241
49.494,221
49.519,208
49.544,197
49.569,180
49.594,156
49.619,131
49.644,111
49.669,90
49.694,62
49.719,31
49.744,15
49.769,28
49.794,70
49.819,118
49.844,154
49.869,174
49.894,191
49.919,214
49.944,240
49.969,258
49.994,262
50.019,261
50.044,264
50.069,272
50.094,278
50.119,276
50.144,268
50.169,258
50.194,247
50.219,234
50.244,220
50.269,206
50.294,193
50.319,175
50.344,143
50.369,100
50.394,65
50.419,59
50.444,86
50.469,128
50.494,165
50.519,188
50.544,206
50.569,228
50.594,252
50.619,269
50.644,273
50.669,267
50.694,259
50.719,254
50.744,246
50.769,234
50.794,216
50.819,196
50.844,174
50.869,147
50.894,119
50.919,94
50.944,72
50.969,48
50.994,16
51.019,-13
51.044,-24
51.069,-3
51.094,47
51.119,104
51.144,150
51.169,181
51.194,205
51.219,232
51.244,256
51.269,271
51.294,274
51.319,269
51.344,265
51.369,262
51.394,259
51.419,251
51.444,236
51.469,217
51.494,194
51.519,169
51.544,146
51.569,122
51.594,92
51.619,55
51.644,21
51.669,8
51.694,32
51.719,85
51.744,147
51.769,194
51.794,223
51.819,242
51.844,262
51.869,282
51.894,295
51.919,297
51.944,294
51.969,295
51.994,302
52.019,310
52.044,312
52.069,301
52.094,277
52.119,245
52.144,209
52.169,175
52.194,139
52.219,97
52.244,49
52.269,8
52.294,-7
52.319,10
52.344,55
52.369,105
52.394,142
52.419,166
52.444,186
52.469,210
52.494,234
52.519,250
52.544,255
52.569,255
52.594,255
52.619,255
52.644,254
52.669,249
52.694,242
52.719,229
52.744,211
52.769,187
52.794,159
52.819,130
52.844,95
52.869,54
52.894,15
52.919,-3
52.944,10
52.969,51
52.994,102
53.019,144
53.044,173
53.069,199
53.094,229
53.119,259
53.144,276
53.169,273
53.194,252
53.219,227
53.244,209
53.269,203
53.294,204
53.319,202
53.344,191
53.369,172
53.394,154
53.419,144
53.444,137
53.469,121
53.494,89
53.519,55
53.544,40
53.569,59
53.594,105
53.619,157
53.644,199
53.669,231
53.694,260
53.719,287
53.744,309
53.769,323
53.794,331
53.819,340
53.844,351
53.869,361
53.894,365
53.919,365
53.944,363
53.969,359
53.994,349
54.019,333
54.044,318
54.069,303
54.094,278
54.119,230
54.144,161
54.169,89
54.194,36
54.219,11
54.244,5
54.269,6
54.294,11
54.319,28
54.344,56
54.369,90
54.394,117
54.419,133
54.444,140
54.469,144
54.494,141
54.519,127
54.544,101
54.569,73
54.594,51
54.619,42
54.644,43
54.669,48
54.694,53
54.719,53
54.744,52
54.769,58
54.794,79
54.819,116
54.844,161
54.869,204
54.894,237
54.919,265
54.944,290
54.969,311
54.994,321
55.019,314
55.044,293
55.069,270
55.094,254
55.119,244
55.144,234
55.169,219
55.194,198
55.219,176
55.244,156
55.269,135
55.294,109
55.319,77
55.344,43
55.369,23
55.394,27
55.419,57
55.444,102
55.469,146
55.494,181
55.519,209
55.544,236
55.569,265
55.594,291
55.619,310
55.644,319
55.669,320
55.694,316
55.719,309
55.744,300
55.769,289
55.794,276
55.819,260
55.844,239
55.869,214
55.894,189
55.919,163
55.944,135
55.969,107
55.994,86
56.019,86
56.044,112
56.069,153
56.094,194
56.119,227
56.144,254
56.169,282
56.194,311
56.219,331
56.244,339
56.269,343
56.294,349
56.319,353
56.344,338
56.369,293
56.394,224
56.419,153
56.444,97
56.469,60
56.494,35
56.519,18
56.544,8
56.569,-1
56.594,-21
56.619,-54
56.644,-83
56.669,-85
56.694,-52
56.719,1
56.744,49
56.769,78
56.794,99
56.819,126
56.844,161
56.869,192
56.894,208
56.919,213
56.944,220
56.969,232
56.994,242
57.019,243
57.044,237
57.069,233
57.094,232
57.119,229
57.144,219
57.169,203
57.194,185
57.219,163
57.244,133
57.269,98
57.294,79
57.319,93
57.344,142
57.369,201
57.394,248
57.419,274
57.444,291
57.469,310
57.494,328
57.519,334
57.544,329
57.569,322
57.594,325
57.619,335
57.644,339
57.669,329
57.694,313
57.719,297
57.744,284
57.769,265
57.794,237
57.819,205
57.844,177
57.869,148
57.894,110
57.919,62
57.944,21
57.969,9
57.994,31
58.019,71
58.044,105
58.069,125
58.094,135
58.119,147
58.144,163
58.169,180
58.194,192
58.219,202
58.244,212
58.269,220
58.294,221
58.319,216
58.344,204
58.369,190
58.394,171
58.419,151
58.444,131
58.469,114
58.494,98
58.519,76
58.544,47
58.569,21
58.594,13
58.619,33
58.644,72
58.669,114
58.694,149
58.719,176
58.744,200
58.769,222
58.794,239
58.819,249
58.844,255
58.869,261
58.894,270
58.919,278
58.944,280
58.969,276
58.994,265
59.019,249
59.044,232
59.069,212
59.094,190
59.119,161
59.144,125
59.169,87
59.194,60
59.219,60
59.244,90
59.269,136
59.294,181
59.319,212
59.344,228
59.369,237
59.394,244
59.419,249
59.444,250
59.469,246
59.494,242
59.519,241
59.544,244
59.569,245
59.594,238
59.619,219
59.644,192
59.669,166
59.694,145
59.719,123
59.744,94
59.769,56
59.794,23
59.819,13
59.844,36
59.869,84
59.894,137
59.919,179
59.944,206
59.969,227
59.994,247
60.019,266
60.044,278
60.069,282
60.094,281
60.119,278
60.144,276
60.169,273
60.194,264
60.219,248
60.244,225
60.269,197
60.294,169
60.319,142
60.344,114
60.369,83
60.394,53
60.419,36
60.444,43
60.469,76
60.494,123
60.519,166
60.544,195
60.569,212
60.594,225
60.619,239
60.644,250
60.669,252
60.694,244
60.719,233
60.744,225
60.769,221
60.794,218
60.819,211
60.844,196
60.869,177
60.894,155
60.919,133
60.944,107
60.969,73
60.994,34
61.019,3
61.044,-3
61.069,20
61.094,68
61.119,119
61.144,159
61.169,184
61.194,203
61.219,224
61.244,247
61.269,264
61.294,273
61.319,273
61.344,271
61.369,270
61.394,270
61.419,268
61.444,261
61.469,249
61.494,231
61.519,212
61.544,193
61.569,172
61.594,145
61.619,114
61.644,91
61.669,91
61.694,122
61.719,173
61.744,224
61.769,261
61.794,282
61.819,298
61.844,313
61.869,322
61.894,321
61.919,312
61.944,301
61.969,291
61.994,279
62.019,258
62.044,229
62.069,199
62.094,172
62.119,145
62.144,114
62.169,83
62.194,53
62.219,24
62.244,-9
62.269,-46
62.294,-71
62.319,-67
62.344,-28
62.369,28
62.394,78
62.419,112
62.444,137
62.469,164
62.494,193
62.519,217
62.544,229
62.569,236
62.594,245
62.619,260
62.644,273
62.669,277
62.694,273
62.719,265
62.744,255
62.769,239
62.794,215
62.819,189
62.844,162
62.869,134
62.894,99
62.919,63
62.944,44
62.969,55
62.994,95
63.019,143
63.044,181
63.069,207
63.094,231
63.119,263
63.144,293
63.169,309
63.194,306
63.219,296
63.244,293
63.269,298
63.294,302
63.319,294
63.344,275
63.369,252
63.394,228
63.419,203
63.444,173
63.469,144
63.494,120
63.519,101
63.544,76
63.569,41
63.594,8
63.619,-2
63.644,19
63.669,64
63.694,107
63.719,135
63.744,153
63.769,174
63.794,203
63.819,232
63.844,248
63.869,252
63.894,252
63.919,258
63.944,267
63.969,270
63.994,264
64.019,253
64.044,241
64.069,226
64.094,204
64.119,177
64.144,150
64.169,126
64.194,99
64.219,64
64.244,30
64.269,16
64.294,36
64.319,82
64.344,131
64.369,165
64.394,184
64.419,200
64.444,223
64.469,245
64.494,257
64.519,256
64.544,252
64.569,254
64.594,261
64.619,264
64.644,262
64.669,257
64.694,248
64.719,234
64.744,210
64.769,181
64.794,156
64.819,136
64.844,114
64.869,81
64.894,45
64.919,29
64.944,49
64.969,98
64.994,151
65.019,187
65.044,209
65.069,230
65.094,255
65.119,277
65.144,282
65.169,274
65.194,265
65.219,265
65.244,269
65.269,266
65.294,253
65.319,234
65.344,218
65.369,202
65.394,180
65.419,152
65.444,127
65.469,106
65.494,83
65.519,50
65.544,15
65.569,0
65.594,18
65.619,66
65.644,119
65.669,156
65.694,177
65.719,198
65.744,223
65.769,247
65.794,258
65.819,259
65.844,259
65.869,266
65.894,272
65.919,270
65.944,257
65.969,245
65.994,239
66.019,233
66.044,216
66.069,186
66.094,154
66.119,129
66.144,107
66.169,75
66.194,34
66.219,4
66.244,8
66.269,50
66.294,107
66.319,154
66.344,181
66.369,198
66.394,218
66.419,242
66.444,259
66.469,267
66.494,269
66.519,272
66.544,278
66.569,279
66.594,274
66.619,266
66.644,258
66.669,246
66.694,223
66.719,190
66.744,156
66.769,128
66.794,101
66.819,69
66.844,33
66.869,9
66.894,15
66.919,53
66.944,106
66.969,155
66.994,189
67.019,215
67.044,238
67.069,258
67.094,269
67.119,270
67.144,267
67.169,267
67.194,270
67.219,272
67.244,271
67.269,266
67.294,254
67.319,232
67.344,200
67.369,167
67.394,140
67.419,117
67.444,89
67.469,51
67.494,13
67.519,-1
67.544,18
67.569,65
67.594,116
67.619,152
67.644,174
67.669,193
67.694,217
67.719,239
67.744,250
67.769,249
67.794,245
67.819,243
67.844,245
67.869,246
67.894,243
67.919,233
67.944,218
67.969,196
67.994,172
68.019,149
68.044,127
68.069,100
68.094,67
68.119,33
68.144,17
68.169,35
68.194,83
68.219,141
68.244,188
68.269,218
68.294,240
68.319,263
68.344,285
68.369,299
68.394,301
68.419,299
68.444,299
68.469,303
68.494,306
68.519,303
68.544,294
68.569,278
68.594,255
68.619,227
68.644,196
68.669,166
68.694,135
68.719,96
68.744,52
68.769,18
68.794,12
68.819,43
68.844,95
68.869,144
68.894,177
68.919,198
68.944,220
68.969,243
68.994,260
69.019,263
69.044,254
69.069,244
69.094,234
69.119,218
69.144,190
69.169,153
69.194,119
69.219,94
69.244,76
69.269,59
69.294,45
69.319,36
69.344,27
69.369,11
69.394,-15
69.419,-40
69.444,-40
69.469,-3
69.494,55
69.519,112
69.544,150
69.569,176
69.594,201
69.619,231
69.644,254
69.669,263
69.694,263
69.719,264
69.744,273
69.769,282
69.794,282
69.819,274
69.844,266
69.869,261
69.894,254
69.919,238
69.944,221
69.969,212
69.994,215
70.019,217
70.044,206
70.069,187
70.094,183
70.119,209
70.144,255
70.169,298
70.194,323
70.219,339
70.244,363
70.269,400
70.294,436
70.319,453
70.344,450
70.369,438
70.394,421
70.419,392
70.444,339
70.469,268
70.494,195
70.519,136
70.544,91
70.569,51
70.594,10
70.619,-23
70.644,-49
70.669,-77
70.694,-115
70.719,-159
70.744,-184
70.769,-167
70.794,-109
70.819,-36
70.844,26
70.869,71
70.894,108
70.919,146
70.944,183
70.969,208
70.994,219
71.019,225
71.044,236
71.069,250
71.094,261
71.119,267
71.144,270
71.169,273
71.194,272
71.219,263
71.244,247
71.269,229
71.294,212
71.319,188
71.344,151
71.369,105
71.394,68
71.419,61
71.444,87
71.469,130
71.494,167
71.519,188
71.544,199
71.569,212
71.594,230
71.619,246
71.644,249
71.669,240
71.694,228
71.719,223
71.744,223
71.769,221
71.794,210
71.819,192
71.844,175
71.869,160
71.894,142
71.919,112
71.944,71
71.969,36
71.994,29
72.019,57
72.044,105
72.069,149
72.094,175
72.119,186
72.144,199
72.169,222
72.194,248
72.219,266
72.244,270
72.269,271
72.294,276
72.319,288
72.344,298
72.369,298
72.394,287
72.419,269
72.444,251
72.469,234
72.494,216
72.519,193
72.544,163
72.569,129
72.594,97
72.619,83
72.644,97
72.669,138
72.694,190
72.719,234
72.744,262
72.769,280
72.794,302
72.819,328
72.844,346
72.869,332
72.894,273
72.919,179
72.944,81
72.969,19
72.994,14
73.019,56
73.044,114
73.069,154
73.094,165
73.119,159
73.144,158
73.169,167
73.194,172
73.219,157
73.244,119
73.269,77
73.294,53
73.319,58
73.344,91
73.369,148
73.394,223
73.419,299
73.444,348
73.469,343
73.494,286
73.519,210
73.544,159
73.569,150
73.594,167
73.619,178
73.644,166
73.669,140
73.694,119
73.719,108
73.744,99
73.769,85
73.794,68
73.819,56
73.844,50
73.869,43
73.894,31
73.919,25
73.944,43
73.969,92
73.994,158
74.019,219
74.044,260
74.069,286
74.094,312
74.119,341
74.144,361
74.169,359
74.194,333
74.219,302
74.244,288
74.269,300
74.294,324
74.319,339
74.344,335
74.369,322
74.394,310
74.419,302
74.444,282
74.469,233
74.494,154
74.519,61
74.544,-15
74.569,-53
74.594,-44
74.619,0
74.644,56
74.669,106
74.694,141
74.719,163
74.744,180
74.769,192
74.794,197
74.819,193
74.844,185
74.869,180
74.894,182
74.919,183
74.944,173
74.969,148
74.994,119
75.019,100
75.044,99
75.069,113
75.094,132
75.119,146
75.144,146
75.169,129
75.194,99
75.219,71
75.244,64
75.269,89
75.294,138
75.319,191
75.344,231
75.369,257
75.394,275
75.419,291
75.444,302
75.469,303
75.494,298
75.519,295
75.544,297
75.569,300
75.594,299
75.619,291
75.644,280
75.669,266
75.694,246
75.719,219
75.744,187
75.769,156
75.794,127
75.819,95
75.844,60
75.869,34
75.894,36
75.919,69
75.944,119
75.969,162
75.994,187
76.019,199
76.044,213
76.069,230
76.094,243
76.119,246
76.144,239
76.169,231
76.194,230
76.219,231
76.244,228
76.269,217
76.294,200
76.319,180
76.344,160
76.369,140
76.394,117
76.419,88
76.444,56
76.469,31
76.494,26
76.519,49
76.544,93
76.569,141
76.594,177
76.619,199
76.644,214
76.669,229
76.694,241
76.719,244
76.744,238
76.769,235
76.794,240
76.819,251
76.844,255
76.869,247
76.894,231
76.919,215
76.944,199
76.969,172
76.994,131
77.019,85
77.044,57
77.069,63
77.094,98
77.119,144
77.144,183
77.169,206
77.194,219
77.219,227
77.244,233
77.269,233
77.294,225
77.319,215
77.344,209
77.369,209
77.394,211
77.419,207
77.444,191
77.469,167
77.494,145
77.519,128
77.544,111
77.569,84
77.594,45
77.619,9
77.644,-1
77.669,21
77.694,68
77.719,116
77.744,148
77.769,168
77.794,186
77.819,208
77.844,228
77.869,237
77.894,236
77.919,237
77.944,248
77.969,268
77.994,285
78.019,288
78.044,276
78.069,259
78.094,247
78.119,237
78.144,221
78.169,191
78.194,149
78.219,112
78.244,98
78.269,117
78.294,160
78.319,209
78.344,249
78.369,275
78.394,293
78.419,305
78.444,311
78.469,307
78.494,292
78.519,275
78.544,265
78.569,261
78.594,256
78.619,242
78.644,215
78.669,184
78.694,158
78.719,136
78.744,111
78.769,73
78.794,25
78.819,-13
78.844,-23
78.869,1
78.894,50
78.919,98
78.944,129
78.969,144
78.994,155
79.019,171
79.044,186
79.069,192
79.094,185
79.119,178
79.144,179
79.169,186
79.194,190
79.219,182
79.244,167
79.269,154
79.294,143
79.319,125
79.344,96
79.369,69
79.394,62
79.419,87
79.444,132
79.469,176
79.494,205
79.519,225
79.544,248
79.569,275
79.594,295
79.619,300
79.644,292
79.669,283
79.694,281
79.719,280
79.744,270
79.769,246
79.794,218
79.819,194
79.844,173
79.869,145
79.894,108
79.919,68
79.944,42
79.969,41
79.994,65
80.019,103
80.044,143
80.069,176
80.094,201
80.119,220
80.144,236
80.169,249
80.194,256
80.219,256
80.244,249
80.269,241
80.294,234
80.319,226
80.344,210
80.369,185
80.394,158
80.419,135
80.444,115
80.469,90
80.494,56
80.519,22
80.544,5
80.569,20
80.594,62
80.619,111
80.644,152
80.669,181
80.694,205
80.719,230
80.744,254
80.769,268
80.794,272
80.819,272
80.844,273
80.869,277
80.894,278
80.919,271
80.944,255
80.969,236
80.994,216
81.019,195
81.044,171
81.069,144
81.094,114
81.119,82
81.144,51
81.169,22
81.194,5
81.219,10
81.244,40
81.269,91
81.294,144
81.319,185
81.344,212
81.369,238
81.394,271
81.419,307
81.444,331
81.469,335
81.494,332
81.519,339
81.544,360
81.569,378
81.594,376
81.619,358
81.644,345
81.669,347
81.694,349
81.719,328
81.744,291
81.769,267
81.794,274
81.819,276
81.844,210
81.869,54
81.894,-131
81.919,-242
81.944,-216
81.969,-91
81.994,36
82.019,100
82.044,111
82.069,121
82.094,161
82.119,208
82.144,222
82.169,195
82.194,153
82.219,130
82.244,138
82.269,170
82.294,218
82.319,273
82.344,313
82.369,303
82.394,229
82.419,119
82.444,29
82.469,1
82.494,24
82.519,50
82.544,39
82.569,-2
82.594,-38
82.619,-41
82.644,-10
82.669,34
82.694,84
82.719,145
82.744,212
82.769,262
82.794,268
82.819,231
82.844,187
82.869,181
82.894,228
82.919,296
82.944,342
82.969,348
82.994,333
83.019,324
83.044,329
83.069,331
83.094,313
83.119,278
83.144,243
83.169,223
83.194,218
83.219,219
83.244,220
83.269,218
83.294,201
83.319,161
83.344,101
83.369,50
83.394,41
83.419,81
83.444,144
83.469,188
83.494,195
83.519,185
83.544,186
83.569,208
83.594,236
83.619,251
83.644,252
83.669,251
83.694,258
83.719,268
83.744,272
83.769,265
83.794,255
83.819,245
83.844,236
83.869,220
83.894,197
83.919,171
83.944,150
83.969,134
83.994,120
84.019,101
84.044,72
84.069,34
84.094,0
84.119,-11
84.144,10
84.169,61
84.194,119
84.219,159
84.244,178
84.269,189
84.294,204
84.319,226
84.344,241
84.369,246
84.394,245
84.419,249
84.444,259
84.469,266
84.494,263
84.519,254
84.544,245
84.569,235
84.594,219
84.619,196
84.644,170
84.669,149
84.694,128
84.719,99
84.744,66
84.769,45
84.794,54
84.819,92
84.844,141
84.869,178
84.894,199
84.919,213
84.944,229
84.969,244
84.994,251
85.019,249
85.044,245
85.069,247
85.094,251
85.119,251
85.144,245
85.169,235
85.194,222
85.219,204
85.244,180
85.269,152
85.294,125
85.319,96
85.344,63
85.369,29
85.394,7
85.419,16
85.444,58
85.469,115
85.494,165
85.519,198
85.544,221
85.569,240
85.594,259
85.619,271
85.644,273
85.669,269
85.694,267
85.719,266
85.744,264
85.769,258
85.794,246
85.819,228
85.844,206
85.869,179
85.894,153
85.919,129
85.944,102
85.969,65
85.994,23
86.019,-7
86.044,-5
86.069,33
86.094,91
86.119,143
86.144,179
86.169,205
86.194,235
86.219,267
86.244,290
86.269,297
86.294,294
86.319,292
86.344,296
86.369,299
86.394,293
86.419,276
86.444,255
86.469,233
86.494,210
86.519,185
86.544,160
86.569,135
86.594,105
86.619,68
86.644,31
86.669,14
86.694,31
86.719,78
86.744,133
86.769,176
86.794,203
86.819,226
86.844,254
86.869,280
86.894,293
86.919,293
86.944,288
86.969,288
86.994,290
87.019,288
87.044,274
87.069,254
87.094,233
87.119,213
87.144,187
87.169,154
87.194,121
87.219,91
87.244,63
87.269,27
87.294,-15
87.319,-51
87.344,-57
87.369,-30
87.394,17
87.419,63
87.444,98
87.469,127
87.494,161
87.519,200
87.544,232
87.569,249
87.594,255
87.619,263
87.644,279
87.669,298
87.694,309
87.719,309
87.744,302
87.769,295
87.794,285
87.819,266
87.844,237
87.869,203
87.894,168
87.919,133
87.944,93
87.969,47
87.994,9
88.019,-4
88.044,14
88.069,57
88.094,108
88.119,152
88.144,187
88.169,218
88.194,247
88.219,271
88.244,287
88.269,294
88.294,296
88.319,297
88.344,299
88.369,299
88.394,297
88.419,292
88.444,280
88.469,263
88.494,240
88.519,217
88.544,195
88.569,175
88.594,155
88.619,134
88.644,114
88.669,93
88.694,69
88.719,37
88.744,2
88.769,-20
88.794,-16
88.819,15
88.844,63
88.869,107
88.894,139
88.919,164
88.944,193
88.969,230
88.994,265
89.019,288
89.044,297
89.069,299
89.094,303
89.119,309
89.144,312
89.169,308
89.194,298
89.219,286
89.244,272
89.269,255
89.294,235
89.319,215
89.344,198
89.369,183
89.394,165
89.419,142
89.444,117
89.469,94
89.494,73
89.519,47
89.544,15
89.569,-16
89.594,-29
89.619,-13
89.644,26
89.669,73
89.694,113
89.719,143
89.744,171
89.769,203
89.794,237
89.819,263
89.844,275
89.869,279
89.894,284
89.919,294
89.944,307
89.969,313
89.994,310
90.019,299
90.044,288
90.069,278
90.094,265
90.119,249
90.144,230
90.169,212
90.194,195
90.219,176
90.244,153
90.269,127
90.294,104
90.319,83
90.344,58
90.369,23
90.394,-13
90.419,-38
90.444,-34
90.469,0
90.494,49
90.519,96
90.544,130
90.569,158
90.594,189
90.619,226
90.644,262
90.669,288
90.694,301
90.719,308
90.744,317
90.769,331
90.794,342
90.819,343
90.844,335
90.869,323
90.894,311
90.919,298
90.944,281
90.969,258
90.994,231
91.019,205
91.044,180
91.069,154
91.094,125
91.119,98
91.144,74
91.169,50
91.194,19
91.219,-21
91.244,-62
91.269,-83
91.294,-69
91.319,-27
91.344,23
91.369,60
91.394,82
91.419,101
91.444,129
91.469,170
91.494,213
91.519,245
91.544,266
91.569,283
91.594,302
91.619,320
91.644,335
91.669,342
91.694,342
91.719,334
91.744,316
91.769,287
91.794,254
91.819,225
91.844,205
91.869,188
91.894,169
91.919,146
91.944,124
91.969,106
91.994,85
92.019,54
92.044,16
92.069,-11
92.094,-8
92.119,30
92.144,90
92.169,148
92.194,190
92.219,221
92.244,250
92.269,282
92.294,310
92.319,330
92.344,341
92.369,350
92.394,360
92.419,367
92.444,368
92.469,363
92.494,351
92.519,334
92.544,312
92.569,288
92.594,263
92.619,237
92.644,208
92.669,172
92.694,133
92.719,99
92.744,69
92.769,38
92.794,-3
92.819,-47
92.844,-71
92.869,-59
92.894,-11
92.919,48
92.944,93
92.969,118
92.994,133
93.019,154
93.044,182
93.069,205
93.094,214
93.119,212
93.144,211
93.169,218
93.194,232
93.219,246
93.244,252
93.269,251
93.294,245
93.319,236
93.344,226
93.369,212
93.394,193
93.419,171
93.444,149
93.469,132
93.494,117
93.519,97
93.544,71
93.569,48
93.594,45
93.619,73
93.644,125
93.669,180
93.694,218
93.719,237
93.744,248
93.769,259
93.794,271
93.819,277
93.844,276
93.869,271
93.894,270
93.919,271
93.944,270
93.969,263
93.994,253
94.019,242
94.044,224
94.069,197
94.094,164
94.119,135
94.144,113
94.169,90
94.194,58
94.219,18
94.244,-11
94.269,-9
94.294,28
94.319,86
94.344,139
94.369,172
94.394,192
94.419,210
94.444,232
94.469,253
94.494,266
94.519,268
94.544,266
94.569,265
94.594,267
94.619,268
94.644,264
94.669,253
94.694,241
94.719,227
94.744,210
94.769,187
94.794,158
94.819,129
94.844,106
94.869,91
94.894,73
94.919,48
94.944,20
94.969,8
94.994,28
95.019,78
95.044,137
95.069,183
95.094,209
95.119,228
95.144,252
95.169,280
95.194,299
95.219,300
95.244,292
95.269,287
95.294,293
95.319,300
95.344,297
95.369,281
95.394,262
95.419,248
95.444,236
95.469,218
95.494,191
95.519,164
95.544,144
95.569,126
95.594,101
95.619,62
95.644,23
95.669,6
95.694,23
95.719,68
95.744,118
95.769,155
95.794,175
95.819,189
95.844,206
95.869,226
95.894,241
95.919,245
95.944,243
95.969,241
95.994,245
96.019,250
96.044,252
96.069,245
96.094,231
96.119,216
96.144,201
96.169,185
96.194,165
96.219,141
96.244,118
96.269,96
96.294,71
96.319,37
96.344,0
96.369,-24
96.394,-23
96.419,10
96.444,63
96.469,115
96.494,151
96.519,173
96.544,192
96.569,216
96.594,242
96.619,263
96.644,271
96.669,271
96.694,271
96.719,276
96.744,284
96.769,288
96.794,286
96.819,278
96.844,270
96.869,260
96.894,246
96.919,228
96.944,210
96.969,196
96.994,184
97.019,165
97.044,133
97.069,94
97.094,68
97.119,72
97.144,107
97.169,154
97.194,194
97.219,216
97.244,229
97.269,241
97.294,256
97.319,268
97.344,271
97.369,267
97.394,262
97.419,259
97.444,254
97.469,244
97.494,229
97.519,212
97.544,197
97.569,179
97.594,154
97.619,123
97.644,93
97.669,72
97.694,55
97.719,31
97.744,-5
97.769,-44
97.794,-64
97.819,-48
97.844,0
97.869,63
97.894,115
97.919,148
97.944,173
97.969,205
97.994,248
98.019,288
98.044,310
98.069,312
98.094,305
98.119,303
98.144,307
98.169,308
98.194,297
98.219,277
98.244,257
98.269,241
98.294,225
98.319,202
98.344,172
98.369,141
98.394,112
98.419,81
98.444,43
98.469,9
98.494,-2
98.519,20
98.544,71
98.569,127
98.594,168
98.619,192
98.644,210
98.669,233
98.694,257
98.719,272
98.744,276
98.769,276
98.794,280
98.819,290
98.844,297
98.869,295
98.894,284
98.919,269
98.944,250
98.969,226
98.994,197
99.019,167
99.044,139
99.069,111
99.094,78
99.119,40
99.144,13
99.169,14
99.194,47
99.219,100
99.244,148
99.269,180
99.294,200
99.319,219
99.344,242
99.369,261
99.394,268
99.419,264
99.444,258
99.469,256
99.494,258
99.519,253
99.544,240
99.569,222
99.594,204
99.619,185
99.644,164
99.669,138
99.694,112
99.719,87
99.744,60
99.769,27
99.794,-7
99.819,-25
99.844,-10
99.869,35
99.894,92
99.919,136
99.944,164
99.969,184
99.994,211
100.019,241
100.044,264
100.069,274
100.094,275
100.119,281
100.144,294
100.169,305
100.194,305
100.219,296
100.244,285
100.269,278
100.294,268
100.319,248
100.344,220
100.369,192
100.394,171
100.419,150
100.444,118
100.469,72
100.494,27
100.519,6
100.544,22
100.569,64
100.594,110
100.619,144
100.644,165
100.669,184
100.694,208
100.719,232
100.744,247
100.769,248
100.794,241
100.819,237
100.844,240
100.869,245
100.894,243
100.919,229
100.944,211
100.969,194
100.994,180
101.019,163
101.044,139
101.069,112
101.094,86
101.119,62
101.144,33
101.169,-3
101.194,-39
101.219,-52
101.244,-26
101.269,34
101.294,108
101.319,171
101.344,215
101.369,247
101.394,278
101.419,309
101.444,335
101.469,348
101.494,353
101.519,357
101.544,365
101.569,375
101.594,381
101.619,379
101.644,368
101.669,351
101.694,331
101.719,310
101.744,288
101.769,265
101.794,239
101.819,206
101.844,165
101.869,114
101.894,56
101.919,2
101.944,-33
101.969,-37
101.994,-11
102.019,30
102.044,67
102.069,90
102.094,104
102.119,121
102.144,144
102.169,163
102.194,169
102.219,162
102.244,156
102.269,161
102.294,173
102.319,179
102.344,174
102.369,162
102.394,153
102.419,145
102.444,133
102.469,111
102.494,84
102.519,60
102.544,42
102.569,24
102.594,3
102.619,-7
102.644,10
102.669,63
102.694,137
102.719,206
102.744,254
102.769,284
102.794,309
102.819,336
102.844,359
102.869,372
102.894,373
102.919,369
102.944,368
102.969,367
102.994,360
103.019,343
103.044,319
103.069,291
103.094,262
103.119,230
103.144,193
103.169,147
103.194,92
103.219,35
103.244,-12
103.269,-34
103.294,-25
103.319,6
103.344,43
103.369,70
103.394,88
103.419,106
103.444,132
103.469,158
103.494,177
103.519,183
103.544,184
103.569,188
103.594,198
103.619,204
103.644,198
103.669,184
103.694,174
103.719,176
103.744,183
103.769,181
103.794,163
103.819,138
103.844,126
103.869,140
103.894,174
103.919,205
103.944,218
103.969,214
103.994,206
104.019,207
104.044,213
104.069,215
104.094,211
104.119,207
104.144,212
104.169,228
104.194,245
104.219,254
104.244,256
104.269,258
104.294,264
104.319,271
104.344,275
104.369,275
104.394,281
104.419,298
104.444,321
104.469,343
104.494,360
104.519,378
104.544,400
104.569,420
104.594,433
104.619,435
104.644,437
104.669,442
104.694,439
104.719,401
104.744,315
104.769,196
104.794,82
104.819,5
104.844,-33
104.869,-55
104.894,-83
104.919,-117
104.944,-144
104.969,-159
104.994,-171
105.019,-192
105.044,-215
105.069,-220
105.094,-188
105.119,-126
105.144,-57
105.169,-1
105.194,39
105.219,73
105.244,107
105.269,141
105.294,168
105.319,190
105.344,212
105.369,238
105.394,261
105.419,276
105.444,282
105.469,283
105.494,281
105.519,275
105.544,261
105.569,243
105.594,227
105.619,211
105.644,187
105.669,153
105.694,117
105.719,100
105.744,117
105.769,162
105.794,214
105.819,250
105.844,267
105.869,273
105.894,280
105.919,289
105.944,293
105.969,288
105.994,278
106.019,271
106.044,274
106.069,283
106.094,288
106.119,285
106.144,273
106.169,257
106.194,240
106.219,221
106.244,194
106.269,159
106.294,123
106.319,99
106.344,97
106.369,119
106.394,151
106.419,181
106.444,201
106.469,212
106.494,219
106.519,227
106.544,234
106.569,236
106.594,231
106.619,224
106.644,219
106.669,215
106.694,210
106.719,197
106.744,176
106.769,151
106.794,128
106.819,107
106.844,84
106.869,57
106.894,32
106.919,23
106.944,42
106.969,85
106.994,139
107.019,188
107.044,225
107.069,254
107.094,278
107.119,297
107.144,307
107.169,308
107.194,305
107.219,302
107.244,299
107.269,292
107.294,277
107.319,254
107.344,226
107.369,194
107.394,165
107.419,142
107.444,126
107.469,111
107.494,89
107.519,63
107.544,46
107.569,54
107.594,88
107.619,132
107.644,167
107.669,188
107.694,200
107.719,212
107.744,224
107.769,231
107.794,229
107.819,224
107.844,222
107.869,224
107.894,225
107.919,217
107.944,201
107.969,180
107.994,159
108.019,141
108.044,125
108.069,107
108.094,82
108.119,53
108.144,30
108.169,29
108.194,58
108.219,112
108.244,169
108.269,212
108.294,240
108.319,258
108.344,274
108.369,286
108.394,290
108.419,285
108.444,277
108.469,273
108.494,270
108.519,263
108.544,250
108.569,232
108.594,212
108.619,191
108.644,169
108.669,148
108.694,127
108.719,102
108.744,69
108.769,34
108.794,13
108.819,20
108.844,57
108.869,104
108.894,142
108.919,166
108.944,183
108.969,203
108.994,223
109.019,233
109.044,231
109.069,226
109.094,226
109.119,232
109.144,236
109.169,232
109.194,220
109.219,206
109.244,192
109.269,177
109.294,158
109.319,137
109.344,113
109.369,83
109.394,52
109.419,35
109.444,48
109.469,96
109.494,159
109.519,210
109.544,233
109.569,237
109.594,240
109.619,251
109.644,266
109.669,273
109.694,272
109.719,271
109.744,278
109.769,286
109.794,289
109.819,283
109.844,273
109.869,265
109.894,258
109.919,248
109.944,233
109.969,216
109.994,196
110.019,167
110.044,128
110.069,89
110.094,70
110.119,82
110.144,113
110.169,143
110.194,157
110.219,158
110.244,162
110.269,176
110.294,192
110.319,202
110.344,202
110.369,199
110.394,203
110.419,210
110.444,214
110.469,211
110.494,202
110.519,193
110.544,183
110.569,168
110.594,147
110.619,125
110.644,108
110.669,93
110.694,72
110.719,45
110.744,20
110.769,16
110.794,40
110.819,84
110.844,130
110.869,165
110.894,188
110.919,209
110.944,233
110.969,257
110.994,274
111.019,280
111.044,279
111.069,278
111.094,278
111.119,275
111.144,265
111.169,248
111.194,229
111.219,212
111.244,197
111.269,181
111.294,164
111.319,149
111.344,134
111.369,113
111.394,85
111.419,54
111.444,34
111.469,39
111.494,69
111.519,111
111.544,151
111.569,182
111.594,209
111.619,237
111.644,261
111.669,274
111.694,275
111.719,271
111.744,272
111.769,280
111.794,288
111.819,285
111.844,272
111.869,256
111.894,241
111.919,229
111.944,213
111.969,192
111.994,170
112.019,151
112.044,134
112.069,111
112.094,82
112.119,52
112.144,37
112.169,47
112.194,80
112.219,121
112.244,156
112.269,179
112.294,193
112.319,206
112.344,220
112.369,233
112.394,240
112.419,239
112.444,237
112.469,236
112.494,236
112.519,234
112.544,228
112.569,217
112.594,204
112.619,189
112.644,171
112.669,149
112.694,128
112.719,114
112.744,106
112.769,94
112.794,75
112.819,51
112.844,40
112.869,52
112.894,88
112.919,132
112.944,168
112.969,194
112.994,215
113.019,238
113.044,262
113.069,279
113.094,286
113.119,288
113.144,292
113.169,299
113.194,303
113.219,298
113.244,285
113.269,271
113.294,258
113.319,243
113.344,222
113.369,192
113.394,163
113.419,140
113.444,123
113.469,102
113.494,69
113.519,31
113.544,4
113.569,4
113.594,33
113.619,77
113.644,118
113.669,148
113.694,171
113.719,195
113.744,221
113.769,244
113.794,258
113.819,263
113.844,266
113.869,272
113.894,279
113.919,282
113.944,276
113.969,264
113.994,250
114.019,235
114.044,217
114.069,194
114.094,168
114.119,145
114.144,126
114.169,107
114.194,81
114.219,47
114.244,14
114.269,1
114.294,18
114.319,59
114.344,107
114.369,147
114.394,174
114.419,195
114.444,216
114.469,235
114.494,248
114.519,252
114.544,250
114.569,250
114.594,254
114.619,258
114.644,257
114.669,248
114.694,236
114.719,221
114.744,203
114.769,180
114.794,157
114.819,141
114.844,134
114.869,128
114.894,111
114.919,81
114.944,50
114.969,39
114.994,61
115.019,108
115.044,160
115.069,199
115.094,224
115.119,244
115.144,266
115.169,287
115.194,297
115.219,297
115.244,293
115.269,296
115.294,305
115.319,309
115.344,296
115.369,269
115.394,237
115.419,211
115.444,193
115.469,174
115.494,149
115.519,122
115.544,99
115.569,82
115.594,62
115.619,32
115.644,2
115.669,-7
115.694,17
115.719,70
115.744,127
115.769,169
115.794,193
115.819,213
115.844,240
115.869,270
115.894,291
115.919,299
115.944,301
115.969,308
115.994,320
116.019,327
116.044,324
116.069,309
116.094,290
116.119,264
116.144,227
116.169,179
116.194,130
116.219,93
116.244,71
116.269,52
116.294,24
116.319,-6
116.344,-19
116.369,3
116.394,57
116.419,117
116.444,162
116.469,188
116.494,206
116.519,226
116.544,244
116.569,253
116.594,254
116.619,251
116.644,252
116.669,254
116.694,254
116.719,247
116.744,235
116.769,219
116.794,199
116.819,176
116.844,152
116.869,132
116.894,114
116.919,89
116.944,56
116.969,25
116.994,16
117.019,40
117.044,92
117.069,149
117.094,193
117.119,220
117.144,238
117.169,255
117.194,271
117.219,280
117.244,279
117.269,274
117.294,271
117.319,273
117.344,276
117.369,272
117.394,257
117.419,234
117.444,209
117.469,187
117.494,167
117.519,141
117.544,106
117.569,71
117.594,50
117.619,57
117.644,90
117.669,133
117.694,168
117.719,188
117.744,203
117.769,219
117.794,235
117.819,244
117.844,241
117.869,229
117.894,215
117.919,203
117.944,192
117.969,181
117.994,168
118.019,152
118.044,132
118.069,106
118.094,79
118.119,56
118.144,36
118.169,10
118.194,-24
118.219,-58
118.244,-66
118.269,-35
118.294,27
118.319,97
118.344,154
118.369,195
118.394,234
118.419,276
118.444,314
118.469,336
118.494,341
118.519,343
118.544,354
118.569,373
118.594,388
118.619,392
118.644,388
118.669,384
118.694,380
118.719,369
118.744,342
118.769,301
118.794,250
118.819,193
118.844,134
118.869,79
118.894,45
118.919,46
118.944,78
118.969,123
118.994,158
119.019,174
119.044,181
119.069,191
119.094,204
119.119,211
119.144,206
119.169,191
119.194,180
119.219,177
119.244,178
119.269,171
119.294,152
119.319,123
119.344,95
119.369,74
119.394,61
119.419,56
119.444,55
119.469,55
119.494,48
119.519,30
119.544,9
119.569,1
119.594,20
119.619,68
119.644,130
119.669,188
119.694,232
119.719,263
119.744,287
119.769,306
119.794,318
119.819,322
119.844,322
119.869,328
119.894,341
119.919,358
119.944,366
119.969,359
119.994,338
120.019,312
120.044,286
120.069,262
120.094,234
120.119,196
120.144,154
120.169,115
120.194,85
120.219,61
120.244,33
120.269,-1
120.294,-32
120.319,-40
120.344,-13
120.369,39
120.394,95
120.419,133
120.444,153
120.469,169
120.494,191
120.519,217
120.544,236
120.569,244
120.594,245
120.619,252
120.644,266
120.669,277
120.694,273
120.719,256
120.744,236
120.769,222
120.794,214
120.819,204
120.844,186
120.869,163
120.894,144
120.919,130
120.944,115
120.969,88
120.994,53
121.019,24
121.044,22
121.069,52
121.094,105
121.119,158
121.144,197
121.169,220
121.194,239
121.219,258
121.244,274
121.269,279
121.294,272
121.319,263
121.344,259
121.369,262
121.394,262
121.419,252
121.444,234
121.469,217
121.494,204
121.519,192
121.544,172
121.569,145
121.594,119
121.619,101
121.644,86
121.669,64
121.694,32
121.719,7
121.744,8
121.769,45
121.794,105
121.819,163
121.844,203
121.869,229
121.894,251
121.919,276
121.944,299
121.969,312
121.994,316
122.019,318
122.044,322
122.069,326
122.094,323
122.119,310
122.144,294
122.169,277
122.194,258
122.219,230
122.244,194
122.269,158
122.294,128
122.319,102
122.344,72
122.369,35
122.394,6
122.419,6
122.444,42
122.469,95
122.494,140
122.519,165
122.544,177
122.569,191
122.594,210
122.619,226
122.644,229
122.669,222
122.694,217
122.719,221
122.744,230
122.769,232
122.794,225
122.819,211
122.844,195
122.869,177
122.894,157
122.919,136
122.944,118
122.969,101
122.994,79
123.019,52
123.044,31
123.069,38
123.094,78
123.119,137
123.144,192
123.169,227
123.194,248
123.219,267
123.244,290
123.269,306
123.294,308
123.319,300
123.344,294
123.369,295
123.394,297
123.419,288
123.444,266
123.469,236
123.494,204
123.519,173
123.544,144
123.569,119
123.594,97
123.619,73
123.644,41
123.669,7
123.694,-13
123.719,-3
123.744,36
123.769,87
123.794,126
123.819,147
123.844,161
123.869,179
123.894,202
123.919,218
123.944,221
123.969,217
123.994,215
124.019,220
124.044,228
124.069,230
124.094,226
124.119,217
124.144,206
124.169,192
124.194,176
124.219,161
124.244,147
124.269,128
124.294,102
124.319,76
124.344,66
124.369,84
124.394,128
124.419,179
124.444,221
124.469,251
124.494,278
124.519,305
124.544,330
124.569,344
124.594,348
124.619,354
124.644,371
124.669,399
124.694,427
124.719,443
124.744,445
124.769,439
124.794,430
124.819,412
124.844,379
124.869,327
124.894,259
124.919,183
124.944,108
124.969,42
124.994,-7
125.019,-37
125.044,-48
125.069,-50
125.094,-53
125.119,-59
125.144,-61
125.169,-52
125.194,-28
125.219,2
125.244,30
125.269,47
125.294,57
125.319,68
125.344,82
125.369,100
125.394,118
125.419,133
125.444,142
125.469,144
125.494,138
125.519,129
125.544,121
125.569,121
125.594,126
125.619,134
125.644,144
125.669,159
125.694,184
125.719,216
125.744,248
125.769,278
125.794,306
125.819,335
125.844,362
125.869,379
125.894,382
125.919,371
125.944,356
125.969,340
125.994,322
126.019,297
126.044,263
126.069,229
126.094,205
126.119,195
126.144,188
126.169,173
126.194,143
126.219,104
126.244,72
126.269,58
126.294,69
126.319,96
126.344,128
126.369,157
126.394,183
126.419,207
126.444,231
126.469,255
126.494,277
126.519,293
126.544,302
126.569,302
126.594,293
126.619,274
126.644,251
126.669,227
126.694,204
126.719,179
126.744,146
126.769,100
126.794,46
126.819,-1
126.844,-23
126.869,-9
126.894,35
126.919,89
126.944,136
126.969,170
126.994,202
127.019,238
127.044,272
127.069,284
127.094,259
127.119,198
127.144,122
127.169,54
127.194,10
127.219,-14
127.244,-31
127.269,-48
127.294,-67
127.319,-80
127.344,-78
127.369,-59
127.394,-31
127.419,-2
127.444,32
127.469,90
127.494,189
127.519,316
127.544,425
127.569,465
127.594,420
127.619,330
127.644,253
127.669,226
127.694,236
127.719,249
127.744,248
127.769,250
127.794,275
127.819,323
127.844,374
127.869,414
127.894,445
127.919,477
127.944,500
127.969,493
127.994,444
128.019,367
128.044,293
128.069,237
128.094,191
128.119,138
128.144,78
128.169,25
128.194,0
128.219,5
128.244,28
128.269,56
128.294,81
128.319,101
128.344,114
128.369,121
128.394,128
128.419,142
128.444,159
128.469,170
128.494,166
128.519,147
128.544,121
128.569,90
128.594,53
128.619,15
128.644,-7
128.669,0
128.694,36
128.719,85
128.744,131
128.769,180
128.794,244
128.819,326
128.844,404
128.869,453
128.894,469
128.919,471
128.944,478
128.969,492
128.994,498
129.019,492
129.044,481
129.069,472
129.094,454
129.119,406
129.144,314
129.169,191
129.194,67
129.219,-33
129.244,-100
129.269,-131
129.294,-123
129.319,-82
129.344,-31
129.369,0
129.394,1
129.419,-5
129.444,8
129.469,50
129.494,100
129.519,125
129.544,121
129.569,111
129.594,119
129.619,147
129.644,174
129.669,181
129.694,169
129.719,153
129.744,138
129.769,119
129.794,93
129.819,69
129.844,65
129.869,84
129.894,116
129.919,142
129.944,153
129.969,157
129.994,164
130.019,173
130.044,177
130.069,175
130.094,173
130.119,177
130.144,186
130.169,188
130.194,173
130.219,147
130.244,121
130.269,103
130.294,87
130.319,65
130.344,37
130.369,21
130.394,38
130.419,98
130.444,187
130.469,279
130.494,351
130.519,395
130.544,418
130.569,428
130.594,436
130.619,447
130.644,464
130.669,485
130.694,504
130.719,508
130.744,490
130.769,448
130.794,394
130.819,344
130.844,309
130.869,290
130.894,277
130.919,258
130.944,236
130.969,221
130.994,226
131.019,250
131.044,273
131.069,276
131.094,255
131.119,225
131.144,205
131.169,196
131.194,182
131.219,149
131.244,103
131.269,65
131.294,48
131.319,44
131.344,29
131.369,-6
131.394,-51
131.419,-81
131.444,-89
131.469,-82
131.494,-70
131.519,-45
131.544,2
131.569,64
131.594,108
131.619,103
131.644,46
131.669,-30
131.694,-91
131.719,-118
131.744,-120
131.769,-105
131.794,-69
131.819,-8
131.844,61
131.869,107
131.894,107
131.919,76
131.944,55
131.969,71
131.994,120
132.019,171
132.044,207
132.069,237
132.094,279
132.119,338
132.144,400
132.169,448
132.194,487
132.219,536
132.244,606
132.269,687
132.294,753
132.319,790
132.344,795
132.369,773
132.394,721
132.419,632
132.444,511
132.469,376
132.494,245
132.519,119
132.544,-11
132.569,-146
132.594,-263
132.619,-329
132.644,-328
132.669,-274
132.694,-199
132.719,-130
132.744,-77
132.769,-42
132.794,-28
132.819,-34
132.844,-50
132.869,-57
132.894,-36
132.919,4
132.944,46
132.969,70
132.994,74
133.019,63
133.044,41
133.069,4
133.094,-37
133.119,-55
133.144,-18
133.169,75
133.194,191
133.219,278
133.244,307
133.269,295
133.294,278
133.319,283
133.344,313
133.369,357
133.394,408
133.419,461
133.444,503
133.469,519
133.494,501
133.519,457
133.544,406
133.569,361
133.594,324
133.619,295
133.644,284
133.669,303
133.694,346
133.719,396
133.744,432
133.769,453
133.794,468
133.819,480
133.844,480
133.869,463
133.894,440
133.919,431
133.944,438
133.969,441
133.994,416
134.019,359
134.044,292
134.069,232
134.094,175
134.119,100
134.144,1
134.169,-103
134.194,-191
134.219,-255
134.244,-310
134.269,-362
134.294,-396
134.319,-387
134.344,-326
134.369,-233
134.394,-141
134.419,-69
134.444,-19
134.469,11
134.494,22
134.519,13
134.544,-4
134.569,-17
134.594,-16
134.619,-1
134.644,22
134.669,61
134.694,123
134.719,203
134.744,282
134.769,337
134.794,364
134.819,374
134.844,384
134.869,396
134.894,399
134.919,388
134.944,367
134.969,346
134.994,329
135.019,314
135.044,297
135.069,275
135.094,247
135.119,214
135.144,181
135.169,159
135.194,160
135.219,186
135.244,226
135.269,261
135.294,280
135.319,283
135.344,281
135.369,280
135.394,277
135.419,267
135.444,247
135.469,225
135.494,207
135.519,194
135.544,177
135.569,149
135.594,110
135.619,73
135.644,56
135.669,67
135.694,98
135.719,131
135.744,154
135.769,163
135.794,164
135.819,166
135.844,168
135.869,169
135.894,168
135.919,164
135.944,159
135.969,151
135.994,139
136.019,126
136.044,112
136.069,96
136.094,84
136.119,86
136.144,115
136.169,173
136.194,244
136.219,307
136.244,353
136.269,387
136.294,420
136.319,454
136.344,476
136.369,476
136.394,458
136.419,435
136.444,411
136.469,383
136.494,341
136.519,284
136.544,219
136.569,150
136.594,74
136.619,-13
136.644,-107
136.669,-192
136.694,-253
136.719,-284
136.744,-289
136.769,-274
136.794,-251
136.819,-235
136.844,-239
136.869,-255
136.894,-248
136.919,-176
136.944,-30
136.969,151
136.994,300
137.019,367
137.044,353
137.069,299
137.094,249
137.119,224
137.144,219
137.169,226
137.194,247
137.219,283
137.244,326
137.269,361
137.294,378
137.319,379
137.344,379
137.369,384
137.394,388
137.419,381
137.444,359
137.469,332
137.494,305
137.519,272
137.544,220
137.569,150
137.594,82
137.619,48
137.644,63
137.669,115
137.694,173
137.719,218
137.744,249
137.769,276
137.794,300
137.819,311
137.844,300
137.869,273
137.894,246
137.919,229
137.944,216
137.969,194
137.994,159
138.019,124
138.044,103
138.069,95
138.094,91
138.119,80
138.144,66
138.169,64
138.194,87
138.219,136
138.244,206
138.269,286
138.294,361
138.319,419
138.344,446
138.369,441
138.394,411
138.419,371
138.444,334
138.469,303
138.494,277
138.519,250
138.544,217
138.569,178
138.594,137
138.619,104
138.644,84
138.669,74
138.694,61
138.719,35
138.744,0
138.769,-28
138.794,-47
138.819,-59
138.844,-78
138.869,-101
138.894,-110
138.919,-90
138.944,-39
138.969,20
138.994,71
139.019,110
139.044,148
139.069,191
139.094,231
139.119,256
139.144,266
139.169,274
139.194,291
139.219,311
139.244,322
139.269,317
139.294,304
139.319,295
139.344,294
139.369,295
139.394,290
139.419,279
139.444,265
139.469,246
139.494,217
139.519,179
139.544,137
139.569,102
139.594,72
139.619,45
139.644,21
139.669,10
139.694,23
139.719,58
139.744,100
139.769,137
139.794,167
139.819,197
139.844,231
139.869,263
139.894,284
139.919,292
139.944,296
139.969,305
139.994,316
140.019,322
140.044,318
140.069,306
140.094,294
140.119,285
140.144,275
140.169,262
140.194,245
140.219,222
140.244,194
140.269,163
140.294,132
140.319,106
140.344,81
140.369,51
140.394,16
140.419,-14
140.444,-23
140.469,-6
140.494,28
140.519,62
140.544,86
140.569,103
140.594,123
140.619,149
140.644,172
140.669,186
140.694,193
140.719,203
140.744,222
140.769,243
140.794,258
140.819,259
140.844,252
140.869,244
140.894,238
140.919,232
140.944,222
140.969,207
140.994,192
141.019,180
141.044,170
141.069,156
141.094,135
141.119,108
141.144,89
141.169,89
141.194,114
141.219,156
141.244,196
141.269,222
141.294,232
141.319,235
141.344,238
141.369,245
141.394,249
141.419,249
141.444,246
141.469,246
141.494,245
141.519,240
141.544,230
141.569,216
141.594,200
141.619,182
141.644,157
141.669,127
141.694,99
141.719,77
141.744,58
141.769,32
141.794,0
141.819,-21
141.844,-14
141.869,24
141.894,77
141.919,120
141.944,144
141.969,161
141.994,185
142.019,217
142.044,245
142.069,257
142.094,259
142.119,264
142.144,281
142.169,302
142.194,313
142.219,311
142.244,301
142.269,288
142.294,271
142.319,245
142.344,213
142.369,184
142.394,161
142.419,136
142.444,97
142.469,47
142.494,7
142.519,3
142.544,39
142.569,95
142.594,141
142.619,169
142.644,189
142.669,220
142.694,266
142.719,310
142.744,336
142.769,339
142.794,331
142.819,325
142.844,327
142.869,329
142.894,319
142.919,298
142.944,274
142.969,254
142.994,238
143.019,218
143.044,191
143.069,161
143.094,134
143.119,113
143.144,89
143.169,53
143.194,12
143.219,-13
143.244,-4
143.269,42
143.294,107
143.319,167
143.344,212
143.369,246
143.394,279
143.419,311
143.444,336
143.469,348
143.494,352
143.519,355
143.544,361
143.569,366
143.594,364
143.619,349
143.644,322
143.669,286
143.694,251
143.719,226
143.744,210
143.769,196
143.794,169
143.819,129
143.844,85
143.869,46
143.894,7
143.919,-49
143.944,-128
143.969,-203
143.994,-240
144.019,-220
144.044,-164
144.069,-109
144.094,-74
144.119,-47
144.144,-7
144.169,41
144.194,76
144.219,80
144.244,69
144.269,77
144.294,129
144.319,215
144.344,308
144.369,387
144.394,445
144.419,483
144.444,496
144.469,476
144.494,431
144.519,379
144.544,332
144.569,289
144.594,239
144.619,183
144.644,140
144.669,130
144.694,152
144.719,183
144.744,202
144.769,203
144.794,198
144.819,199
144.844,205
144.869,206
144.894,201
144.919,193
144.944,190
144.969,192
144.994,191
145.019,186
145.044,177
145.069,170
145.094,163
145.119,154
145.144,141
145.169,129
145.194,122
145.219,116
145.244,105
145.269,88
145.294,77
145.319,86
145.344,120
145.369,170
145.394,219
145.419,253
145.444,275
145.469,297
145.494,326
145.519,358
145.544,382
145.569,390
145.594,383
145.619,375
145.644,373
145.669,377
145.694,376
145.719,361
145.744,333
145.769,299
145.794,266
145.819,232
145.844,190
145.869,138
145.894,86
145.919,41
145.944,4
145.969,-32
145.994,-74
146.019,-112
146.044,-126
146.069,-108
146.094,-68
146.119,-29
146.144,-5
146.169,10
146.194,36
146.219,78
146.244,125
146.269,160
146.294,178
146.319,194
146.344,221
146.369,253
146.394,275
146.419,274
146.444,255
146.469,229
146.494,201
146.519,173
146.544,142
146.569,116
146.594,100
146.619,90
146.644,77
146.669,63
146.694,66
146.719,104
146.744,176
146.769,254
146.794,309
146.819,334
146.844,346
146.869,363
146.894,384
146.919,396
146.944,389
146.969,371
146.994,355
147.019,347
147.044,340
147.069,327
147.094,309
147.119,286
147.144,258
147.169,220
147.194,173
147.219,127
147.244,89
147.269,56
147.294,19
147.319,-21
147.344,-49
147.369,-44
147.394,-5
147.419,50
147.444,99
147.469,133
147.494,160
147.519,192
147.544,226
147.569,250
147.594,259
147.619,254
147.644,246
147.669,242
147.694,243
147.719,244
147.744,240
147.769,225
147.794,198
147.819,165
147.844,134
147.869,104
147.894,68
147.919,19
147.944,-32
147.969,-63
147.994,-51
148.019,1
148.044,69
148.069,125
148.094,160
148.119,187
148.144,217
148.169,246
148.194,262
148.219,260
148.244,249
148.269,243
148.294,246
148.319,250
148.344,248
148.369,240
148.394,230
148.419,223
148.444,215
148.469,201
148.494,176
148.519,140
148.544,100
148.569,67
148.594,56
148.619,80
148.644,133
148.669,196
148.694,247
148.719,281
148.744,306
148.769,334
148.794,359
148.819,369
148.844,355
148.869,323
148.894,284
148.919,245
148.944,202
148.969,154
148.994,109
149.019,79
149.044,66
149.069,61
149.094,56
149.119,51
149.144,53
149.169,58
149.194,53
149.219,28
149.244,-5
149.269,-22
149.294,0
149.319,56
149.344,125
149.369,185
149.394,230
149.419,270
149.444,312
149.469,350
149.494,376
149.519,386
149.544,388
149.569,390
149.594,394
149.619,395
149.644,389
149.669,376
149.694,355
149.719,327
149.744,292
149.769,255
149.794,217
149.819,180
149.844,143
149.869,108
149.894,77
149.919,49
149.944,17
149.969,-21
149.994,-60
150.019,-81
150.044,-67
150.069,-20
150.094,41
150.119,93
150.144,127
150.169,152
150.194,181
150.219,213
150.244,238
150.269,245
150.294,237
150.319,226
150.344,221
150.369,220
150.394,216
150.419,205
150.444,190
150.469,177
150.494,166
150.519,154
150.544,137
150.569,120
150.594,105
150.619,94
150.644,80
150.669,55
150.694,22
150.719,-6
150.744,-11
150.769,14
150.794,64
150.819,119
150.844,162
150.869,190
150.894,214
150.919,246
150.944,286
150.969,327
150.994,359
151.019,381
151.044,399
151.069,419
151.094,439
151.119,452
151.144,451
151.169,436
151.194,409
151.219,378
151.244,347
151.269,318
151.294,290
151.319,258
151.344,220
151.369,179
151.394,140
151.419,106
151.444,71
151.469,30
151.494,-14
151.519,-51
151.544,-61
151.569,-38
151.594,3
151.619,46
151.644,78
151.669,101
151.694,124
151.719,152
151.744,180
151.769,198
151.794,207
151.819,213
151.844,221
151.869,231
151.894,241
151.919,243
151.944,237
151.969,225
151.994,211
152.019,197
152.044,186
152.069,176
152.094,162
152.119,142
152.144,116
152.169,90
152.194,65
152.219,37
152.244,2
152.269,-36
152.294,-63
152.319,-58
152.344,-18
152.369,38
152.394,88
152.419,118
152.444,133
152.469,153
152.494,189
152.519,241
152.544,295
152.569,338
152.594,365
152.619,379
152.644,383
152.669,376
152.694,359
152.719,331
152.744,297
152.769,259
152.794,218
152.819,178
152.844,141
152.869,110
152.894,89
152.919,78
152.944,83
152.969,100
152.994,121
153.019,129
153.044,112
153.069,75
153.094,39
153.119,29
153.144,51
153.169,90
153.194,126
153.219,148
153.244,165
153.269,194
153.294,235
153.319,275
153.344,300
153.369,310
153.394,317
153.419,335
153.444,364
153.469,395
153.494,417
153.519,428
153.544,430
153.569,424
153.594,410
153.619,392
153.644,375
153.669,359
153.694,341
153.719,310
153.744,270
153.769,228
153.794,196
153.819,170
153.844,136
153.869,89
153.894,43
153.919,24
153.944,47
153.969,98
153.994,147
154.019,170
154.044,172
154.069,173
154.094,189
154.119,214
154.144,228
154.169,218
154.194,193
154.219,173
154.244,164
154.269,160
154.294,146
154.319,117
154.344,79
154.369,42
154.394,4
154.419,-38
154.444,-85
154.469,-129
154.494,-166
154.519,-198
154.544,-230
154.569,-254
154.594,-250
154.619,-205
154.644,-129
154.669,-49
154.694,13
154.719,61
154.744,113
154.769,177
154.794,244
154.819,295
154.844,327
154.869,354
154.894,392
154.919,438
154.944,474
154.969,487
154.994,477
155.019,453
155.044,425
155.069,394
155.094,358
155.119,322
155.144,285
155.169,243
155.194,194
155.219,148
155.244,124
155.269,135
155.294,172
155.319,212
155.344,237
155.369,248
155.394,262
155.419,286
155.444,311
155.469,322
155.494,313
155.519,296
155.544,284
155.569,280
155.594,276
155.619,260
155.644,234
155.669,204
155.694,181
155.719,165
155.744,147
155.769,119
155.794,81
155.819,46
155.844,32
155.869,51
155.894,99
155.919,157
155.944,205
155.969,233
155.994,248
156.019,259
156.044,267
156.069,270
156.094,263
156.119,252
156.144,241
156.169,232
156.194,222
156.219,207
156.244,186
156.269,164
156.294,141
156.319,118
156.344,93
156.369,68
156.394,46
156.419,23
156.444,-1
156.469,-23
156.494,-31
156.519,-13
156.544,27
156.569,77
156.594,122
156.619,158
156.644,191
156.669,225
156.694,259
156.719,282
156.744,292
156.769,294
156.794,296
156.819,299
156.844,299
156.869,286
156.894,261
156.919,231
156.944,204
156.969,180
156.994,156
157.019,129
157.044,100
157.069,77
157.094,64
157.119,56
157.144,45
157.169,28
157.194,15
157.219,21
157.244,52
157.269,101
157.294,149
157.319,185
157.344,208
157.369,229
157.394,254
157.419,278
157.444,293
157.469,299
157.494,300
157.519,302
157.544,305
157.569,303
157.594,295
157.619,281
157.644,266
157.669,249
157.694,229
157.719,208
157.744,187
157.769,169
157.794,151
157.819,132
157.844,113
157.869,99
157.894,87
157.919,71
157.944,42
157.969,5
157.994,-21
158.019,-21
158.044,8
158.069,53
158.094,93
158.119,121
158.144,142
158.169,166
158.194,194
158.219,217
158.244,230
158.269,234
158.294,236
158.319,243
158.344,250
158.369,252
158.394,246
158.419,236
158.444,228
158.469,221
158.494,209
158.519,191
158.544,172
158.569,159
158.594,153
158.619,150
158.644,140
158.669,127
158.694,118
158.719,117
158.744,120
158.769,118
158.794,116
158.819,131
158.844,177
158.869,248
158.894,318
158.919,366
158.944,390
158.969,409
158.994,436
159.019,463
159.044,469
159.069,448
159.094,417
159.119,402
159.144,411
159.169,436
159.194,462
159.219,485
159.244,506
159.269,519
159.294,514
159.319,492
159.344,468
159.369,450
159.394,422
159.419,340
159.444,174
159.469,-49
159.494,-261
159.519,-398
159.544,-450
159.569,-459
159.594,-473
159.619,-496
159.644,-498
159.669,-447
159.694,-351
159.719,-246
159.744,-165
159.769,-108
159.794,-57
159.819,4
159.844,68
159.869,118
159.894,145
159.919,160
159.944,181
159.969,214
159.994,249
160.019,272
160.044,280
160.069,286
160.094,304
160.119,334
160.144,365
160.169,383
160.194,382
160.219,372
160.244,360
160.269,348
160.294,333
160.319,317
160.344,305
160.369,296
160.394,283
160.419,251
160.444,203
160.469,158
160.494,140
160.519,160
160.544,204
160.569,247
160.594,274
160.619,287
160.644,300
160.669,317
160.694,331
160.719,334
160.744,323
160.769,301
160.794,276
160.819,251
160.844,230
160.869,213
160.894,203
160.919,199
160.944,196
160.969,189
160.994,177
161.019,163
161.044,150
161.069,141
161.094,133
161.119,125
161.144,114
161.169,99
161.194,79
161.219,55
161.244,26
161.269,-9
161.294,-44
161.319,-62
161.344,-49
161.369,-3
161.394,58
161.419,112
161.444,148
161.469,171
161.494,195
161.519,225
161.544,251
161.569,265
161.594,268
161.619,269
161.644,276
161.669,287
161.694,294
161.719,294
161.744,289
161.769,282
161.794,272
161.819,256
161.844,236
161.869,217
161.894,202
161.919,186
161.944,166
161.969,144
161.994,126
162.019,111
162.044,90
162.069,58
162.094,24
162.119,13
162.144,41
162.169,101
162.194,165
162.219,212
162.244,236
162.269,252
162.294,271
162.319,288
162.344,295
162.369,289
162.394,281
162.419,280
162.444,285
162.469,288
162.494,282
162.519,272
162.544,264
162.569,258
162.594,248
162.619,230
162.644,208
162.669,191
162.694,179
162.719,165
162.744,144
162.769,118
162.794,93
162.819,73
162.844,52
162.869,24
162.894,-5
162.919,-19
162.944,-1
162.969,46
162.994,102
163.019,146
163.044,170
163.069,185
163.094,203
163.119,227
163.144,248
163.169,258
163.194,262
163.219,267
163.244,279
163.269,294
163.294,305
163.319,309
163.344,308
163.369,303
163.394,291
163.419,268
163.444,239
163.469,211
163.494,191
163.519,175
163.544,154
163.569,128
163.594,104
163.619,86
163.644,72
163.669,51
163.694,16
163.719,-18
163.744,-31
163.769,-7
163.794,43
163.819,99
163.844,139
163.869,165
163.894,189
163.919,218
163.944,248
163.969,269
163.994,277
164.019,280
164.044,289
164.069,301
164.094,308
164.119,305
164.144,293
164.169,282
164.194,275
164.219,266
164.244,251
164.269,232
164.294,213
164.319,199
164.344,182
164.369,160
164.394,133
164.419,109
164.444,92
164.469,72
164.494,41
164.519,2
164.544,-22
164.569,-13
164.594,26
164.619,78
164.644,118
164.669,141
164.694,158
164.719,183
164.744,213
164.769,236
164.794,246
164.819,247
164.844,254
164.869,269
164.894,285
164.919,293
164.944,290
164.969,282
164.994,274
165.019,266
165.044,254
165.069,238
165.094,222
165.119,207
165.144,191
165.169,174
165.194,159
165.219,143
165.244,123
165.269,93
165.294,59
165.319,38
165.344,47
165.369,86
165.394,134
165.419,171
165.444,188
165.469,197
165.494,211
165.519,231
165.544,247
165.569,254
165.594,254
165.619,259
165.644,268
165.669,277
165.694,275
165.719,264
165.744,248
165.769,229
165.794,208
165.819,184
165.844,161
165.869,144
165.894,132
165.919,119
165.944,102
165.969,84
165.994,72
166.019,64
166.044,51
166.069,28
166.094,6
166.119,6
166.144,40
166.169,102
166.194,169
166.219,225
166.244,267
166.269,308
166.294,353
166.319,393
166.344,416
166.369,415
166.394,399
166.419,379
166.444,363
166.469,351
166.494,341
166.519,335
166.544,331
166.569,320
166.594,290
166.619,235
166.644,166
166.669,105
166.694,68
166.719,55
166.744,52
166.769,45
166.794,34
166.819,22
166.844,11
166.869,-4
166.894,-23
166.919,-37
166.944,-31
166.969,0
166.994,46
167.019,89
167.044,119
167.069,139
167.094,162
167.119,189
167.144,214
167.169,228
167.194,231
167.219,233
167.244,239
167.269,249
167.294,257
167.319,260
167.344,259
167.369,256
167.394,248
167.419,233
167.444,215
167.469,202
167.494,196
167.519,192
167.544,181
167.569,162
167.594,143
167.619,128
167.644,115
167.669,95
167.694,65
167.719,41
167.744,41
167.769,73
167.794,124
167.819,171
167.844,202
167.869,222
167.894,241
167.919,264
167.944,285
167.969,297
167.994,301
168.019,304
168.044,312
168.069,323
168.094,329
168.119,326
168.144,318
168.169,307
168.194,294
168.219,279
168.244,261
168.269,243
168.294,226
168.319,209
168.344,187
168.369,162
168.394,137
168.419,115
168.444,94
168.469,65
168.494,27
168.519,-12
168.544,-37
168.569,-33
168.594,-1
168.619,43
168.644,83
168.669,112
168.694,134
168.719,157
168.744,185
168.769,212
168.794,231
168.819,243
168.844,253
168.869,266
168.894,282
168.919,295
168.944,298
168.969,291
168.994,280
169.019,268
169.044,257
169.069,245
169.094,233
169.119,220
169.144,208
169.169,194
169.194,177
169.219,157
169.244,139
169.269,123
169.294,105
169.319,75
169.344,37
169.369,5
169.394,0
169.419,30
169.444,84
169.469,137
169.494,173
169.519,192
169.544,208
169.569,230
169.594,254
169.619,269
169.644,271
169.669,264
169.694,260
169.719,263
169.744,271
169.769,275
169.794,272
169.819,259
169.844,239
169.869,216
169.894,191
169.919,168
169.944,147
169.969,129
169.994,114
170.019,100
170.044,85
170.069,65
170.094,41
170.119,22
170.144,24
170.169,55
170.194,111
170.219,176
170.244,226
170.269,255
170.294,268
170.319,279
170.344,292
170.369,305
170.394,310
170.419,307
170.444,303
170.469,301
170.494,296
170.519,282
170.544,258
170.569,234
170.594,214
170.619,198
170.644,180
170.669,157
170.694,135
170.719,119
170.744,107
170.769,93
170.794,80
170.819,90
170.844,141
170.869,224
170.894,304
170.919,336
170.944,311
170.969,256
170.994,215
171.019,208
171.044,222
171.069,233
171.094,226
171.119,209
171.144,192
171.169,178
171.194,162
171.219,148
171.244,143
171.269,148
171.294,151
171.319,136
171.344,96
171.369,45
171.394,2
171.419,-23
171.444,-35
171.469,-38
171.494,-30
171.519,-5
171.544,33
171.569,76
171.594,110
171.619,132
171.644,151
171.669,176
171.694,210
171.719,244
171.744,269
171.769,283
171.794,287
171.819,287
171.844,285
171.869,283
171.894,282
171.919,283
171.944,282
171.969,271
171.994,244
172.019,205
172.044,168
172.069,143
172.094,127
172.119,104
172.144,67
172.169,26
172.194,11
172.219,42
172.244,115
172.269,197
172.294,255
172.319,282
172.344,293
172.369,308
172.394,329
172.419,338
172.444,327
172.469,303
172.494,285
172.519,282
172.544,289
172.569,293
172.594,289
172.619,279
172.644,266
172.669,251
172.694,233
172.719,216
172.744,203
172.769,193
172.794,182
172.819,166
172.844,148
172.869,131
172.894,112
172.919,84
172.944,47
172.969,16
172.994,9
173.019,31
173.044,71
173.069,106
173.094,128
173.119,141
173.144,155
173.169,173
173.194,188
173.219,195
173.244,198
173.269,203
173.294,212
173.319,219
173.344,217
173.369,206
173.394,190
173.419,176
173.444,166
173.469,160
173.494,153
173.519,142
173.544,126
173.569,110
173.594,98
173.619,88
173.644,75
173.669,55
173.694,40
173.719,46
173.744,79
173.769,133
173.794,187
173.819,231
173.844,270
173.869,316
173.894,372
173.919,421
173.944,446
173.969,440
173.994,413
174.019,383
174.044,357
174.069,335
174.094,316
174.119,301
174.144,289
174.169,279
174.194,269
174.219,256
174.244,241
174.269,220
174.294,187
174.319,140
174.344,86
174.369,38
174.394,2
174.419,-22
174.444,-44
174.469,-58
174.494,-57
174.519,-33
174.544,4
174.569,41
174.594,67
174.619,90
174.644,120
174.669,160
174.694,199
174.719,226
174.744,238
174.769,247
174.794,259
174.819,274
174.844,284
174.869,286
174.894,284
174.919,284
174.944,286
174.969,287
174.994,285
175.019,281
175.044,280
175.069,278
175.094,268
175.119,247
175.144,216
175.169,182
175.194,147
175.219,107
175.244,61
175.269,18
175.294,-3
175.319,5
175.344,38
175.369,76
175.394,105
175.419,122
175.444,140
175.469,165
175.494,194
175.519,216
175.544,228
175.569,234
175.594,244
175.619,259
175.644,273
175.669,279
175.694,275
175.719,266
175.744,254
175.769,240
175.794,221
175.819,200
175.844,178
175.869,158
175.894,137
175.919,113
175.944,89
175.969,63
175.994,37
176.019,5
176.044,-29
176.069,-54
176.094,-54
176.119,-22
176.144,34
176.169,99
176.194,156
176.219,201
176.244,238
176.269,270
176.294,297
176.319,314
176.344,321
176.369,324
176.394,327
176.419,335
176.444,345
176.469,352
176.494,355
176.519,351
176.544,340
176.569,323
176.594,301
176.619,278
176.644,256
176.669,234
176.694,210
176.719,184
176.744,160
176.769,143
176.794,129
176.819,107
176.844,70
176.869,22
176.894,-15
176.919,-22
176.944,10
176.969,66
176.994,122
177.019,159
177.044,180
177.069,197
177.094,220
177.119,244
177.144,259
177.169,265
177.194,268
177.219,275
177.244,284
177.269,290
177.294,288
177.319,279
177.344,268
177.369,254
177.394,232
177.419,205
177.444,179
177.469,160
177.494,147
177.519,132
177.544,110
177.569,83
177.594,59
177.619,39
177.644,17
177.669,-7
177.694,-24
177.719,-16
177.744,26
177.769,91
177.794,155
177.819,200
177.844,226
177.869,244
177.894,266
177.919,288
177.944,303
177.969,307
177.994,306
178.019,308
178.044,315
178.069,322
178.094,322
178.119,311
178.144,292
178.169,269
178.194,247
178.219,228
178.244,208
178.269,184
178.294,155
178.319,125
178.344,101
178.369,84
178.394,69
178.419,45
178.444,14
178.469,-12
178.494,-14
178.519,16
178.544,69
178.569,123
178.594,160
178.619,179
178.644,195
178.669,216
178.694,240
178.719,258
178.744,266
178.769,269
178.794,274
178.819,282
178.844,288
178.869,286
178.894,279
178.919,272
178.944,266
178.969,256
178.994,238
179.019,215
179.044,195
179.069,183
179.094,176
179.119,164
179.144,139
179.169,109
179.194,87
179.219,86
179.244,107
179.269,143
179.294,183
179.319,218
179.344,244
179.369,266
179.394,288
179.419,311
179.444,332
179.469,338
179.494,321
179.519,284
179.544,237
179.569,196
179.594,167
179.619,148
179.644,132
179.669,117
179.694,105
179.719,93
179.744,82
179.769,69
179.794,56
179.819,43
179.844,27
179.869,8
179.894,-9
179.919,-12
179.944,7
179.969,47
179.994,91
180.019,124
180.044,142
180.069,157
180.094,177
180.119,199
180.144,215
180.169,220
180.194,222
180.219,230
180.244,243
180.269,250
180.294,244
180.319,228
180.344,211
180.369,200
180.394,190
180.419,175
180.444,158
180.469,147
180.494,148
180.519,156
180.544,161
180.569,158
180.594,154
180.619,159
180.644,178
180.669,204
180.694,228
180.719,246
180.744,260
180.769,273
180.794,285
180.819,291
180.844,289
180.869,282
180.894,275
180.919,272
180.944,276
180.969,280
180.994,280
181.019,272
181.044,260
181.069,249
181.094,241
181.119,234
181.144,220
181.169,201
181.194,181
181.219,167
181.244,157
181.269,141
181.294,117
181.319,96
181.344,96
181.369,123
181.394,166
181.419,201
181.444,214
181.469,213
181.494,215
181.519,227
181.544,242
181.569,244
181.594,230
181.619,211
181.644,201
181.669,201
181.694,201
181.719,192
181.744,175
181.769,157
181.794,142
181.819,126
181.844,106
181.869,84
181.894,66
181.919,55
181.944,43
181.969,21
181.994,-6
182.019,-26
182.044,-22
182.069,10
182.094,58
182.119,104
182.144,140
182.169,169
182.194,200
182.219,235
182.244,267
182.269,289
182.294,297
182.319,299
182.344,302
182.369,307
182.394,309
182.419,303
182.444,287
182.469,266
182.494,246
182.519,226
182.544,202
182.569,177
182.594,154
182.619,138
182.644,124
182.669,101
182.694,66
182.719,29
182.744,11
182.769,27
182.794,70
182.819,119
182.844,156
182.869,179
182.894,200
182.919,227
182.944,259
182.969,283
182.994,294
183.019,293
183.044,291
183.069,291
183.094,292
183.119,291
183.144,284
183.169,271
183.194,256
183.219,238
183.244,218
183.269,198
183.294,177
183.319,156
183.344,135
183.369,115
183.394,98
183.419,80
183.444,57
183.469,28
183.494,0
183.519,-13
183.544,0
183.569,39
183.594,88
183.619,130
183.644,160
183.669,183
183.694,210
183.719,239
183.744,266
183.769,284
183.794,293
183.819,300
183.844,309
183.869,317
183.894,320
183.919,317
183.944,312
183.969,309
183.994,308
184.019,303
184.044,292
184.069,279
184.094,271
184.119,269
184.144,266
184.169,257
184.194,243
184.219,228
184.244,215
184.269,196
184.294,163
184.319,120
184.344,86
184.369,77
184.394,95
184.419,123
184.444,141
184.469,143
184.494,139
184.519,140
184.544,145
184.569,150
184.594,151
184.619,151
184.644,157
184.669,168
184.694,177
184.719,181
184.744,179
184.769,173
184.794,164
184.819,150
184.844,135
184.869,123
184.894,114
184.919,105
184.944,92
184.969,78
184.994,69
185.019,69
185.044,71
185.069,66
185.094,58
185.119,67
185.144,106
185.169,171
185.194,232
185.219,264
185.244,261
185.269,242
185.294,230
185.319,236
185.344,250
185.369,261
185.394,265
185.419,267
185.444,271
185.469,279
185.494,287
185.519,288
185.544,283
185.569,271
185.594,256
185.619,238
185.644,218
185.669,194
185.694,168
185.719,145
185.744,128
185.769,113
185.794,93
185.819,66
185.844,41
185.869,33
185.894,49
185.919,81
185.944,110
185.969,128
185.994,140
186.019,157
186.044,183
186.069,210
186.094,227
186.119,234
186.144,238
186.169,248
186.194,264
186.219,278
186.244,286
186.269,287
186.294,283
186.319,277
186.344,267
186.369,258
186.394,251
186.419,244
186.444,230
186.469,205
186.494,173
186.519,142
186.544,115
186.569,87
186.594,52
186.619,15
186.644,-5
186.669,5
186.694,44
186.719,94
186.744,133
186.769,158
186.794,179
186.819,206
186.844,237
186.869,262
186.894,274
186.919,279
186.944,286
186.969,297
186.994,306
187.019,307
187.044,300
187.069,292
187.094,285
187.119,277
187.144,262
187.169,238
187.194,212
187.219,188
187.244,168
187.269,150
187.294,131
187.319,113
187.344,95
187.369,71
187.394,40
187.419,7
187.444,-9
187.469,4
187.494,47
187.519,99
187.544,140
187.569,166
187.594,185
187.619,209
187.644,239
187.669,264
187.694,275
187.719,276
187.744,277
187.769,282
187.794,291
187.819,294
187.844,292
187.869,284
187.894,274
187.919,261
187.944,243
187.969,223
187.994,206
188.019,192
188.044,177
188.069,158
188.094,136
188.119,116
188.144,99
188.169,77
188.194,48
188.219,20
188.244,11
188.269,35
188.294,83
188.319,137
188.344,176
188.369,199
188.394,216
188.419,237
188.444,259
188.469,274
188.494,280
188.519,282
188.544,286
188.569,294
188.594,300
188.619,301
188.644,298
188.669,291
188.694,279
188.719,259
188.744,234
188.769,210
188.794,192
188.819,176
188.844,156
188.869,130
188.894,104
188.919,81
188.944,56
188.969,25
188.994,-9
189.019,-31
189.044,-21
189.069,21
189.094,78
189.119,126
189.144,156
189.169,177
189.194,201
189.219,229
189.244,252
189.269,261
189.294,261
189.319,260
189.344,263
189.369,269
189.394,271
189.419,268
189.444,263
189.469,258
189.494,252
189.519,242
189.544,227
189.569,209
189.594,191
189.619,174
189.644,157
189.669,139
189.694,120
189.719,99
189.744,78
189.769,64
189.794,64
189.819,81
189.844,110
189.869,138
189.894,156
189.919,165
189.944,173
189.969,186
189.994,201
190.019,212
190.044,214
190.069,210
190.094,211
190.119,220
190.144,237
190.169,253
190.194,262
190.219,267
190.244,274
190.269,282
190.294,286
190.319,281
190.344,267
190.369,249
190.394,230
190.419,206
190.444,171
190.469,131
190.494,103
190.519,102
190.544,128
190.569,161
190.594,181
190.619,182
190.644,179
190.669,185
190.694,201
190.719,213
190.744,215
190.769,214
190.794,222
190.819,241
190.844,257
190.869,259
190.894,246
190.919,231
190.944,219
190.969,207
190.994,187
191.019,161
191.044,137
191.069,118
191.094,97
191.119,65
191.144,29
191.169,11
191.194,26
191.219,64
191.244,102
191.269,123
191.294,134
191.319,150
191.344,177
191.369,204
191.394,215
191.419,212
191.444,210
191.469,220
191.494,235
191.519,244
191.544,241
191.569,231
191.594,221
191.619,209
191.644,190
191.669,165
191.694,143
191.719,129
191.744,119
191.769,100
191.794,71
191.819,47
191.844,50
191.869,81
191.894,127
191.919,166
191.944,191
191.969,211
191.994,237
192.019,270
192.044,297
192.069,310
192.094,311
192.119,312
192.144,320
192.169,333
192.194,341
192.219,337
192.244,324
192.269,306
192.294,286
192.319,260
192.344,228
192.369,193
192.394,162
192.419,136
192.444,109
192.469,77
192.494,44
192.519,29
192.544,45
192.569,87
192.594,134
192.619,162
192.644,166
192.669,157
192.694,152
192.719,152
192.744,148
192.769,136
192.794,125
192.819,127
192.844,146
192.869,167
192.894,176
192.919,170
192.944,159
192.969,156
192.994,158
193.019,160
193.044,158
193.069,160
193.094,181
193.119,224
193.144,275
193.169,308
193.194,297
193.219,233
193.244,126
193.269,12
193.294,-70
193.319,-95
193.344,-67
193.369,-14
193.394,34
193.419,71
193.444,107
193.469,154
193.494,211
193.519,267
193.544,318
193.569,370
193.594,432
193.619,497
193.644,549
193.669,578
193.694,591
193.719,605
193.744,620
193.769,617
193.794,579
193.819,504
193.844,414
193.869,327
193.894,242
193.919,147
193.944,40
193.969,-59
193.994,-126
194.019,-154
194.044,-160
194.069,-165
194.094,-173
194.119,-171
194.144,-145
194.169,-103
194.194,-63
194.219,-38
194.244,-20
194.269,2
194.294,35
194.319,70
194.344,100
194.369,130
194.394,172
194.419,226
194.444,282
194.469,322
194.494,341
194.519,344
194.544,340
194.569,330
194.594,311
194.619,288
194.644,268
194.669,257
194.694,249
194.719,232
194.744,205
194.769,179
194.794,164
194.819,158
194.844,147
194.869,124
194.894,98
194.919,91
194.944,114
194.969,159
194.994,202
195.019,231
195.044,246
195.069,257
195.094,271
195.119,283
195.144,290
195.169,291
195.194,292
195.219,294
195.244,295
195.269,292
195.294,286
195.319,276
195.344,261
195.369,241
195.394,216
195.419,191
195.444,171
195.469,156
195.494,142
195.519,128
195.544,114
195.569,99
195.594,81
195.619,58
195.644,37
195.669,28
195.694,41
195.719,71
195.744,107
195.769,136
195.794,155
195.819,171
195.844,188
195.869,207
195.894,222
195.919,230
195.944,234
195.969,238
195.994,244
196.019,249
196.044,245
196.069,231
196.094,211
196.119,192
196.144,178
196.169,165
196.194,147
196.219,123
196.244,103
196.269,98
196.294,109
196.319,124
196.344,134
196.369,142
196.394,166
196.419,214
196.444,273
196.469,310
196.494,307
196.519,276
196.544,244
196.569,231
196.594,230
196.619,226
196.644,212
196.669,199
196.694,202
196.719,218
196.744,233
196.769,234
196.794,224
196.819,214
196.844,207
196.869,196
196.894,176
196.919,148
196.944,124
196.969,107
196.994,90
197.019,63
197.044,28
197.069,0
197.094,-6
197.119,15
197.144,53
197.169,90
197.194,116
197.219,134
197.244,154
197.269,183
197.294,215
197.319,241
197.344,253
197.369,256
197.394,259
197.419,269
197.444,282
197.469,287
197.494,281
197.519,271
197.544,263
197.569,257
197.594,246
197.619,225
197.644,200
197.669,176
197.694,153
197.719,124
197.744,91
197.769,66
197.794,67
197.819,101
197.844,150
197.869,192
197.894,217
197.919,234
197.944,254
197.969,278
197.994,297
198.019,302
198.044,298
198.069,293
198.094,294
198.119,296
198.144,294
198.169,285
198.194,270
198.219,250
198.244,229
198.269,210
198.294,191
198.319,169
198.344,135
198.369,85
198.394,32
198.419,0
198.444,3
198.469,39
198.494,86
198.519,127
198.544,158
198.569,181
198.594,200
198.619,213
198.644,218
198.669,218
198.694,218
198.719,220
198.744,221
198.769,220
198.794,216
198.819,209
198.844,198
198.869,181
198.894,163
198.919,148
198.944,135
198.969,115
198.994,84
199.019,51
199.044,31
199.069,34
199.094,54
199.119,79
199.144,108
199.169,147
199.194,200
199.219,258
199.244,315
199.269,378
199.294,464
199.319,569
199.344,657
199.369,685
199.394,641
199.419,562
199.444,494
199.469,445
199.494,376
199.519,248
199.544,63
199.569,-122
199.594,-253
199.619,-310
199.644,-318
199.669,-308
199.694,-287
199.719,-244
199.744,-171
199.769,-81
199.794,6
199.819,80
199.844,140
199.869,188
199.894,224
199.919,245
199.944,253
199.969,257
199.994,264
200.019,273
200.044,277
200.069,272
200.094,259
200.119,243
200.144,231
200.169,225
200.194,221
200.219,212
200.244,196
200.269,181
200.294,186
200.319,220
200.344,276
200.369,328
200.394,351
200.419,343
200.444,322
200.469,312
200.494,318
200.519,330
200.544,334
200.569,325
200.594,311
200.619,295
200.644,275
200.669,247
200.694,213
200.719,179
200.744,154
200.769,135
200.794,116
200.819,91
200.844,57
200.869,19
200.894,-13
200.919,-30
200.944,-25
200.969,-3
200.994,22
201.019,38
201.044,41
201.069,40
201.094,45
201.119,57
201.144,68
201.169,70
201.194,65
201.219,61
201.244,62
201.269,63
201.294,58
201.319,47
201.344,35
201.369,25
201.394,11
201.419,-9
201.444,-20
201.469,8
201.494,103
201.519,253
201.544,415
201.569,542
201.594,617
201.619,658
201.644,693
201.669,729
201.694,745
201.719,716
201.744,642
201.769,549
201.794,477
201.819,441
201.844,430
201.869,421
201.894,396
201.919,364
201.944,339
201.969,328
201.994,321
202.019,298
202.044,251
202.069,192
202.094,143
202.119,113
202.144,87
202.169,41
202.194,-32
202.219,-119
202.244,-186
202.269,-208
202.294,-192
202.319,-160
202.344,-133
202.369,-112
202.394,-87
202.419,-55
202.444,-24
202.469,-4
202.494,2
202.519,4
202.544,10
202.569,18
202.594,22
202.619,18
202.644,16
202.669,27
202.694,59
202.719,106
202.744,156
202.769,200
202.794,234
202.819,261
202.844,284
202.869,307
202.894,330
202.919,346
202.944,350
202.969,344
202.994,336
203.019,334
203.044,334
203.069,325
203.094,302
203.119,270
203.144,245
203.169,229
203.194,211
203.219,178
203.244,130
203.269,90
203.294,77
203.319,94
203.344,125
203.369,152
203.394,173
203.419,197
203.444,230
203.469,264
203.494,285
203.519,288
203.544,282
203.569,277
203.594,278
203.619,285
203.644,294
203.669,301
203.694,302
203.719,291
203.744,267
203.769,234
203.794,199
203.819,163
203.844,122
203.869,80
203.894,50
203.919,46
203.944,72
203.969,114
203.994,151
204.019,174
204.044,189
204.069,206
204.094,226
204.119,239
204.144,238
204.169,226
204.194,215
204.219,212
204.244,215
204.269,215
204.294,206
204.319,188
204.344,168
204.369,150
204.394,133
204.419,113
204.444,87
204.469,56
204.494,32
204.519,27
204.544,48
204.569,90
204.594,137
204.619,178
204.644,208
204.669,231
204.694,252
204.719,270
204.744,280
204.769,282
204.794,281
204.819,281
204.844,285
204.869,288
204.894,284
204.919,270
204.944,246
204.969,220
204.994,197
205.019,175
205.044,149
205.069,113
205.094,73
205.119,42
205.144,37
205.169,63
205.194,107
205.219,148
205.244,175
205.269,189
205.294,201
205.319,219
205.344,237
205.369,248
205.394,246
205.419,234
205.444,220
205.469,210
205.494,204
205.519,198
205.544,188
205.569,175
205.594,162
205.619,153
205.644,146
205.669,136
205.694,118
205.719,91
205.744,67
205.769,60
205.794,80
205.819,122
205.844,174
205.869,223
205.894,262
205.919,289
205.944,307
205.969,319
205.994,329
206.019,338
206.044,343
206.069,342
206.094,333
206.119,317
206.144,296
206.169,270
206.194,239
206.219,204
206.244,171
206.269,144
206.294,122
206.319,98
206.344,71
206.369,50
206.394,49
206.419,71
206.444,108
206.469,140
206.494,158
206.519,163
206.544,164
206.569,167
206.594,170
206.619,172
206.644,177
206.669,190
206.694,209
206.719,225
206.744,225
206.769,209
206.794,185
206.819,163
206.844,144
206.869,122
206.894,92
206.919,57
206.944,27
206.969,11
206.994,14
207.019,34
207.044,64
207.069,97
207.094,127
207.119,152
207.144,173
207.169,187
207.194,191
207.219,182
207.244,167
207.269,158
207.294,161
207.319,173
207.344,183
207.369,182
207.394,173
207.419,162
207.444,154
207.469,140
207.494,121
207.519,107
207.544,123
207.569,180
207.594,263
207.619,343
207.644,399
207.669,431
207.694,456
207.719,481
207.744,499
207.769,495
207.794,469
207.819,436
207.844,410
207.869,394
207.894,378
207.919,353
207.944,318
207.969,278
207.994,234
208.019,186
208.044,134
208.069,89
208.094,60
208.119,53
208.144,62
208.169,78
208.194,94
208.219,108
208.244,125
208.269,146
208.294,166
208.319,171
208.344,157
208.369,127
208.394,99
208.419,85
208.444,82
208.469,74
208.494,53
208.519,30
208.544,21
208.569,28
208.594,31
208.619,15
208.644,-9
208.669,-10
208.694,31
208.719,95
208.744,144
208.769,158
208.794,159
208.819,175
208.844,208
208.869,232
208.894,226
208.919,206
208.944,204
208.969,230
208.994,263
209.019,277
209.044,265
209.069,245
209.094,227
209.119,201
209.144,159
209.169,116
209.194,106
209.219,147
209.244,228
209.269,334
209.294,460
209.319,604
209.344,727
209.369,757
209.394,645
209.419,419
209.444,177
209.469,18
209.494,-34
209.519,-28
209.544,-20
209.569,-31
209.594,-47
209.619,-55
209.644,-61
209.669,-67
209.694,-68
209.719,-58
209.744,-48
209.769,-57
209.794,-86
209.819,-102
209.844,-75
209.869,-7
209.894,77
209.919,160
209.944,251
209.969,365
209.994,490
210.019,588
210.044,633
210.069,637
210.094,622
210.119,589
210.144,512
210.169,377
210.194,221
210.219,104
210.244,61
210.269,65
210.294,65
210.319,33
210.344,-7
210.369,-21
210.394,2
210.419,41
210.444,74
210.469,99
210.494,129
210.519,167
210.544,200
210.569,217
210.594,225
210.619,239
210.644,263
210.669,285
210.694,291
210.719,279
210.744,262
210.769,252
210.794,249
210.819,246
210.844,237
210.869,220
210.894,199
210.919,174
210.944,144
210.969,112
210.994,81
211.019,59
211.044,53
211.069,65
211.094,91
211.119,124
211.144,154
211.169,177
211.194,196
211.219,212
211.244,227
211.269,237
211.294,241
211.319,242
211.344,245
211.369,251
211.394,253
211.419,247
211.444,235
211.469,226
211.494,221
211.519,218
211.544,207
211.569,189
211.594,170
211.619,159
211.644,153
211.669,142
211.694,119
211.719,90
211.744,71
211.769,77
211.794,105
211.819,143
211.844,176
211.869,197
211.894,211
211.919,225
211.944,239
211.969,251
211.994,258
212.019,261
212.044,264
212.069,266
212.094,267
212.119,263
212.144,252
212.169,238
212.194,223
212.219,209
212.244,192
212.269,173
212.294,154
212.319,138
212.344,127
212.369,114
212.394,92
212.419,62
212.444,35
212.469,27
212.494,46
212.519,83
212.544,122
212.569,149
212.594,163
212.619,173
212.644,185
212.669,197
212.694,203
212.719,202
212.744,201
212.769,207
212.794,220
212.819,232
212.844,240
212.869,246
212.894,256
212.919,270
212.944,278
212.969,269
212.994,244
213.019,214
213.044,193
213.069,181
213.094,169
213.119,149
213.144,123
213.169,105
213.194,108
213.219,134
213.244,169
213.269,199
213.294,216
213.319,229
213.344,247
213.369,276
213.394,308
213.419,330
213.444,332
213.469,312
213.494,280
213.519,244
213.544,208
213.569,174
213.594,144
213.619,120
213.644,106
213.669,97
213.694,87
213.719,73
213.744,60
213.769,52
213.794,48
213.819,40
213.844,28
213.869,23
213.894,40
213.919,84
213.944,140
213.969,186
213.994,212
214.019,226
214.044,242
214.069,261
214.094,277
214.119,281
214.144,277
214.169,275
214.194,278
214.219,278
214.244,270
214.269,257
214.294,246
214.319,240
214.344,229
214.369,209
214.394,182
214.419,158
214.444,141
214.469,121
214.494,93
214.519,65
214.544,60
214.569,89
214.594,140
214.619,189
214.644,220
214.669,237
214.694,255
214.719,279
214.744,301
214.769,311
214.794,313
214.819,315
214.844,323
214.869,330
214.894,326
214.919,311
214.944,290
214.969,267
214.994,242
215.019,211
215.044,179
215.069,150
215.094,123
215.119,90
215.144,48
215.169,10
215.194,-3
215.219,17
215.244,62
215.269,105
215.294,132
215.319,145
215.344,153
215.369,163
215.394,172
215.419,173
215.444,165
215.469,154
215.494,145
215.519,138
215.544,130
215.569,119
215.594,103
215.619,84
215.644,69
215.669,63
215.694,67
215.719,70
215.744,61
215.769,40
215.794,26
215.819,49
215.844,118
215.869,213
215.894,295
215.919,339
215.944,346
215.969,339
215.994,337
216.019,343
216.044,349
216.069,352
216.094,357
216.119,363
216.144,365
216.169,358
216.194,339
216.219,314
216.244,283
216.269,246
216.294,203
216.319,162
216.344,132
216.369,111
216.394,89
216.419,56
216.444,21
216.469,7
216.494,29
216.519,80
216.544,136
216.569,179
216.594,205
216.619,224
216.644,242
216.669,253
216.694,252
216.719,242
216.744,231
216.769,223
216.794,218
216.819,209
216.844,194
216.869,173
216.894,149
216.919,123
216.944,99
216.969,80
216.994,66
217.019,54
217.044,38
217.069,21
217.094,18
217.119,43
217.144,98
217.169,168
217.194,232
217.219,276
217.244,301
217.269,316
217.294,328
217.319,338
217.344,344
217.369,348
217.394,354
217.419,367
217.444,384
217.469,396
217.494,386
217.519,342
217.544,268
217.569,179
217.594,104
217.619,60
217.644,49
217.669,51
217.694,46
217.719,25
217.744,0
217.769,-12
217.794,2
217.819,41
217.844,93
217.869,150
217.894,213
217.919,287
217.944,367
217.969,434
217.994,462
218.019,434
218.044,355
218.069,251
218.094,154
218.119,89
218.144,58
218.169,47
218.194,38
218.219,16
218.244,-14
218.269,-39
218.294,-49
218.319,-45
218.344,-35
218.369,-22
218.394,2
218.419,51
218.444,121
218.469,187
218.494,223
218.519,221
218.544,199
218.569,183
218.594,183
218.619,190
218.644,192
218.669,192
218.694,202
218.719,232
218.744,273
218.769,310
218.794,334
218.819,348
218.844,355
218.869,354
218.894,338
218.919,307
218.944,269
218.969,235
218.994,205
219.019,177
219.044,153
219.069,142
219.094,151
219.119,173
219.144,196
219.169,210
219.194,215
219.219,216
219.244,213
219.269,202
219.294,189
219.319,186
219.344,204
219.369,235
219.394,255
219.419,250
219.444,228
219.469,206
219.494,197
219.519,191
219.544,176
219.569,151
219.594,130
219.619,129
219.644,147
219.669,172
219.694,192
219.719,205
219.744,216
219.769,224
219.794,223
219.819,212
219.844,197
219.869,186
219.894,178
219.919,167
219.944,152
219.969,142
219.994,141
220.019,145
220.044,139
220.069,119
220.094,95
220.119,88
220.144,106
220.169,139
220.194,168
220.219,186
220.244,198
220.269,214
220.294,234
220.319,252
220.344,260
220.369,260
220.394,258
220.419,262
220.444,272
220.469,282
220.494,285
220.519,279
220.544,263
220.569,242
220.594,221
220.619,201
220.644,178
220.669,152
220.694,126
220.719,106
220.744,91
220.769,72
220.794,41
220.819,4
220.844,-19
220.869,-13
220.894,16
220.919,52
220.944,76
220.969,90
220.994,105
221.019,129
221.044,153
221.069,165
221.094,169
221.119,173
221.144,186
221.169,201
221.194,203
221.219,191
221.244,175
221.269,165
221.294,157
221.319,144
221.344,125
221.369,112
221.394,113
221.419,125
221.444,130
221.469,126
221.494,125
221.519,149
221.544,201
221.569,264
221.594,312
221.619,339
221.644,356
221.669,375
221.694,396
221.719,411
221.744,412
221.769,403
221.794,392
221.819,382
221.844,370
221.869,354
221.894,333
221.919,310
221.944,283
221.969,252
221.994,217
222.019,183
222.044,150
222.069,116
222.094,79
222.119,46
222.144,32
222.169,46
222.194,81
222.219,121
222.244,152
222.269,170
222.294,182
222.319,192
222.344,199
222.369,201
222.394,198
222.419,197
222.444,199
222.469,202
222.494,198
222.519,186
222.544,169
222.569,155
222.594,146
222.619,136
222.644,116
222.669,85
222.694,51
222.719,30
222.744,34
222.769,65
222.794,109
222.819,151
222.844,182
222.869,207
222.894,234
222.919,263
222.944,286
222.969,293
222.994,288
223.019,283
223.044,287
223.069,295
223.094,296
223.119,284
223.144,266
223.169,248
223.194,226
223.219,185
223.244,124
223.269,57
223.294,11
223.319,1
223.344,17
223.369,41
223.394,58
223.419,72
223.444,92
223.469,117
223.494,141
223.519,153
223.544,157
223.569,160
223.594,169
223.619,180
223.644,187
223.669,184
223.694,173
223.719,156
223.744,137
223.769,118
223.794,105
223.819,101
223.844,111
223.869,133
223.894,165
223.919,204
223.944,247
223.969,288
223.994,321
224.019,343
224.044,357
224.069,365
224.094,367
224.119,363
224.144,354
224.169,345
224.194,334
224.219,319
224.244,295
224.269,264
224.294,231
224.319,203
224.344,177
224.369,147
224.394,109
224.419,71
224.444,49
224.469,51
224.494,71
224.519,96
224.544,115
224.569,127
224.594,140
224.619,156
224.644,168
224.669,172
224.694,167
224.719,159
224.744,154
224.769,154
224.794,152
224.819,145
224.844,134
224.869,124
224.894,113
224.919,98
224.944,76
224.969,52
224.994,39
225.019,48
225.044,81
225.069,127
225.094,169
225.119,202
225.144,229
225.169,261
225.194,297
225.219,330
225.244,346
225.269,345
225.294,332
225.319,320
225.344,311
225.369,300
225.394,281
225.419,257
225.444,236
225.469,219
225.494,200
225.519,169
225.544,127
225.569,87
225.594,65
225.619,69
225.644,89
225.669,111
225.694,127
225.719,138
225.744,154
225.769,174
225.794,193
225.819,202
225.844,200
225.869,193
225.894,188
225.919,188
225.944,189
225.969,187
225.994,182
226.019,176
226.044,172
226.069,166
226.094,154
226.119,135
226.144,118
226.169,119
226.194,144
226.219,187
226.244,232
226.269,262
226.294,277
226.319,291
226.344,321
226.369,365
226.394,403
226.419,412
226.444,388
226.469,352
226.494,331
226.519,341
226.544,372
226.569,404
226.594,431
226.619,453
226.644,469
226.669,466
226.694,425
226.719,348
226.744,258
226.769,187
226.794,141
226.819,104
226.844,53
226.869,-14
226.894,-81
226.919,-128
226.944,-159
226.969,-190
226.994,-225
227.019,-252
227.044,-254
227.069,-233
227.094,-212
227.119,-212
227.144,-230
227.169,-241
227.194,-222
227.219,-168
227.244,-97
227.269,-21
227.294,56
227.319,144
227.344,243
227.369,343
227.394,424
227.419,478
227.444,507
227.469,527
227.494,553
227.519,587
227.544,615
227.569,622
227.594,598
227.619,546
227.644,476
227.669,396
227.694,311
227.719,226
227.744,147
227.769,75
227.794,0
227.819,-94
227.844,-199
227.869,-277
227.894,-285
227.919,-206
227.944,-74
227.969,48
227.994,124
228.019,152
228.044,163
228.069,179
228.094,198
228.119,215
228.144,233
228.169,263
228.194,308
228.219,355
228.244,385
228.269,391
228.294,380
228.319,360
228.344,338
228.369,315
228.394,300
228.419,293
228.444,283
228.469,253
228.494,199
228.519,143
228.544,118
228.569,136
228.594,176
228.619,208
228.644,221
228.669,232
228.694,261
228.719,307
228.744,351
228.769,378
228.794,386
228.819,383
228.844,373
228.869,352
228.894,317
228.919,274
228.944,229
228.969,181
228.994,130
229.019,82
229.044,45
229.069,18
229.094,-10
229.119,-51
229.144,-95
229.169,-114
229.194,-90
229.219,-33
229.244,24
229.269,59
229.294,78
229.319,102
229.344,147
229.369,200
229.394,239
229.419,253
229.444,249
229.469,242
229.494,237
229.519,232
229.544,224
229.569,216
229.594,211
229.619,211
229.644,210
229.669,201
229.694,178
229.719,140
229.744,93
229.769,49
229.794,29
229.819,40
229.844,76
229.869,118
229.894,150
229.919,169
229.944,184
229.969,204
229.994,229
230.019,255
230.044,278
230.069,297
230.094,306
230.119,299
230.144,275
230.169,239
230.194,207
230.219,185
230.244,174
230.269,167
230.294,160
230.319,148
230.344,130
230.369,106
230.394,79
230.419,66
230.444,78
230.469,114
230.494,157
230.519,186
230.544,195
230.569,196
230.594,203
230.619,218
230.644,228
230.669,223
230.694,207
230.719,196
230.744,201
230.769,222
230.794,243
230.819,255
230.844,257
230.869,256
230.894,254
230.919,245
230.944,224
230.969,192
230.994,161
231.019,140
231.044,135
231.069,144
231.094,163
231.119,188
231.144,216
231.169,247
231.194,276
231.219,304
231.244,329
231.269,353
231.294,374
231.319,387
231.344,383
231.369,353
231.394,292
231.419,202
231.444,97
231.469,0
231.494,-62
231.519,-75
231.544,-47
231.569,-4
231.594,22
231.619,20
231.644,1
231.669,-7
231.694,10
231.719,55
231.744,113
231.769,169
231.794,216
231.819,253
231.844,277
231.869,283
231.894,272
231.919,254
231.944,240
231.969,234
231.994,229
232.019,217
232.044,200
232.069,185
232.094,177
232.119,167
232.144,141
232.169,100
232.194,64
232.219,63
232.244,105
232.269,175
232.294,243
232.319,290
232.344,320
232.369,342
232.394,357
232.419,358
232.444,342
232.469,317
232.494,297
232.519,287
232.544,276
232.569,251
232.594,211
232.619,165
232.644,124
232.669,87
232.694,49
232.719,9
232.744,-22
232.769,-35
232.794,-25
232.819,0
232.844,30
232.869,65
232.894,106
232.919,151
232.944,191
232.969,220
232.994,235
233.019,244
233.044,255
233.069,271
233.094,289
233.119,301
233.144,300
233.169,286
233.194,261
233.219,231
233.244,200
233.269,173
233.294,159
233.319,168
233.344,203
233.369,251
233.394,282
233.419,263
233.444,189
233.469,82
233.494,-13
233.519,-63
233.544,-64
233.569,-32
233.594,7
233.619,44
233.644,77
233.669,105
233.694,125
233.719,128
233.744,108
233.769,65
233.794,5
233.819,-52
233.844,-78
233.869,-42
233.894,67
233.919,232
233.944,409
233.969,556
233.994,651
234.019,692
234.044,691
234.069,657
234.094,597
234.119,523
234.144,455
234.169,406
234.194,371
234.219,337
234.244,290
234.269,234
234.294,178
234.319,129
234.344,83
234.369,37
234.394,-3
234.419,-24
234.444,-17
234.469,10
234.494,47
234.519,86
234.544,124
234.569,157
234.594,167
234.619,141
234.644,88
234.669,46
234.694,55
234.719,120
234.744,204
234.769,256
234.794,254
234.819,215
234.844,170
234.869,131
234.894,88
234.919,34
234.944,-20
234.969,-52
234.994,-45
235.019,-10
235.044,30
235.069,63
235.094,91
235.119,123
235.144,160
235.169,195
235.194,219
235.219,232
235.244,243
235.269,258
235.294,280
235.319,303
235.344,322
235.369,335
235.394,343
235.419,342
235.444,325
235.469,287
235.494,232
235.519,175
235.544,130
235.569,104
235.594,86
235.619,66
235.644,48
235.669,54
235.694,101
235.719,184
235.744,269
235.769,319
235.794,323
235.819,298
235.844,271
235.869,255
235.894,247
235.919,244
235.944,249
235.969,270
235.994,306
236.019,342
236.044,364
236.069,372
236.094,378
236.119,386
236.144,391
236.169,379
236.194,344
236.219,292
236.244,238
236.269,192
236.294,157
236.319,127
236.344,94
236.369,56
236.394,15
236.419,-14
236.444,-21
236.469,-2
236.494,28
236.519,52
236.544,62
236.569,62
236.594,63
236.619,70
236.644,80
236.669,91
236.694,104
236.719,120
236.744,136
236.769,146
236.794,148
236.819,151
236.844,162
236.869,182
236.894,201
236.919,208
236.944,202
236.969,184
236.994,154
237.019,114
237.044,71
237.069,36
237.094,20
237.119,24
237.144,43
237.169,74
237.194,113
237.219,150
237.244,164
237.269,149
237.294,133
237.319,166
237.344,282
237.369,457
237.394,613
237.419,679
237.444,640
237.469,539
237.494,434
237.519,354
237.544,287
237.569,217
237.594,146
237.619,87
237.644,47
237.669,19
237.694,-8
237.719,-36
237.744,-51
237.769,-43
237.794,-7
237.819,52
237.844,133
237.869,221
237.894,294
237.919,334
237.944,335
237.969,309
237.994,276
238.019,248
238.044,223
238.069,200
238.094,179
238.119,163
238.144,150
238.169,135
238.194,113
238.219,90
238.244,70
238.269,53
238.294,35
238.319,19
238.344,23
238.369,64
238.394,139
238.419,223
238.444,288
238.469,323
238.494,338
238.519,351
238.544,366
238.569,375
238.594,371
238.619,357
238.644,342
238.669,334
238.694,331
238.719,324
238.744,306
238.769,278
238.794,245
238.819,205
238.844,158
238.869,103
238.894,47
238.919,5
238.944,-8
238.969,9
238.994,47
239.019,85
239.044,109
239.069,122
239.094,131
239.119,143
239.144,152
239.169,149
239.194,135
239.219,121
239.244,121
239.269,136
239.294,157
239.319,170
239.344,174
239.369,173
239.394,168
239.419,149
239.444,104
239.469,40
239.494,-20
239.519,-47
239.544,-25
239.569,34
239.594,101
239.619,152
239.644,182
239.669,203
239.694,234
239.719,280
239.744,333
239.769,377
239.794,404
239.819,416
239.844,418
239.869,408
239.894,374
239.919,314
239.944,236
239.969,164
239.994,115
240.019,88
240.044,70
240.069,50
240.094,37
240.119,45
240.144,77
240.169,117
240.194,145
240.219,161
240.244,180
240.269,218
240.294,265
240.319,295
240.344,293
240.369,274
240.394,262
240.419,269
240.444,277
240.469,262
240.494,222
240.519,179
240.544,156
240.569,149
240.594,139
240.619,113
240.644,89
240.669,91
240.694,130
240.719,187
240.744,235
240.769,266
240.794,294
240.819,340
240.844,401
240.869,453
240.894,468
240.919,437
240.944,376
240.969,311
240.994,261
241.019,226
241.044,193
241.069,149
241.094,95
241.119,41
241.144,0
241.169,-29
241.194,-57
241.219,-93
241.244,-126
241.269,-137
241.294,-111
241.319,-56
241.344,1
241.369,43
241.394,71
241.419,103
241.444,152
241.469,213
241.494,266
241.519,298
241.544,309
241.569,311
241.594,315
241.619,326
241.644,338
241.669,337
241.694,304
241.719,231
241.744,132
241.769,43
241.794,-7
241.819,-21
241.844,-28
241.869,-56
241.894,-97
241.919,-116
241.944,-83
241.969,-6
241.994,78
242.019,141
242.044,182
242.069,215
242.094,249
242.119,274
242.144,282
242.169,282
242.194,288
242.219,307
242.244,328
242.269,345
242.294,373
242.319,430
242.344,514
242.369,594
242.394,636
242.419,638
242.444,632
242.469,638
242.494,639
242.519,592
242.544,480
242.569,338
242.594,226
242.619,174
242.644,160
242.669,132
242.694,60
242.719,-37
242.744,-123
242.769,-167
242.794,-172
242.819,-159
242.844,-145
242.869,-138
242.894,-136
242.919,-138
242.944,-144
242.969,-150
242.994,-153
243.019,-151
243.044,-144
243.069,-129
243.094,-102
243.119,-62
243.144,-10
243.169,47
243.194,106
243.219,166
243.244,225
243.269,275
243.294,310
243.319,328
243.344,338
243.369,348
243.394,363
243.419,378
243.444,386
243.469,386
243.494,381
243.519,377
243.544,375
243.569,372
243.594,365
243.619,354
243.644,339
243.669,320
243.694,291
243.719,247
243.744,193
243.769,142
243.794,109
243.819,107
243.844,134
243.869,178
243.894,219
243.919,243
243.944,249
243.969,241
243.994,227
244.019,209
244.044,190
244.069,173
244.094,163
244.119,169
244.144,190
244.169,217
244.194,230
244.219,214
244.244,168
244.269,107
244.294,53
244.319,20
244.344,7
244.369,12
244.394,33
244.419,76
244.444,135
244.469,197
244.494,240
244.519,259
244.544,269
244.569,291
244.594,332
244.619,374
244.644,395
244.669,382
244.694,346
244.719,303
244.744,268
244.769,244
244.794,230
244.819,222
244.844,209
244.869,178
244.894,127
244.919,76
244.944,58
244.969,88
244.994,143
245.019,174
245.044,147
245.069,73
245.094,0
245.119,-29
245.144,-10
245.169,26
245.194,51
245.219,59
245.244,66
245.269,88
245.294,116
245.319,133
245.344,130
245.369,116
245.394,106
245.419,101
245.444,91
245.469,69
245.494,43
245.519,37
245.544,65
245.569,122
245.594,186
245.619,244
245.644,297
245.669,357
245.694,419
245.719,465
245.744,479
245.769,463
245.794,433
245.819,401
245.844,364
245.869,306
245.894,229
245.919,157
245.944,114
245.969,102
245.994,99
246.019,81
246.044,48
246.069,25
246.094,34
246.119,75
246.144,124
246.169,163
246.194,189
246.219,211
246.244,233
246.269,248
246.294,254
246.319,256
246.344,264
246.369,280
246.394,296
246.419,302
246.444,292
246.469,272
246.494,246
246.519,219
246.544,190
246.569,167
246.594,162
246.619,187
246.644,237
246.669,294
246.694,333
246.719,332
246.744,285
246.769,207
246.794,125
246.819,59
246.844,14
246.869,-18
246.894,-44
246.919,-55
246.944,-37
246.969,10
246.994,67
247.019,104
247.044,108
247.069,90
247.094,67
247.119,44
247.144,12
247.169,-35
247.194,-83
247.219,-100
247.244,-67
247.269,8
247.294,99
247.319,181
247.344,247
247.369,301
247.394,346
247.419,375
247.444,380
247.469,363
247.494,336
247.519,313
247.544,298
247.569,293
247.594,291
247.619,290
247.644,287
247.669,280
247.694,268
247.719,251
247.744,228
247.769,201
247.794,178
247.819,171
247.844,192
247.869,247
247.894,325
247.919,405
247.944,465
247.969,495
247.994,493
248.019,469
248.044,429
248.069,383
248.094,339
248.119,305
248.144,287
248.169,283
248.194,283
248.219,274
248.244,248
248.269,207
248.294,166
248.319,133
248.344,108
248.369,78
248.394,35
248.419,-16
248.444,-58
248.469,-72
248.494,-55
248.519,-27
248.544,-10
248.569,-9
248.594,-11
248.619,0
248.644,21
248.669,31
248.694,11
248.719,-32
248.744,-66
248.769,-60
248.794,-18
248.819,28
248.844,53
248.869,55
248.894,58
248.919,82
248.944,117
248.969,138
248.994,133
249.019,117
249.044,115
249.069,136
249.094,168
249.119,202
249.144,237
249.169,279
249.194,326
249.219,369
249.244,401
249.269,425
249.294,445
249.319,452
249.344,433
249.369,400
249.394,379
249.419,391
249.444,420
249.469,432
249.494,413
249.519,394
249.544,411
249.569,449
249.594,441
249.619,329
249.644,131
249.669,-56
249.694,-141
249.719,-112
249.744,-32
249.769,27
249.794,49
249.819,64
249.844,97
249.869,138
249.894,162
249.919,165
249.944,165
249.969,180
249.994,203
250.019,213
250.044,204
250.069,185
250.094,171
250.119,159
250.144,141
250.169,110
250.194,73
250.219,37
250.244,3
250.269,-23
250.294,-32
250.319,-8
250.344,44
250.369,101
250.394,138
250.419,147
250.444,145
250.469,148
250.494,156
250.519,161
250.544,158
250.569,156
250.594,167
250.619,192
250.644,221
250.669,244
250.694,262
250.719,274
250.744,274
250.769,251
250.794,211
250.819,172
250.844,159
250.869,179
250.894,222
250.919,266
250.944,300
250.969,324
250.994,342
251.019,355
251.044,356
251.069,345
251.094,328
251.119,314
251.144,311
251.169,319
251.194,334
251.219,343
251.244,331
251.269,287
251.294,208
251.319,108
251.344,12
251.369,-52
251.394,-74
251.419,-50
251.444,6
251.469,79
251.494,148
251.519,200
251.544,229
251.569,239
251.594,237
251.619,229
251.644,219
251.669,212
251.694,213
251.719,221
251.744,228
251.769,221
251.794,194
251.819,154
251.844,119
251.869,94
251.894,73
251.919,40
251.944,-5
251.969,-47
251.994,-60
252.019,-40
252.044,-1
252.069,36
252.094,64
252.119,93
252.144,129
252.169,166
252.194,190
252.219,196
252.244,191
252.269,190
252.294,199
252.319,210
252.344,216
252.369,220
252.394,226
252.419,231
252.444,230
252.469,225
252.494,234
252.519,275
252.544,353
252.569,450
252.594,536
252.619,594
252.644,625
252.669,637
252.694,631
252.719,600
252.744,546
252.769,484
252.794,431
252.819,391
252.844,351
252.869,297
252.894,227
252.919,157
252.944,107
252.969,77
252.994,52
253.019,10
253.044,-53
253.069,-128
253.094,-190
253.119,-219
253.144,-213
253.169,-182
253.194,-140
253.219,-99
253.244,-66
253.269,-40
253.294,-21
253.319,-3
253.344,15
253.369,34
253.394,49
253.419,56
253.444,53
253.469,44
253.494,33
253.519,24
253.544,20
253.569,27
253.594,50
253.619,90
253.644,142
253.669,193
253.694,236
253.719,269
253.744,301
253.769,334
253.794,365
253.819,386
253.844,395
253.869,393
253.894,388
253.919,380
253.944,369
253.969,355
253.994,337
254.019,320
254.044,300
254.069,276
254.094,247
254.119,217
254.144,191
254.169,171
254.194,161
254.219,163
254.244,180
254.269,213
254.294,251
254.319,280
254.344,294
254.369,299
254.394,305
254.419,316
254.444,324
254.469,314
254.494,287
254.519,252
254.544,224
254.569,204
254.594,181
254.619,146
254.644,103
254.669,70
254.694,63
254.719,83
254.744,111
254.769,128
254.794,128
254.819,123
254.844,125
254.869,133
254.894,132
254.919,109
254.944,66
254.969,24
254.994,11
255.019,39
255.044,96
255.069,155
255.094,189
255.119,189
255.144,164
255.169,135
255.194,117
255.219,115
255.244,123
255.269,134
255.294,148
255.319,172
255.344,209
255.369,250
255.394,279
255.419,287
255.444,279
255.469,268
255.494,260
255.519,253
255.544,238
255.569,218
255.594,205
255.619,208
255.644,220
255.669,227
255.694,218
255.719,203
255.744,208
255.769,250
255.794,318
255.819,382
255.844,409
255.869,393
255.894,354
255.919,321
255.944,304
255.969,292
255.994,268
256.019,230
256.044,194
256.069,172
256.094,153
256.119,110
256.144,26
256.169,-86
256.194,-198
256.219,-286
256.244,-351
256.269,-399
256.294,-419
256.319,-387
256.344,-296
256.369,-178
256.394,-78
256.419,-14
256.444,51
256.469,171
256.494,348
256.519,519
256.544,599
256.569,559
256.594,450
256.619,357
256.644,324
256.669,325
256.694,306
256.719,244
256.744,167
256.769,120
256.794,121
256.819,149
256.844,173
256.869,184
256.894,193
256.919,212
256.944,232
256.969,235
256.994,221
257.019,217
257.044,258
257.069,346
257.094,441
257.119,489
257.144,465
257.169,394
257.194,326
257.219,299
257.244,307
257.269,319
257.294,310
257.319,279
257.344,239
257.369,197
257.394,145
257.419,83
257.444,23
257.469,-7
257.494,1
257.519,38
257.544,73
257.569,85
257.594,80
257.619,76
257.644,89
257.669,114
257.694,139
257.719,159
257.744,180
257.769,208
257.794,239
257.819,263
257.844,271
257.869,267
257.894,262
257.919,261
257.944,258
257.969,244
257.994,220
258.019,200
258.044,188
258.069,180
258.094,163
258.119,141
258.144,142
258.169,199
258.194,321
258.219,477
258.244,612
258.269,685
258.294,689
258.319,643
258.344,565
258.369,462
258.394,342
258.419,216
258.444,103
258.469,13
258.494,-59
258.519,-128
258.544,-195
258.569,-246
258.594,-270
258.619,-266
258.644,-245
258.669,-215
258.694,-177
258.719,-126
258.744,-69
258.769,-20
258.794,11
258.819,28
258.844,43
258.869,64
258.894,84
258.919,93
258.944,92
258.969,92
258.994,103
259.019,120
259.044,125
259.069,109
259.094,84
259.119,78
259.144,111
259.169,173
259.194,238
259.219,282
259.244,309
259.269,336
259.294,372
259.319,408
259.344,427
259.369,421
259.394,402
259.419,385
259.444,374
259.469,359
259.494,334
259.519,300
259.544,270
259.569,245
259.594,217
259.619,178
259.644,137
259.669,110
259.694,109
259.719,130
259.744,154
259.769,170
259.794,183
259.819,201
259.844,225
259.869,242
259.894,244
259.919,233
259.944,221
259.969,217
259.994,215
260.019,206
260.044,186
260.069,162
260.094,142
260.119,126
260.144,103
260.169,66
260.194,23
260.219,-5
260.244,-4
260.269,28
260.294,80
260.319,131
260.344,171
260.369,202
260.394,229
260.419,255
260.444,278
260.469,293
260.494,302
260.519,309
260.544,318
260.569,327
260.594,327
260.619,315
260.644,292
260.669,262
260.694,228
260.719,188
260.744,143
260.769,106
260.794,93
260.819,110
260.844,145
260.869,181
260.894,206
260.919,223
260.944,241
260.969,262
260.994,274
261.019,271
261.044,255
261.069,239
261.094,231
261.119,225
261.144,209
261.169,178
261.194,141
261.219,108
261.244,80
261.269,48
261.294,12
261.319,-18
261.344,-25
261.369,-1
261.394,43
261.419,90
261.444,127
261.469,156
261.494,186
261.519,216
261.544,237
261.569,242
261.594,234
261.619,222
261.644,215
261.669,210
261.694,199
261.719,181
261.744,160
261.769,137
261.794,112
261.819,81
261.844,48
261.869,24
261.894,25
261.919,57
261.944,109
261.969,168
261.994,223
262.019,269
262.044,304
262.069,326
262.094,333
262.119,328
262.144,317
262.169,307
262.194,300
262.219,289
262.244,272
262.269,250
262.294,226
262.319,204
262.344,180
262.369,147
262.394,105
262.419,65
262.444,44
262.469,54
262.494,93
262.519,145
262.544,194
262.569,234
262.594,265
262.619,292
262.644,310
262.669,314
262.694,300
262.719,278
262.744,256
262.769,238
262.794,217
262.819,185
262.844,147
262.869,115
262.894,96
262.919,85
262.944,64
262.969,28
262.994,-12
263.019,-37
263.044,-31
263.069,2
263.094,50
263.119,100
263.144,147
263.169,189
263.194,226
263.219,257
263.244,279
263.269,294
263.294,303
263.319,308
263.344,309
263.369,306
263.394,298
263.419,284
263.444,264
263.469,241
263.494,219
263.519,194
263.544,159
263.569,111
263.594,59
263.619,25
263.644,24
263.669,54
263.694,98
263.719,145
263.744,190
263.769,238
263.794,285
263.819,322
263.844,338
263.869,337
263.894,329
263.919,322
263.944,317
263.969,309
263.994,298
264.019,284
264.044,267
264.069,243
264.094,208
264.119,166
264.144,123
264.169,80
264.194,37
264.219,-3
264.244,-28
264.269,-24
264.294,8
264.319,56
264.344,98
264.369,128
264.394,150
264.419,172
264.444,194
264.469,209
264.494,214
264.519,212
264.544,211
264.569,213
264.594,214
264.619,210
264.644,200
264.669,186
264.694,172
264.719,159
264.744,147
264.769,129
264.794,101
264.819,70
264.844,49
264.869,55
264.894,89
