df_hash,22ZHK4.RZ8R6V
device,HZ2X61
project_hash,29R7
project_name,istanbul_aydin_university
person_hash,29R7.9180
person_label,v103
date_time_start,2026-03-02_12-31-30.462000_+03
date_time_start_unix,1772440290.462
date_time_end,2026-03-02_12-44-24.912000_+03
length_difference_noticed,no

time,ppg_med
5.728,577
5.753,663
5.778,800
5.803,874
5.828,845
5.853,814
5.878,894
5.903,1038
5.928,1093
5.953,1004
5.978,909
6.003,959
6.028,1093
6.053,1101
6.078,910
6.103,707
6.128,696
6.153,795
6.178,723
6.203,382
6.228,26
6.253,-75
6.278,-29
6.303,-209
6.328,-739
6.353,-1285
6.378,-1492
6.403,-1500
6.428,-1794
6.453,-2533
6.478,-3280
6.503,-3577
6.528,-3604
6.553,-3984
6.578,-4914
6.603,-5836
6.628,-6164
6.653,-6129
6.678,-6518
6.703,-7578
6.728,-8602
6.753,-8850
6.778,-8616
6.803,-8887
6.828,-9971
6.853,-10979
6.878,-10989
6.903,-10366
6.928,-10346
6.953,-11314
6.978,-12160
7.003,-11733
7.028,-10494
7.053,-9983
7.078,-10684
7.103,-11213
7.128,-10138
7.153,-8033
7.178,-6827
7.203,-7134
7.228,-7224
7.253,-5299
7.278,-2077
7.303,-1
7.328,143
7.353,539
7.378,3482
7.403,8061
7.428,11137
7.453,11663
7.478,12457
7.503,16539
7.528,22742
7.553,26884
7.578,27506
7.603,28383
7.628,32767
7.653,32767
7.678,32767
7.703,32767
7.728,32767
7.753,32767
7.778,32767
7.803,32767
7.828,32767
7.853,32767
7.878,32767
7.903,32767
7.928,32767
7.953,32767
7.978,15255
8.003,-32768
8.028,-32768
8.053,-32768
8.078,-32768
8.103,-32768
8.128,-32768
8.153,-32768
8.178,-32768
8.203,-32768
8.228,-32768
8.253,-32768
8.278,-32768
8.303,-32768
8.328,-32768
8.353,-29420
8.378,-27023
8.403,-26940
8.428,-24344
8.453,-18478
8.478,-13137
8.503,-11219
8.528,-11073
8.553,-9150
8.578,-4839
8.603,-959
8.628,281
8.653,126
8.678,1302
8.703,4304
8.728,6954
8.753,7523
8.778,6977
8.803,7467
8.828,9392
8.853,11037
8.878,11026
8.903,10120
8.928,10036
8.953,11103
8.978,11970
9.003,11562
9.028,10506
9.053,10168
9.078,10786
9.103,11237
9.128,10638
9.153,9493
9.178,8921
9.203,9130
9.228,9226
9.253,8496
9.278,7340
9.303,6653
9.328,6614
9.353,6522
9.378,5812
9.403,4792
9.428,4159
9.453,4047
9.478,3902
9.503,3283
9.528,2433
9.553,1901
9.578,1790
9.603,1674
9.628,1207
9.653,578
9.678,201
9.703,154
9.728,106
9.753,-201
9.778,-630
9.803,-870
9.828,-862
9.853,-841
9.878,-976
9.903,-1146
9.928,-1131
9.953,-927
9.978,-749
10.003,-742
10.028,-806
10.053,-755
10.078,-570
10.103,-409
10.128,-390
10.153,-441
10.178,-415
10.203,-284
10.228,-156
10.253,-122
10.278,-141
10.303,-114
10.328,-19
10.353,65
10.378,75
10.403,41
10.428,45
10.453,105
10.478,161
10.503,157
10.528,117
10.553,89
10.578,49
10.603,9
10.628,-35
10.653,-90
10.678,-147
10.703,-188
10.728,-189
10.753,-142
10.778,-58
10.803,37
10.828,121
10.853,187
10.878,241
10.903,296
10.928,357
10.953,412
10.978,448
11.003,459
11.028,455
11.053,450
11.078,454
11.103,463
11.128,465
11.153,453
11.178,430
11.203,405
11.228,380
11.253,350
11.278,309
11.303,256
11.328,200
11.353,146
11.378,95
11.403,44
11.428,-7
11.453,-57
11.478,-103
11.503,-147
11.528,-198
11.553,-255
11.578,-298
11.603,-304
11.628,-256
11.653,-165
11.678,-61
11.703,30
11.728,103
11.753,167
11.778,234
11.803,305
11.828,369
11.853,411
11.878,429
11.903,432
11.928,433
11.953,441
11.978,456
12.003,468
12.028,468
12.053,455
12.078,436
12.103,417
12.128,402
12.153,388
12.178,371
12.203,355
12.228,343
12.253,333
12.278,312
12.303,270
12.328,211
12.353,152
12.378,111
12.403,88
12.428,67
12.453,36
12.478,6
12.503,2
12.528,46
12.553,138
12.578,254
12.603,368
12.628,466
12.653,546
12.678,616
12.703,683
12.728,753
12.753,823
12.778,882
12.803,912
12.828,910
12.853,892
12.878,880
12.903,882
12.928,890
12.953,890
12.978,880
13.003,868
13.028,846
13.053,783
13.078,646
13.103,440
13.128,209
13.153,9
13.178,-141
13.203,-270
13.228,-415
13.253,-596
13.278,-805
13.303,-1031
13.328,-1268
13.353,-1494
13.378,-1655
13.403,-1682
13.428,-1537
13.453,-1253
13.478,-911
13.503,-584
13.528,-301
13.553,-61
13.578,138
13.603,278
13.628,339
13.653,334
13.678,299
13.703,271
13.728,258
13.753,250
13.778,241
13.803,247
13.828,283
13.853,344
13.878,408
13.903,455
13.928,488
13.953,525
13.978,579
14.003,639
14.028,686
14.053,706
14.078,706
14.103,700
14.128,695
14.153,684
14.178,658
14.203,613
14.228,558
14.253,510
14.278,480
14.303,477
14.328,498
14.353,537
14.378,579
14.403,615
14.428,640
14.453,660
14.478,679
14.503,694
14.528,694
14.553,669
14.578,623
14.603,573
14.628,534
14.653,509
14.678,489
14.703,462
14.728,427
14.753,390
14.778,357
14.803,326
14.828,288
14.853,239
14.878,183
14.903,129
14.928,78
14.953,25
14.978,-38
15.003,-112
15.028,-183
15.053,-232
15.078,-243
15.103,-212
15.128,-151
15.153,-77
15.178,-9
15.203,43
15.228,84
15.253,120
15.278,155
15.303,189
15.328,217
15.353,232
15.378,234
15.403,227
15.428,218
15.453,212
15.478,209
15.503,203
15.528,187
15.553,154
15.578,108
15.603,59
15.628,16
15.653,-16
15.678,-45
15.703,-75
15.728,-107
15.753,-134
15.778,-151
15.803,-161
15.828,-167
15.853,-165
15.878,-137
15.903,-69
15.928,38
15.953,157
15.978,257
16.003,322
16.028,370
16.053,428
16.078,506
16.103,589
16.128,652
16.153,682
16.178,690
16.203,696
16.228,712
16.253,740
16.278,778
16.303,821
16.328,859
16.353,871
16.378,836
16.403,749
16.428,625
16.453,492
16.478,364
16.503,249
16.528,147
16.553,64
16.578,1
16.603,-52
16.628,-111
16.653,-172
16.678,-207
16.703,-188
16.728,-116
16.753,-31
16.778,22
16.803,41
16.828,62
16.853,124
16.878,223
16.903,311
16.928,337
16.953,293
16.978,221
17.003,173
17.028,174
17.053,215
17.078,266
17.103,309
17.128,339
17.153,363
17.178,391
17.203,423
17.228,453
17.253,471
17.278,466
17.303,439
17.328,397
17.353,349
17.378,289
17.403,203
17.428,81
17.453,-68
17.478,-215
17.503,-321
17.528,-354
17.553,-302
17.578,-178
17.603,-12
17.628,160
17.653,313
17.678,435
17.703,521
17.728,568
17.753,570
17.778,533
17.803,478
17.828,437
17.853,429
17.878,446
17.903,465
17.928,467
17.953,447
17.978,408
18.003,350
18.028,269
18.053,172
18.078,84
18.103,24
18.128,-12
18.153,-56
18.178,-134
18.203,-237
18.228,-321
18.253,-339
18.278,-271
18.303,-137
18.328,23
18.353,180
18.378,320
18.403,444
18.428,555
18.453,644
18.478,696
18.503,699
18.528,656
18.553,590
18.578,530
18.603,495
18.628,477
18.653,456
18.678,417
18.703,364
18.728,308
18.753,259
18.778,216
18.803,177
18.828,144
18.853,114
18.878,83
18.903,46
18.928,13
18.953,9
18.978,56
19.003,149
19.028,254
19.053,337
19.078,390
19.103,429
19.128,468
19.153,503
19.178,512
19.203,486
19.228,440
19.253,397
19.278,371
19.303,356
19.328,340
19.353,315
19.378,283
19.403,240
19.428,180
19.453,105
19.478,22
19.503,-56
19.528,-132
19.553,-210
19.578,-288
19.603,-339
19.628,-331
19.653,-255
19.678,-134
19.703,-14
19.728,77
19.753,144
19.778,208
19.803,280
19.828,348
19.853,396
19.878,418
19.903,422
19.928,424
19.953,429
19.978,432
20.003,429
20.028,418
20.053,399
20.078,371
20.103,334
20.128,293
20.153,250
20.178,201
20.203,138
20.228,57
20.253,-18
20.278,-52
20.303,-16
20.328,81
20.353,199
20.378,296
20.403,358
20.428,402
20.453,451
20.478,506
20.503,550
20.528,564
20.553,546
20.578,510
20.603,474
20.628,443
20.653,413
20.678,381
20.703,344
20.728,301
20.753,251
20.778,194
20.803,135
20.828,74
20.853,10
20.878,-62
20.903,-138
20.928,-204
20.953,-240
20.978,-237
21.003,-198
21.028,-135
21.053,-61
21.078,23
21.103,118
21.128,222
21.153,323
21.178,404
21.203,450
21.228,457
21.253,437
21.278,410
21.303,395
21.328,397
21.353,404
21.378,403
21.403,383
21.428,349
21.453,305
21.478,254
21.503,196
21.528,133
21.553,68
21.578,6
21.603,-57
21.628,-128
21.653,-202
21.678,-255
21.703,-257
21.728,-187
21.753,-55
21.778,104
21.803,256
21.828,378
21.853,472
21.878,547
21.903,609
21.928,653
21.953,669
21.978,654
22.003,619
22.028,580
22.053,550
22.078,530
22.103,510
22.128,480
22.153,438
22.178,388
22.203,338
22.228,290
22.253,240
22.278,181
22.303,111
22.328,37
22.353,-33
22.378,-97
22.403,-161
22.428,-231
22.453,-306
22.478,-370
22.503,-396
22.528,-360
22.553,-259
22.578,-114
22.603,36
22.628,166
22.653,268
22.678,352
22.703,431
22.728,501
22.753,551
22.778,572
22.803,571
22.828,562
22.853,562
22.878,571
22.903,580
22.928,578
22.953,563
22.978,539
23.003,512
23.028,485
23.053,452
23.078,411
23.103,363
23.128,313
23.153,261
23.178,205
23.203,142
23.228,77
23.253,17
23.278,-35
23.303,-91
23.328,-162
23.353,-252
23.378,-339
23.403,-388
23.428,-370
23.453,-285
23.478,-159
23.503,-29
23.528,80
23.553,173
23.578,260
23.603,352
23.628,443
23.653,518
23.678,563
23.703,579
23.728,579
23.753,580
23.778,587
23.803,594
23.828,590
23.853,570
23.878,541
23.903,515
23.928,497
23.953,478
23.978,444
24.003,386
24.028,312
24.053,240
24.078,180
24.103,133
24.128,87
24.153,33
24.178,-28
24.203,-89
24.228,-141
24.253,-189
24.278,-245
24.303,-316
24.328,-389
24.353,-434
24.378,-421
24.403,-339
24.428,-208
24.453,-67
24.478,53
24.503,149
24.528,232
24.553,317
24.578,403
24.603,474
24.628,520
24.653,543
24.678,558
24.703,578
24.728,608
24.753,642
24.778,670
24.803,684
24.828,683
24.853,668
24.878,642
24.903,609
24.928,574
24.953,533
24.978,484
25.003,423
25.028,354
25.053,285
25.078,220
25.103,158
25.128,92
25.153,24
25.178,-40
25.203,-95
25.228,-147
25.253,-208
25.278,-282
25.303,-349
25.328,-371
25.353,-321
25.378,-206
25.403,-65
25.428,56
25.453,140
25.478,198
25.503,254
25.528,320
25.553,385
25.578,434
25.603,461
25.628,476
25.653,493
25.678,517
25.703,545
25.728,568
25.753,578
25.778,572
25.803,549
25.828,516
25.853,479
25.878,442
25.903,405
25.928,362
25.953,311
25.978,253
26.003,192
26.028,128
26.053,62
26.078,-2
26.103,-61
26.128,-114
26.153,-170
26.178,-237
26.203,-304
26.228,-341
26.253,-315
26.278,-218
26.303,-81
26.328,50
26.353,148
26.378,220
26.403,287
26.428,362
26.453,433
26.478,478
26.503,495
26.528,498
26.553,507
26.578,528
26.603,550
26.628,560
26.653,554
26.678,536
26.703,511
26.728,478
26.753,434
26.778,382
26.803,330
26.828,284
26.853,242
26.878,199
26.903,155
26.928,112
26.953,67
26.978,17
27.003,-44
27.028,-109
27.053,-154
27.078,-154
27.103,-101
27.128,-9
27.153,88
27.178,168
27.203,225
27.228,270
27.253,315
27.278,362
27.303,398
27.328,414
27.353,412
27.378,404
27.403,403
27.428,410
27.453,420
27.478,424
27.503,417
27.528,400
27.553,376
27.578,345
27.603,309
27.628,269
27.653,226
27.678,182
27.703,134
27.728,84
27.753,35
27.778,-13
27.803,-68
27.828,-136
27.853,-215
27.878,-284
27.903,-312
27.928,-278
27.953,-184
27.978,-59
28.003,64
28.028,168
28.053,253
28.078,333
28.103,409
28.128,475
28.153,519
28.178,537
28.203,539
28.228,537
28.253,542
28.278,551
28.303,559
28.328,556
28.353,540
28.378,513
28.403,480
28.428,442
28.453,400
28.478,355
28.503,308
28.528,261
28.553,208
28.578,148
28.603,82
28.628,17
28.653,-41
28.678,-98
28.703,-163
28.728,-242
28.753,-318
28.778,-359
28.803,-335
28.828,-243
28.853,-110
28.878,22
28.903,130
28.928,216
28.953,294
28.978,376
29.003,454
29.028,515
29.053,549
29.078,560
29.103,563
29.128,568
29.153,578
29.178,587
29.203,588
29.228,575
29.253,552
29.278,524
29.303,495
29.328,463
29.353,422
29.378,371
29.403,314
29.428,262
29.453,217
29.478,172
29.503,117
29.528,50
29.553,-15
29.578,-73
29.603,-124
29.628,-186
29.653,-268
29.678,-351
29.703,-398
29.728,-375
29.753,-281
29.778,-150
29.803,-24
29.828,74
29.853,153
29.878,234
29.903,325
29.928,416
29.953,487
29.978,530
30.003,550
30.028,563
30.053,580
30.078,602
30.103,620
30.128,627
30.153,620
30.178,600
30.203,574
30.228,544
30.253,511
30.278,474
30.303,432
30.328,384
30.353,331
30.378,277
30.403,223
30.428,172
30.453,120
30.478,66
30.503,9
30.528,-48
30.553,-105
30.578,-162
30.603,-228
30.628,-301
30.653,-369
30.678,-406
30.703,-388
30.728,-310
30.753,-194
30.778,-73
30.803,28
30.828,110
30.853,187
30.878,272
30.903,361
30.928,439
30.953,489
30.978,511
31.003,520
31.028,531
31.053,550
31.078,574
31.103,594
31.128,601
31.153,599
31.178,590
31.203,578
31.228,561
31.253,534
31.278,498
31.303,455
31.328,412
31.353,370
31.378,326
31.403,276
31.428,223
31.453,171
31.478,121
31.503,73
31.528,22
31.553,-31
31.578,-85
31.603,-137
31.628,-194
31.653,-259
31.678,-326
31.703,-370
31.728,-361
31.753,-289
31.778,-172
31.803,-49
31.828,52
31.853,131
31.878,203
31.903,283
31.928,371
31.953,447
31.978,496
32.003,519
32.028,529
32.053,541
32.078,558
32.103,577
32.128,589
32.153,593
32.178,589
32.203,578
32.228,559
32.253,533
32.278,501
32.303,466
32.328,430
32.353,393
32.378,353
32.403,310
32.428,264
32.453,218
32.478,172
32.503,124
32.528,71
32.553,17
32.578,-34
32.603,-84
32.628,-136
32.653,-196
32.678,-262
32.703,-324
32.728,-358
32.753,-344
32.778,-276
32.803,-170
32.828,-52
32.853,53
32.878,140
32.903,217
32.928,295
32.953,373
32.978,441
33.003,487
33.028,511
33.053,526
33.078,544
33.103,567
33.128,586
33.153,592
33.178,584
33.203,570
33.228,555
33.253,536
33.278,508
33.303,472
33.328,431
33.353,389
33.378,347
33.403,302
33.428,253
33.453,203
33.478,153
33.503,102
33.528,48
33.553,-5
33.578,-56
33.603,-109
33.628,-170
33.653,-241
33.678,-306
33.703,-336
33.728,-308
33.753,-222
33.778,-109
33.803,-2
33.828,82
33.853,152
33.878,225
33.903,305
33.928,384
33.953,445
33.978,481
34.003,497
34.028,509
34.053,525
34.078,545
34.103,562
34.128,569
34.153,564
34.178,549
34.203,529
34.228,504
34.253,473
34.278,438
34.303,399
34.328,358
34.353,316
34.378,272
34.403,228
34.428,185
34.453,140
34.478,92
34.503,42
34.528,-7
34.553,-55
34.578,-106
34.603,-166
34.628,-231
34.653,-277
34.678,-278
34.703,-218
34.728,-114
34.753,-1
34.778,88
34.803,153
34.828,214
34.853,286
34.878,367
34.903,434
34.928,470
34.953,478
34.978,478
35.003,484
35.028,497
35.053,510
35.078,512
35.103,503
35.128,486
35.153,466
35.178,440
35.203,409
35.228,372
35.253,330
35.278,287
35.303,244
35.328,203
35.353,163
35.378,121
35.403,76
35.428,29
35.453,-15
35.478,-60
35.503,-110
35.528,-164
35.553,-209
35.578,-219
35.603,-178
35.628,-90
35.653,16
35.678,113
35.703,189
35.728,252
35.753,314
35.778,378
35.803,435
35.828,472
35.853,487
35.878,489
35.903,491
35.928,500
35.953,511
35.978,519
36.003,515
36.028,499
36.053,474
36.078,446
36.103,415
36.128,379
36.153,335
36.178,284
36.203,233
36.228,186
36.253,142
36.278,96
36.303,46
36.328,-1
36.353,-44
36.378,-88
36.403,-142
36.428,-201
36.453,-240
36.478,-230
36.503,-158
36.528,-46
36.553,67
36.578,157
36.603,221
36.628,276
36.653,334
36.678,389
36.703,427
36.728,444
36.753,447
36.778,450
36.803,461
36.828,477
36.853,490
36.878,492
36.903,481
36.928,461
36.953,435
36.978,408
37.003,379
37.028,345
37.053,308
37.078,269
37.103,230
37.128,193
37.153,152
37.178,105
37.203,57
37.228,10
37.253,-39
37.278,-98
37.303,-168
37.328,-231
37.353,-258
37.378,-226
37.403,-141
37.428,-33
37.453,64
37.478,139
37.503,202
37.528,268
37.553,342
37.578,414
37.603,468
37.628,499
37.653,511
37.678,514
37.703,516
37.728,518
37.753,520
37.778,517
37.803,507
37.828,489
37.853,466
37.878,438
37.903,405
37.928,365
37.953,318
37.978,271
38.003,227
38.028,186
38.053,141
38.078,90
38.103,36
38.128,-12
38.153,-58
38.178,-111
38.203,-176
38.228,-242
38.253,-285
38.278,-279
38.303,-218
38.328,-121
38.353,-18
38.378,70
38.403,142
38.428,211
38.453,288
38.478,374
38.503,456
38.528,517
38.553,547
38.578,553
38.603,550
38.628,552
38.653,561
38.678,570
38.703,568
38.728,551
38.753,523
38.778,488
38.803,451
38.828,412
38.853,371
38.878,329
38.903,287
38.928,242
38.953,194
38.978,143
39.003,93
39.028,45
39.053,0
39.078,-49
39.103,-107
39.128,-175
39.153,-244
39.178,-296
39.203,-308
39.228,-269
39.253,-185
39.278,-77
39.303,26
39.328,111
39.353,182
39.378,251
39.403,328
39.428,407
39.453,470
39.478,508
39.503,524
39.528,529
39.553,536
39.578,547
39.603,556
39.628,558
39.653,549
39.678,533
39.703,510
39.728,482
39.753,447
39.778,408
39.803,365
39.828,320
39.853,274
39.878,226
39.903,176
39.928,122
39.953,68
39.978,17
40.003,-32
40.028,-85
40.053,-145
40.078,-212
40.103,-271
40.128,-298
40.153,-274
40.178,-200
40.203,-96
40.228,5
40.253,88
40.278,157
40.303,225
40.328,305
40.353,386
40.378,453
40.403,492
40.428,508
40.453,516
40.478,528
40.503,543
40.528,555
40.553,557
40.578,547
40.603,530
40.628,507
40.653,480
40.678,447
40.703,409
40.728,367
40.753,321
40.778,275
40.803,229
40.828,184
40.853,139
40.878,91
40.903,40
40.928,-8
40.953,-56
40.978,-108
41.003,-169
41.028,-231
41.053,-274
41.078,-269
41.103,-208
41.128,-108
41.153,-1
41.178,87
41.203,160
41.228,231
41.253,311
41.278,392
41.303,457
41.328,499
41.353,522
41.378,536
41.403,549
41.428,559
41.453,561
41.478,556
41.503,545
41.528,527
41.553,502
41.578,472
41.603,439
41.628,408
41.653,373
41.678,332
41.703,284
41.728,231
41.753,178
41.778,126
41.803,71
41.828,16
41.853,-38
41.878,-91
41.903,-151
41.928,-219
41.953,-284
41.978,-316
42.003,-290
42.028,-207
42.053,-95
42.078,9
42.103,90
42.128,158
42.153,230
42.178,311
42.203,388
42.228,441
42.253,466
42.278,473
42.303,478
42.328,490
42.353,506
42.378,516
42.403,517
42.428,507
42.453,488
42.478,462
42.503,432
42.528,398
42.553,362
42.578,325
42.603,286
42.628,243
42.653,197
42.678,149
42.703,100
42.728,52
42.753,5
42.778,-45
42.803,-104
42.828,-167
42.853,-215
42.878,-222
42.903,-174
42.928,-82
42.953,26
42.978,121
43.003,195
43.028,257
43.053,324
43.078,395
43.103,456
43.128,492
43.153,499
43.178,492
43.203,486
43.228,491
43.253,499
43.278,502
43.303,491
43.328,468
43.353,439
43.378,409
43.403,381
43.428,350
43.453,315
43.478,273
43.503,225
43.528,176
43.553,127
43.578,80
43.603,35
43.628,-10
43.653,-60
43.678,-116
43.703,-171
43.728,-209
43.753,-209
43.778,-159
43.803,-70
43.828,29
43.853,117
43.878,185
43.903,242
43.928,303
43.953,368
43.978,425
44.003,459
44.028,467
44.053,462
44.078,459
44.103,462
44.128,470
44.153,471
44.178,463
44.203,443
44.228,417
44.253,388
44.278,358
44.303,325
44.328,286
44.353,241
44.378,194
44.403,155
44.428,122
44.453,88
44.478,38
44.503,-24
44.528,-82
44.553,-104
44.578,-74
44.603,-2
44.628,81
44.653,155
44.678,211
44.703,259
44.728,309
44.753,355
44.778,388
44.803,399
44.828,393
44.853,380
44.878,370
44.903,367
44.928,367
44.953,366
44.978,355
45.003,333
45.028,301
45.053,262
45.078,220
45.103,177
45.128,132
45.153,86
45.178,39
45.203,-9
45.228,-63
45.253,-116
45.278,-148
45.303,-137
45.328,-74
45.353,22
45.378,119
45.403,190
45.428,240
45.453,289
45.478,353
45.503,422
45.528,466
45.553,473
45.578,455
45.603,439
45.628,440
45.653,451
45.678,451
45.703,433
45.728,405
45.753,378
45.778,353
45.803,316
45.828,262
45.853,198
45.878,137
45.903,79
45.928,14
45.953,-59
45.978,-120
46.003,-134
46.028,-83
46.053,15
46.078,120
46.103,195
46.128,238
46.153,273
46.178,321
46.203,381
46.228,430
46.253,448
46.278,439
46.303,423
46.328,418
46.353,422
46.378,423
46.403,410
46.428,383
46.453,350
46.478,316
46.503,276
46.528,227
46.553,173
46.578,122
46.603,76
46.628,26
46.653,-39
46.678,-114
46.703,-172
46.728,-180
46.753,-127
46.778,-31
46.803,71
46.828,155
46.853,219
46.878,278
46.903,341
46.928,404
46.953,450
46.978,470
47.003,469
47.028,462
47.053,458
47.078,458
47.103,455
47.128,441
47.153,416
47.178,383
47.203,344
47.228,301
47.253,252
47.278,199
47.303,143
47.328,87
47.353,34
47.378,-20
47.403,-85
47.428,-156
47.453,-216
47.478,-238
47.503,-203
47.528,-119
47.553,-12
47.578,84
47.603,160
47.628,223
47.653,291
47.678,366
47.703,437
47.728,484
47.753,500
47.778,497
47.803,493
47.828,497
47.853,506
47.878,511
47.903,504
47.928,486
47.953,462
47.978,435
48.003,403
48.028,365
48.053,321
48.078,274
48.103,225
48.128,174
48.153,120
48.178,66
48.203,15
48.228,-38
48.253,-100
48.278,-171
48.303,-235
48.328,-261
48.353,-230
48.378,-143
48.403,-32
48.428,69
48.453,148
48.478,215
48.503,289
48.528,374
48.553,455
48.578,513
48.603,542
48.628,551
48.653,555
48.678,559
48.703,562
48.728,559
48.753,546
48.778,525
48.803,500
48.828,473
48.853,442
48.878,405
48.903,362
48.928,312
48.953,258
48.978,206
49.003,157
49.028,109
49.053,58
49.078,6
49.103,-42
49.128,-87
49.153,-135
49.178,-193
49.203,-258
49.228,-306
49.253,-312
49.278,-260
49.303,-165
49.328,-57
49.353,39
49.378,119
49.403,195
49.428,279
49.453,367
49.478,442
49.503,492
49.528,517
49.553,527
49.578,535
49.603,547
49.628,560
49.653,565
49.678,558
49.703,541
49.728,516
49.753,488
49.778,459
49.803,425
49.828,384
49.853,336
49.878,286
49.903,238
49.928,192
49.953,144
49.978,92
50.003,40
50.028,-7
50.053,-55
50.078,-110
50.103,-174
50.128,-231
50.153,-252
50.178,-218
50.203,-132
50.228,-24
50.253,73
50.278,149
50.303,214
50.328,286
50.353,366
50.378,438
50.403,484
50.428,500
50.453,501
50.478,503
50.503,514
50.528,525
50.553,528
50.578,518
50.603,496
50.628,469
50.653,439
50.678,404
50.703,363
50.728,318
50.753,271
50.778,226
50.803,183
50.828,138
50.853,90
50.878,41
50.903,-6
50.928,-54
50.953,-107
50.978,-167
51.003,-224
51.028,-256
51.053,-238
51.078,-167
51.103,-64
51.128,37
51.153,118
51.178,184
51.203,250
51.228,326
51.253,399
51.278,452
51.303,473
51.328,476
51.353,476
51.378,485
51.403,497
51.428,504
51.453,502
51.478,492
51.503,476
51.528,451
51.553,414
51.578,370
51.603,326
51.628,285
51.653,242
51.678,195
51.703,145
51.728,98
51.753,56
51.778,9
51.803,-48
51.828,-107
51.853,-139
51.878,-121
51.903,-50
51.928,44
51.953,131
51.978,195
52.003,245
52.028,298
52.053,356
52.078,406
52.103,431
52.128,429
52.153,416
52.178,409
52.203,415
52.228,425
52.253,425
52.278,410
52.303,383
52.328,353
52.353,322
52.378,288
52.403,247
52.428,200
52.453,152
52.478,104
52.503,52
52.528,-11
52.553,-82
52.578,-142
52.603,-163
52.628,-128
52.653,-45
52.678,55
52.703,144
52.728,211
52.753,268
52.778,329
52.803,394
52.828,448
52.853,473
52.878,469
52.903,453
52.928,443
52.953,445
52.978,447
53.003,435
53.028,406
53.053,368
53.078,330
53.103,292
53.128,250
53.153,198
53.178,143
53.203,92
53.228,43
53.253,-13
53.278,-84
53.303,-155
53.328,-197
53.353,-183
53.378,-111
53.403,-11
53.428,85
53.453,161
53.478,223
53.503,288
53.528,359
53.553,423
53.578,462
53.603,473
53.628,468
53.653,461
53.678,461
53.703,462
53.728,456
53.753,437
53.778,409
53.803,377
53.828,341
53.853,299
53.878,251
53.903,198
53.928,144
53.953,92
53.978,38
54.003,-24
54.028,-97
54.053,-164
54.078,-200
54.103,-180
54.128,-105
54.153,0
54.178,104
54.203,188
54.228,256
54.253,323
54.278,393
54.303,455
54.328,490
54.353,495
54.378,480
54.403,466
54.428,461
54.453,463
54.478,460
54.503,446
54.528,419
54.553,383
54.578,342
54.603,298
54.628,249
54.653,195
54.678,135
54.703,76
54.728,22
54.753,-24
54.778,-71
54.803,-130
54.828,-199
54.853,-258
54.878,-275
54.903,-230
54.928,-132
54.953,-14
54.978,89
55.003,168
55.028,235
55.053,311
55.078,397
55.103,476
55.128,528
55.153,547
55.178,548
55.203,550
55.228,562
55.253,574
55.278,574
55.303,561
55.328,542
55.353,523
55.378,503
55.403,472
55.428,430
55.453,385
55.478,342
55.503,303
55.528,257
55.553,199
55.578,135
55.603,73
55.628,13
55.653,-54
55.678,-137
55.703,-219
55.728,-265
55.753,-247
55.778,-168
55.803,-64
55.828,25
55.853,84
55.878,128
55.903,183
55.928,256
55.953,329
55.978,377
56.003,392
56.028,388
56.053,388
56.078,400
56.103,418
56.128,427
56.153,424
56.178,416
56.203,408
56.228,396
56.253,374
56.278,336
56.303,291
56.328,248
56.353,209
56.378,166
56.403,114
56.428,58
56.453,7
56.478,-35
56.503,-82
56.528,-142
56.553,-204
56.578,-235
56.603,-208
56.628,-122
56.653,-9
56.678,92
56.703,168
56.728,230
56.753,297
56.778,374
56.803,446
56.828,495
56.853,516
56.878,519
56.903,519
56.928,523
56.953,531
56.978,538
57.003,541
57.028,533
57.053,513
57.078,483
57.103,446
57.128,409
57.153,370
57.178,327
57.203,279
57.228,226
57.253,173
57.278,121
57.303,70
57.328,21
57.353,-27
57.378,-79
57.403,-137
57.428,-195
57.453,-235
57.478,-231
57.503,-173
57.528,-74
57.553,34
57.578,125
57.603,192
57.628,251
57.653,313
57.678,377
57.703,426
57.728,452
57.753,460
57.778,465
57.803,473
57.828,481
57.853,481
57.878,472
57.903,459
57.928,443
57.953,420
57.978,385
58.003,339
58.028,292
58.053,248
58.078,205
58.103,159
58.128,113
58.153,70
58.178,28
58.203,-21
58.228,-83
58.253,-141
58.278,-165
58.303,-133
58.328,-50
58.353,51
58.378,138
58.403,198
58.428,246
58.453,302
58.478,367
58.503,424
58.528,454
58.553,456
58.578,443
58.603,436
58.628,440
58.653,446
58.678,442
58.703,420
58.728,385
58.753,347
58.778,309
58.803,266
58.828,216
58.853,163
58.878,114
58.903,70
58.928,23
58.953,-35
58.978,-102
59.003,-151
59.028,-152
59.053,-97
59.078,-4
59.103,92
59.128,168
59.153,224
59.178,274
59.203,330
59.228,385
59.253,425
59.278,440
59.303,435
59.328,427
59.353,426
59.378,431
59.403,432
59.428,421
59.453,396
59.478,363
59.503,329
59.528,294
59.553,257
59.578,216
59.603,170
59.628,122
59.653,67
59.678,3
59.703,-62
59.728,-110
59.753,-118
59.778,-74
59.803,6
59.828,96
59.853,169
59.878,224
59.903,274
59.928,334
59.953,401
59.978,455
60.003,479
60.028,474
60.053,456
60.078,443
60.103,440
60.128,439
60.153,428
60.178,402
60.203,366
60.228,325
60.253,281
60.278,233
60.303,178
60.328,123
60.353,72
60.378,19
60.403,-45
60.428,-122
60.453,-192
60.478,-221
60.503,-185
60.528,-93
60.553,20
60.578,120
60.603,195
60.628,257
60.653,324
60.678,396
60.703,456
60.728,485
60.753,486
60.778,474
60.803,467
60.828,470
60.853,474
60.878,471
60.903,453
60.928,423
60.953,385
60.978,344
61.003,301
61.028,256
61.053,206
61.078,152
61.103,98
61.128,45
61.153,-9
61.178,-74
61.203,-150
61.228,-218
61.253,-245
61.278,-207
61.303,-109
61.328,14
61.353,125
61.378,209
61.403,274
61.428,340
61.453,412
61.478,475
61.503,516
61.528,530
61.553,531
61.578,529
61.603,530
61.628,528
61.653,520
61.678,504
61.703,482
61.728,452
61.753,414
61.778,367
61.803,318
61.828,269
61.853,219
61.878,163
61.903,102
61.928,42
61.953,-12
61.978,-64
62.003,-124
62.028,-198
62.053,-273
62.078,-320
62.103,-310
62.128,-237
62.153,-124
62.178,-5
62.203,94
62.228,175
62.253,251
62.278,331
62.303,410
62.328,471
62.353,503
62.378,510
62.403,510
62.428,513
62.453,521
62.478,525
62.503,517
62.528,497
62.553,470
62.578,440
62.603,406
62.628,367
62.653,324
62.678,279
62.703,232
62.728,182
62.753,128
62.778,76
62.803,27
62.828,-19
62.853,-75
62.878,-142
62.903,-202
62.928,-224
62.953,-185
62.978,-88
63.003,32
63.028,140
63.053,220
63.078,284
63.103,352
63.128,427
63.153,494
63.178,535
63.203,543
63.228,532
63.253,522
63.278,521
63.303,523
63.328,516
63.353,497
63.378,468
63.403,438
63.428,409
63.453,377
63.478,338
63.503,292
63.528,246
63.553,200
63.578,154
63.603,104
63.628,51
63.653,2
63.678,-40
63.703,-86
63.728,-144
63.753,-211
63.778,-263
63.803,-267
63.828,-207
63.853,-101
63.878,12
63.903,107
63.928,182
63.953,249
63.978,321
64.003,390
64.028,441
64.053,467
64.078,473
64.103,471
64.128,471
64.153,471
64.178,470
64.203,464
64.228,451
64.253,428
64.278,398
64.303,365
64.328,331
64.353,294
64.378,248
64.403,195
64.428,143
64.453,98
64.478,56
64.503,2
64.528,-64
64.553,-126
64.578,-151
64.603,-117
64.628,-35
64.653,57
64.678,133
64.703,188
64.728,240
64.753,302
64.778,367
64.803,415
64.828,432
64.853,426
64.878,414
64.903,412
64.928,418
64.953,422
64.978,413
65.003,394
65.028,368
65.053,339
65.078,307
65.103,271
65.128,234
65.153,200
65.178,165
65.203,120
65.228,58
65.253,-13
65.278,-72
65.303,-90
65.328,-56
65.353,16
65.378,98
65.403,162
65.428,203
65.453,233
65.478,269
65.503,313
65.528,354
65.553,379
65.578,384
65.603,382
65.628,386
65.653,402
65.678,420
65.703,425
65.728,410
65.753,378
65.778,337
65.803,293
65.828,245
65.853,192
65.878,138
65.903,87
65.928,33
65.953,-28
65.978,-98
66.003,-154
66.028,-166
66.053,-116
66.078,-19
66.103,89
66.128,178
66.153,239
66.178,290
66.203,349
66.228,416
66.253,472
66.278,500
66.303,497
66.328,477
66.353,457
66.378,447
66.403,442
66.428,433
66.453,411
66.478,378
66.503,337
66.528,293
66.553,243
66.578,188
66.603,130
66.628,75
66.653,21
66.678,-38
66.703,-110
66.728,-184
66.753,-230
66.778,-216
66.803,-136
66.828,-17
66.853,97
66.878,184
66.903,249
66.928,312
66.953,387
66.978,461
67.003,513
67.028,529
67.053,521
67.078,505
67.103,497
67.128,495
67.153,492
67.178,479
67.203,453
67.228,414
67.253,369
67.278,320
67.303,270
67.328,215
67.353,155
67.378,92
67.403,32
67.428,-25
67.453,-87
67.478,-162
67.503,-237
67.528,-282
67.553,-268
67.578,-188
67.603,-70
67.628,45
67.653,135
67.678,206
67.703,279
67.728,363
67.753,448
67.778,511
67.803,539
67.828,542
67.853,536
67.878,534
67.903,539
67.928,540
67.953,531
67.978,511
68.003,483
68.028,449
68.053,410
68.078,364
68.103,313
68.128,261
68.153,212
68.178,162
68.203,109
68.228,53
68.253,-1
68.278,-52
68.303,-107
68.328,-175
68.353,-255
68.378,-325
68.403,-347
68.428,-296
68.453,-183
68.478,-48
68.503,68
68.528,152
68.553,224
68.578,304
68.603,395
68.628,479
68.653,535
68.678,558
68.703,562
68.728,564
68.753,570
68.778,575
68.803,575
68.828,564
68.853,545
68.878,519
68.903,489
68.928,453
68.953,412
68.978,364
69.003,312
69.028,257
69.053,203
69.078,151
69.103,96
69.128,36
69.153,-23
69.178,-78
69.203,-127
69.228,-181
69.253,-248
69.278,-317
69.303,-356
69.328,-335
69.353,-246
69.378,-117
69.403,10
69.428,112
69.453,193
69.478,271
69.503,357
69.528,442
69.553,507
69.578,544
69.603,559
69.628,566
69.653,575
69.678,587
69.703,595
69.728,594
69.753,584
69.778,564
69.803,537
69.828,504
69.853,469
69.878,432
69.903,394
69.928,350
69.953,302
69.978,251
70.003,202
70.028,154
70.053,105
70.078,52
70.103,-2
70.128,-53
70.153,-103
70.178,-158
70.203,-223
70.228,-291
70.253,-333
70.278,-320
70.303,-244
70.328,-125
70.353,-2
70.378,97
70.403,171
70.428,239
70.453,314
70.478,395
70.503,461
70.528,497
70.553,504
70.578,498
70.603,497
70.628,507
70.653,520
70.678,528
70.703,522
70.728,506
70.753,482
70.778,454
70.803,421
70.828,383
70.853,340
70.878,295
70.903,251
70.928,208
70.953,166
70.978,121
71.003,76
71.028,29
71.053,-21
71.078,-81
71.103,-148
71.128,-206
71.153,-226
71.178,-188
71.203,-98
71.228,13
71.253,111
71.278,182
71.303,238
71.328,299
71.353,367
71.378,427
71.403,459
71.428,463
71.453,457
71.478,457
71.503,467
71.528,476
71.553,473
71.578,458
71.603,435
71.628,406
71.653,372
71.678,331
71.703,289
71.728,249
71.753,209
71.778,163
71.803,112
71.828,62
71.853,15
71.878,-33
71.903,-91
71.928,-149
71.953,-180
71.978,-154
72.003,-71
72.028,40
72.053,140
72.078,211
72.103,264
72.128,319
72.153,380
72.178,432
72.203,457
72.228,457
72.253,450
72.278,451
72.303,460
72.328,465
72.353,457
72.378,437
72.403,412
72.428,383
72.453,348
72.478,305
72.503,255
72.528,202
72.553,151
72.578,101
72.603,56
72.628,11
72.653,-40
72.678,-106
72.703,-175
72.728,-221
72.753,-212
72.778,-138
72.803,-23
72.828,89
72.853,174
72.878,236
72.903,299
72.928,375
72.953,450
72.978,497
73.003,508
73.028,498
73.053,489
73.078,492
73.103,499
73.128,499
73.153,488
73.178,470
73.203,448
73.228,416
73.253,371
73.278,317
73.303,263
73.328,213
73.353,164
73.378,109
73.403,52
73.428,-2
73.453,-56
73.478,-120
73.503,-196
73.528,-265
73.553,-292
73.578,-251
73.603,-150
73.628,-27
73.653,79
73.678,157
73.703,222
73.728,296
73.753,381
73.778,460
73.803,513
73.828,535
73.853,536
73.878,533
73.903,536
73.928,544
73.953,551
73.978,549
74.003,535
74.028,510
74.053,474
74.078,433
74.103,389
74.128,343
74.153,295
74.178,242
74.203,179
74.228,106
74.253,26
74.278,-49
74.303,-114
74.328,-169
74.353,-228
74.378,-297
74.403,-364
74.428,-397
74.453,-365
74.478,-264
74.503,-125
74.528,8
74.553,112
74.578,191
74.603,267
74.628,355
74.653,444
74.678,516
74.703,559
74.728,576
74.753,584
74.778,595
74.803,610
74.828,624
74.853,631
74.878,626
74.903,609
74.928,585
74.953,559
74.978,532
75.003,500
75.028,462
75.053,418
75.078,372
75.103,329
75.128,287
75.153,243
75.178,191
75.203,135
75.228,80
75.253,28
75.278,-24
75.303,-82
75.328,-151
75.353,-231
75.378,-317
75.403,-398
75.428,-454
75.453,-458
75.478,-398
75.503,-281
75.528,-141
75.553,-13
75.578,86
75.603,167
75.628,250
75.653,341
75.678,431
75.703,500
75.728,538
75.753,552
75.778,561
75.803,577
75.828,598
75.853,615
75.878,618
75.903,606
75.928,583
75.953,554
75.978,523
76.003,489
76.028,452
76.053,415
76.078,378
76.103,340
76.128,300
76.153,254
76.178,207
76.203,158
76.228,109
76.253,55
76.278,0
76.303,-55
76.328,-105
76.353,-151
76.378,-206
76.403,-272
76.428,-332
76.453,-356
76.478,-317
76.503,-218
76.528,-90
76.553,29
76.578,124
76.603,202
76.628,281
76.653,366
76.678,447
76.703,505
76.728,534
76.753,541
76.778,545
76.803,557
76.828,577
76.853,595
76.878,602
76.903,596
76.928,580
76.953,558
76.978,533
77.003,503
77.028,469
77.053,432
77.078,396
77.103,360
77.128,319
77.153,271
77.178,220
77.203,171
77.228,122
77.253,70
77.278,11
77.303,-48
77.328,-101
77.353,-145
77.378,-191
77.403,-250
77.428,-317
77.453,-366
77.478,-366
77.503,-303
77.528,-195
77.553,-73
77.578,34
77.603,121
77.628,198
77.653,276
77.678,358
77.703,435
77.728,493
77.753,525
77.778,535
77.803,538
77.828,548
77.853,566
77.878,582
77.903,584
77.928,572
77.953,554
77.978,537
78.003,518
78.028,489
78.053,450
78.078,408
78.103,369
78.128,331
78.153,289
78.178,242
78.203,196
78.228,153
78.253,111
78.278,63
78.303,10
78.328,-39
78.353,-79
78.378,-118
78.403,-169
78.428,-226
78.453,-260
78.478,-236
78.503,-151
78.528,-34
78.553,71
78.578,148
78.603,206
78.628,267
78.653,333
78.678,391
78.703,426
78.728,440
78.753,448
78.778,461
78.803,477
78.828,490
78.853,496
78.878,493
78.903,484
78.928,466
78.953,440
78.978,408
79.003,374
79.028,338
79.053,300
79.078,259
79.103,217
79.128,175
79.153,135
79.178,93
79.203,49
79.228,2
79.253,-51
79.278,-112
79.303,-170
79.328,-202
79.353,-182
79.378,-105
79.403,4
79.428,110
79.453,190
79.478,246
79.503,298
79.528,358
79.553,415
79.578,452
79.603,461
79.628,452
79.653,446
79.678,452
79.703,467
79.728,479
79.753,479
79.778,467
79.803,446
79.828,420
79.853,387
79.878,348
79.903,306
79.928,263
79.953,219
79.978,174
80.003,126
80.028,79
80.053,32
80.078,-14
80.103,-69
80.128,-131
80.153,-191
80.178,-226
80.203,-213
80.228,-145
80.253,-40
80.278,69
80.303,160
80.328,227
80.353,286
80.378,350
80.403,416
80.428,467
80.453,488
80.478,485
80.503,475
80.528,475
80.553,487
80.578,501
80.603,504
80.628,491
80.653,469
80.678,442
80.703,413
80.728,378
80.753,335
80.778,286
80.803,236
80.828,189
80.853,143
80.878,95
80.903,45
80.928,-4
80.953,-53
80.978,-108
81.003,-170
81.028,-234
81.053,-278
81.078,-273
81.103,-209
81.128,-100
81.153,18
81.178,118
81.203,193
81.228,260
81.253,334
81.278,413
81.303,479
81.328,518
81.353,529
81.378,529
81.403,533
81.428,543
81.453,553
81.478,556
81.503,550
81.528,534
81.553,510
81.578,478
81.603,440
81.628,400
81.653,360
81.678,318
81.703,273
81.728,224
81.753,173
81.778,123
81.803,72
81.828,20
81.853,-31
81.878,-83
81.903,-138
81.928,-199
81.953,-265
81.978,-318
82.003,-333
82.028,-291
82.053,-195
82.078,-75
82.103,36
82.128,125
82.153,199
82.178,272
82.203,353
82.228,432
82.253,492
82.278,526
82.303,539
82.328,546
82.353,556
82.378,572
82.403,586
82.428,591
82.453,587
82.478,573
82.503,552
82.528,524
82.553,488
82.578,448
82.603,408
82.628,370
82.653,331
82.678,287
82.703,239
82.728,189
82.753,140
82.778,93
82.803,43
82.828,-10
82.853,-64
82.878,-115
82.903,-167
82.928,-228
82.953,-298
82.978,-356
83.003,-371
83.028,-323
83.053,-221
83.078,-98
83.103,12
83.128,97
83.153,170
83.178,246
83.203,330
83.228,409
83.253,470
83.278,506
83.303,525
83.328,539
83.353,556
83.378,574
83.403,590
83.428,597
83.453,595
83.478,583
83.503,564
83.528,542
83.553,516
83.578,485
83.603,448
83.628,406
83.653,363
83.678,324
83.703,286
83.728,246
83.753,200
83.778,151
83.803,101
83.828,53
83.853,7
83.878,-36
83.903,-80
83.928,-128
83.953,-185
83.978,-247
84.003,-301
84.028,-322
84.053,-288
84.078,-202
84.103,-90
84.128,17
84.153,100
84.178,163
84.203,225
84.228,297
84.253,374
84.278,440
84.303,481
84.328,499
84.353,506
84.378,513
84.403,526
84.428,538
84.453,543
84.478,536
84.503,520
84.528,498
84.553,473
84.578,446
84.603,414
84.628,377
84.653,335
84.678,293
84.703,254
84.728,215
84.753,172
84.778,123
84.803,71
84.828,22
84.853,-20
84.878,-64
84.903,-116
84.928,-176
84.953,-229
84.978,-248
85.003,-215
85.028,-135
85.053,-31
85.078,66
85.103,144
85.128,209
85.153,273
85.178,340
85.203,402
85.228,447
85.253,472
85.278,486
85.303,497
85.328,511
85.353,524
85.378,531
85.403,533
85.428,527
85.453,516
85.478,496
85.503,469
85.528,438
85.553,404
85.578,367
85.603,326
85.628,282
85.653,239
85.678,196
85.703,152
85.728,105
85.753,57
85.778,10
85.803,-32
85.828,-80
85.853,-137
85.878,-196
85.903,-235
85.928,-227
85.953,-166
85.978,-72
86.003,24
86.028,100
86.053,156
86.078,209
86.103,269
86.128,335
86.153,389
86.178,418
86.203,426
86.228,427
86.253,435
86.278,453
86.303,473
86.328,480
86.353,471
86.378,451
86.403,428
86.428,405
86.453,379
86.478,347
86.503,308
86.528,270
86.553,235
86.578,201
86.603,162
86.628,119
86.653,76
86.678,34
86.703,-8
86.728,-59
86.753,-109
86.778,-133
86.803,-109
86.828,-39
86.853,50
86.878,129
86.903,183
86.928,226
86.953,275
86.978,334
87.003,385
87.028,410
87.053,411
87.078,406
87.103,410
87.128,423
87.153,433
87.178,431
87.203,419
87.228,403
87.253,385
87.278,359
87.303,326
87.328,289
87.353,254
87.378,223
87.403,190
87.428,152
87.453,113
87.478,72
87.503,27
87.528,-26
87.553,-82
87.578,-120
87.603,-114
87.628,-58
87.653,27
87.678,112
87.703,176
87.728,224
87.753,272
87.778,328
87.803,381
87.828,414
87.853,424
87.878,422
87.903,423
87.928,432
87.953,444
87.978,448
88.003,439
88.028,421
88.053,399
88.078,373
88.103,344
88.128,309
88.153,270
88.178,227
88.203,181
88.228,131
88.253,77
88.278,16
88.303,-52
88.328,-120
88.353,-172
88.378,-185
88.403,-146
88.428,-66
88.453,26
88.478,105
88.503,164
88.528,215
88.553,276
88.578,347
88.603,409
88.628,445
88.653,453
88.678,450
88.703,452
88.728,462
88.753,467
88.778,458
88.803,434
88.828,406
88.853,378
88.878,347
88.903,308
88.928,261
88.953,212
88.978,164
89.003,119
89.028,72
89.053,23
89.078,-26
89.103,-79
89.128,-138
89.153,-200
89.178,-245
89.203,-249
89.228,-198
89.253,-105
89.278,0
89.303,90
89.328,164
89.353,235
89.378,315
89.403,399
89.428,473
89.453,523
89.478,551
89.503,568
89.528,583
89.553,600
89.578,614
89.603,619
89.628,613
89.653,596
89.678,571
89.703,542
89.728,511
89.753,477
89.778,438
89.803,393
89.828,346
89.853,300
89.878,255
89.903,212
89.928,170
89.953,126
89.978,80
90.003,30
90.028,-22
90.053,-77
90.078,-130
90.103,-183
90.128,-242
90.153,-307
90.178,-363
90.203,-385
90.228,-354
90.253,-272
90.278,-164
90.303,-59
90.328,25
90.353,95
90.378,166
90.403,247
90.428,334
90.453,413
90.478,471
90.503,502
90.528,513
90.553,520
90.578,535
90.603,558
90.628,579
90.653,583
90.678,569
90.703,547
90.728,528
90.753,515
90.778,498
90.803,466
90.828,423
90.853,385
90.878,363
90.903,355
90.928,347
90.953,319
90.978,271
91.003,209
91.028,144
91.053,77
91.078,1
91.103,-86
91.128,-172
91.153,-231
91.178,-240
91.203,-191
91.228,-103
91.253,-9
91.278,68
91.303,126
91.328,180
91.353,246
91.378,323
91.403,395
91.428,440
91.453,448
91.478,428
91.503,398
91.528,374
91.553,361
91.578,356
91.603,353
91.628,348
91.653,342
91.678,338
91.703,331
91.728,317
91.753,290
91.778,251
91.803,211
91.828,176
91.853,147
91.878,114
91.903,73
91.928,32
91.953,4
91.978,-9
92.003,-23
92.028,-56
92.053,-107
92.078,-148
92.103,-145
92.128,-88
92.153,-3
92.178,71
92.203,117
92.228,149
92.253,195
92.278,270
92.303,357
92.328,428
92.353,467
92.378,483
92.403,496
92.428,521
92.453,551
92.478,574
92.503,578
92.528,567
92.553,546
92.578,522
92.603,492
92.628,459
92.653,424
92.678,390
92.703,352
92.728,302
92.753,232
92.778,147
92.803,57
92.828,-19
92.853,-75
92.878,-113
92.903,-142
92.928,-172
92.953,-206
92.978,-237
93.003,-249
93.028,-225
93.053,-162
93.078,-66
93.103,44
93.128,159
93.153,272
93.178,383
93.203,480
93.228,545
93.253,566
93.278,553
93.303,533
93.328,534
93.353,558
93.378,583
93.403,585
93.428,558
93.453,517
93.478,477
93.503,440
93.528,396
93.553,336
93.578,267
93.603,204
93.628,156
93.653,123
93.678,95
93.703,64
93.728,28
93.753,-16
93.778,-71
93.803,-130
93.828,-174
93.853,-181
93.878,-141
93.903,-63
93.928,22
93.953,94
93.978,150
94.003,205
94.028,269
94.053,338
94.078,391
94.103,413
94.128,409
94.153,397
94.178,395
94.203,406
94.228,417
94.253,417
94.278,405
94.303,388
94.328,371
94.353,357
94.378,342
94.403,326
94.428,308
94.453,283
94.478,246
94.503,196
94.528,141
94.553,93
94.578,53
94.603,12
94.628,-39
94.653,-96
94.678,-130
94.703,-119
94.728,-61
94.753,21
94.778,99
94.803,158
94.828,207
94.853,258
94.878,315
94.903,370
94.928,411
94.953,433
94.978,439
95.003,438
95.028,435
95.053,434
95.078,432
95.103,426
95.128,411
95.153,386
95.178,353
95.203,319
95.228,287
95.253,255
95.278,220
95.303,183
95.328,145
95.353,107
95.378,61
95.403,5
95.428,-52
95.453,-91
95.478,-89
95.503,-42
95.528,32
95.553,110
95.578,173
95.603,222
95.628,269
95.653,321
95.678,371
95.703,407
95.728,420
95.753,416
95.778,407
95.803,403
95.828,403
95.853,401
95.878,391
95.903,371
95.928,346
95.953,317
95.978,284
96.003,246
96.028,205
96.053,163
96.078,119
96.103,69
96.128,11
96.153,-41
96.178,-67
96.203,-47
96.228,12
96.253,90
96.278,159
96.303,212
96.328,255
96.353,301
96.378,349
96.403,386
96.428,399
96.453,392
96.478,378
96.503,372
96.528,374
96.553,374
96.578,363
96.603,342
96.628,318
96.653,290
96.678,257
96.703,216
96.728,172
96.753,128
96.778,82
96.803,30
96.828,-24
96.853,-63
96.878,-65
96.903,-21
96.928,54
96.953,131
96.978,192
97.003,238
97.028,283
97.053,332
97.078,373
97.103,394
97.128,390
97.153,375
97.178,363
97.203,358
97.228,354
97.253,344
97.278,329
97.303,307
97.328,277
97.353,237
97.378,191
97.403,145
97.428,99
97.453,48
97.478,-9
97.503,-59
97.528,-73
97.553,-33
97.578,50
97.603,142
97.628,214
97.653,261
97.678,299
97.703,344
97.728,392
97.753,424
97.778,431
97.803,418
97.828,398
97.853,382
97.878,371
97.903,359
97.928,345
97.953,324
97.978,294
98.003,253
98.028,205
98.053,158
98.078,109
98.103,53
98.128,-11
98.153,-71
98.178,-95
98.203,-66
98.228,10
98.253,102
98.278,179
98.303,237
98.328,288
98.353,346
98.378,405
98.403,449
98.428,464
98.453,456
98.478,440
98.503,426
98.528,415
98.553,401
98.578,381
98.603,355
98.628,324
98.653,283
98.678,233
98.703,177
98.728,121
98.753,65
98.778,3
98.803,-64
98.828,-126
98.853,-155
98.878,-132
98.903,-61
98.928,33
98.953,120
98.978,186
99.003,239
99.028,296
99.053,362
99.078,424
99.103,463
99.128,470
99.153,455
99.178,437
99.203,430
99.228,428
99.253,422
99.278,400
99.303,365
99.328,323
99.353,279
99.378,233
99.403,184
99.428,133
99.453,81
99.478,24
99.503,-39
99.528,-108
99.553,-161
99.578,-171
99.603,-125
99.628,-35
99.653,67
99.678,157
99.703,228
99.728,293
99.753,363
99.778,432
99.803,481
99.828,498
99.853,488
99.878,468
99.903,454
99.928,449
99.953,446
99.978,438
100.003,421
100.028,398
100.053,369
100.078,336
100.103,297
100.128,249
100.153,195
100.178,139
100.203,88
100.228,43
100.253,-2
100.278,-59
100.303,-128
100.328,-191
100.353,-218
100.378,-189
100.403,-108
100.428,-5
100.453,89
100.478,165
100.503,230
100.528,300
100.553,374
100.578,441
100.603,483
100.628,498
100.653,494
100.678,489
100.703,490
100.728,495
100.753,497
100.778,488
100.803,467
100.828,437
100.853,401
100.878,358
100.903,310
100.928,261
100.953,214
100.978,173
101.003,132
101.028,86
101.053,35
101.078,-17
101.103,-66
101.128,-112
101.153,-154
101.178,-188
101.203,-198
101.228,-167
101.253,-93
101.278,4
101.303,97
101.328,168
101.353,225
101.378,285
101.403,354
101.428,418
101.453,456
101.478,466
101.503,462
101.528,464
101.553,479
101.578,494
101.603,495
101.628,481
101.653,459
101.678,437
101.703,415
101.728,388
101.753,353
101.778,315
101.803,278
101.828,239
101.853,195
101.878,147
101.903,99
101.928,57
101.953,15
101.978,-35
102.003,-97
102.028,-156
102.053,-186
102.078,-168
102.103,-100
102.128,-6
102.153,86
102.178,161
102.203,220
102.228,278
102.253,342
102.278,403
102.303,444
102.328,457
102.353,448
102.378,438
102.403,443
102.428,459
102.453,472
102.478,470
102.503,454
102.528,431
102.553,408
102.578,381
102.603,347
102.628,305
102.653,261
102.678,221
102.703,181
102.728,136
102.753,89
102.778,43
102.803,-2
102.828,-54
102.853,-116
102.878,-177
102.903,-208
102.928,-185
102.953,-112
102.978,-17
103.003,68
103.028,133
103.053,188
103.078,251
103.103,322
103.128,387
103.153,429
103.178,445
103.203,449
103.228,453
103.253,465
103.278,477
103.303,484
103.328,480
103.353,468
103.378,447
103.403,420
103.428,387
103.453,351
103.478,315
103.503,277
103.528,236
103.553,189
103.578,140
103.603,94
103.628,52
103.653,9
103.678,-42
103.703,-104
103.728,-164
103.753,-197
103.778,-181
103.803,-116
103.828,-23
103.853,69
103.878,146
103.903,210
103.928,274
103.953,343
103.978,410
104.003,458
104.028,478
104.053,477
104.078,470
104.103,469
104.128,475
104.153,481
104.178,481
104.203,471
104.228,453
104.253,429
104.278,398
104.303,362
104.328,323
104.353,283
104.378,244
104.403,203
104.428,161
104.453,117
104.478,72
104.503,28
104.528,-19
104.553,-76
104.578,-138
104.603,-189
104.628,-204
104.653,-167
104.678,-87
104.703,8
104.728,93
104.753,159
104.778,218
104.803,282
104.828,351
104.853,410
104.878,443
104.903,451
104.928,450
104.953,454
104.978,465
105.003,472
105.028,468
105.053,455
105.078,438
105.103,421
105.128,398
105.153,367
105.178,329
105.203,288
105.228,250
105.253,212
105.278,172
105.303,131
105.328,90
105.353,47
105.378,-3
105.403,-60
105.428,-108
105.453,-123
105.478,-88
105.503,-14
105.528,72
105.553,146
105.578,201
105.603,250
105.628,303
105.653,356
105.678,397
105.703,414
105.728,414
105.753,410
105.778,412
105.803,420
105.828,426
105.853,425
105.878,414
105.903,394
105.928,365
105.953,331
105.978,294
106.003,254
106.028,211
106.053,167
106.078,127
106.103,89
106.128,48
106.153,-2
106.178,-60
106.203,-106
106.228,-115
106.253,-75
106.278,0
106.303,79
106.328,144
106.353,194
106.378,240
106.403,291
106.428,336
106.453,361
106.478,365
106.503,359
106.528,359
106.553,369
106.578,383
106.603,391
106.628,387
106.653,373
106.678,353
106.703,328
106.728,296
106.753,257
106.778,215
106.803,172
106.828,131
106.853,89
106.878,39
106.903,-14
106.928,-61
106.953,-82
106.978,-62
107.003,0
107.028,83
107.053,162
107.078,223
107.103,270
107.128,317
107.153,369
107.178,416
107.203,446
107.228,452
107.253,442
107.278,432
107.303,430
107.328,433
107.353,431
107.378,417
107.403,393
107.428,361
107.453,326
107.478,288
107.503,244
107.528,195
107.553,146
107.578,101
107.603,60
107.628,15
107.653,-40
107.678,-104
107.703,-158
107.728,-176
107.753,-141
107.778,-62
107.803,32
107.828,117
107.853,182
107.878,238
107.903,302
107.928,374
107.953,436
107.978,473
108.003,482
108.028,478
108.053,477
108.078,485
108.103,494
108.128,493
108.153,476
108.178,448
108.203,415
108.228,381
108.253,345
108.278,304
108.303,261
108.328,215
108.353,168
108.378,118
108.403,67
108.428,17
108.453,-31
108.478,-85
108.503,-147
108.528,-208
108.553,-245
108.578,-235
108.603,-173
108.628,-77
108.653,23
108.678,109
108.703,179
108.728,247
108.753,322
108.778,399
108.803,462
108.828,500
108.853,513
108.878,514
108.903,515
108.928,522
108.953,530
108.978,532
109.003,522
109.028,501
109.053,475
109.078,446
109.103,415
109.128,378
109.153,335
109.178,287
109.203,238
109.228,191
109.253,143
109.278,92
109.303,40
109.328,-8
109.353,-56
109.378,-110
109.403,-175
109.428,-241
109.453,-282
109.478,-273
109.503,-207
109.528,-107
109.553,-4
109.578,80
109.603,149
109.628,220
109.653,301
109.678,383
109.703,447
109.728,484
109.753,498
109.778,507
109.803,520
109.828,537
109.853,550
109.878,553
109.903,545
109.928,530
109.953,509
109.978,482
110.003,450
110.028,415
110.053,379
110.078,339
110.103,295
110.128,247
110.153,198
110.178,150
110.203,102
110.228,53
110.253,5
110.278,-41
110.303,-88
110.328,-143
110.353,-208
110.378,-270
110.403,-302
124.438,578
124.463,664
124.488,801
124.513,875
124.538,846
124.563,816
124.588,896
124.613,1041
124.638,1097
124.663,1008
124.688,913
124.713,963
124.738,1098
124.763,1106
124.788,914
124.813,711
124.838,700
124.863,800
124.888,728
124.913,386
124.938,29
124.963,-71
124.988,-25
125.013,-206
125.038,-737
125.063,-1284
125.088,-1492
125.113,-1500
125.138,-1796
125.163,-2536
125.188,-3285
125.213,-3583
125.238,-3611
125.263,-3993
125.288,-4925
125.313,-5849
125.338,-6178
125.363,-6144
125.388,-6535
125.413,-7599
125.438,-8625
125.463,-8875
125.488,-8642
125.513,-8915
125.538,-10003
125.563,-11014
125.588,-11025
125.613,-10403
125.638,-10385
125.663,-11356
125.688,-12204
125.713,-11778
125.738,-10538
125.763,-10028
125.788,-10731
125.813,-11262
125.838,-10185
125.863,-8077
125.888,-6871
125.913,-7178
125.938,-7268
125.963,-5338
125.988,-2111
126.013,-30
126.038,115
126.063,513
126.088,3464
126.113,8054
126.138,11136
126.163,11666
126.188,12466
126.213,16560
126.238,22777
126.263,26930
126.288,27557
126.313,28442
126.338,32767
126.363,32767
126.388,32767
126.413,32767
126.438,32767
126.463,32767
126.488,32767
126.513,32767
126.538,32767
126.563,32767
126.588,32767
126.613,32767
126.638,32767
126.663,32767
126.688,15452
126.713,-32768
126.738,-32768
126.763,-32768
126.788,-32768
126.813,-32768
126.838,-32768
126.863,-32768
126.888,-32768
126.913,-32768
126.938,-32768
126.963,-32768
126.988,-32768
127.013,-32768
127.038,-32768
127.063,-29831
127.088,-27473
127.113,-27431
127.138,-24880
127.163,-19061
127.188,-13752
127.213,-11824
127.238,-11609
127.263,-9569
127.288,-5129
127.313,-1142
127.338,179
127.363,95
127.388,1353
127.413,4437
127.438,7149
127.463,7753
127.488,7226
127.513,7743
127.538,9711
127.563,11398
127.588,11417
127.613,10532
127.638,10469
127.663,11561
127.688,12435
127.713,11988
127.738,10835
127.763,10360
127.788,10826
127.813,11135
127.838,10413
127.863,9174
127.888,8550
127.913,8758
127.938,8896
127.963,8227
127.988,7126
128.013,6482
128.038,6479
128.063,6425
128.088,5751
128.113,4753
128.138,4124
128.163,4005
128.188,3860
128.213,3257
128.238,2439
128.263,1940
128.288,1853
128.313,1743
128.338,1269
128.363,629
128.388,248
128.413,200
128.438,146
128.463,-182
128.488,-641
128.513,-897
128.538,-870
128.563,-793
128.588,-864
128.613,-996
128.638,-983
128.663,-806
128.688,-649
128.713,-643
128.738,-698
128.763,-650
128.788,-490
128.813,-366
128.838,-375
128.863,-438
128.888,-416
128.913,-293
128.938,-187
128.963,-184
128.988,-234
129.013,-233
129.038,-162
129.063,-102
129.088,-117
129.113,-170
129.138,-181
129.163,-139
129.188,-110
129.213,-142
129.238,-185
129.263,-166
129.288,-104
129.313,-1
129.338,102
129.363,184
129.388,245
129.413,307
129.438,379
129.463,449
129.488,495
129.513,509
129.538,502
129.563,493
129.588,491
129.613,489
129.638,479
129.663,460
129.688,434
129.713,403
129.738,366
129.763,321
129.788,272
129.813,223
129.838,174
129.863,121
129.888,65
129.913,12
129.938,-36
129.963,-88
129.988,-149
130.013,-212
130.038,-249
130.063,-232
130.088,-159
130.113,-53
130.138,48
130.163,131
130.188,202
130.213,277
130.238,360
130.263,434
130.288,485
130.313,508
130.338,514
130.363,518
130.388,526
130.413,533
130.438,533
130.463,523
130.488,503
130.513,476
130.538,446
130.563,414
130.588,378
130.613,335
130.638,287
130.663,239
130.688,194
130.713,149
130.738,101
130.763,48
130.788,-4
130.813,-53
130.838,-102
130.863,-160
130.888,-225
130.913,-274
130.938,-275
130.963,-214
130.988,-107
131.013,6
131.038,100
131.063,170
131.088,234
131.113,304
131.138,375
131.163,431
131.188,462
131.213,476
131.238,484
131.263,497
131.288,512
131.313,520
131.338,518
131.363,505
131.388,484
131.413,460
131.438,433
131.463,404
131.488,369
131.513,330
131.538,287
131.563,245
131.588,202
131.613,159
131.638,114
131.663,68
131.688,22
131.713,-26
131.738,-84
131.763,-149
131.788,-202
131.813,-218
131.838,-178
131.863,-89
131.888,18
131.913,112
131.938,182
131.963,239
131.988,300
132.013,366
132.038,422
132.063,454
132.088,462
132.113,459
132.138,460
132.163,469
132.188,478
132.213,477
132.238,465
132.263,445
132.288,421
132.313,394
132.338,362
132.363,325
132.388,285
132.413,244
132.438,201
132.463,156
132.488,114
132.513,75
132.538,35
132.563,-12
132.588,-72
132.613,-127
132.638,-151
132.663,-123
132.688,-47
132.713,46
132.738,129
132.763,190
132.788,237
132.813,287
132.838,340
132.863,383
132.888,402
132.913,399
132.938,391
132.963,390
132.988,400
133.013,411
133.038,411
133.063,397
133.088,373
133.113,346
133.138,319
133.163,290
133.188,256
133.213,215
133.238,172
133.263,127
133.288,80
133.313,29
133.338,-24
133.363,-70
133.388,-88
133.413,-62
133.438,7
133.463,99
133.488,184
133.513,247
133.538,292
133.563,333
133.588,374
133.613,407
133.638,417
133.663,407
133.688,391
133.713,387
133.738,395
133.763,402
133.788,392
133.813,365
133.838,331
133.863,299
133.888,267
133.913,226
133.938,176
133.963,125
133.988,80
134.013,37
134.038,-15
134.063,-82
134.088,-142
134.113,-160
134.138,-115
134.163,-20
134.188,87
134.213,173
134.238,232
134.263,281
134.288,337
134.313,398
134.338,445
134.363,464
134.388,456
134.413,440
134.438,433
134.463,437
134.488,439
134.513,428
134.538,399
134.563,362
134.588,323
134.613,284
134.638,240
134.663,190
134.688,134
134.713,79
134.738,25
134.763,-33
134.788,-99
134.813,-159
134.838,-184
134.863,-154
134.888,-69
134.913,39
134.938,138
134.963,210
134.988,267
135.013,328
135.038,396
135.063,456
135.088,490
135.113,496
135.138,488
135.163,479
135.188,477
135.213,474
135.238,465
135.263,447
135.288,422
135.313,389
135.338,350
135.363,303
135.388,251
135.413,196
135.438,139
135.463,86
135.488,38
135.513,-6
135.538,-61
135.563,-129
135.588,-200
135.613,-242
135.638,-227
135.663,-150
135.688,-37
135.713,71
135.738,156
135.763,224
135.788,293
135.813,370
135.838,444
135.863,495
135.888,516
135.913,514
135.938,509
135.963,512
135.988,520
136.013,527
136.038,522
136.063,504
136.088,477
136.113,446
136.138,413
136.163,375
136.188,330
136.213,279
136.238,227
136.263,176
136.288,126
136.313,74
136.338,21
136.363,-29
136.388,-80
136.413,-137
136.438,-203
136.463,-264
136.488,-294
136.513,-264
136.538,-176
136.563,-58
136.588,51
136.613,135
136.638,203
136.663,273
136.688,351
136.713,423
136.738,470
136.763,488
136.788,491
136.813,496
136.838,507
136.863,519
136.888,524
136.913,518
136.938,502
136.963,478
136.988,451
137.013,420
137.038,385
137.063,344
137.088,300
137.113,254
137.138,210
137.163,166
137.188,121
137.213,71
137.238,22
137.263,-21
137.288,-65
137.313,-118
137.338,-181
137.363,-236
137.388,-249
137.413,-200
137.438,-98
137.463,18
137.488,115
137.513,184
137.538,241
137.563,304
137.588,372
137.613,427
137.638,457
137.663,463
137.688,462
137.713,467
137.738,480
137.763,493
137.788,499
137.813,495
137.838,479
137.863,457
137.888,432
137.913,404
137.938,373
137.963,334
137.988,289
138.013,244
138.038,204
138.063,167
138.088,126
138.113,81
138.138,35
138.163,-6
138.188,-49
138.213,-103
138.238,-165
138.263,-208
138.288,-198
138.313,-123
138.338,-8
138.363,101
138.388,178
138.413,227
138.438,273
138.463,331
138.488,392
138.513,435
138.538,450
138.563,447
138.588,443
138.613,450
138.638,462
138.663,470
138.688,467
138.713,452
138.738,430
138.763,405
138.788,378
138.813,349
138.838,316
138.863,280
138.888,244
138.913,207
138.938,170
138.963,132
138.988,92
139.013,52
139.038,9
139.063,-38
139.088,-91
139.113,-136
139.138,-149
139.163,-112
139.188,-29
139.213,69
139.238,154
139.263,213
139.288,256
139.313,299
139.338,344
139.363,379
139.388,393
139.413,391
139.438,387
139.463,393
139.488,404
139.513,412
139.538,409
139.563,397
139.588,378
139.613,357
139.638,332
139.663,304
139.688,271
139.713,235
139.738,197
139.763,160
139.788,126
139.813,91
139.838,46
139.863,-9
139.888,-62
139.913,-84
139.938,-53
139.963,23
139.988,117
140.013,197
140.038,251
140.063,291
140.088,331
140.113,372
140.138,402
140.163,409
140.188,399
140.213,388
140.238,388
140.263,398
140.288,404
140.313,395
140.338,370
140.363,339
140.388,309
140.413,280
140.438,244
140.463,197
140.488,146
140.513,99
140.538,55
140.563,7
140.588,-50
140.613,-106
140.638,-134
140.663,-111
140.688,-40
140.713,54
140.738,141
140.763,204
140.788,254
140.813,305
140.838,360
140.863,408
140.888,435
140.913,439
140.938,431
140.963,424
140.988,424
141.013,425
141.038,420
141.063,404
141.088,376
141.113,340
141.138,302
141.163,261
141.188,218
141.213,170
141.238,120
141.263,69
141.288,15
141.313,-44
141.338,-112
141.363,-170
141.388,-190
141.413,-149
141.438,-55
141.463,55
141.488,145
141.513,203
141.538,248
141.563,305
141.588,377
141.613,443
141.638,479
141.663,486
141.688,480
141.713,480
141.738,487
141.763,489
141.788,479
141.813,460
141.838,434
141.863,403
141.888,363
141.913,315
141.938,266
141.963,220
141.988,173
142.013,119
142.038,62
142.063,8
142.088,-40
142.113,-92
142.138,-157
142.163,-226
142.188,-268
142.213,-252
142.238,-175
142.263,-67
142.288,38
142.313,122
142.338,195
142.363,272
142.388,355
142.413,431
142.438,485
142.463,515
142.488,530
142.513,542
142.538,555
142.563,568
142.588,577
142.613,580
142.638,573
142.663,558
142.688,536
142.713,510
142.738,481
142.763,448
142.788,410
142.813,369
142.838,328
142.863,287
142.888,244
142.913,196
142.938,146
142.963,98
142.988,56
143.013,12
143.038,-35
143.063,-87
143.088,-136
143.113,-179
143.138,-225
143.163,-284
143.188,-344
143.213,-375
143.238,-345
143.263,-251
143.288,-125
143.313,-9
143.338,76
143.363,141
143.388,211
143.413,297
143.438,385
143.463,453
143.488,491
143.513,508
143.538,522
143.563,541
143.588,564
143.613,581
143.638,588
143.663,584
143.688,573
143.713,557
143.738,537
143.763,515
143.788,489
143.813,459
143.838,426
143.863,390
143.888,353
143.913,315
143.938,276
143.963,237
143.988,197
144.013,157
144.038,114
144.063,67
144.088,18
144.113,-27
144.138,-65
144.163,-102
144.188,-149
144.213,-210
144.238,-271
144.263,-299
144.288,-270
144.313,-185
144.338,-73
144.363,28
144.388,103
144.413,158
144.438,216
144.463,285
144.488,357
144.513,413
144.538,443
144.563,454
144.588,460
144.613,470
144.638,486
144.663,502
144.688,511
144.713,512
144.738,504
144.763,489
144.788,470
144.813,449
144.838,425
144.863,397
144.888,364
144.913,326
144.938,289
144.963,254
144.988,218
145.013,180
145.038,139
145.063,98
145.088,61
145.113,24
145.138,-20
145.163,-75
145.188,-129
145.213,-159
145.238,-143
145.263,-79
145.288,11
145.313,98
145.338,162
145.363,205
145.388,245
145.413,291
145.438,338
145.463,370
145.488,383
145.513,382
145.538,384
145.563,395
145.588,411
145.613,419
145.638,417
145.663,406
145.688,391
145.713,372
145.738,345
145.763,313
145.788,279
145.813,248
145.838,217
145.863,183
145.888,145
145.913,110
145.938,75
145.963,35
145.988,-13
146.013,-62
146.038,-83
146.063,-56
146.088,16
146.113,104
146.138,178
146.163,228
146.188,268
146.213,312
146.238,360
146.263,395
146.288,406
146.313,398
146.338,388
146.363,391
146.388,402
146.413,412
146.438,410
146.463,397
146.488,375
146.513,347
146.538,314
146.563,276
146.588,235
146.613,193
146.638,150
146.663,108
146.688,68
146.713,26
146.738,-24
146.763,-83
146.788,-135
146.813,-153
146.838,-118
146.863,-37
146.888,59
146.913,141
146.938,198
146.963,243
146.988,294
147.013,353
147.038,406
147.063,439
147.088,450
147.113,451
147.138,452
147.163,455
147.188,458
147.213,457
147.238,449
147.263,433
147.288,406
147.313,369
147.338,328
147.363,286
147.388,244
147.413,197
147.438,143
147.463,88
147.488,37
147.513,-10
147.538,-65
147.563,-129
147.588,-186
147.613,-206
147.638,-172
147.663,-88
147.688,14
147.713,107
147.738,177
147.763,235
147.788,296
147.813,365
147.838,429
147.863,473
147.888,492
147.913,492
147.938,489
147.963,493
147.988,503
148.013,511
148.038,506
148.063,486
148.088,456
148.113,421
148.138,384
148.163,345
148.188,304
148.213,259
148.238,211
148.263,160
148.288,108
148.313,57
148.338,9
148.363,-37
148.388,-90
148.413,-154
148.438,-221
148.463,-269
148.488,-273
148.513,-219
148.538,-121
148.563,-9
148.588,87
148.613,162
148.638,225
148.663,295
148.688,374
148.713,449
148.738,499
148.763,520
148.788,523
148.813,526
148.838,540
148.863,559
148.888,569
148.913,563
148.938,545
148.963,523
148.988,502
149.013,477
149.038,441
149.063,398
149.088,352
149.113,309
149.138,268
149.163,225
149.188,178
149.213,128
149.238,78
149.263,28
149.288,-19
149.313,-64
149.338,-111
149.363,-165
149.388,-230
149.413,-295
149.438,-337
149.463,-328
149.488,-259
149.513,-146
149.538,-27
149.563,72
149.588,147
149.613,215
149.638,288
149.663,366
149.688,434
149.713,481
149.738,507
149.763,523
149.788,535
149.813,547
149.838,556
149.863,560
149.888,558
149.913,550
149.938,537
149.963,517
149.988,490
150.013,459
150.038,424
150.063,386
150.088,346
150.113,304
150.138,263
150.163,222
150.188,180
150.213,133
150.238,81
150.263,30
150.288,-15
150.313,-56
150.338,-102
150.363,-159
150.388,-224
150.413,-274
150.438,-283
150.463,-232
150.488,-134
150.513,-20
150.538,77
150.563,148
150.588,206
150.613,267
150.638,337
150.663,402
150.688,448
150.713,470
150.738,477
150.763,483
150.788,497
150.813,512
150.838,522
150.863,518
150.888,503
150.913,480
150.938,455
150.963,430
150.988,405
151.013,374
151.038,336
151.063,292
151.088,248
151.113,207
151.138,167
151.163,125
151.188,78
151.213,30
151.238,-11
151.263,-51
151.288,-99
151.313,-158
151.338,-214
151.363,-238
151.388,-205
151.413,-119
151.438,-9
151.463,88
151.488,160
151.513,217
151.538,276
151.563,343
151.588,405
151.613,448
151.638,468
151.663,475
151.688,481
151.713,491
151.738,503
151.763,510
151.788,508
151.813,497
151.838,479
151.863,456
151.888,431
151.913,403
151.938,372
151.963,336
151.988,294
152.013,251
152.038,207
152.063,165
152.088,120
152.113,76
152.138,32
152.163,-11
152.188,-59
152.213,-114
152.238,-167
152.263,-196
152.288,-178
152.313,-110
152.338,-13
152.363,82
152.388,154
152.413,204
152.438,251
152.463,305
152.488,360
152.513,401
152.538,417
152.563,415
152.588,413
152.613,421
152.638,437
152.663,447
152.688,445
152.713,432
152.738,414
152.763,395
152.788,372
152.813,343
152.838,307
152.863,269
152.888,231
152.913,193
152.938,155
152.963,119
152.988,84
153.013,47
153.038,0
153.063,-56
153.088,-99
153.113,-103
153.138,-54
153.163,33
153.188,127
153.213,199
153.238,244
153.263,280
153.288,321
153.313,364
153.338,396
153.363,405
153.388,397
153.413,386
153.438,384
153.463,390
153.488,395
153.513,392
153.538,377
153.563,353
153.588,324
153.613,292
153.638,256
153.663,217
153.688,176
153.713,137
153.738,97
153.763,53
153.788,1
153.813,-55
153.838,-99
153.863,-108
153.888,-66
153.913,15
153.938,111
153.963,191
153.988,247
154.013,289
154.038,331
154.063,377
154.088,415
154.113,432
154.138,427
154.163,414
154.188,406
154.213,408
154.238,415
154.263,413
154.288,396
154.313,366
154.338,329
154.363,291
154.388,251
154.413,207
154.438,161
154.463,115
154.488,70
154.513,22
154.538,-35
154.563,-97
154.588,-145
154.613,-152
154.638,-104
154.663,-14
154.688,86
154.713,170
154.738,231
154.763,281
154.788,334
154.813,390
154.838,435
154.863,459
154.888,462
154.913,455
154.938,449
154.963,448
154.988,447
155.013,443
155.038,431
155.063,408
155.088,377
155.113,339
155.138,298
155.163,254
155.188,205
155.213,150
155.238,95
155.263,45
155.288,0
155.313,-50
155.338,-110
155.363,-169
155.388,-201
155.413,-182
155.438,-107
155.463,-2
155.488,99
155.513,176
155.538,233
155.563,288
155.588,349
155.613,411
155.638,457
155.663,479
155.688,482
155.713,480
155.738,484
155.763,493
155.788,498
155.813,491
155.838,472
155.863,445
155.888,417
155.913,387
155.938,352
155.963,310
155.988,263
156.013,213
156.038,163
156.063,114
156.088,65
156.113,17
156.138,-30
156.163,-84
156.188,-145
156.213,-206
156.238,-242
156.263,-228
156.288,-158
156.313,-51
156.338,56
156.363,141
156.388,205
156.413,265
156.438,334
156.463,405
156.488,461
156.513,490
156.538,496
156.563,497
156.588,504
156.613,515
156.638,523
156.663,520
156.688,505
156.713,484
156.738,458
156.763,429
156.788,395
156.813,356
156.838,313
156.863,270
156.888,227
156.913,183
156.938,134
156.963,81
156.988,29
157.013,-18
157.038,-63
157.063,-116
157.088,-182
157.113,-249
157.138,-289
157.163,-272
157.188,-196
157.213,-87
157.238,16
157.263,95
157.288,155
157.313,216
157.338,289
157.363,366
157.388,429
157.413,465
157.438,480
157.463,488
157.488,499
157.513,515
157.538,529
157.563,534
157.588,527
157.613,510
157.638,487
157.663,462
157.688,435
157.713,404
157.738,369
157.763,330
157.788,290
157.813,249
157.838,206
157.863,156
157.888,105
157.913,57
157.938,11
157.963,-38
157.988,-101
158.013,-168
158.038,-211
158.063,-204
158.088,-141
158.113,-45
158.138,47
158.163,119
158.188,174
158.213,229
158.238,294
158.263,358
158.288,405
158.313,426
158.338,428
158.363,427
158.388,432
158.413,443
158.438,454
158.463,457
158.488,453
158.513,441
158.538,422
158.563,397
158.588,366
158.613,331
158.638,294
158.663,256
158.688,218
158.713,179
158.738,139
158.763,100
158.788,63
158.813,21
158.838,-30
158.863,-88
158.888,-133
158.913,-136
158.938,-87
158.963,0
158.988,92
159.013,162
159.038,210
159.063,253
159.088,306
159.113,360
159.138,397
159.163,404
159.188,392
159.213,382
159.238,387
159.263,400
159.288,411
159.313,410
159.338,398
159.363,379
159.388,356
159.413,327
159.438,295
159.463,261
159.488,226
159.513,188
159.538,147
159.563,109
159.588,72
159.613,33
159.638,-14
159.663,-62
159.688,-89
159.713,-70
159.738,-4
159.763,86
159.788,170
159.813,229
159.838,270
159.863,310
159.888,354
159.913,392
159.938,410
159.963,406
159.988,394
160.013,388
160.038,394
160.063,403
160.088,403
160.113,388
160.138,361
160.163,329
160.188,296
160.213,259
160.238,217
160.263,170
160.288,125
160.313,85
160.338,45
160.363,-3
160.388,-61
160.413,-112
160.438,-127
160.463,-90
160.488,-10
160.513,82
160.538,157
160.563,210
160.588,255
160.613,307
160.638,363
160.663,407
160.688,427
160.713,427
160.738,422
160.763,423
160.788,429
160.813,432
160.838,424
160.863,406
160.888,380
160.913,349
160.938,311
160.963,266
160.988,218
161.013,169
161.038,122
161.063,77
161.088,30
161.113,-24
161.138,-85
161.163,-139
161.188,-162
161.213,-137
161.238,-63
161.263,32
161.288,121
161.313,188
161.338,242
161.363,300
161.388,365
161.413,427
161.438,468
161.463,483
161.488,483
161.513,482
161.538,487
161.563,493
161.588,491
161.613,478
161.638,458
161.663,431
161.688,398
161.713,359
161.738,317
161.763,275
161.788,233
161.813,188
161.838,138
161.863,85
161.888,35
161.913,-11
161.938,-61
161.963,-123
161.988,-190
162.013,-237
162.038,-235
162.063,-175
162.088,-75
162.113,26
162.138,107
162.163,167
162.188,227
162.213,300
162.238,379
162.263,443
162.288,477
162.313,488
162.338,492
162.363,503
162.388,519
162.413,530
162.438,529
162.463,519
162.488,502
162.513,481
162.538,455
162.563,424
162.588,390
162.613,353
162.638,312
162.663,267
162.688,222
162.713,179
162.738,137
162.763,90
162.788,40
162.813,-9
162.838,-52
162.863,-94
162.888,-145
162.913,-209
162.938,-267
162.963,-285
162.988,-243
163.013,-151
163.038,-43
163.063,47
163.088,113
163.113,172
163.138,241
163.163,319
163.188,393
163.213,445
163.238,475
163.263,492
163.288,505
163.313,520
163.338,535
163.363,545
163.388,549
163.413,545
163.438,533
163.463,513
163.488,486
163.513,455
163.538,422
163.563,387
163.588,353
163.613,317
163.638,280
163.663,242
163.688,201
163.713,157
163.738,110
163.763,60
163.788,10
163.813,-35
163.838,-76
163.863,-119
163.888,-172
163.913,-232
163.938,-279
163.963,-287
163.988,-239
164.013,-147
164.038,-41
164.063,49
164.088,117
164.113,175
164.138,241
164.163,319
164.188,394
164.213,448
164.238,477
164.263,491
164.288,503
164.313,520
164.338,539
164.363,551
164.388,552
164.413,545
164.438,534
164.463,519
164.488,499
164.513,472
164.538,440
164.563,408
164.588,377
164.613,345
164.638,308
164.663,266
164.688,222
164.713,179
164.738,138
164.763,94
164.788,47
164.813,0
164.838,-44
164.863,-90
164.888,-142
164.913,-204
164.938,-261
164.963,-287
164.988,-261
165.013,-183
165.038,-81
165.063,15
165.088,89
165.113,147
165.138,209
165.163,282
165.188,356
165.213,414
165.238,445
165.263,459
165.288,469
165.313,486
165.338,508
165.363,527
165.388,537
165.413,536
165.438,527
165.463,513
165.488,493
165.513,468
165.538,438
165.563,403
165.588,364
165.613,324
165.638,284
165.663,244
165.688,199
165.713,148
165.738,93
165.763,43
165.788,0
165.813,-44
165.838,-99
165.863,-162
165.888,-213
165.913,-223
165.938,-178
165.963,-91
165.988,5
166.013,87
166.038,148
166.063,203
166.088,262
166.113,323
166.138,376
166.163,410
166.188,428
166.213,438
166.238,448
166.263,461
166.288,472
166.313,477
166.338,474
166.363,463
166.388,445
166.413,424
166.438,398
166.463,367
166.488,329
166.513,289
166.538,252
166.563,217
166.588,183
166.613,145
166.638,102
166.663,57
166.688,11
166.713,-39
166.738,-93
166.763,-136
166.788,-144
166.813,-101
166.838,-16
166.863,78
166.888,156
166.913,210
166.938,254
166.963,301
166.988,350
167.013,385
167.038,398
167.063,395
167.088,394
167.113,403
167.138,417
167.163,425
167.188,420
167.213,404
167.238,381
167.263,355
167.288,327
167.313,297
167.338,265
167.363,229
167.388,189
167.413,148
167.438,108
167.463,68
167.488,21
167.513,-31
167.538,-77
167.563,-90
167.588,-56
167.613,20
167.638,109
167.663,185
167.688,239
167.713,283
167.738,328
167.763,373
167.788,404
167.813,412
167.838,404
167.863,393
167.888,391
167.913,395
167.938,397
167.963,389
167.988,370
168.013,343
168.038,312
168.063,278
168.088,240
168.113,197
168.138,155
168.163,115
168.188,75
168.213,29
168.238,-27
168.263,-84
168.288,-120
168.313,-112
168.338,-56
168.363,31
168.388,121
168.413,193
168.438,246
168.463,294
168.488,346
168.513,398
168.538,437
168.563,452
168.588,449
168.613,440
168.638,439
168.663,445
168.688,448
168.713,436
168.738,403
168.763,353
168.788,297
168.813,245
168.838,200
168.863,160
168.888,120
168.913,77
168.938,30
168.963,-24
168.988,-85
169.013,-139
169.038,-164
169.063,-141
169.088,-69
169.113,25
169.138,113
169.163,178
169.188,228
169.213,282
169.238,347
169.263,410
169.288,452
169.313,467
169.338,464
169.363,462
169.388,466
169.413,473
169.438,472
169.463,460
169.488,436
169.513,406
169.538,370
169.563,332
169.588,291
169.613,249
169.638,202
169.663,152
169.688,100
169.713,53
169.738,8
169.763,-42
169.788,-105
169.813,-173
169.838,-219
169.863,-217
169.888,-157
169.913,-60
169.938,39
169.963,117
169.988,178
170.013,237
170.038,309
170.063,386
170.088,449
170.113,487
170.138,500
170.163,503
170.188,507
170.213,517
170.238,525
170.263,527
170.288,519
170.313,503
170.338,478
170.363,449
170.388,417
170.413,383
170.438,345
170.463,302
170.488,257
170.513,211
170.538,167
170.563,122
170.588,74
170.613,23
170.638,-25
170.663,-70
170.688,-118
170.713,-176
170.738,-242
170.763,-292
170.788,-298
170.813,-245
170.838,-150
170.863,-45
170.888,42
170.913,109
170.938,173
170.963,248
170.988,332
171.013,407
171.038,459
171.063,487
171.088,501
171.113,513
171.138,528
171.163,545
171.188,558
171.213,562
171.238,554
171.263,537
171.288,514
171.313,490
171.338,464
171.363,436
171.388,405
171.413,372
171.438,338
171.463,303
171.488,264
171.513,220
171.538,174
171.563,130
171.588,88
171.613,45
171.638,0
171.663,-42
171.688,-83
171.713,-126
171.738,-178
171.763,-234
171.788,-270
171.813,-262
171.838,-199
171.863,-102
171.888,-5
171.913,69
171.938,124
171.963,180
171.988,249
172.013,325
172.038,388
172.063,427
172.088,445
172.113,458
172.138,475
172.163,496
172.188,514
172.213,525
172.238,526
172.263,521
172.288,508
172.313,489
172.338,466
172.363,442
172.388,419
172.413,396
172.438,370
172.463,341
172.488,310
172.513,279
172.538,247
172.563,214
172.588,180
172.613,142
172.638,101
172.663,61
172.688,23
172.713,-13
172.738,-54
172.763,-101
172.788,-147
172.813,-177
172.838,-169
172.863,-120
172.888,-43
172.913,35
172.938,97
172.963,145
172.988,190
173.013,244
173.038,301
173.063,346
173.088,371
173.113,379
173.138,385
173.163,397
173.188,416
173.213,432
173.238,436
173.263,431
173.288,420
173.313,409
173.338,396
173.363,377
173.388,350
173.413,319
173.438,289
173.463,262
173.488,238
173.513,211
173.538,181
173.563,150
173.588,119
173.613,86
173.638,47
173.663,4
173.688,-31
173.713,-41
173.738,-12
173.763,47
173.788,118
173.813,177
173.838,220
173.863,256
173.888,294
173.913,334
173.938,364
173.963,376
173.988,373
174.013,367
174.038,369
174.063,377
174.088,385
174.113,385
174.138,376
174.163,361
174.188,341
174.213,315
174.238,284
174.263,251
174.288,217
174.313,182
174.338,145
174.363,109
174.388,71
174.413,29
174.438,-17
174.463,-62
174.488,-88
174.513,-75
174.538,-21
174.563,55
174.588,129
174.613,183
174.638,225
174.663,268
174.688,320
174.713,372
174.738,407
174.763,418
174.788,413
174.813,408
174.838,410
174.863,417
174.888,419
174.913,413
174.938,397
174.963,373
174.988,346
175.013,315
175.038,283
175.063,247
175.088,206
175.113,164
175.138,122
175.163,84
175.188,44
175.213,-4
175.238,-63
175.263,-118
175.288,-147
175.313,-131
175.338,-69
175.363,14
175.388,96
175.413,162
175.438,216
175.463,270
175.488,328
175.513,385
175.538,430
175.563,457
175.588,468
175.613,474
175.638,479
175.663,485
175.688,488
175.713,483
175.738,468
175.763,446
175.788,419
175.813,389
175.838,355
175.863,317
175.888,276
175.913,233
175.938,190
175.963,144
175.988,97
176.013,50
176.038,6
176.063,-38
176.088,-89
176.113,-148
176.138,-201
176.163,-225
176.188,-198
176.213,-122
176.238,-22
176.263,70
176.288,139
176.313,195
176.338,255
176.363,327
176.388,399
176.413,452
176.438,478
176.463,487
176.488,493
176.513,503
176.538,516
176.563,525
176.588,526
176.613,517
176.638,500
176.663,475
176.688,446
176.713,416
176.738,387
176.763,355
176.788,316
176.813,270
176.838,225
176.863,186
176.888,148
176.913,106
176.938,55
176.963,4
176.988,-41
177.013,-81
177.038,-128
177.063,-187
177.088,-244
177.113,-272
177.138,-247
177.163,-171
177.188,-70
177.213,25
177.238,102
177.263,164
177.288,227
177.313,297
177.338,370
177.363,431
177.388,471
177.413,490
177.438,496
177.463,502
177.488,513
177.513,527
177.538,537
177.563,535
177.588,522
177.613,501
177.638,476
177.663,449
177.688,418
177.713,383
177.738,345
177.763,306
177.788,267
177.813,230
177.838,193
177.863,153
177.888,109
177.913,62
177.938,15
177.963,-27
177.988,-67
178.013,-113
178.038,-170
178.063,-227
178.088,-256
178.113,-233
178.138,-156
178.163,-50
178.188,48
178.213,122
178.238,178
178.263,239
178.288,311
178.313,383
178.338,437
178.363,465
178.388,476
178.413,484
178.438,495
178.463,507
178.488,514
178.513,515
178.538,510
178.563,499
178.588,480
178.613,456
178.638,428
178.663,400
178.688,369
178.713,331
178.738,288
178.763,246
178.788,208
178.813,173
178.838,135
178.863,93
178.888,49
178.913,5
178.938,-40
178.963,-93
178.988,-148
179.013,-184
179.038,-178
179.063,-121
179.088,-30
179.113,61
179.138,132
179.163,181
179.188,227
179.213,280
179.238,337
179.263,379
179.288,396
179.313,395
179.338,393
179.363,402
179.388,418
179.413,432
179.438,435
179.463,429
179.488,419
179.513,406
179.538,384
179.563,353
179.588,315
179.613,279
179.638,246
179.663,213
179.688,176
179.713,137
179.738,99
179.763,61
179.788,17
179.813,-30
179.838,-69
179.863,-76
179.888,-36
179.913,38
179.938,123
179.963,194
179.988,243
180.013,283
180.038,323
180.063,362
180.088,388
180.113,396
180.138,389
180.163,380
180.188,377
180.213,382
180.238,388
180.263,387
180.288,375
180.313,352
180.338,324
180.363,292
180.388,259
180.413,222
180.438,179
180.463,132
180.488,88
180.513,45
180.538,-1
180.563,-55
180.588,-106
180.613,-128
180.638,-102
180.663,-28
180.688,67
180.713,151
180.738,209
180.763,252
180.788,298
180.813,351
180.838,398
180.863,425
180.888,428
180.913,421
180.938,416
180.963,419
180.988,422
181.013,416
181.038,399
181.063,373
181.088,344
181.113,313
181.138,277
181.163,235
181.188,189
181.213,142
181.238,97
181.263,52
181.288,2
181.313,-55
181.338,-108
181.363,-135
181.388,-113
181.413,-44
181.438,49
181.463,135
181.488,197
181.513,244
181.538,294
181.563,354
181.588,413
181.613,452
181.638,465
181.663,461
181.688,456
181.713,457
181.738,460
181.763,458
181.788,447
181.813,427
181.838,400
181.863,365
181.888,327
181.913,287
181.938,249
181.963,207
181.988,160
182.013,110
182.038,62
182.063,14
182.088,-39
182.113,-103
182.138,-166
182.163,-202
182.188,-188
182.213,-124
182.238,-31
182.263,59
182.288,133
182.313,194
182.338,254
182.363,321
182.388,387
182.413,439
182.438,467
182.463,477
182.488,478
182.513,482
182.538,490
182.563,499
182.588,499
182.613,487
182.638,465
182.663,438
182.688,411
182.713,381
182.738,346
182.763,305
182.788,264
182.813,223
182.838,182
182.863,139
182.888,92
182.913,47
182.938,7
182.963,-34
182.988,-86
183.013,-150
183.038,-207
183.063,-230
183.088,-198
183.113,-118
183.138,-20
183.163,64
183.188,125
183.213,175
183.238,233
183.263,302
183.288,371
183.313,420
183.338,445
183.363,454
183.388,461
183.413,472
183.438,485
183.463,492
183.488,489
183.513,478
183.538,462
183.563,442
183.588,420
183.613,392
183.638,361
183.663,326
183.688,289
183.713,254
183.738,221
183.763,187
183.788,151
183.813,110
183.838,68
183.863,27
183.888,-12
183.913,-59
183.938,-114
183.963,-163
183.988,-182
184.013,-153
184.038,-80
184.063,10
184.088,88
184.113,144
184.138,188
184.163,237
184.188,296
184.213,351
184.238,392
184.263,414
184.288,428
184.313,440
184.338,453
184.363,463
184.388,468
184.413,469
184.438,463
184.463,450
184.488,429
184.513,403
184.538,379
184.563,356
184.588,329
184.613,297
184.638,261
184.663,226
184.688,191
184.713,154
184.738,114
184.763,76
184.788,43
184.813,10
184.838,-32
184.863,-84
184.888,-128
184.913,-135
184.938,-92
184.963,-15
184.988,64
185.013,125
185.038,167
185.063,207
185.088,256
185.113,309
185.138,353
185.163,377
185.188,386
185.213,389
185.238,394
185.263,403
185.288,415
185.313,424
185.338,426
185.363,419
185.388,403
185.413,382
185.438,361
185.463,341
185.488,318
185.513,292
185.538,263
185.563,233
185.588,203
185.613,173
185.638,142
185.663,111
185.688,77
185.713,34
185.738,-14
185.763,-53
185.788,-62
185.813,-28
185.838,38
185.863,113
185.888,171
185.913,212
185.938,246
185.963,284
185.988,323
186.013,350
186.038,358
186.063,353
186.088,351
186.113,358
186.138,370
186.163,378
186.188,376
186.213,362
186.238,343
186.263,323
186.288,300
186.313,272
186.338,237
186.363,199
186.388,161
186.413,127
186.438,93
186.463,50
186.488,-1
186.513,-49
186.538,-70
186.563,-45
186.588,18
186.613,96
186.638,165
186.663,215
186.688,257
186.713,302
186.738,348
186.763,385
186.788,403
186.813,406
186.838,403
186.863,404
186.888,409
186.913,411
186.938,407
186.963,395
186.988,375
187.013,349
187.038,319
187.063,284
187.088,246
187.113,204
187.138,160
187.163,118
187.188,75
187.213,25
187.238,-33
187.263,-93
187.288,-134
187.313,-130
187.338,-78
187.363,4
187.388,88
187.413,153
187.438,202
187.463,252
187.488,309
187.513,366
187.538,409
187.563,429
187.588,435
187.613,437
187.638,442
187.663,447
187.688,448
187.713,440
187.738,424
187.763,399
187.788,369
187.813,336
187.838,300
187.863,258
187.888,209
187.913,156
187.938,105
187.963,62
187.988,20
188.013,-29
188.038,-92
188.063,-153
188.088,-183
188.113,-162
188.138,-94
188.163,-4
188.188,81
188.213,151
188.238,213
188.263,277
188.288,347
188.313,413
188.338,462
188.363,487
188.388,494
188.413,494
188.438,498
188.463,507
188.488,514
188.513,511
188.538,496
188.563,471
188.588,445
188.613,419
188.638,390
188.663,350
188.688,302
188.713,252
188.738,206
188.763,164
188.788,119
188.813,70
188.838,19
188.863,-30
188.888,-82
188.913,-142
188.938,-205
188.963,-249
188.988,-248
189.013,-191
189.038,-95
189.063,6
189.088,90
189.113,155
189.138,215
189.163,283
189.188,355
189.213,417
189.238,456
189.263,472
189.288,476
189.313,480
189.338,490
189.363,499
189.388,500
189.413,490
189.438,470
189.463,447
189.488,422
189.513,393
189.538,356
189.563,311
189.588,265
189.613,224
189.638,186
189.663,145
189.688,99
189.713,50
189.738,5
189.763,-38
189.788,-89
189.813,-150
189.838,-207
189.863,-231
189.888,-202
189.913,-122
189.938,-20
189.963,71
189.988,143
190.013,202
190.038,266
190.063,337
190.088,403
190.113,449
190.138,472
190.163,481
190.188,490
190.213,504
190.238,518
190.263,525
190.288,520
190.313,504
190.338,482
190.363,459
190.388,434
190.413,406
190.438,372
190.463,334
190.488,293
190.513,254
190.538,215
190.563,173
190.588,128
190.613,85
190.638,45
190.663,4
190.688,-45
190.713,-103
190.738,-157
190.763,-183
190.788,-162
190.813,-96
190.838,-9
190.863,70
190.888,131
190.913,179
190.938,229
190.963,285
190.988,337
191.013,372
191.038,387
191.063,390
191.088,393
191.113,400
191.138,409
191.163,413
191.188,411
191.213,406
191.238,396
191.263,378
191.288,350
191.313,316
191.338,281
191.363,247
191.388,215
191.413,183
191.438,154
191.463,125
191.488,92
191.513,48
191.538,-2
191.563,-43
191.588,-51
191.613,-16
191.638,50
191.663,124
191.688,185
191.713,231
191.738,269
191.763,308
191.788,344
191.813,368
191.838,376
191.863,372
191.888,365
191.913,363
191.938,368
191.963,372
191.988,369
192.013,357
192.038,336
192.063,310
192.088,283
192.113,253
192.138,218
192.163,180
192.188,141
192.213,106
192.238,70
192.263,29
192.288,-13
192.313,-44
192.338,-40
192.363,6
192.388,83
192.413,162
192.438,220
192.463,257
192.488,288
192.513,324
192.538,362
192.563,389
192.588,397
192.613,393
192.638,390
192.663,395
192.688,403
192.713,405
192.738,394
192.763,373
192.788,346
192.813,318
192.838,287
192.863,251
192.888,208
192.913,160
192.938,110
192.963,62
192.988,14
193.013,-35
193.038,-87
193.063,-127
193.088,-137
193.113,-104
193.138,-33
193.163,52
193.188,127
193.213,183
193.238,230
193.263,280
193.288,336
193.313,385
193.338,412
193.363,417
193.388,415
193.413,419
193.438,431
193.463,444
193.488,447
193.513,438
193.538,423
193.563,405
193.588,383
193.613,353
193.638,315
193.663,272
193.688,227
193.713,183
193.738,139
193.763,96
193.788,51
193.813,2
193.838,-54
193.863,-116
193.888,-164
193.913,-175
193.938,-135
193.963,-54
193.988,39
194.013,119
194.038,180
194.063,233
194.088,295
194.113,366
194.138,433
194.163,479
194.188,500
194.213,507
194.238,514
194.263,527
194.288,540
194.313,543
194.338,532
194.363,510
194.388,484
194.413,454
194.438,420
194.463,377
194.488,329
194.513,278
194.538,231
194.563,188
194.588,147
194.613,103
194.638,55
194.663,9
194.688,-31
194.713,-69
194.738,-111
194.763,-166
194.788,-228
194.813,-273
194.838,-275
194.863,-222
194.888,-127
194.913,-23
194.938,63
194.963,130
194.988,192
195.013,264
195.038,346
195.063,420
195.088,469
195.113,490
195.138,499
195.163,511
195.188,532
195.213,553
195.238,563
195.263,557
195.288,544
195.313,528
195.338,510
195.363,487
195.388,454
195.413,416
195.438,378
195.463,341
195.488,302
195.513,257
195.538,209
195.563,166
195.588,130
195.613,97
195.638,64
195.663,25
195.688,-18
195.713,-68
195.738,-127
195.763,-192
195.788,-247
195.813,-268
195.838,-238
195.863,-161
195.888,-62
195.913,28
195.938,99
195.963,159
195.988,224
196.013,296
196.038,364
196.063,411
196.088,435
196.113,447
196.138,461
196.163,483
196.188,508
196.213,523
196.238,524
196.263,514
196.288,496
196.313,473
196.338,445
196.363,412
196.388,377
196.413,341
196.438,306
196.463,273
196.488,242
196.513,210
196.538,175
196.563,136
196.588,95
196.613,55
196.638,14
196.663,-31
196.688,-82
196.713,-123
196.738,-130
196.763,-90
196.788,-11
196.813,77
196.838,148
196.863,196
196.888,237
196.913,284
196.938,336
196.963,375
196.988,389
197.013,384
197.038,381
197.063,390
197.088,405
197.113,414
197.138,411
197.163,399
197.188,385
197.213,367
197.238,342
197.263,309
197.288,274
197.313,242
197.338,209
197.363,171
197.388,128
197.413,86
197.438,47
197.463,6
197.488,-37
197.513,-72
197.538,-77
197.563,-38
197.588,36
197.613,119
197.638,185
197.663,233
197.688,276
197.713,326
197.738,375
197.763,406
197.788,413
197.813,403
197.838,396
197.863,398
197.888,405
197.913,408
197.938,401
197.963,385
197.988,363
198.013,337
198.038,306
198.063,271
198.088,233
198.113,191
198.138,148
198.163,104
198.188,63
198.213,19
198.238,-33
198.263,-90
198.288,-135
198.313,-141
198.338,-95
198.363,-10
198.388,83
198.413,158
198.438,212
198.463,260
198.488,316
198.513,374
198.538,419
198.563,440
198.588,442
198.613,440
198.638,442
198.663,448
198.688,449
198.713,443
198.738,429
198.763,406
198.788,375
198.813,340
198.838,304
198.863,268
198.888,229
198.913,182
198.938,131
198.963,82
198.988,40
199.013,-1
199.038,-55
199.063,-119
199.088,-175
199.113,-193
199.138,-156
199.163,-75
199.188,21
199.213,106
199.238,174
199.263,232
199.288,293
199.313,358
199.338,417
199.363,458
199.388,477
199.413,480
199.438,480
199.463,486
199.488,497
199.513,503
199.538,496
199.563,478
199.588,454
199.613,430
199.638,406
199.663,376
199.688,336
199.713,289
199.738,240
199.763,191
199.788,144
199.813,95
199.838,49
199.863,3
199.888,-45
199.913,-103
199.938,-165
199.963,-208
199.988,-206
200.013,-148
200.038,-51
200.063,49
200.088,129
200.113,187
200.138,239
200.163,297
200.188,358
200.213,407
200.238,436
200.263,449
200.288,458
200.313,469
200.338,481
200.363,489
200.388,490
200.413,484
200.438,473
200.463,454
200.488,430
200.513,400
200.538,367
200.563,330
200.588,288
200.613,242
200.638,196
200.663,153
200.688,112
200.713,67
200.738,20
200.763,-24
200.788,-64
200.813,-106
200.838,-155
200.863,-210
200.888,-249
200.913,-243
200.938,-179
200.963,-69
200.988,49
201.013,147
201.038,219
201.063,277
201.088,338
201.113,402
201.138,457
201.163,492
201.188,504
201.213,503
201.238,500
201.263,500
201.288,505
201.313,508
201.338,503
201.363,486
201.388,460
201.413,429
201.438,398
201.463,367
201.488,333
201.513,292
201.538,248
201.563,204
201.588,163
201.613,125
201.638,86
201.663,48
201.688,9
201.713,-32
201.738,-85
201.763,-145
201.788,-198
201.813,-217
201.838,-183
201.863,-102
201.888,-1
201.913,89
201.938,159
201.963,218
201.988,279
202.013,346
202.038,409
202.063,451
202.088,468
202.113,470
202.138,472
202.163,481
202.188,494
202.213,502
202.238,497
202.263,482
202.288,461
202.313,439
202.338,416
202.363,388
202.388,352
202.413,312
202.438,270
202.463,230
202.488,189
202.513,145
202.538,100
202.563,57
202.588,16
202.613,-29
202.638,-83
202.663,-142
202.688,-185
202.713,-187
202.738,-137
202.763,-47
202.788,51
202.813,133
202.838,191
202.863,236
202.888,286
202.913,340
202.938,386
202.963,411
202.988,414
203.013,410
203.038,415
203.063,431
203.088,445
203.113,447
203.138,435
203.163,415
203.188,395
203.213,374
203.238,349
203.263,317
203.288,281
203.313,245
203.338,209
203.363,172
203.388,135
203.413,101
203.438,67
203.463,25
203.488,-26
203.513,-75
203.538,-96
203.563,-68
203.588,4
203.613,95
203.638,174
203.663,229
203.688,269
203.713,308
203.738,347
203.763,377
203.788,389
203.813,385
203.838,377
203.863,378
203.888,385
203.913,393
203.938,392
203.963,380
203.988,360
204.013,335
204.038,307
204.063,274
204.088,237
204.113,197
204.138,158
204.163,119
204.188,79
204.213,32
204.238,-21
204.263,-71
204.288,-93
204.313,-69
204.338,-1
204.363,88
204.388,170
204.413,229
204.438,272
204.463,311
204.488,353
204.513,390
204.538,410
204.563,411
204.588,404
204.613,401
204.638,403
204.663,406
204.688,399
204.713,382
204.738,358
204.763,332
204.788,304
204.813,270
204.838,227
204.863,178
204.888,129
204.913,85
204.938,45
204.963,0
204.988,-56
205.013,-112
205.038,-142
205.063,-123
205.088,-54
205.113,39
205.138,126
205.163,189
205.188,237
205.213,288
205.238,349
205.263,405
205.288,439
205.313,445
205.338,439
205.363,436
205.388,443
205.413,452
205.438,454
205.463,447
205.488,431
205.513,407
205.538,375
205.563,336
205.588,297
205.613,260
205.638,220
205.663,172
205.688,117
205.713,63
205.738,17
205.763,-25
205.788,-76
205.813,-137
205.838,-187
205.863,-195
205.888,-147
205.913,-55
205.938,48
205.963,136
205.988,205
206.013,266
206.038,330
206.063,395
206.088,448
206.113,480
206.138,493
206.163,496
206.188,497
206.213,502
206.238,505
206.263,503
206.288,492
206.313,473
206.338,449
206.363,422
206.388,392
206.413,358
206.438,319
206.463,277
206.488,238
206.513,202
206.538,163
206.563,117
206.588,67
206.613,19
206.638,-21
206.663,-63
206.688,-117
206.713,-182
206.738,-236
206.763,-246
206.788,-196
206.813,-99
206.838,4
206.863,86
206.888,144
206.913,194
206.938,256
206.963,327
206.988,390
207.013,432
207.038,450
207.063,455
207.088,459
207.113,467
207.138,478
207.163,490
207.188,497
207.213,493
207.238,475
207.263,447
207.288,415
207.313,384
207.338,352
207.363,313
207.388,268
207.413,221
207.438,178
207.463,137
207.488,95
207.513,52
207.538,8
207.563,-35
207.588,-85
207.613,-140
207.638,-184
207.663,-192
207.688,-144
207.713,-51
207.738,53
207.763,139
207.788,197
207.813,243
207.838,297
207.863,360
207.888,415
207.913,447
207.938,456
207.963,455
207.988,458
208.013,465
208.038,472
208.063,472
208.088,463
208.113,449
208.138,431
208.163,407
208.188,379
208.213,345
208.238,308
208.263,270
208.288,233
208.313,196
208.338,160
208.363,123
208.388,86
208.413,49
208.438,10
208.463,-35
208.488,-88
208.513,-139
208.538,-168
208.563,-155
208.588,-95
208.613,-6
208.638,84
208.663,156
208.688,211
208.713,260
208.738,314
208.763,367
208.788,408
208.813,428
208.838,433
208.863,433
208.888,439
208.913,450
208.938,460
208.963,462
208.988,453
209.013,438
209.038,419
209.063,399
209.088,374
209.113,342
209.138,306
209.163,269
209.188,234
209.213,201
209.238,165
209.263,127
209.288,87
209.313,51
209.338,14
209.363,-28
209.388,-78
209.413,-122
209.438,-140
209.463,-112
209.488,-42
209.513,45
209.538,125
209.563,183
209.588,228
209.613,271
209.638,317
209.663,356
209.688,379
209.713,384
209.738,384
209.763,390
209.788,403
209.813,416
209.838,420
209.863,412
209.888,398
209.913,383
209.938,366
209.963,344
209.988,315
210.013,284
210.038,256
210.063,230
210.088,203
210.113,172
210.138,138
210.163,101
210.188,60
210.213,13
210.238,-28
210.263,-49
210.288,-31
210.313,24
210.338,100
210.363,170
210.388,223
210.413,263
210.438,300
210.463,336
210.488,364
210.513,375
210.538,371
210.563,364
210.588,365
210.613,373
210.638,379
210.663,377
210.688,364
210.713,346
210.738,327
210.763,305
210.788,277
210.813,241
210.838,198
210.863,155
210.888,118
210.913,85
210.938,48
210.963,1
210.988,-48
211.013,-82
211.038,-77
211.063,-24
211.088,59
211.113,144
211.138,208
211.163,251
211.188,288
211.213,330
211.238,373
211.263,402
211.288,408
211.313,398
211.338,390
211.363,392
211.388,403
211.413,409
211.438,401
211.463,379
211.488,350
211.513,319
211.538,287
211.563,252
211.588,210
211.613,165
211.638,120
211.663,76
211.688,29
211.713,-23
211.738,-81
211.763,-131
211.788,-147
211.813,-115
211.838,-39
211.863,54
211.888,138
211.913,200
211.938,248
211.963,301
211.988,363
212.013,420
212.038,454
212.063,462
212.088,457
212.113,454
212.138,459
212.163,464
212.188,462
212.213,448
212.238,428
212.263,404
212.288,374
212.313,338
212.338,296
212.363,251
212.388,204
212.413,154
212.438,103
212.463,55
212.488,13
212.513,-32
212.538,-91
212.563,-157
212.588,-207
212.613,-209
212.638,-152
212.663,-54
212.688,47
212.713,128
212.738,188
212.763,246
212.788,314
212.813,385
212.838,442
212.863,475
212.888,488
212.913,493
212.938,499
212.963,507
212.988,515
213.013,521
213.038,520
213.063,508
213.088,484
213.113,452
213.138,421
213.163,394
213.188,367
213.213,330
213.238,282
213.263,230
213.288,182
213.313,138
213.338,93
213.363,43
213.388,-6
213.413,-51
213.438,-95
213.463,-148
213.488,-211
213.513,-267
213.538,-285
213.563,-245
213.588,-154
213.613,-44
213.638,50
213.663,121
213.688,179
213.713,243
213.738,317
213.763,389
213.788,443
213.813,473
213.838,485
213.863,494
213.888,504
213.913,517
213.938,527
213.963,529
213.988,522
214.013,506
214.038,483
214.063,455
214.088,426
214.113,396
214.138,363
214.163,324
214.188,283
214.213,243
214.238,205
214.263,165
214.288,119
214.313,68
214.338,18
214.363,-24
214.388,-65
214.413,-113
214.438,-174
214.463,-229
214.488,-249
214.513,-213
214.538,-127
214.563,-25
214.588,62
214.613,125
214.638,178
214.663,239
214.688,312
214.713,381
214.738,428
214.763,450
214.788,459
214.813,470
214.838,487
214.863,503
214.888,510
214.913,506
214.938,497
214.963,485
214.988,468
215.013,444
215.038,413
215.063,379
215.088,345
215.113,312
215.138,278
215.163,243
215.188,208
215.213,169
215.238,126
215.263,80
215.288,37
215.313,0
215.338,-35
215.363,-78
215.388,-134
215.413,-185
215.438,-202
215.463,-163
215.488,-76
215.513,25
215.538,109
215.563,166
215.588,213
215.613,267
215.638,330
215.663,384
215.688,416
215.713,428
215.738,433
215.763,445
215.788,461
215.813,472
215.838,475
215.863,471
215.888,464
215.913,455
215.938,440
215.963,417
215.988,388
216.013,356
216.038,322
216.063,289
216.088,256
216.113,224
216.138,190
216.163,152
216.188,111
216.213,70
216.238,34
216.263,0
216.288,-43
216.313,-94
216.338,-138
216.363,-147
216.388,-106
216.413,-25
216.438,65
216.463,138
216.488,188
216.513,229
216.538,275
216.563,324
216.588,365
216.613,386
216.638,392
216.663,394
216.688,400
216.713,411
216.738,418
216.763,418
216.788,413
216.813,403
216.838,388
216.863,365
216.888,335
216.913,302
216.938,270
216.963,240
216.988,209
217.013,174
217.038,140
217.063,107
217.088,75
217.113,36
217.138,-9
217.163,-51
217.188,-68
217.213,-43
217.238,19
217.263,98
217.288,169
217.313,222
217.338,263
217.363,303
217.388,344
217.413,377
217.438,393
217.463,392
217.488,385
217.513,384
217.538,390
217.563,397
217.588,396
217.613,384
217.638,362
217.663,337
217.688,309
217.713,277
217.738,240
217.763,201
217.788,163
217.813,127
217.838,90
217.863,45
217.888,-9
217.913,-65
217.938,-101
217.963,-98
217.988,-50
218.013,28
218.038,111
218.063,179
218.088,230
218.113,276
218.138,324
218.163,371
218.188,406
218.213,421
218.238,418
218.263,412
218.288,414
218.313,423
218.338,429
218.363,422
218.388,402
218.413,374
218.438,344
218.463,313
218.488,280
218.513,239
218.538,193
218.563,145
218.588,100
218.613,59
218.638,13
218.663,-40
218.688,-96
218.713,-133
218.738,-127
218.763,-72
218.788,14
218.813,105
218.838,176
218.863,228
218.888,277
218.913,333
218.938,391
218.963,435
218.988,453
219.013,452
219.038,445
219.063,446
219.088,452
219.113,455
219.138,448
219.163,429
219.188,401
219.213,369
219.238,334
219.263,298
219.288,261
219.313,218
219.338,171
219.363,121
219.388,75
219.413,33
219.438,-11
219.463,-68
219.488,-132
219.513,-182
219.538,-189
219.563,-141
219.588,-54
219.613,40
219.638,120
219.663,184
219.688,243
219.713,308
219.738,375
219.763,430
219.788,464
219.813,477
219.838,482
219.863,486
219.888,493
219.913,497
219.938,495
219.963,485
219.988,468
220.013,447
220.038,423
220.063,394
220.088,358
220.113,317
220.138,273
220.163,230
220.188,187
220.213,142
220.238,96
220.263,50
220.288,6
220.313,-40
220.338,-94
220.363,-157
220.388,-211
220.413,-232
220.438,-201
220.463,-125
220.488,-27
220.513,62
220.538,133
220.563,191
220.588,250
220.613,315
220.638,377
220.663,424
220.688,450
220.713,459
220.738,461
220.763,465
220.788,474
220.813,481
220.838,480
220.863,467
220.888,444
220.913,419
220.938,392
220.963,362
220.988,325
221.013,283
221.038,241
221.063,203
221.088,165
221.113,124
221.138,80
221.163,37
221.188,0
221.213,-41
221.238,-92
221.263,-146
221.288,-178
221.313,-163
221.338,-96
221.363,0
221.388,90
221.413,158
221.438,209
221.463,263
221.488,326
221.513,389
221.538,435
221.563,458
221.588,466
221.613,471
221.638,478
221.663,487
221.688,493
221.713,492
221.738,483
221.763,468
221.788,448
221.813,425
221.838,398
221.863,364
221.888,324
221.913,281
221.938,241
221.963,206
221.988,173
222.013,135
222.038,93
222.063,51
222.088,13
222.113,-26
222.138,-76
222.163,-129
222.188,-163
222.213,-151
222.238,-89
222.263,0
222.288,82
222.313,139
222.338,178
222.363,218
222.388,270
222.413,324
222.438,362
222.463,377
222.488,379
222.513,381
222.538,390
222.563,403
222.588,411
222.613,410
222.638,399
222.663,380
222.688,358
222.713,335
222.738,314
222.763,293
222.788,266
222.813,231
222.838,193
222.863,157
222.888,126
222.913,91
222.938,46
222.963,-2
222.988,-35
223.013,-30
223.038,17
223.063,89
223.088,160
223.113,213
223.138,250
223.163,284
223.188,322
223.213,356
223.238,375
223.263,374
223.288,363
223.313,356
223.338,358
223.363,366
223.388,369
223.413,360
223.438,341
223.463,317
223.488,292
223.513,262
223.538,226
223.563,186
223.588,147
223.613,114
223.638,81
223.663,42
223.688,-7
223.713,-54
223.738,-76
223.763,-56
223.788,5
223.813,86
223.838,159
223.863,213
223.888,254
223.913,297
223.938,345
223.963,388
223.988,413
224.013,415
224.038,404
224.063,396
224.088,397
224.113,404
224.138,404
224.163,390
224.188,366
224.213,337
224.238,309
224.263,278
224.288,240
224.313,195
224.338,147
224.363,101
224.388,56
224.413,6
224.438,-49
224.463,-100
224.488,-121
224.513,-95
224.538,-27
224.563,60
224.588,140
224.613,200
224.638,246
224.663,295
224.688,349
224.713,399
224.738,430
224.763,436
224.788,428
224.813,422
224.838,425
224.863,431
224.888,430
224.913,414
224.938,386
224.963,355
224.988,324
225.013,291
225.038,252
225.063,206
225.088,158
225.113,113
225.138,70
225.163,22
225.188,-34
225.213,-94
225.238,-139
225.263,-145
225.288,-104
225.313,-28
225.338,57
225.363,133
225.388,195
225.413,252
225.438,313
225.463,377
225.488,432
225.513,465
225.538,476
225.563,475
225.588,474
225.613,478
225.638,482
225.663,479
225.688,465
225.713,444
225.738,419
225.763,390
225.788,357
225.813,318
225.838,276
225.863,234
225.888,192
225.913,149
225.938,104
225.963,56
225.988,8
226.013,-43
226.038,-101
226.063,-159
226.088,-202
226.113,-208
226.138,-168
226.163,-89
226.188,2
226.213,88
226.238,160
226.263,224
226.288,288
226.313,352
226.338,407
226.363,444
226.388,461
226.413,467
226.438,469
226.463,475
226.488,483
226.513,487
226.538,481
226.563,465
226.588,442
226.613,414
226.638,386
226.663,354
226.688,318
226.713,279
226.738,239
226.763,200
226.788,158
226.813,112
226.838,66
226.863,24
226.888,-14
226.913,-58
226.938,-114
226.963,-172
226.988,-205
227.013,-187
227.038,-117
227.063,-20
227.088,70
227.113,137
227.138,191
227.163,250
227.188,318
227.213,383
227.238,429
227.263,451
227.288,460
227.313,469
227.338,482
227.363,494
227.388,499
227.413,493
227.438,480
227.463,464
227.488,444
227.513,421
227.538,392
227.563,358
227.588,318
227.613,278
227.638,241
227.663,206
227.688,170
227.713,129
227.738,85
227.763,41
227.788,-1
227.813,-47
227.838,-99
227.863,-149
227.888,-175
227.913,-156
227.938,-92
227.963,-3
227.988,81
228.013,146
228.038,196
228.063,247
228.088,304
228.113,358
228.138,393
228.163,406
228.188,408
228.213,413
228.238,425
228.263,438
228.288,443
228.313,436
228.338,425
228.363,411
228.388,394
228.413,369
228.438,337
228.463,302
228.488,268
228.513,236
228.538,203
228.563,168
228.588,133
228.613,98
228.638,59
228.663,12
228.688,-36
228.713,-68
228.738,-65
228.763,-22
228.788,46
228.813,117
228.838,176
228.863,224
228.888,268
228.913,312
228.938,347
228.963,365
228.988,367
229.013,363
229.038,362
229.063,369
229.088,378
229.113,381
229.138,374
229.163,360
229.188,341
229.213,317
229.238,288
229.263,253
229.288,216
229.313,180
229.338,146
229.363,111
229.388,68
229.413,18
229.438,-26
229.463,-48
229.488,-30
229.513,25
229.538,101
229.563,171
229.588,223
229.613,262
229.638,301
229.663,343
229.688,378
229.713,395
229.738,392
229.763,382
229.788,377
229.813,379
229.838,381
229.863,374
229.888,356
229.913,332
229.938,306
229.963,275
229.988,237
230.013,192
230.038,147
230.063,105
230.088,63
230.113,15
230.138,-40
230.163,-89
230.188,-110
230.213,-83
230.238,-12
230.263,78
230.288,161
230.313,221
230.338,265
230.363,306
230.388,353
230.413,398
230.438,426
230.463,432
230.488,423
230.513,413
230.538,410
230.563,410
230.588,403
230.613,384
230.638,356
230.663,325
230.688,290
230.713,252
230.738,207
230.763,160
230.788,115
230.813,70
230.838,18
230.863,-44
230.888,-106
230.913,-141
230.938,-127
230.963,-60
230.988,33
231.013,123
231.038,191
231.063,242
231.088,295
231.113,358
231.138,417
231.163,454
231.188,465
231.213,460
231.238,457
231.263,462
231.288,469
231.313,469
231.338,457
231.363,438
231.388,415
231.413,385
231.438,346
231.463,302
231.488,258
231.513,215
231.538,171
231.563,123
231.588,74
231.613,28
231.638,-14
231.663,-62
231.688,-123
231.713,-185
231.738,-222
231.763,-209
231.788,-140
231.813,-42
231.838,53
231.863,127
231.888,185
231.913,245
231.938,314
231.963,384
231.988,438
232.013,469
232.038,481
232.063,487
232.088,495
232.113,505
232.138,512
232.163,512
232.188,505
232.213,491
232.238,469
232.263,441
232.288,411
232.313,382
232.338,352
232.363,315
232.388,272
232.413,227
232.438,187
232.463,152
232.488,115
232.513,69
232.538,19
232.563,-26
232.588,-68
232.613,-113
232.638,-168
232.663,-222
232.688,-248
232.713,-220
232.738,-139
232.763,-34
232.788,57
232.813,123
232.838,174
232.863,233
232.888,304
232.913,371
232.938,416
232.963,435
232.988,443
233.013,454
233.038,472
233.063,489
233.088,499
233.113,499
233.138,494
233.163,485
233.188,470
233.213,448
233.238,423
233.263,397
233.288,370
233.313,339
233.338,303
233.363,267
233.388,233
233.413,203
233.438,171
233.463,132
233.488,88
233.513,46
233.538,9
233.563,-24
233.588,-67
233.613,-119
233.638,-168
233.663,-188
233.688,-160
233.713,-90
233.738,-1
233.763,75
233.788,131
233.813,175
233.838,224
233.863,285
233.888,347
233.913,393
233.938,416
233.963,424
233.988,430
234.013,442
234.038,456
234.063,466
234.088,469
234.113,464
234.138,453
234.163,438
234.188,418
234.213,395
234.238,371
234.263,346
234.288,320
234.313,289
234.338,255
234.363,218
234.388,180
234.413,144
234.438,108
234.463,76
234.488,45
234.513,11
234.538,-29
234.563,-74
234.588,-106
234.613,-104
234.638,-60
234.663,13
234.688,89
234.713,147
234.738,187
234.763,224
234.788,268
234.813,314
234.838,349
234.863,363
234.888,363
234.913,363
234.938,374
234.963,391
234.988,406
235.013,409
235.038,400
235.063,386
235.088,371
235.113,357
235.138,341
235.163,319
235.188,292
235.213,261
235.238,232
235.263,207
235.288,183
235.313,159
235.338,131
235.363,99
235.388,62
235.413,20
235.438,-22
235.463,-51
235.488,-49
235.513,-8
235.538,60
235.563,134
235.588,191
235.613,231
235.638,264
235.663,301
235.688,340
235.713,368
235.738,376
235.763,372
235.788,371
235.813,380
235.838,394
235.863,402
235.888,401
235.913,392
235.938,380
235.963,365
235.988,344
236.013,317
236.038,285
236.063,251
236.088,216
236.113,179
236.138,143
236.163,112
236.188,83
236.213,49
236.238,3
236.263,-46
236.288,-83
236.313,-85
236.338,-42
236.363,31
236.388,109
236.413,173
236.438,221
236.463,262
236.488,308
236.513,356
236.538,394
236.563,412
236.588,412
236.613,407
236.638,407
236.663,415
236.688,423
236.713,424
236.738,414
236.763,396
236.788,373
236.813,346
236.838,313
236.863,276
236.888,238
236.913,200
236.938,161
236.963,122
236.988,83
237.013,42
237.038,-1
237.063,-52
237.088,-102
237.113,-135
237.138,-131
237.163,-83
237.188,-2
237.213,84
237.238,156
237.263,209
237.288,255
237.313,306
237.338,360
237.363,407
237.388,434
237.413,442
237.438,441
237.463,444
237.488,453
237.513,462
237.538,462
237.563,451
237.588,432
237.613,410
237.638,386
237.663,359
237.688,327
237.713,290
237.738,253
237.763,216
237.788,176
237.813,132
237.838,85
237.863,43
237.888,3
237.913,-42
237.938,-99
237.963,-158
237.988,-194
238.013,-180
238.038,-115
238.063,-22
238.088,66
238.113,134
238.138,188
238.163,246
238.188,315
238.213,384
238.238,436
238.263,464
238.288,473
238.313,477
238.338,484
238.363,494
238.388,501
238.413,501
238.438,494
238.463,478
238.488,457
238.513,431
238.538,400
238.563,363
238.588,323
238.613,282
238.638,242
238.663,203
238.688,161
238.713,115
238.738,66
238.763,20
238.788,-22
238.813,-71
238.838,-130
238.863,-193
238.888,-235
238.913,-229
238.938,-170
238.963,-75
238.988,23
239.013,104
239.038,167
239.063,226
239.088,292
239.113,360
239.138,417
239.163,451
239.188,466
239.213,471
239.238,477
239.263,488
239.288,499
239.313,502
239.338,492
239.363,473
239.388,450
239.413,425
239.438,397
239.463,362
239.488,321
239.513,279
239.538,241
239.563,205
239.588,165
239.613,119
239.638,72
239.663,29
239.688,-11
239.713,-58
239.738,-118
239.763,-176
239.788,-205
239.813,-181
239.838,-104
239.863,-2
239.888,92
239.913,164
239.938,221
239.963,277
239.988,338
240.013,395
240.038,434
240.063,449
240.088,449
240.113,449
240.138,455
240.163,464
240.188,470
240.213,466
240.238,455
240.263,438
240.288,417
240.313,391
240.338,358
240.363,320
240.388,278
240.413,237
240.438,196
240.463,157
240.488,119
240.513,82
240.538,42
240.563,-6
240.588,-63
240.613,-114
240.638,-136
240.663,-112
240.688,-47
240.713,34
240.738,107
240.763,163
240.788,210
240.813,261
240.838,315
240.863,358
240.888,379
240.913,382
240.938,381
240.963,384
240.988,392
241.013,399
241.038,399
241.063,394
241.088,383
241.113,364
241.138,338
241.163,305
241.188,273
241.213,244
241.238,215
241.263,184
241.288,151
241.313,119
241.338,85
241.363,45
241.388,2
241.413,-29
241.438,-30
241.463,9
241.488,79
241.513,153
241.538,209
241.563,247
241.588,277
241.613,311
241.638,345
241.663,367
241.688,371
241.713,363
241.738,356
241.763,358
241.788,367
241.813,371
241.838,363
241.863,343
241.888,318
241.913,295
241.938,273
241.963,246
241.988,212
242.013,172
242.038,133
242.063,93
242.088,49
242.113,-1
242.138,-46
242.163,-61
242.188,-32
242.213,33
242.238,111
242.263,174
242.288,216
242.313,249
242.338,287
242.363,330
242.388,367
242.413,385
242.438,388
242.463,384
242.488,383
242.513,385
242.538,385
242.563,377
242.588,361
242.613,340
242.638,315
242.663,286
242.688,252
242.713,216
242.738,179
242.763,142
242.788,101
242.813,55
242.838,3
242.863,-46
242.888,-77
242.913,-72
242.938,-26
242.963,47
242.988,125
243.013,187
243.038,230
243.063,270
243.088,316
243.113,366
243.138,404
243.163,420
243.188,416
243.213,407
243.238,405
243.263,409
243.288,410
243.313,401
243.338,381
243.363,356
243.388,328
243.413,297
243.438,261
243.463,220
243.488,179
243.513,141
243.538,106
243.563,65
243.588,13
243.613,-47
243.638,-99
243.663,-122
243.688,-101
243.713,-41
243.738,39
243.763,116
243.788,179
243.813,233
243.838,286
243.863,342
243.888,392
243.913,425
243.938,440
243.963,444
243.988,447
244.013,451
244.038,456
244.063,454
244.088,446
244.113,433
244.138,413
244.163,386
244.188,353
244.213,315
244.238,278
244.263,242
244.288,202
244.313,157
244.338,111
244.363,69
244.388,31
244.413,-10
244.438,-63
244.463,-122
244.488,-167
244.513,-172
244.538,-126
244.563,-44
244.588,43
244.613,116
244.638,170
244.663,221
244.688,281
244.713,347
244.738,403
244.763,434
244.788,442
244.813,442
244.838,447
244.863,459
244.888,469
244.913,470
244.938,458
244.963,440
244.988,420
245.013,398
245.038,370
245.063,336
245.088,299
245.113,262
245.138,225
245.163,183
245.188,138
245.213,93
245.238,53
245.263,17
245.288,-25
245.313,-81
245.338,-140
245.363,-179
245.388,-175
245.413,-120
245.438,-33
245.463,57
245.488,132
245.513,191
245.538,249
245.563,314
245.588,379
245.613,430
245.638,456
245.663,462
245.688,461
245.713,464
245.738,472
245.763,479
245.788,478
245.813,469
245.838,454
245.863,434
245.888,407
245.913,374
245.938,336
245.963,298
245.988,262
246.013,227
246.038,190
246.063,149
246.088,105
246.113,61
246.138,16
246.163,-34
246.188,-89
246.213,-137
246.238,-158
246.263,-137
246.288,-73
246.313,12
246.338,93
246.363,156
246.388,204
246.413,251
246.438,302
246.463,348
246.488,376
246.513,383
246.538,380
246.563,382
246.588,394
246.613,406
246.638,409
246.663,401
246.688,387
246.713,371
246.738,353
246.763,330
246.788,300
246.813,268
246.838,236
246.863,205
246.888,172
246.913,138
246.938,102
246.963,60
246.988,11
247.013,-35
247.038,-59
247.063,-40
247.088,22
247.113,104
247.138,174
247.163,220
247.188,251
247.213,283
247.238,318
247.263,345
247.288,350
247.313,340
247.338,328
247.363,325
247.388,329
247.413,331
247.438,328
247.463,318
247.488,304
247.513,283
247.538,258
247.563,236
247.588,222
247.613,215
247.638,205
247.663,182
247.688,148
247.713,110
247.738,70
247.763,29
247.788,-1
247.813,-5
247.838,30
247.863,97
247.888,168
247.913,222
247.938,262
247.963,308
247.988,366
248.013,421
248.038,450
248.063,448
248.088,431
248.113,425
248.138,439
248.163,464
248.188,487
248.213,503
248.238,507
248.263,496
248.288,466
248.313,421
248.338,371
248.363,326
248.388,283
248.413,232
248.438,168
248.463,92
248.488,5
248.513,-88
248.538,-178
248.563,-238
248.588,-239
248.613,-176
248.638,-78
248.663,12
248.688,73
248.713,110
248.738,147
248.763,193
248.788,237
248.813,262
248.838,268
248.863,265
248.888,268
248.913,282
248.938,303
248.963,324
248.988,340
249.013,342
249.038,325
249.063,294
249.088,264
249.113,243
249.138,227
249.163,203
249.188,168
249.213,127
249.238,89
249.263,52
249.288,8
249.313,-40
249.338,-66
249.363,-45
249.388,25
249.413,114
249.438,187
249.463,234
249.488,272
249.513,321
249.538,378
249.563,424
249.588,446
249.613,449
249.638,451
249.663,457
249.688,463
249.713,460
249.738,450
249.763,439
249.788,427
249.813,409
249.838,382
249.863,348
249.888,315
249.913,280
249.938,238
249.963,189
249.988,137
250.013,90
250.038,40
250.063,-19
250.088,-82
250.113,-121
250.138,-105
250.163,-32
250.188,66
250.213,152
250.238,209
250.263,251
250.288,300
250.313,360
250.338,416
250.363,451
250.388,465
250.413,470
250.438,474
250.463,474
250.488,466
250.513,447
250.538,422
250.563,389
250.588,344
250.613,290
250.638,236
250.663,195
250.688,166
250.713,140
250.738,103
250.763,57
250.788,8
250.813,-36
250.838,-82
250.863,-132
250.888,-173
250.913,-180
250.938,-136
250.963,-51
250.988,42
251.013,119
251.038,173
251.063,221
251.088,277
251.113,337
251.138,384
251.163,410
251.188,421
251.213,431
251.238,445
251.263,461
251.288,471
251.313,474
251.338,471
251.363,462
251.388,443
251.413,413
251.438,379
251.463,344
251.488,310
251.513,270
251.538,223
251.563,172
251.588,123
251.613,73
251.638,16
251.663,-43
251.688,-81
251.713,-72
251.738,-11
251.763,77
251.788,158
251.813,211
251.838,244
251.863,278
251.888,319
251.913,358
251.938,378
251.963,377
251.988,368
252.013,365
252.038,369
252.063,370
252.088,362
252.113,343
252.138,320
252.163,295
252.188,268
252.213,236
252.238,198
252.263,154
252.288,105
252.313,51
252.338,-9
252.363,-73
252.388,-129
252.413,-158
252.438,-142
252.463,-75
252.488,20
252.513,111
252.538,175
252.563,218
252.588,264
252.613,329
252.638,398
252.663,438
252.688,435
252.713,412
252.738,405
252.763,426
252.788,451
252.813,446
252.838,403
252.863,349
252.888,313
252.913,296
252.938,279
252.963,246
252.988,204
253.013,167
253.038,133
253.063,93
253.088,44
253.113,10
253.138,19
253.163,76
253.188,152
253.213,214
253.238,252
253.263,287
253.288,336
253.313,392
253.338,433
253.363,442
253.388,430
253.413,415
253.438,406
253.463,397
253.488,379
253.513,354
253.538,326
253.563,298
253.588,264
253.613,222
253.638,179
253.663,137
253.688,91
253.713,26
253.738,-59
253.763,-145
253.788,-199
253.813,-204
253.838,-166
253.863,-111
253.888,-64
253.913,-29
253.938,0
253.963,30
253.988,63
254.013,95
254.038,125
254.063,156
254.088,184
254.113,203
254.138,209
254.163,208
254.188,215
254.213,240
254.238,276
254.263,298
254.288,288
254.313,251
254.338,213
254.363,197
254.388,196
254.413,181
254.438,133
254.463,74
254.488,55
254.513,110
254.538,222
254.563,331
254.588,390
254.613,399
254.638,397
254.663,422
254.688,480
254.713,546
254.738,599
254.763,635
254.788,667
254.813,702
254.838,746
254.863,798
254.888,857
254.913,909
254.938,927
254.963,890
254.988,796
255.013,671
255.038,547
255.063,437
255.088,330
255.113,218
255.138,115
255.163,54
255.188,62
255.213,133
255.238,229
255.263,308
255.288,348
255.313,346
255.338,303
255.363,206
255.388,35
255.413,-210
255.438,-495
255.463,-755
255.488,-925
255.513,-971
255.538,-893
255.563,-720
255.588,-495
255.613,-270
255.638,-91
255.663,20
255.688,74
255.713,92
255.738,82
255.763,32
255.788,-52
255.813,-121
255.838,-95
255.863,67
255.888,327
255.913,587
255.938,778
255.963,905
255.988,1022
256.013,1152
256.038,1259
256.063,1288
256.088,1236
256.113,1152
256.138,1075
256.163,989
256.188,853
256.213,664
256.238,480
256.263,358
256.288,289
256.313,200
256.338,35
256.363,-195
256.388,-439
256.413,-667
256.438,-888
256.463,-1092
256.488,-1201
256.513,-1111
256.538,-800
256.563,-380
256.588,-25
256.613,172
256.638,258
256.663,340
256.688,470
256.713,596
256.738,642
256.763,602
256.788,551
256.813,555
256.838,597
256.863,598
256.888,510
256.913,378
256.938,296
256.963,315
256.988,382
257.013,385
257.038,247
257.063,-9
257.088,-294
257.113,-504
257.138,-586
257.163,-535
257.188,-374
257.213,-134
257.238,147
257.263,428
257.288,666
257.313,835
257.338,923
257.363,936
257.388,892
257.413,815
257.438,736
257.463,675
257.488,628
257.513,576
257.538,505
257.563,419
257.588,335
257.613,267
257.638,214
257.663,164
257.688,112
257.713,61
257.738,10
257.763,-46
257.788,-106
257.813,-147
257.838,-133
257.863,-48
257.888,85
257.913,222
257.938,328
257.963,404
257.988,469
258.013,530
258.038,573
258.063,580
258.088,555
258.113,520
258.138,488
258.163,452
258.188,399
258.213,334
258.238,277
258.263,239
258.288,206
258.313,155
258.338,77
258.363,-5
258.388,-73
258.413,-127
258.438,-183
258.463,-241
258.488,-269
258.513,-225
258.538,-103
258.563,53
258.588,191
258.613,284
258.638,346
258.663,403
258.688,456
258.713,490
258.738,493
258.763,475
258.788,458
258.813,451
258.838,442
258.863,421
258.888,389
258.913,355
258.938,321
258.963,277
258.988,214
259.013,144
259.038,84
259.063,38
259.088,-8
259.113,-71
259.138,-139
259.163,-174
259.188,-143
259.213,-47
259.238,73
259.263,173
259.288,237
259.313,279
259.338,321
259.363,367
259.388,403
259.413,419
259.438,419
259.463,417
259.488,420
259.513,421
259.538,410
259.563,387
259.588,355
259.613,321
259.638,284
259.663,244
259.688,201
259.713,159
259.738,113
259.763,56
259.788,-9
259.813,-65
259.838,-79
259.863,-33
259.888,54
259.913,148
259.938,219
259.963,263
259.988,296
260.013,329
260.038,357
260.063,366
260.088,355
260.113,338
260.138,325
260.163,319
260.188,310
260.213,295
260.238,275
260.263,251
260.288,224
260.313,190
260.338,154
260.363,123
260.388,94
260.413,54
260.438,-1
260.463,-55
260.488,-72
260.513,-25
260.538,74
260.563,191
260.588,286
260.613,350
260.638,394
260.663,432
260.688,462
260.713,476
260.738,475
260.763,468
260.788,467
260.813,473
260.838,480
260.863,478
260.888,463
260.913,434
260.938,398
260.963,360
260.988,323
261.013,279
261.038,216
261.063,133
261.088,56
261.113,21
261.138,56
261.163,148
261.188,257
261.213,343
261.238,397
261.263,436
261.288,478
261.313,524
261.338,555
261.363,553
261.388,512
261.413,444
261.438,366
261.463,290
261.488,219
261.513,148
261.538,72
261.563,0
261.588,-55
261.613,-84
261.638,-109
261.663,-166
261.688,-276
261.713,-408
261.738,-494
261.763,-479
261.788,-367
261.813,-217
261.838,-91
261.863,1
261.888,94
261.913,220
261.938,369
261.963,497
261.988,569
262.013,586
262.038,576
262.063,565
262.088,557
262.113,543
262.138,514
262.163,472
262.188,423
262.213,372
262.238,316
262.263,249
262.288,165
262.313,67
262.338,-25
262.363,-79
262.388,-70
262.413,0
262.438,99
262.463,195
262.488,271
262.513,334
262.538,392
262.563,445
262.588,481
262.613,488
262.638,473
262.663,449
262.688,429
262.713,416
262.738,407
262.763,394
262.788,372
262.813,337
262.838,289
262.863,234
262.888,175
262.913,106
262.938,25
262.963,-59
262.988,-120
263.013,-130
263.038,-86
263.063,-14
263.088,49
263.113,87
263.138,112
263.163,139
263.188,173
263.213,199
263.238,204
263.263,194
263.288,183
263.313,182
263.338,192
263.363,204
263.388,211
263.413,209
263.438,194
263.463,166
263.488,132
263.513,100
263.538,70
263.563,27
263.588,-36
263.613,-101
263.638,-123
263.663,-65
263.688,67
263.713,224
263.738,351
263.763,430
263.788,485
263.813,543
263.838,607
263.863,652
263.888,659
263.913,636
263.938,608
263.963,589
263.988,573
264.013,548
264.038,509
264.063,461
264.088,405
264.113,338
264.138,260
264.163,184
264.188,118
264.213,59
264.238,-10
264.263,-96
264.288,-173
264.313,-202
264.338,-163
264.363,-74
264.388,18
264.413,88
264.438,137
264.463,181
264.488,226
264.513,258
264.538,263
264.563,248
264.588,235
264.613,238
264.638,253
264.663,264
264.688,263
264.713,250
264.738,233
264.763,215
264.788,196
264.813,173
264.838,145
264.863,108
264.888,62
264.913,26
264.938,31
264.963,97
264.988,218
265.013,356
265.038,474
265.063,558
265.088,618
265.113,668
265.138,702
265.163,710
265.188,692
265.213,668
265.238,658
265.263,661
265.288,663
265.313,648
265.338,620
265.363,589
265.388,561
265.413,528
265.438,483
265.463,423
265.488,347
265.513,245
265.538,97
265.563,-98
265.588,-314
265.613,-498
265.638,-604
265.663,-612
265.688,-537
265.713,-414
265.738,-277
265.763,-153
265.788,-53
265.813,22
265.838,82
265.863,137
265.888,190
265.913,233
265.938,257
265.963,259
265.988,244
266.013,217
266.038,183
266.063,144
266.088,101
266.113,52
266.138,-7
266.163,-80
266.188,-156
266.213,-214
266.238,-228
266.263,-189
266.288,-111
266.313,-19
266.338,69
266.363,153
266.388,237
266.413,321
266.438,395
266.463,451
266.488,488
266.513,514
266.538,537
266.563,560
266.588,577
266.613,581
266.638,570
266.663,547
266.688,517
266.713,482
266.738,441
266.763,396
266.788,349
266.813,305
266.838,261
266.863,211
266.888,148
266.913,79
266.938,24
266.963,8
266.988,39
267.013,103
267.038,171
267.063,226
267.088,268
267.113,311
267.138,357
267.163,395
267.188,410
267.213,403
267.238,389
267.263,384
267.288,390
267.313,396
267.338,390
267.363,374
267.388,352
267.413,329
267.438,302
267.463,267
267.488,228
267.513,189
267.538,152
267.563,106
267.588,48
267.613,-15
267.638,-58
267.663,-59
267.688,-13
267.713,59
267.738,132
267.763,191
267.788,238
267.813,282
267.838,326
267.863,359
267.888,374
267.913,369
267.938,355
267.963,345
267.988,342
268.013,341
268.038,334
268.063,315
268.088,285
268.113,249
268.138,211
268.163,176
268.188,141
268.213,100
268.238,45
268.263,-19
268.288,-74
268.313,-94
268.338,-64
268.363,5
268.388,87
268.413,159
268.438,214
268.463,265
268.488,318
268.513,368
268.538,398
268.563,403
268.588,391
268.613,379
268.638,374
268.663,371
268.688,361
268.713,341
268.738,316
268.763,289
268.788,261
268.813,227
268.838,188
268.863,147
268.888,106
268.913,56
268.938,-5
268.963,-65
268.988,-99
269.013,-83
269.038,-19
269.063,66
269.088,145
269.113,205
269.138,255
269.163,311
269.188,374
269.213,427
269.238,454
269.263,455
269.288,444
269.313,436
269.338,437
269.363,436
269.388,424
269.413,397
269.438,362
269.463,325
269.488,286
269.513,244
269.538,198
269.563,151
269.588,102
269.613,47
269.638,-16
269.663,-86
269.688,-143
269.713,-161
269.738,-129
269.763,-55
269.788,30
269.813,105
269.838,164
269.863,218
269.888,278
269.913,340
269.938,389
269.963,415
269.988,421
270.013,423
270.038,430
270.063,435
270.088,427
270.113,402
270.138,366
270.163,333
270.188,306
270.213,280
270.238,244
270.263,198
270.288,145
270.313,94
270.338,49
270.363,6
270.388,-38
270.413,-90
270.438,-148
270.463,-201
270.488,-230
270.513,-214
270.538,-147
270.563,-45
270.588,63
270.613,157
270.638,236
270.663,315
270.688,403
270.713,492
270.738,561
270.763,601
270.788,618
270.813,633
270.838,658
270.863,688
270.888,708
270.913,707
270.938,685
270.963,647
270.988,597
271.013,539
271.038,474
271.063,405
271.088,330
271.113,250
271.138,166
271.163,85
271.188,10
271.213,-66
271.238,-155
271.263,-254
271.288,-335
271.313,-362
271.338,-318
271.363,-222
271.388,-117
271.413,-36
271.438,19
271.463,71
271.488,136
271.513,210
271.538,270
271.563,303
271.588,313
271.613,322
271.638,346
271.663,384
271.688,421
271.713,443
271.738,447
271.763,444
271.788,441
271.813,440
271.838,428
271.863,396
271.888,343
271.913,282
271.938,226
271.963,178
271.988,126
272.013,60
272.038,-15
272.063,-79
272.088,-106
272.113,-86
272.138,-28
272.163,46
272.188,123
272.213,193
272.238,257
272.263,314
272.288,358
272.313,385
272.338,395
272.363,396
272.388,398
272.413,406
272.438,418
272.463,425
272.488,418
272.513,395
272.538,361
272.563,325
272.588,289
272.613,252
272.638,212
272.663,168
272.688,120
272.713,64
272.738,2
272.763,-55
272.788,-86
272.813,-69
272.838,-8
272.863,72
272.888,141
272.913,189
272.938,226
272.963,266
272.988,309
273.013,340
273.038,346
273.063,333
273.088,319
273.113,317
273.138,322
273.163,322
273.188,310
273.213,290
273.238,266
273.263,239
273.288,204
273.313,162
273.338,124
273.363,90
273.388,52
273.413,-2
273.438,-69
273.463,-120
273.488,-120
273.513,-59
273.538,37
273.563,131
273.588,199
273.613,251
273.638,307
273.663,375
273.688,441
273.713,481
273.738,487
273.763,471
273.788,456
273.813,451
273.838,449
273.863,438
273.888,411
273.913,376
273.938,340
273.963,303
273.988,262
274.013,215
274.038,165
274.063,112
274.088,50
274.113,-22
274.138,-96
274.163,-147
274.188,-148
274.213,-95
274.238,-7
274.263,84
274.288,160
274.313,225
274.338,292
274.363,365
274.388,431
274.413,475
274.438,490
274.463,487
274.488,479
274.513,473
274.538,467
274.563,455
274.588,437
274.613,415
274.638,387
274.663,354
274.688,314
274.713,269
274.738,220
274.763,168
274.788,112
274.813,57
274.838,2
274.863,-52
274.888,-116
274.913,-183
274.938,-236
274.963,-246
274.988,-200
275.013,-108
275.038,-2
275.063,90
275.088,167
275.113,241
275.138,322
275.163,404
275.188,467
275.213,500
275.238,509
275.263,510
275.288,515
275.313,524
275.338,529
275.363,524
275.388,506
275.413,479
275.438,447
275.463,413
275.488,379
275.513,345
275.538,306
275.563,261
275.588,212
275.613,163
275.638,116
275.663,69
275.688,22
275.713,-24
275.738,-72
275.763,-123
275.788,-184
275.813,-246
275.838,-287
275.863,-279
275.888,-212
275.913,-106
275.938,2
275.963,88
275.988,156
276.013,226
