df_hash,22ZHK4.RZ8R6V
device,HZ2X61
project_hash,29R7
project_name,istanbul_aydin_university
person_hash,29R7.9180
person_label,v103
date_time_start,2026-03-02_12-31-30.462000_+03
date_time_start_unix,1772440290.462
date_time_end,2026-03-02_12-44-24.912000_+03
length_difference_noticed,no

time,ppg_ir,ppg_ambient,ppg_red
5.428,204067,179,171299
5.433,204091,178,171314
5.438,204099,177,171322
5.443,204105,176,171315
5.448,204108,186,171321
5.453,204142,186,171321
5.458,204149,178,171339
5.463,204159,177,171351
5.468,204157,185,171339
5.473,204180,184,171361
5.478,204210,183,171352
5.483,204200,182,171355
5.488,204209,181,171355
5.493,204226,180,171377
5.498,204237,179,171384
5.503,204219,178,171371
5.508,204248,184,171353
5.513,204253,185,171397
5.518,204267,184,171395
5.523,204276,182,171393
5.528,204265,181,171396
5.533,204244,179,171399
5.538,204249,178,171402
5.543,204254,178,171391
5.548,204210,178,171386
5.553,204208,168,171383
5.558,204173,180,171376
5.563,204179,179,171380
5.568,204148,177,171359
5.573,204129,185,171357
5.578,204109,184,171346
5.583,204113,183,171325
5.588,204081,181,171345
5.593,204056,179,171324
5.598,204043,177,171339
5.603,204044,176,171328
5.608,204006,179,171334
5.613,203996,176,171326
5.618,203977,186,171323
5.623,203971,184,171313
5.628,203967,183,171311
5.633,203937,181,171324
5.638,203929,179,171303
5.643,203915,178,171291
5.648,203896,177,171291
5.653,203885,186,171306
5.658,203862,182,171274
5.663,203874,180,171268
5.668,203853,179,171270
5.673,203827,177,171254
5.678,203830,186,171257
5.683,203827,183,171256
5.688,203793,180,171248
5.693,203773,179,171249
5.698,203777,178,171231
5.703,203733,177,171228
5.708,203764,179,171245
5.713,203726,177,171225
5.718,203711,187,171215
5.723,203710,184,171216
5.728,203708,182,171216
5.733,203707,180,171204
5.738,203688,179,171209
5.743,203670,178,171199
5.748,203653,177,171205
5.753,203663,179,171208
5.758,203635,178,171201
5.763,203636,176,171187
5.768,203629,185,171184
5.773,203613,183,171173
5.778,203606,182,171194
5.783,203598,180,171166
5.788,203612,179,171169
5.793,203594,178,171180
5.798,203599,187,171175
5.803,203599,179,171184
5.808,203592,179,171175
5.813,203603,178,171184
5.818,203601,177,171176
5.823,203602,186,171187
5.828,203593,184,171176
5.833,203592,183,171173
5.838,203586,181,171177
5.843,203612,180,171178
5.848,203583,179,171174
5.853,203592,181,171169
5.858,203584,180,171164
5.863,203579,180,171167
5.868,203592,179,171164
5.873,203583,178,171172
5.878,203575,177,171179
5.883,203580,176,171158
5.888,203571,186,171168
5.893,203578,185,171136
5.898,203574,184,171169
5.903,203575,179,171169
5.908,203583,178,171162
5.913,203579,177,171163
5.918,203570,176,171175
5.923,203566,185,171154
5.928,203582,185,171165
5.933,203570,185,171154
5.938,203581,184,171168
5.943,203593,184,171170
5.948,203580,186,171190
5.953,203593,181,171149
5.958,203590,179,171175
5.963,203589,179,171159
5.968,203593,178,171187
5.973,203609,176,171186
5.978,203597,185,171179
5.983,203608,183,171182
5.988,203605,183,171167
5.993,203610,182,171185
5.998,203614,185,171178
6.003,203619,184,171179
6.008,203610,183,171186
6.013,203641,182,171192
6.018,203631,180,171177
6.023,203642,180,171181
6.028,203643,179,171196
6.033,203645,177,171182
6.038,203662,187,171207
6.043,203671,185,171187
6.048,203670,177,171210
6.053,203674,187,171193
6.058,203696,183,171204
6.063,203693,182,171210
6.068,203689,180,171214
6.073,203710,179,171229
6.078,203727,177,171225
6.083,203720,177,171230
6.088,203746,185,171222
6.093,203731,183,171229
6.098,203744,186,171227
6.103,203749,185,171244
6.108,203768,183,171245
6.113,203757,181,171246
6.118,203768,180,171251
6.123,203775,179,171262
6.128,203784,178,171262
6.133,203796,177,171266
6.138,203800,186,171268
6.143,203806,184,171256
6.148,203814,178,171275
6.153,203825,177,171289
6.158,203833,186,171281
6.163,203833,184,171290
6.168,203861,183,171297
6.173,203872,182,171288
6.178,203866,181,171305
6.183,203872,179,171303
6.188,203899,178,171301
6.193,203873,178,171327
6.198,203890,180,171315
6.203,203913,178,171312
6.208,203924,177,171311
6.213,203926,186,171332
6.218,203920,185,171324
6.223,203927,183,171333
6.228,203939,180,171340
6.233,203959,179,171334
6.238,203956,177,171342
6.243,203963,178,171349
6.248,203975,178,171363
6.253,203984,177,171356
6.258,203999,186,171360
6.263,203999,185,171365
6.268,204003,182,171376
6.273,204017,180,171376
6.278,204031,179,171374
6.283,204028,178,171376
6.288,204029,176,171379
6.293,204060,180,171385
6.298,204043,177,171409
6.303,204052,186,171386
6.308,204055,185,171401
6.313,204060,183,171405
6.318,204091,182,171410
6.323,204098,182,171420
6.328,204093,180,171421
6.333,204118,179,171435
6.338,204123,177,171417
6.343,204130,180,171434
6.348,204138,178,171436
6.353,204138,176,171438
6.358,204170,184,171447
6.363,204166,182,171460
6.368,204185,180,171451
6.373,204197,179,171458
6.378,204212,177,171465
6.383,204208,187,171472
6.388,204230,185,171476
6.393,204247,177,171487
6.398,204249,187,171488
6.403,204245,184,171479
6.408,204255,183,171481
6.413,204260,181,171515
6.418,204270,179,171508
6.423,204273,178,171496
6.428,204278,177,171517
6.433,204289,186,171513
6.438,204303,184,171525
6.443,204300,177,171523
6.448,204308,186,171528
6.453,204298,184,171515
6.458,204271,182,171517
6.463,204260,180,171519
6.468,204262,180,171506
6.473,204235,178,171492
6.478,204222,177,171509
6.483,204201,185,171490
6.488,204185,188,171453
6.493,204166,177,171484
6.498,204146,185,171476
6.503,204125,183,171478
6.508,204107,183,171461
6.513,204086,182,171457
6.518,204066,181,171446
6.523,204046,180,171429
6.528,204038,179,171425
6.533,204008,178,171414
6.538,204022,180,171415
6.543,204002,179,171410
6.548,203979,178,171411
6.553,203966,176,171392
6.558,203984,186,171382
6.563,203936,186,171451
6.568,203943,184,171376
6.573,203907,184,171384
6.578,203907,183,171359
6.583,203889,182,171363
6.588,203867,182,171357
6.593,203878,180,171361
6.598,203855,179,171353
6.603,203845,179,171339
6.608,203830,178,171333
6.613,203821,177,171333
6.618,203814,177,171334
6.623,203793,186,171327
6.628,203799,185,171308
6.633,203784,184,171308
6.638,203776,179,171308
6.643,203764,178,171298
6.648,203729,177,171283
6.653,203719,186,171295
6.658,203723,185,171272
6.663,203716,184,171272
6.668,203715,184,171275
6.673,203697,183,171281
6.678,203702,181,171263
6.683,203666,179,171257
6.688,203686,183,171244
6.693,203654,182,171251
6.698,203636,180,171238
6.703,203681,179,171227
6.708,203661,177,171237
6.713,203649,186,171242
6.718,203687,185,171235
6.723,203678,183,171240
6.728,203672,182,171232
6.733,203665,182,171255
6.738,203666,185,171238
6.743,203675,183,171234
6.748,203682,183,171231
6.753,203685,182,171256
6.758,203684,181,171229
6.763,203685,181,171230
6.768,203671,179,171228
6.773,203660,178,171229
6.778,203658,177,171210
6.783,203637,176,171225
6.788,203636,179,171218
6.793,203649,178,171215
6.798,203658,178,171209
6.803,203666,177,171223
6.808,203654,186,171208
6.813,203655,185,171202
6.818,203653,184,171212
6.823,203660,183,171209
6.828,203661,182,171205
6.833,203655,186,171211
6.838,203650,184,171200
6.843,203668,183,171216
6.848,203658,181,171218
6.853,203653,180,171205
6.858,203675,178,171213
6.863,203667,177,171210
6.868,203665,187,171212
6.873,203672,185,171212
6.878,203679,183,171192
6.883,203672,186,171206
6.888,203684,185,171218
6.893,203694,183,171228
6.898,203681,181,171193
6.903,203703,180,171231
6.908,203703,178,171226
6.913,203686,176,171232
6.918,203700,185,171236
6.923,203691,183,171206
6.928,203730,181,171232
6.933,203720,183,171220
6.938,203731,182,171236
6.943,203721,180,171237
6.948,203768,178,171238
6.953,203747,178,171235
6.958,203757,186,171240
6.963,203771,184,171252
6.968,203771,183,171243
6.973,203794,183,171250
6.978,203792,181,171261
6.983,203798,185,171248
6.988,203820,184,171253
6.993,203823,182,171264
6.998,203828,180,171265
7.003,203822,179,171269
7.008,203845,178,171275
7.013,203870,176,171291
7.018,203864,186,171301
7.023,203865,184,171302
7.028,203874,186,171260
7.033,203882,180,171305
7.038,203893,179,171300
7.043,203908,178,171316
7.048,203917,178,171321
7.053,203935,177,171321
7.058,203924,177,171324
7.063,203949,176,171327
7.068,203949,187,171337
7.073,203961,187,171331
7.078,203989,179,171336
7.083,203960,178,171341
7.088,203972,178,171336
7.093,203982,176,171344
7.098,204000,185,171348
7.103,204025,184,171349
7.108,204007,183,171348
7.113,204024,182,171362
7.118,204037,181,171372
7.123,204037,180,171358
7.128,204053,183,171372
7.133,204062,182,171378
7.138,204076,181,171383
7.143,204084,180,171402
7.148,204101,178,171383
7.153,204097,177,171387
7.158,204094,186,171393
7.163,204123,184,171396
7.168,204139,182,171414
7.173,204137,180,171422
7.178,204127,177,171427
7.183,204169,177,171419
7.188,204159,185,171435
7.193,204180,183,171436
7.198,204185,182,171435
7.203,204191,180,171437
7.208,204210,178,171445
7.213,204217,177,171457
7.218,204237,176,171450
7.223,204223,185,171457
7.228,204243,177,171463
7.233,204249,186,171469
7.238,204253,184,171463
7.243,204260,183,171461
7.248,204255,181,171465
7.253,204280,180,171479
7.258,204300,179,171487
7.263,204323,178,171483
7.268,204331,178,171496
7.273,204346,177,171509
7.278,204348,180,171502
7.283,204342,179,171515
7.288,204366,178,171537
7.293,204385,177,171531
7.298,204392,176,171542
7.303,204378,187,171543
7.308,204390,185,171555
7.313,204394,184,171540
7.318,204406,183,171538
7.323,204399,181,171545
7.328,204365,186,171540
7.333,204360,185,171533
7.338,204356,183,171518
7.343,204310,183,171524
7.348,204319,181,171507
7.353,204287,181,171486
7.358,204280,181,171486
7.363,204253,180,171479
7.368,204243,178,171476
7.373,204204,182,171473
7.378,204207,182,171462
7.383,204189,182,171445
7.388,204178,181,171454
7.393,204155,181,171446
7.398,204140,181,171440
7.403,204130,181,171428
7.408,204111,179,171427
7.413,204103,177,171435
7.418,204087,176,171412
7.423,204069,182,171408
7.428,204063,184,171417
7.433,204056,183,171394
7.438,204027,180,171391
7.443,204018,180,171387
7.448,204016,178,171391
7.453,204008,177,171379
7.458,203989,185,171381
7.463,203988,183,171367
7.468,203970,181,171375
7.473,203979,185,171366
7.478,203969,181,171364
7.483,203958,180,171358
7.488,203941,178,171349
7.493,203924,177,171352
7.498,203917,185,171350
7.503,203908,184,171322
7.508,203886,183,171331
7.513,203880,181,171308
7.518,203874,179,171315
7.523,203863,183,171306
7.528,203865,180,171314
7.533,203858,179,171311
7.538,203838,177,171305
7.543,203828,186,171285
7.548,203819,184,171300
7.553,203814,184,171296
7.558,203819,183,171281
7.563,203831,182,171284
7.568,203813,182,171249
7.573,203809,183,171267
7.578,203839,181,171281
7.583,203839,180,171284
7.588,203824,178,171280
7.593,203827,176,171276
7.598,203825,185,171307
7.603,203813,183,171313
7.608,203830,182,171305
7.613,203832,180,171287
7.618,203867,183,171298
7.623,203835,182,171281
7.628,203841,181,171291
7.633,203824,180,171301
7.638,203852,179,171292
7.643,203826,178,171288
7.648,203824,176,171275
7.653,203824,185,171283
7.658,203827,183,171285
7.663,203820,182,171279
7.668,203823,185,171273
7.673,203783,188,171261
7.678,203834,183,171278
7.683,203825,181,171283
7.688,203825,179,171273
7.693,203835,177,171282
7.698,203832,176,171290
7.703,203838,184,171282
7.708,203818,183,171278
7.713,203832,181,171282
7.718,203837,178,171306
7.723,203830,178,171283
7.728,203821,177,171281
7.733,203832,186,171281
7.738,203847,185,171284
7.743,203843,182,171271
7.748,203859,180,171279
7.753,203870,179,171293
7.758,203858,177,171295
7.763,203867,185,171296
7.768,203869,183,171289
7.773,203866,181,171302
7.778,203867,179,171293
7.783,203867,178,171285
7.788,203882,186,171295
7.793,203875,183,171299
7.798,203896,182,171301
7.803,203889,180,171298
7.808,203901,178,171300
7.813,203906,177,171306
7.818,203921,179,171314
7.823,203930,177,171311
7.828,203928,186,171323
7.833,203957,184,171327
7.838,203934,181,171329
7.843,203956,179,171328
7.848,203959,177,171334
7.853,203971,177,171318
7.858,203975,185,171332
7.863,204009,173,171323
7.868,203992,176,171329
7.873,203990,186,171339
7.878,204005,184,171339
7.883,203992,184,171325
7.888,204021,183,171351
7.893,204007,181,171356
7.898,204043,180,171359
7.903,204043,178,171349
7.908,204045,178,171351
7.913,204063,181,171364
7.918,204061,180,171368
7.923,204070,180,171374
7.928,204093,180,171394
7.933,204111,178,171376
7.938,204100,177,171394
7.943,204122,185,171404
7.948,204109,183,171396
7.953,204120,181,171389
7.958,204144,180,171399
7.963,204151,184,171401
7.968,204161,182,171408
7.973,204162,181,171407
7.978,204141,179,171423
7.983,204181,178,171411
7.988,204191,177,171416
7.993,204185,186,171418
7.998,204200,185,171429
8.003,204205,183,171429
8.008,204206,181,171419
8.013,204241,184,171439
8.018,204223,182,171451
8.023,204225,181,171437
8.028,204249,180,171454
8.033,204263,178,171456
8.038,204266,177,171461
8.043,204276,186,171458
8.048,204284,185,171458
8.053,204299,183,171468
8.058,204320,182,171477
8.063,204315,185,171484
8.068,204336,184,171501
8.073,204335,182,171506
8.078,204352,181,171496
8.083,204350,179,171484
8.088,204361,178,171491
8.093,204364,177,171505
8.098,204379,185,171512
8.103,204398,182,171522
8.108,204389,185,171579
8.113,204415,184,171528
8.118,204415,183,171521
8.123,204437,181,171541
8.128,204442,180,171529
8.133,204451,178,171546
8.138,204458,186,171548
8.143,204488,185,171558
8.148,204476,183,171557
8.153,204497,181,171561
8.158,204476,183,171566
8.163,204493,178,171581
8.168,204500,178,171559
8.173,204477,177,171551
8.178,204477,176,171561
8.183,204480,185,171543
8.188,204456,184,171546
8.193,204425,182,171537
8.198,204427,181,171525
8.203,204392,179,171531
8.208,204385,183,171510
8.213,204361,181,171497
8.218,204339,180,171501
8.223,204319,180,171500
8.228,204307,179,171483
8.233,204293,178,171478
8.238,204273,178,171471
8.243,204266,186,171478
8.248,204232,186,171458
8.253,204211,184,171447
8.258,204219,177,171455
8.263,204201,176,171428
8.268,204169,185,171442
8.273,204159,183,171430
8.278,204158,181,171419
8.283,204140,181,171429
8.288,204110,179,171404
8.293,204098,178,171385
8.298,204084,177,171395
8.303,204070,185,171379
8.308,204063,179,171385
8.313,204060,177,171380
8.318,204066,177,171361
8.323,204012,186,171356
8.328,204023,185,171355
8.333,204001,184,171352
8.338,204007,183,171339
8.343,203979,182,171337
8.348,203969,180,171338
8.353,203961,179,171327
8.358,203955,184,171313
8.363,203921,183,171316
8.368,203930,182,171306
8.373,203922,180,171306
8.378,203904,180,171291
8.383,203895,179,171291
8.388,203885,179,171279
8.393,203884,179,171269
8.398,203868,179,171254
8.403,203851,183,171252
8.408,203848,182,171260
8.413,203818,181,171240
8.418,203839,181,171234
8.423,203831,178,171221
8.428,203817,177,171209
8.433,203801,186,171205
8.438,203787,184,171233
8.443,203820,182,171211
8.448,203800,182,171211
8.453,203803,185,171217
8.458,203812,184,171211
8.463,203812,184,171207
8.468,203810,183,171220
8.473,203821,182,171219
8.478,203812,181,171220
8.483,203817,180,171200
8.488,203841,179,171195
8.493,203829,178,171206
8.498,203810,176,171200
8.503,203821,179,171202
8.508,203803,179,171207
8.513,203794,177,171205
8.518,203807,187,171187
8.523,203811,185,171195
8.528,203814,184,171190
8.533,203815,182,171178
8.538,203798,181,171172
8.543,203787,179,171169
8.548,203808,177,171160
8.553,203783,185,171165
8.558,203784,183,171167
8.563,203792,182,171167
8.568,203807,181,171161
8.573,203788,179,171166
8.578,203783,176,171170
8.583,203803,186,171156
8.588,203805,183,171165
8.593,203792,180,171159
8.598,203815,179,171164
8.603,203791,181,171167
8.608,203816,180,171159
8.613,203814,178,171161
8.618,203807,177,171160
8.623,203822,177,171183
8.628,203845,186,171158
8.633,203834,184,171179
8.638,203819,184,171166
8.643,203861,182,171176
8.648,203851,185,171221
8.653,203850,178,171180
8.658,203860,177,171180
8.663,203862,176,171183
8.668,203864,185,171167
8.673,203859,183,171168
8.678,203876,182,171168
8.683,203870,182,171171
8.688,203875,180,171176
8.693,203890,179,171188
8.698,203885,178,171187
8.703,203903,180,171186
8.708,203913,178,171186
8.713,203930,177,171198
8.718,203928,185,171191
8.723,203944,183,171192
8.728,203940,181,171204
8.733,203962,179,171192
8.738,203955,177,171212
8.743,203984,186,171200
8.748,203988,179,171210
8.753,204003,177,171222
8.758,203999,177,171207
8.763,204033,186,171230
8.768,204035,185,171229
8.773,204025,184,171223
8.778,204061,182,171239
8.783,204063,181,171262
8.788,204067,179,171258
8.793,204083,179,171263
8.798,204072,182,171262
8.803,204105,181,171267
8.808,204108,180,171269
8.813,204132,179,171286
8.818,204130,178,171289
8.823,204143,177,171292
8.828,204162,186,171285
8.833,204162,184,171295
8.838,204171,182,171288
8.843,204184,180,171312
8.848,204197,180,171308
8.853,204186,183,171322
8.858,204208,183,171329
8.863,204216,183,171333
8.868,204241,182,171333
8.873,204246,182,171337
8.878,204258,180,171342
8.883,204250,180,171348
8.888,204275,179,171345
8.893,204278,179,171352
8.898,204286,185,171357
8.903,204301,183,171373
8.908,204316,182,171381
8.913,204314,180,171375
8.918,204322,180,171380
8.923,204355,178,171396
8.928,204329,176,171397
8.933,204358,186,171394
8.938,204357,185,171396
8.943,204386,172,171410
8.948,204371,177,171407
8.953,204388,177,171413
8.958,204409,176,171414
8.963,204411,186,171405
8.968,204420,184,171411
8.973,204447,183,171423
8.978,204435,182,171417
8.983,204469,181,171428
8.988,204451,179,171430
8.993,204478,183,171445
8.998,204481,182,171448
9.003,204490,181,171455
9.008,204524,178,171461
9.013,204512,177,171469
9.018,204529,185,171461
9.023,204552,183,171464
9.028,204537,181,171467
9.033,204526,180,171472
9.038,204560,178,171482
9.043,204546,181,171491
9.048,204534,179,171470
9.053,204545,177,171476
9.058,204529,186,171483
9.063,204515,184,171451
9.068,204510,182,171460
9.073,204477,180,171461
9.078,204480,178,171437
9.083,204448,176,171448
9.088,204422,186,171457
9.093,204401,179,171417
9.098,204401,177,171432
9.103,204394,186,171427
9.108,204337,184,171392
9.113,204348,181,171404
9.118,204318,180,171403
9.123,204299,177,171392
9.128,204298,186,171387
9.133,204269,183,171377
9.138,204270,181,171350
9.143,204230,184,171349
9.148,204235,182,171351
9.153,204214,181,171350
9.158,204189,179,171339
9.163,204174,176,171321
9.168,204170,184,171311
9.173,204149,182,171308
9.178,204134,179,171308
9.183,204141,178,171294
9.188,204113,180,171330
9.193,204107,178,171292
9.198,204105,177,171277
9.203,204098,186,171282
9.208,204061,184,171268
9.213,204077,183,171278
9.218,204045,181,171266
9.223,204059,179,171251
9.228,204024,178,171253
9.233,204029,176,171240
9.238,204013,178,171232
9.243,204015,182,171225
9.248,203987,180,171225
9.253,203998,179,171214
9.258,203970,177,171212
9.263,203953,186,171203
9.268,203944,183,171204
9.273,203948,181,171184
9.278,203930,179,171181
9.283,203945,178,171185
9.288,203934,183,171175
9.293,203905,185,171174
9.298,203912,184,171166
9.303,203909,183,171160
9.308,203890,182,171164
9.313,203914,180,171152
9.318,203915,178,171145
9.323,203926,186,171157
9.328,203927,184,171152
9.333,203918,182,171144
9.338,203930,186,171155
9.343,203943,184,171159
9.348,203950,182,171174
9.353,203938,180,171165
9.358,203954,179,171167
9.363,203960,177,171184
9.368,203967,176,171170
9.373,203972,184,171167
9.378,203965,182,171165
9.383,203964,178,171163
9.388,203970,183,171137
9.393,203971,180,171145
9.398,203977,179,171160
9.403,203970,177,171148
9.408,203983,186,171145
9.413,203972,183,171146
9.418,203972,181,171149
9.423,203988,178,171159
9.428,203993,177,171146
9.433,203999,184,171150
9.438,203994,186,171163
9.443,203998,182,171176
9.448,204020,178,171171
9.453,204006,185,171165
9.458,204008,182,171172
9.463,204027,179,171169
9.468,204035,178,171171
9.473,204049,176,171170
9.478,204049,186,171174
9.483,204077,175,171167
9.488,204055,177,171176
9.493,204090,186,171175
9.498,204095,184,171178
9.503,204087,182,171187
9.508,204113,180,171202
9.513,204126,178,171207
9.518,204135,176,171196
9.523,204152,184,171206
9.528,204150,181,171196
9.533,204191,183,171191
9.538,204183,185,171206
9.543,204165,183,171212
9.548,204196,181,171224
9.553,204198,179,171227
9.558,204227,178,171252
9.563,204251,186,171250
9.568,204263,183,171253
9.573,204260,181,171240
9.578,204266,178,171250
9.583,204306,182,171244
9.588,204306,186,171253
9.593,204305,184,171254
9.598,204357,182,171255
9.603,204336,180,171255
9.608,204344,179,171257
9.613,204369,176,171256
9.618,204377,185,171257
9.623,204376,183,171280
9.628,204403,182,171280
9.633,204420,185,171273
9.638,204429,182,171269
9.643,204443,180,171293
9.648,204451,179,171263
9.653,204456,177,171293
9.658,204508,176,171283
9.663,204506,184,171282
9.668,204517,182,171281
9.673,204509,181,171274
9.678,204537,180,171288
9.683,204562,183,171291
9.688,204551,183,171294
9.693,204592,181,171308
9.698,204602,180,171298
9.703,204614,179,171303
9.708,204628,178,171299
9.713,204635,176,171325
9.718,204669,185,171321
9.723,204670,182,171316
9.728,204706,182,171325
9.733,204730,185,171341
9.738,204739,183,171336
9.743,204778,181,171333
9.748,204780,180,171352
9.753,204820,178,171350
9.758,204838,177,171355
9.763,204884,185,171350
9.768,204882,183,171370
9.773,204930,180,171371
9.778,204914,176,171370
9.783,204970,180,171402
9.788,204987,180,171397
9.793,205018,179,171401
9.798,205065,178,171393
9.803,205060,177,171413
9.808,205110,186,171387
9.813,205121,184,171414
9.818,205135,181,171412
9.823,205168,180,171408
9.828,205175,183,171417
9.833,205217,181,171415
9.838,205224,179,171422
9.843,205238,179,171427
9.848,205269,177,171437
9.853,205280,176,171434
9.858,205314,185,171440
9.863,205318,184,171443
9.868,205337,183,171444
9.873,205365,183,171468
9.878,205395,176,171466
9.883,205416,186,171464
9.888,205439,185,171481
9.893,205459,184,171474
9.898,205472,183,171497
9.903,205510,181,171480
9.908,205527,180,171526
9.913,205557,178,171505
9.918,205580,177,171514
9.923,205591,186,171521
9.928,205605,178,171537
9.933,205633,177,171541
9.938,205654,185,171539
9.943,205674,182,171545
9.948,205688,181,171559
9.953,205703,179,171559
9.958,205727,176,171555
9.963,205741,185,171569
9.968,205738,182,171548
9.973,205735,180,171540
9.978,205742,177,171549
9.983,205757,186,171550
9.988,205734,183,171538
9.993,205734,182,171524
9.998,205733,179,171524
10.003,205714,177,171494
10.008,205718,186,171498
10.013,205736,183,171490
10.018,205715,181,171473
10.023,205704,182,171483
10.028,205714,176,171461
10.033,205694,176,171451
10.038,205697,185,171442
10.043,205707,183,171431
10.048,205721,181,171432
10.053,205718,180,171444
10.058,205712,178,171463
10.063,205728,177,171454
10.068,205707,186,171443
10.073,205723,178,171436
10.078,205726,182,171440
10.083,205727,181,171433
10.088,205735,179,171446
10.093,205732,178,171450
10.098,205733,177,171449
10.103,205749,185,171460
10.108,205743,183,171447
10.113,205762,181,171454
10.118,205766,179,171469
10.123,205778,183,171466
10.128,205772,181,171464
10.133,205794,179,171454
10.138,205803,178,171458
10.143,205820,177,171459
10.148,205817,185,171455
10.153,205833,185,171475
10.158,205851,183,171472
10.163,205863,181,171457
10.168,205871,180,171469
10.173,205874,177,171473
10.178,205880,177,171478
10.183,205883,176,171470
10.188,205895,185,171487
10.193,205930,184,171475
10.198,205910,183,171483
10.203,205903,182,171490
10.208,205919,181,171449
10.213,205941,180,171480
10.218,205941,178,171487
10.223,205926,186,171491
10.228,205967,184,171522
10.233,205983,182,171540
10.238,206023,180,171541
10.243,206048,178,171535
10.248,206079,176,171554
10.253,206082,185,171549
10.258,206102,183,171562
10.263,206137,181,171572
10.268,206167,180,171592
10.273,206183,181,171593
10.278,206206,179,171609
10.283,206238,178,171618
10.288,206281,176,171622
10.293,206291,184,171652
10.298,206306,182,171649
10.303,206339,180,171656
10.308,206376,178,171671
10.313,206391,177,171694
10.318,206377,176,171690
10.323,206431,178,171699
10.328,206457,177,171714
10.333,206477,186,171724
10.338,206508,185,171733
10.343,206545,183,171747
10.348,206551,183,171775
10.353,206577,182,171799
10.358,206610,179,171799
10.363,206641,179,171806
10.368,206664,183,171834
10.373,206671,186,171857
10.378,206688,184,171847
10.383,206729,184,171883
10.388,206750,182,171891
10.393,206773,181,171910
10.398,206795,179,171934
10.403,206817,179,171917
10.408,206842,178,171941
10.413,206854,176,171960
10.418,206895,179,171948
10.423,206887,179,171958
10.428,206942,179,171979
10.433,206953,176,171981
10.438,206974,185,171998
10.443,207005,183,172004
10.448,207032,182,172018
10.453,207072,180,172038
10.458,207111,178,171904
10.463,207130,178,171932
10.468,207161,180,171949
10.473,207196,179,171955
10.478,207231,179,171959
10.483,207261,178,171983
10.488,207291,177,171972
10.493,207340,177,171984
10.498,207363,176,172008
10.503,207420,186,172016
10.508,207451,184,172030
10.513,207510,182,172048
10.518,207566,177,172063
10.523,207647,185,172080
10.528,207695,183,172092
10.533,207777,181,172120
10.538,207824,180,172130
10.543,207873,178,172154
10.548,207939,177,172183
10.553,208010,185,172222
10.558,208082,183,172242
10.563,208151,185,172306
10.568,208206,177,172310
10.573,208290,185,172357
10.578,208350,183,172374
10.583,208408,182,172414
10.588,208423,176,172443
10.593,208544,178,172483
10.598,208621,186,172525
10.603,208691,183,172576
10.608,208766,181,172596
10.613,208780,183,172633
10.618,208852,183,172652
10.623,208851,182,172572
10.628,208877,181,172578
10.633,208944,180,172593
10.638,208948,178,172629
10.643,209019,176,172654
10.648,209062,185,172684
10.653,209118,184,172701
10.658,209181,182,172728
10.663,209218,177,172736
10.668,209301,178,172778
10.673,209334,176,172798
10.678,209407,186,172811
10.683,209465,184,172840
10.688,209502,183,172851
10.693,209554,182,172865
10.698,209616,180,172878
10.703,209657,178,172910
10.708,209722,178,172921
10.713,209793,180,172957
10.718,209870,180,172981
10.723,209911,179,172999
10.728,209997,177,173032
10.733,210068,187,173066
10.738,210135,185,173103
10.743,210211,183,173127
10.748,210287,182,173165
10.753,210329,180,173190
10.758,210392,178,173200
10.763,210444,178,173219
10.768,210517,187,173265
10.773,210584,184,173288
10.778,210644,182,173296
10.783,210684,181,173335
10.788,210745,180,173351
10.793,210800,178,173385
10.798,210868,178,173414
10.803,210917,177,173442
10.808,210986,177,173494
10.813,211034,179,173497
10.818,211088,179,173528
10.823,211147,179,173553
10.828,211176,179,173569
10.833,211209,177,173593
10.838,211230,176,173608
10.843,211238,186,173635
10.848,211251,184,173630
10.853,211234,182,173631
10.858,211178,183,173623
10.863,211199,184,173611
10.868,211172,183,173620
10.873,211124,182,173616
10.878,211114,181,173593
10.883,211075,179,173580
10.888,211022,178,173565
10.893,210983,176,173534
10.898,210908,185,173517
10.903,210853,183,173488
10.908,210798,177,173465
10.913,210746,185,173448
10.918,210695,183,173414
10.923,210643,182,173393
10.928,210593,181,173373
10.933,210537,180,173338
10.938,210498,179,173306
10.943,210444,178,173291
10.948,210412,176,173271
10.953,210359,185,173242
10.958,210333,177,173246
10.963,210286,176,173197
10.968,210249,184,173182
10.973,210222,181,173165
10.978,210189,180,173132
10.983,210138,178,173113
10.988,210104,177,173093
10.993,210060,185,173071
10.998,210006,184,173039
11.003,209984,182,173007
11.008,209942,185,172997
11.013,209907,184,172966
11.018,209895,183,172961
11.023,209846,180,172950
11.028,209845,179,172916
11.033,209836,178,172913
11.038,209821,177,172892
11.043,209843,186,172919
11.048,209843,184,172914
11.053,209821,183,172907
11.058,209838,180,172879
11.063,209837,178,172889
11.068,209832,177,172875
11.073,209838,186,172867
11.078,209834,184,172884
11.083,209869,183,172864
11.088,209862,180,172865
11.093,209873,179,172873
11.098,209885,178,172846
11.103,209905,181,172870
11.108,209921,179,172867
11.113,209942,178,172861
11.118,209952,177,172856
11.123,209985,186,172872
11.128,209990,183,172880
11.133,210003,182,172885
11.138,210034,181,172898
11.143,210024,179,172872
11.148,210056,177,172901
11.153,210051,180,172891
11.158,210097,179,172893
11.163,210110,177,172898
11.168,210119,186,172904
11.173,210135,184,172898
11.178,210129,181,172896
11.183,210160,180,172911
11.188,210161,178,172907
11.193,210166,176,172921
11.198,210186,184,172917
11.203,210192,176,172924
11.208,210213,185,172920
11.213,210218,183,172917
11.218,210236,181,172927
11.223,210239,179,172919
11.228,210252,177,172929
11.233,210246,176,172937
11.238,210266,184,172932
11.243,210266,183,172928
11.248,210278,182,172925
11.253,210272,185,172930
11.258,210289,183,172948
11.263,210274,182,172929
11.268,210287,180,172900
11.273,210277,180,172904
11.278,210288,178,172904
11.283,210286,178,172900
11.288,210264,177,172903
11.293,210265,177,172899
11.298,210250,176,172887
11.303,210257,179,172891
11.308,210254,178,172874
11.313,210247,177,172866
11.318,210249,176,172879
11.323,210270,185,172871
11.328,210259,185,172881
11.333,210258,184,172883
11.338,210272,183,172880
11.343,210262,182,172872
11.348,210261,181,172877
11.353,210240,185,172861
11.358,210268,184,172865
11.363,210253,184,172856
11.368,210258,182,172845
11.373,210240,181,172840
11.378,210260,179,172836
11.383,210267,178,172836
11.388,210267,177,172833
11.393,210250,175,172826
11.398,210264,173,172826
11.403,210267,178,172823
11.408,210253,177,172822
11.413,210269,176,172829
11.418,210251,184,172829
11.423,210258,183,172816
11.428,210259,182,172809
11.433,210259,181,172817
11.438,210251,180,172804
11.443,210260,179,172788
11.448,210263,181,172793
11.453,210247,180,172784
11.458,210258,179,172780
11.463,210262,178,172771
11.468,210255,177,172757
11.473,210259,176,172757
11.478,210270,185,172751
11.483,210265,184,172729
11.488,210275,182,172714
11.493,210262,181,172733
11.498,210296,174,172723
11.503,210276,177,172720
11.508,210291,175,172711
11.513,210285,184,172725
11.518,210295,182,172722
11.523,210327,180,172720
11.528,210326,179,172739
11.533,210347,178,172730
11.538,210362,176,172740
11.543,210388,185,172758
11.548,210394,182,172734
11.553,210423,181,172734
11.558,210435,180,172732
11.563,210456,178,172728
11.568,210450,177,172741
11.573,210474,176,172720
11.578,210491,185,172732
11.583,210487,184,172709
11.588,210489,182,172706
11.593,210515,182,172705
11.598,210514,184,172703
11.603,210535,182,172714
11.608,210531,181,172682
11.613,210553,180,172702
11.618,210591,179,172691
11.623,210608,177,172699
11.628,210618,177,172708
11.633,210656,176,172701
11.638,210666,185,172702
11.643,210684,187,172711
11.648,210694,176,172716
11.653,210720,184,172707
11.658,210746,183,172726
11.663,210783,181,172733
11.668,210806,179,172743
11.673,210850,177,172753
11.678,210869,176,172762
11.683,210894,185,172769
11.688,210939,183,172781
11.693,210949,176,172794
11.698,210988,181,172792
11.703,210974,181,172807
11.708,210996,179,172790
11.713,211015,177,172791
11.718,211021,177,172796
11.723,211032,176,172804
11.728,211047,185,172794
11.733,211063,182,172784
11.738,211083,180,172802
11.743,211104,185,172796
11.748,211106,183,172810
11.753,211102,182,172797
11.758,211123,180,172794
11.763,211124,178,172811
11.768,211144,176,172809
11.773,211165,185,172809
11.778,211172,183,172800
11.783,211184,180,172816
11.788,211201,178,172818
11.793,211208,176,172816
11.798,211239,184,172824
11.803,211238,182,172837
11.808,211250,180,172844
11.813,211254,177,172828
11.818,211253,175,172834
11.823,211275,182,172820
11.828,211254,181,172826
11.833,211271,179,172818
11.838,211272,177,172809
11.843,211274,185,172810
11.848,211272,183,172793
11.853,211282,181,172806
11.858,211282,179,172806
11.863,211305,177,172803
11.868,211335,176,172807
11.873,211314,185,172810
11.878,211352,185,172801
11.883,211385,182,172842
11.888,211403,183,172850
11.893,211429,185,172845
11.898,211456,184,172851
11.903,211451,182,172868
11.908,211478,180,172862
11.913,211481,179,172875
11.918,211531,178,172898
11.923,211504,177,172887
11.928,211557,176,172890
11.933,211549,185,172881
11.938,211561,173,172886
11.943,211557,176,172890
11.948,211582,185,172896
11.953,211608,183,172913
11.958,211607,181,172911
11.963,211620,179,172908
11.968,211617,177,172935
11.973,211664,185,172942
11.978,211684,184,172974
11.983,211700,182,172994
11.988,211771,175,173015
11.993,211797,183,173035
11.998,211819,182,173039
12.003,211863,180,173061
12.008,211890,178,173066
12.013,211912,177,173085
12.018,211960,176,173093
12.023,211982,175,173124
12.028,212018,184,173122
12.033,212037,182,173139
12.038,212062,175,173149
12.043,212098,182,173158
12.048,212143,181,173174
12.053,212147,179,173191
12.058,212191,177,173221
12.063,212223,185,173210
12.068,212263,182,173244
12.073,212266,181,173247
12.078,212297,179,173255
12.083,212318,177,173273
12.088,212320,180,173283
12.093,212382,178,173305
12.098,212395,176,173328
12.103,212433,185,173359
12.108,212452,183,173373
12.113,212480,180,173364
12.118,212519,178,173407
12.123,212561,176,173407
12.128,212579,185,173439
12.133,212619,183,173475
12.138,212647,176,173473
12.143,212670,185,173505
12.148,212686,183,173512
12.153,212713,182,173529
12.158,212773,180,173547
12.163,212786,178,173565
12.168,212825,178,173585
12.173,212862,176,173586
12.178,212890,184,173611
12.183,212914,185,173669
12.188,212947,179,173659
12.193,212965,177,173664
12.198,212971,185,173680
12.203,213014,182,173680
12.208,213051,180,173709
12.213,213100,177,173726
12.218,213123,186,173751
12.223,213153,183,173780
12.228,213184,181,173789
12.233,213197,183,173792
12.238,213251,176,173808
12.243,213274,185,173838
12.248,213307,184,173859
12.253,213361,182,173874
12.258,213392,179,173900
12.263,213432,177,173930
12.268,213459,185,173944
12.273,213487,182,173976
12.278,213521,180,173984
12.283,213562,184,174019
12.288,213580,175,174023
12.293,213625,184,174036
12.298,213636,181,174059
12.303,213699,179,174091
12.308,213720,178,174072
12.313,213741,177,174106
12.318,213785,176,174118
12.323,213817,185,174127
12.328,213867,184,174163
12.333,213924,177,174188
12.338,213927,179,174192
12.343,213951,177,174226
12.348,214009,185,174247
12.353,214048,183,174272
12.358,214103,180,174292
12.363,214146,178,174294
12.368,214160,176,174332
12.373,214192,175,174357
12.378,214222,182,174378
12.383,214261,182,174390
12.388,214304,181,174413
12.393,214350,179,174428
12.398,214381,177,174445
12.403,214427,176,174488
12.408,214450,184,174503
12.413,214503,182,174520
12.418,214548,181,174539
12.423,214561,178,174564
12.428,214593,176,174579
12.433,214652,179,174586
12.438,214668,176,174611
12.443,214715,185,174644
12.448,214744,183,174654
12.453,214779,182,174672
12.458,214836,180,174715
12.463,214863,179,174734
12.468,214924,177,174773
12.473,214965,186,174790
12.478,215018,182,174837
12.483,215036,177,174841
12.488,215091,184,174866
12.493,215108,182,174872
12.498,215135,180,174915
12.503,215174,178,174928
12.508,215192,176,174943
12.513,215214,184,174959
12.518,215257,182,174963
12.523,215289,180,174993
12.528,215287,183,175013
12.533,215313,182,175043
12.538,215330,180,175023
12.543,215329,179,175041
12.548,215343,178,175060
12.553,215342,177,175064
12.558,215347,176,175072
12.563,215348,183,175085
12.568,215354,180,175089
12.573,215385,178,175102
12.578,215405,180,175125
12.583,215440,178,175148
12.588,215446,177,175168
12.593,215463,176,175173
12.598,215481,184,175198
12.603,215516,180,175213
12.608,215495,179,175208
12.613,215493,178,175201
12.618,215484,176,175207
12.623,215500,185,175233
12.628,215491,181,175213
12.633,215508,182,175229
12.638,215543,180,175244
12.643,215547,177,175256
12.648,215552,185,175265
12.653,215566,182,175284
12.658,215595,181,175288
12.663,215589,179,175309
12.668,215618,177,175320
12.673,215624,176,175343
12.678,215649,178,175355
12.683,215682,177,175384
12.688,215680,175,175391
12.693,215719,183,175407
12.698,215725,181,175430
12.703,215755,180,175431
12.708,215707,182,175439
12.713,215748,177,175464
12.718,215778,185,175470
12.723,215789,184,175446
12.728,215788,177,175497
12.733,215813,176,175493
12.738,215819,184,175494
12.743,215834,183,175513
12.748,215860,180,175526
12.753,215870,178,175548
12.758,215887,176,175550
12.763,215894,185,175570
12.768,215901,182,175567
12.773,215949,184,175586
12.778,215976,184,175605
12.783,215968,183,175604
12.788,215963,182,175607
12.793,215997,179,175636
12.798,216006,178,175633
12.803,216028,176,175636
12.808,216040,185,175640
12.813,216047,183,175666
12.818,216101,181,175695
12.823,216126,183,175693
12.828,216136,182,175729
12.833,216147,179,175736
12.838,216188,177,175742
12.843,216191,176,175760
12.848,216218,184,175768
12.853,216218,181,175788
12.858,216250,179,175786
12.863,216268,177,175826
12.868,216268,176,175825
12.873,216334,177,175866
12.878,216344,181,175864
12.883,216365,180,175879
12.888,216367,178,175891
12.893,216380,176,175901
12.898,216401,184,175920
12.903,216404,181,175929
12.908,216436,179,175937
12.913,216467,178,175942
12.918,216466,178,175947
12.923,216479,178,175974
12.928,216489,177,175987
12.933,216514,185,176004
12.938,216537,182,175995
12.943,216557,180,176018
12.948,216582,178,176043
12.953,216604,176,176047
12.958,216626,175,176066
12.963,216628,185,176080
12.968,216665,183,176085
12.973,216675,176,176104
12.978,216703,176,176110
12.983,216728,185,176134
12.988,216716,183,176108
12.993,216732,182,176148
12.998,216770,180,176165
13.003,216783,178,176181
13.008,216819,177,176180
13.013,216842,175,176204
13.018,216889,176,176220
13.023,216889,176,176221
13.028,216929,184,176248
13.033,216951,182,176259
13.038,216958,180,176281
13.043,217019,178,176285
13.048,217011,177,176317
13.053,217020,175,176326
13.058,217057,184,176330
13.063,217073,182,176368
13.068,217095,184,176353
13.073,217124,183,176380
13.078,217118,182,176383
13.083,217154,180,176389
13.088,217165,177,176395
13.093,217189,176,176418
13.098,217202,184,176434
13.103,217221,181,176458
13.108,217248,180,176479
13.113,217255,179,176466
13.118,217272,180,176481
13.123,217295,178,176511
13.128,217310,176,176513
13.133,217344,184,176558
13.138,217358,183,176551
13.143,217398,180,176588
13.148,217369,179,176581
13.153,217402,177,176584
13.158,217410,186,176594
13.163,217426,183,176596
13.168,217438,176,176613
13.173,217454,179,176629
13.178,217474,177,176625
13.183,217461,185,176616
13.188,217484,182,176634
13.193,217493,180,176650
13.198,217516,178,176655
13.203,217525,176,176686
13.208,217570,183,176706
13.213,217591,181,176733
13.218,217605,184,176736
13.223,217612,182,176749
13.228,217636,179,176732
13.233,217639,178,176767
13.238,217653,176,176776
13.243,217643,184,176772
13.248,217647,182,176775
13.253,217618,180,176750
13.258,217645,178,176769
13.263,217649,177,176765
13.268,217662,179,176765
13.273,217669,177,176781
13.278,217691,176,176795
13.283,217694,184,176827
13.288,217684,183,176824
13.293,217716,181,176816
13.298,217723,180,176822
13.303,217712,178,176837
13.308,217739,177,176846
13.313,217762,179,176842
13.318,217750,182,176848
13.323,217718,180,176853
13.328,217720,178,176847
13.333,217702,177,176846
13.338,217691,186,176846
13.343,217693,184,176850
13.348,217673,182,176849
13.353,217666,181,176840
13.358,217634,180,176851
13.363,217615,183,176859
13.368,217602,182,176836
13.373,217583,180,176837
13.378,217572,179,176834
13.383,217548,178,176826
13.388,217517,176,176842
13.393,217502,184,176810
13.398,217475,182,176827
13.403,217492,180,176810
13.408,217459,179,176816
13.413,217458,182,176824
13.418,217445,181,176826
13.423,217443,179,176823
13.428,217432,180,176794
13.433,217416,178,176806
13.438,217395,178,176809
13.443,217384,177,176810
13.448,217359,186,176805
13.453,217367,184,176800
13.458,217352,183,176813
13.463,217359,185,176807
13.468,217351,185,176825
13.473,217345,184,176821
13.478,217321,182,176831
13.483,217317,180,176821
13.488,217313,179,176819
13.493,217295,177,176826
13.498,217290,186,176802
13.503,217285,185,176812
13.508,217274,183,176815
13.513,217268,177,176815
13.518,217278,176,176823
13.523,217245,184,176819
13.528,217245,183,176802
13.533,217233,182,176793
13.538,217203,182,176793
13.543,217202,180,176771
13.548,217174,178,176760
13.553,217139,178,176736
13.558,217128,180,176693
13.563,217102,179,176734
13.568,217073,178,176726
13.573,217072,177,176703
13.578,217045,176,176706
13.583,217067,186,176709
13.588,217076,185,176739
13.593,217089,183,176733
13.598,217099,182,176753
13.603,217118,181,176765
13.608,217128,184,176776
13.613,217153,177,176762
13.618,217136,176,176757
13.623,217125,186,176755
13.628,217110,184,176750
13.633,217079,182,176732
13.638,217062,181,176704
13.643,217074,179,176719
13.648,217061,178,176698
13.653,217043,177,176704
13.658,217043,179,176704
13.663,217053,178,176701
13.668,217039,176,176697
13.673,217031,184,176692
13.678,217042,183,176702
13.683,217054,182,176706
13.688,217045,181,176709
13.693,217051,180,176718
13.698,217079,178,176729
13.703,217072,176,176728
13.708,217040,179,176700
13.713,217056,177,176710
13.718,217045,186,176693
13.723,216992,184,176681
13.728,217005,182,176659
13.733,216974,182,176660
13.738,216959,181,176635
13.743,216938,181,176626
13.748,216906,181,176613
13.753,216901,180,176602
13.758,216895,176,176612
13.763,216892,181,176601
13.768,216903,181,176592
13.773,216907,180,176614
13.778,216900,179,176610
13.783,216898,178,176613
13.788,216898,177,176614
13.793,216896,178,176629
13.798,216914,177,176619
13.803,216906,178,176626
13.808,216901,181,176628
13.813,216899,180,176636
13.818,216912,179,176644
13.823,216937,179,176660
13.828,216957,178,176646
13.833,216960,177,176671
13.838,216987,177,176666
13.843,217004,176,176659
13.848,217000,177,176663
13.853,216999,176,176672
13.858,217013,181,176685
13.863,217039,181,176699
13.868,217055,181,176708
13.873,217094,182,176741
13.878,217121,182,176763
13.883,217154,183,176779
13.888,217194,182,176829
13.893,217218,183,176822
13.898,217231,182,176860
13.903,217278,186,176881
13.908,217313,186,176903
13.913,217323,186,176908
13.918,217349,186,176929
13.923,217362,186,176947
13.928,217389,186,176941
13.933,217395,186,176938
13.938,217427,186,176959
13.943,217414,186,176970
13.948,217437,185,176978
13.953,217428,177,176976
13.958,217474,178,176978
13.963,217469,178,176978
13.968,217465,177,177001
13.973,217500,178,177022
13.978,217546,178,177027
13.983,217546,178,177058
13.988,217590,179,177079
13.993,217592,179,177069
13.998,217594,180,177075
14.003,217624,187,177081
14.008,217639,184,177076
14.013,217642,183,177106
14.018,217649,182,177090
14.023,217628,180,177103
14.028,217631,178,177093
14.033,217629,178,177065
14.038,217624,186,177074
14.043,217616,183,177067
14.048,217626,182,177072
14.053,217634,180,177089
14.058,217658,178,177092
14.063,217683,177,177117
14.068,217705,186,177130
14.073,217734,185,177145
14.078,217740,183,177136
14.083,217741,182,177154
14.088,217742,181,177162
14.093,217759,181,177149
14.098,217729,181,177137
14.103,217721,182,177126
14.108,217732,181,177118
14.113,217719,180,177112
14.118,217715,179,177128
14.123,217714,178,177109
14.128,217711,176,177108
14.133,217704,185,177115
14.138,217711,183,177112
14.143,217682,180,177117
14.148,217695,183,177110
14.153,217662,183,177096
14.158,217669,181,177106
14.163,217641,179,177113
14.168,217626,178,177084
14.173,217591,177,177080
14.178,217542,176,177052
14.183,217532,186,177048
14.188,217490,185,177037
14.193,217462,185,177024
14.198,217471,177,177021
14.203,217443,177,177015
14.208,217433,185,177005
14.213,217415,183,177004
14.218,217391,181,177000
14.223,217376,181,177007
14.228,217368,179,177018
14.233,217364,178,177003
14.238,217347,186,176995
14.243,217319,184,176985
14.248,217330,177,177001
14.253,217325,176,177004
14.258,217291,185,176985
14.263,217297,182,176985
14.268,217258,180,176961
14.273,217258,179,176966
14.278,217222,177,176964
14.283,217222,186,176961
14.288,217202,184,176929
14.293,217193,182,176927
14.298,217187,187,176901
14.303,217157,184,176906
14.308,217138,182,176903
14.313,217113,180,176894
14.318,217088,180,176867
14.323,217040,178,176837
14.328,217014,186,176811
14.333,216964,184,176799
14.338,216953,182,176761
14.343,216883,181,176779
14.348,216847,183,176722
14.353,216839,181,176716
14.358,216831,179,176725
14.363,216833,178,176735
14.368,216832,176,176746
14.373,216825,185,176744
14.378,216831,183,176748
14.383,216845,181,176759
14.388,216853,179,176765
14.393,216838,178,176795
14.398,216844,180,176800
14.403,216875,177,176792
14.408,216875,177,176796
14.413,216868,185,176801
14.418,216892,183,176812
14.423,216878,182,176831
14.428,216890,180,176830
14.433,216888,179,176828
14.438,216870,178,176826
14.443,216863,182,176814
14.448,216849,184,176799
14.453,216836,182,176805
14.458,216827,181,176797
14.463,216807,179,176784
14.468,216795,177,176780
14.473,216769,185,176774
14.478,216744,183,176756
14.483,216765,180,176746
14.488,216745,178,176760
14.493,216750,179,176734
14.498,216718,183,176726
14.503,216711,182,176724
14.508,216717,179,176699
14.513,216667,178,176694
14.518,216649,187,176683
14.523,216651,184,176660
14.528,216607,181,176631
14.533,216592,179,176624
14.538,216555,178,176600
14.543,216534,186,176578
14.548,216511,185,176568
14.553,216479,182,176527
14.558,216462,180,176508
14.563,216418,178,176494
14.568,216391,186,176479
14.573,216373,183,176464
14.578,216374,182,176450
14.583,216374,181,176442
14.588,216354,179,176434
14.593,216351,182,176432
14.598,216369,181,176444
14.603,216375,179,176439
14.608,216347,178,176437
14.613,216330,178,176416
14.618,216326,186,176403
14.623,216296,184,176406
14.628,216259,183,176354
14.633,216189,181,176325
14.638,216172,186,176280
14.643,216171,183,176295
14.648,216133,181,176271
14.653,216118,179,176267
14.658,216093,178,176273
14.663,216103,176,176264
14.668,216073,176,176251
14.673,216039,185,176239
14.678,216035,184,176250
14.683,216024,183,176236
14.688,216012,176,176207
14.693,215998,173,176207
14.698,215999,178,176241
14.703,215985,176,176235
14.708,215972,185,176225
14.713,215978,183,176200
14.718,215949,182,176191
14.723,215913,183,176174
14.728,215918,182,176172
14.733,215895,181,176169
14.738,215895,185,176148
14.743,215879,184,176155
14.748,215877,184,176134
14.753,215871,183,176145
14.758,215858,182,176133
14.763,215863,180,176123
14.768,215853,179,176114
14.773,215875,178,176104
14.778,215858,177,176098
14.783,215844,186,176079
14.788,215844,179,176090
14.793,215829,177,176069
14.798,215823,176,176069
14.803,215810,184,176064
14.808,215803,182,176066
14.813,215806,180,176048
14.818,215797,179,176048
14.823,215815,176,176059
14.828,215800,186,176064
14.833,215825,183,176066
14.838,215846,187,176086
14.843,215852,184,176081
14.848,215861,182,176107
14.853,215868,181,176088
14.858,215836,179,176089
14.863,215856,177,176081
14.868,215863,186,176083
14.873,215893,183,176095
14.878,215876,182,176097
14.883,215888,181,176126
14.888,215894,183,176109
14.893,215901,181,176122
14.898,215924,179,176135
14.903,215937,178,176160
14.908,215977,186,176177
14.913,215981,183,176183
14.918,216018,182,176185
14.923,216020,180,176193
14.928,216023,178,176207
14.933,216030,177,176217
14.938,216026,180,176214
14.943,216031,179,176216
14.948,216050,177,176218
14.953,216036,186,176218
14.958,216021,184,176216
14.963,216020,183,176217
14.968,215999,182,176213
14.973,215988,180,176221
14.978,215946,179,176190
14.983,215927,182,176179
14.988,215907,180,176149
14.993,215858,179,176139
14.998,215801,178,176110
15.003,215737,177,176092
15.008,215716,177,176062
15.013,215649,187,176042
15.018,215619,184,176021
15.023,215585,183,176007
15.028,215543,180,175987
15.033,215512,184,175965
15.038,215448,181,175934
15.043,215413,180,175924
15.048,215366,178,175894
15.053,215344,187,175890
15.058,215287,185,175854
15.063,215237,184,175829
15.068,215148,182,175791
15.073,215094,180,175749
15.078,215037,179,175723
15.083,214980,180,175696
15.088,214915,178,175669
15.093,214889,177,175629
15.098,214824,185,175578
15.103,214779,184,175566
15.108,214714,183,175532
15.113,214676,183,175515
15.118,214648,180,175490
15.123,214605,179,175458
15.128,214584,178,175449
15.133,214568,185,175424
15.138,214520,184,175398
15.143,214486,182,175397
15.148,214480,180,175396
15.153,214445,179,175358
15.158,214415,177,175353
15.163,214390,177,175346
15.168,214365,185,175318
15.173,214339,183,175298
15.178,214306,185,175261
15.183,214273,185,175293
15.188,214259,185,175270
15.193,214250,184,175279
15.198,214219,183,175263
15.203,214191,182,175245
15.208,214195,180,175250
15.213,214171,179,175235
15.218,214157,178,175228
15.223,214130,176,175221
15.228,214147,179,175217
15.233,214135,177,175218
15.238,214134,185,175221
15.243,214137,182,175236
15.248,214135,181,175230
15.253,214138,180,175228
15.258,214114,179,175227
15.263,214093,178,175214
15.268,214084,176,175204
15.273,214068,185,175200
15.278,214042,177,175172
15.283,214046,186,175173
15.288,214016,184,175158
15.293,213995,183,175156
15.298,213980,182,175113
15.303,213956,181,175115
15.308,213937,179,175088
15.313,213909,179,175075
15.318,213872,178,175039
15.323,213838,177,175024
15.328,213812,183,174990
15.333,213793,184,174976
15.338,213778,181,174979
15.343,213725,180,174945
15.348,213721,178,174933
15.353,213705,177,174922
15.358,213696,186,174912
15.363,213665,185,174886
15.368,213652,183,174846
15.373,213645,183,174861
15.378,213608,186,174840
15.383,213599,184,174831
15.388,213591,183,174827
15.393,213554,183,174808
15.398,213546,182,174806
15.403,213543,181,174804
15.408,213530,180,174770
15.413,213534,178,174768
15.418,213525,178,174770
15.423,213512,177,174757
15.428,213490,178,174756
15.433,213481,177,174740
15.438,213467,186,174721
15.443,213459,184,174723
15.448,213438,182,174694
15.453,213422,180,174697
15.458,213425,178,174696
15.463,213413,177,174658
15.468,213394,187,174660
15.473,213408,174,174649
15.478,213409,177,174659
15.483,213417,177,174676
15.488,213412,185,174675
15.493,213445,184,174699
15.498,213437,182,174688
15.503,213444,182,174672
15.508,213441,181,174695
15.513,213441,180,174684
15.518,213443,178,174678
15.523,213434,181,174691
15.528,213420,180,174673
15.533,213400,178,174653
15.538,213381,177,174644
15.543,213359,176,174627
15.548,213361,185,174592
15.553,213302,183,174586
15.558,213300,181,174571
15.563,213274,179,174565
15.568,213266,178,174565
15.573,213294,183,174557
15.578,213290,183,174571
15.583,213281,181,174559
15.588,213276,179,174567
15.593,213286,176,174563
15.598,213254,186,174565
15.603,213257,183,174551
15.608,213256,181,174532
15.613,213236,179,174531
15.618,213217,178,174546
15.623,213162,178,174529
15.628,213218,179,174515
15.633,213201,178,174510
15.638,213221,176,174518
15.643,213219,185,174506
15.648,213194,183,174507
15.653,213211,181,174475
15.658,213189,180,174511
15.663,213201,178,174502
15.668,213192,177,174500
15.673,213187,180,174495
15.678,213196,177,174489
15.683,213200,185,174512
15.688,213180,183,174501
15.693,213144,180,174486
15.698,213115,178,174464
15.703,213098,186,174440
15.708,213022,184,174431
15.713,213000,181,174419
15.718,212969,184,174451
15.723,212926,184,174355
15.728,212874,181,174354
15.733,212816,180,174342
15.738,212784,179,174325
15.743,212734,176,174304
15.748,212659,185,174264
15.753,212610,182,174253
15.758,212555,181,174214
15.763,212512,180,174211
15.768,212462,179,174180
15.773,212445,179,174178
15.778,212390,177,174171
15.783,212341,185,174145
15.788,212312,184,174127
15.793,212246,182,174107
15.798,212178,182,174066
15.803,212150,181,174049
15.808,212076,181,174024
15.813,212016,179,173983
15.818,211976,184,173970
15.823,211913,176,173937
15.828,211849,184,173916
15.833,211811,182,173903
15.838,211780,180,173876
15.843,211736,178,173877
15.848,211718,177,173846
15.853,211657,186,173843
15.858,211626,183,173804
15.863,211584,180,173803
15.868,211550,184,173776
15.873,211519,182,173748
15.878,211457,180,173718
15.883,211460,178,173712
15.888,211407,177,173701
15.893,211370,185,173671
15.898,211289,183,173652
15.903,211293,181,173618
15.908,211254,179,173614
15.913,211229,176,173608
15.918,211201,180,173566
15.923,211195,178,173589
15.928,211149,177,173563
15.933,211160,176,173557
15.938,211118,185,173550
15.943,211104,182,173540
15.948,211072,181,173509
15.953,211062,179,173521
15.958,211051,177,173512
15.963,211018,186,173512
15.968,211034,178,173507
15.973,211049,176,173504
15.978,211021,186,173486
15.983,211039,182,173489
15.988,211021,181,173484
15.993,211013,181,173486
15.998,211025,178,173470
16.003,211013,176,173463
16.008,211002,185,173476
16.013,211008,187,173468
16.018,210993,177,173472
16.023,210993,186,173459
16.028,210976,185,173467
16.033,210972,181,173472
16.038,210948,179,173464
16.043,210953,178,173442
16.048,210908,176,173421
16.053,210888,185,173436
16.058,210887,182,173413
16.063,210861,184,173419
16.068,210856,182,173407
16.073,210829,179,173410
16.078,210828,180,173410
16.083,210823,176,173397
16.088,210804,185,173392
16.093,210802,183,173396
16.098,210801,181,173382
16.103,210792,180,173380
16.108,210772,178,173379
16.113,210776,181,173386
16.118,210746,179,173361
16.123,210727,177,173359
16.128,210724,186,173348
16.133,210720,184,173366
16.138,210713,182,173350
16.143,210698,181,173355
16.148,210701,178,173347
16.153,210697,186,173340
16.158,210681,183,173358
16.163,210698,179,173346
16.168,210686,180,173352
16.173,210691,178,173346
16.178,210686,176,173343
16.183,210674,184,173330
16.188,210657,183,173339
16.193,210660,181,173329
16.198,210628,179,173335
16.203,210648,178,173321
16.208,210614,177,173321
16.213,210637,179,173311
16.218,210614,176,173322
16.223,210603,185,173322
16.228,210594,184,173308
16.233,210573,183,173305
16.238,210573,181,173297
16.243,210548,178,173290
16.248,210546,177,173310
16.253,210541,186,173304
16.258,210522,185,173289
16.263,210534,183,173305
16.268,210540,181,173299
16.273,210528,179,173310
16.278,210524,177,173309
16.283,210507,186,173311
16.288,210506,184,173305
16.293,210491,183,173296
16.298,210489,180,173286
16.303,210454,178,173285
16.308,210462,181,173286
16.313,210438,186,173271
16.318,210420,183,173284
16.323,210412,181,173272
16.328,210407,179,173263
16.333,210374,178,173248
16.338,210387,177,173261
16.343,210383,187,173250
16.348,210361,184,173264
16.353,210351,182,173248
16.358,210343,185,173249
16.363,210368,183,173259
16.368,210371,182,173240
16.373,210361,181,173259
16.378,210344,178,173248
16.383,210303,177,173234
16.388,210325,185,173224
16.393,210301,183,173228
16.398,210299,181,173225
16.403,210248,178,173213
16.408,210231,181,173213
16.413,210194,179,173187
16.418,210182,177,173178
16.423,210152,185,173156
16.428,210094,183,173141
16.433,210072,181,173133
16.438,210024,179,173113
16.443,210008,178,173085
16.448,209962,176,173087
16.453,209933,185,173060
16.458,209888,176,173045
16.463,209853,184,173043
16.468,209818,181,173024
16.473,209789,179,173012
16.478,209760,176,173000
16.483,209747,185,172986
16.488,209718,182,172983
16.493,209714,180,172961
16.498,209687,178,172950
16.503,209659,177,172920
16.508,209626,180,172936
16.513,209604,178,172926
16.518,209565,176,172893
16.523,209534,185,172894
16.528,209503,183,172867
16.533,209483,181,172877
16.538,209445,179,172848
16.543,209440,179,172840
16.548,209415,177,172838
16.553,209394,177,172826
16.558,209364,177,172807
16.563,209350,176,172808
16.568,209345,185,172777
16.573,209322,183,172791
16.578,209314,182,172789
16.583,209309,180,172770
16.588,209284,179,172764
16.593,209265,178,172766
16.598,209243,176,172751
16.603,209231,178,172737
16.608,209209,176,172733
16.613,209194,185,172720
16.618,209178,182,172708
16.623,209141,180,172709
16.628,209145,178,172681
16.633,209138,175,172695
16.638,209124,184,172679
16.643,209116,181,172681
16.648,209126,180,172681
16.653,209113,184,172676
16.658,209120,182,172674
16.663,209130,180,172688
16.668,209127,178,172670
16.673,209117,176,172671
16.678,209122,185,172673
16.683,209119,184,172676
16.688,209101,182,172659
16.693,209102,181,172647
16.698,209086,179,172649
16.703,209081,183,172653
16.708,209074,181,172656
16.713,209095,179,172648
16.718,209067,178,172636
16.723,209067,177,172637
16.728,209041,185,172623
16.733,209038,183,172626
16.738,209034,183,172638
16.743,209022,181,172613
16.748,209022,180,172604
16.753,209014,178,172608
16.758,209007,178,172613
16.763,208979,177,172590
16.768,209003,186,172592
16.773,208985,184,172595
16.778,208975,182,172593
16.783,208960,180,172592
16.788,208982,178,172586
16.793,208931,177,172590
16.798,208939,176,172580
16.803,208955,177,172577
16.808,208918,180,172567
16.813,208928,178,172573
16.818,208914,177,172568
16.823,208905,185,172574
16.828,208909,182,172555
16.833,208918,180,172564
16.838,208911,179,172565
16.843,208925,177,172554
16.848,208898,178,172566
16.853,208936,182,172561
16.858,208926,180,172561
16.863,208935,178,172575
16.868,208929,177,172574
16.873,208939,185,172564
16.878,208928,184,172546
16.883,208920,181,172535
16.888,208929,178,172549
16.893,208945,177,172542
16.898,208948,180,172541
16.903,208928,178,172549
16.908,208932,176,172527
16.913,208939,183,172544
16.918,208955,180,172542
16.923,208966,178,172539
16.928,208983,177,172572
16.933,208985,185,172562
16.938,208980,183,172563
16.943,209009,182,172575
16.948,209005,176,172569
16.953,209011,184,172569
16.958,209011,182,172580
16.963,209029,180,172583
16.968,209033,179,172587
16.973,209053,177,172600
16.978,209032,176,172580
16.983,209038,186,172573
16.988,209040,183,172579
16.993,209035,183,172577
16.998,209064,177,172592
17.003,209051,180,172579
17.008,209056,178,172587
17.013,209047,177,172574
17.018,209050,186,172591
17.023,209062,183,172600
17.028,209074,182,172572
17.033,209062,180,172607
17.038,209080,179,172601
17.043,209084,177,172611
17.048,209099,180,172601
17.053,209097,179,172613
17.058,209083,177,172610
17.063,209067,176,172605
17.068,209050,185,172588
17.073,209009,183,172581
17.078,208996,181,172565
17.083,208959,180,172547
17.088,208934,179,172555
17.093,208898,182,172507
17.098,208874,180,172510
17.103,208843,178,172488
17.108,208820,177,172474
17.113,208766,176,172464
17.118,208735,185,172453
17.123,208698,183,172423
17.128,208675,181,172433
17.133,208643,180,172412
17.138,208607,180,172396
17.143,208585,181,172398
17.148,208556,180,172365
17.153,208534,179,172360
17.158,208494,178,172344
17.163,208472,176,172343
17.168,208437,185,172317
17.173,208419,183,172307
17.178,208397,182,172305
17.183,208355,181,172293
17.188,208349,180,172303
17.193,208322,183,172273
17.198,208298,182,172264
17.203,208276,180,172266
17.208,208238,178,172233
17.213,208234,177,172247
17.218,208208,177,172232
17.223,208173,176,172226
17.228,208158,176,172222
17.233,208143,185,172208
17.238,208128,183,172188
17.243,208107,176,172191
17.248,208078,184,172171
17.253,208060,182,172151
17.258,208034,181,172149
17.263,208013,180,172138
17.268,207989,178,172136
17.273,207962,177,172115
17.278,207939,176,172119
17.283,207943,185,172113
17.288,207901,184,172091
17.293,207893,177,172100
17.298,207878,177,172068
17.303,207852,176,172068
17.308,207851,186,172045
17.313,207812,185,172055
17.318,207816,183,172039
17.323,207802,181,172025
17.328,207808,180,172034
17.333,207787,180,172037
17.338,207793,179,172052
17.343,207789,181,172041
17.348,207768,180,172028
17.353,207772,180,172042
17.358,207756,179,172029
17.363,207759,177,172022
17.368,207746,176,172009
17.373,207719,185,172006
17.378,207704,184,172001
17.383,207702,183,172001
17.388,207712,185,171991
17.393,207700,179,171995
17.398,207671,178,171995
17.403,207652,178,171975
17.408,207654,177,171977
17.413,207655,186,171983
17.418,207641,185,171982
17.423,207638,183,171971
17.428,207627,182,171982
17.433,207633,181,171983
17.438,207624,185,171982
17.443,207620,184,171978
17.448,207613,182,171966
17.453,207613,180,171973
17.458,207600,179,171985
17.463,207594,177,171981
17.468,207576,186,171961
17.473,207578,183,171962
17.478,207563,181,171956
17.483,207551,180,171963
17.488,207571,184,171955
17.493,207560,182,171962
17.498,207551,179,171961
17.503,207540,178,171956
17.508,207561,176,171961
17.513,207559,185,171960
17.518,207554,183,171965
17.523,207554,181,171980
17.528,207572,180,171968
17.533,207573,178,171974
17.538,207553,180,171970
17.543,207564,179,171962
17.548,207561,178,171965
17.553,207549,176,171986
17.558,207560,185,171975
17.563,207552,184,171974
17.568,207552,182,171985
17.573,207556,180,171976
17.578,207558,178,171971
17.583,207543,176,171971
17.588,207564,179,171991
17.593,207573,177,171998
17.598,207569,176,172002
17.603,207576,186,172001
17.608,207570,184,172005
17.613,207584,183,172001
17.618,207592,181,172012
17.623,207607,180,172027
17.628,207604,178,172027
17.633,207592,181,171958
17.638,207625,180,172035
17.643,207625,181,172032
17.648,207632,178,172031
17.653,207620,177,172032
17.658,207630,176,172043
17.663,207639,184,172051
17.668,207639,183,172045
17.673,207663,182,172032
17.678,207659,180,172056
17.683,207695,183,172048
17.688,207704,177,172059
17.693,207711,185,172059
17.698,207704,183,172073
17.703,207713,182,172081
17.708,207716,181,172080
17.713,207737,180,172089
17.718,207739,179,172112
17.723,207741,178,172075
17.728,207733,176,172081
17.733,207729,179,172084
17.738,207703,178,172059
17.743,207601,182,172058
17.748,207636,177,172048
17.753,207613,186,172025
17.758,207567,185,172019
17.763,207565,183,172018
17.768,207509,183,172005
17.773,207496,182,171985
17.778,207471,180,171971
17.783,207442,186,171959
17.788,207429,183,171964
17.793,207394,181,171947
17.798,207383,180,171934
17.803,207358,179,171920
17.808,207326,177,171905
17.813,207318,177,171897
17.818,207293,177,171886
17.823,207256,176,171886
17.828,207226,176,171854
17.833,207207,186,171851
17.838,207192,185,171838
17.843,207162,184,171825
17.848,207145,182,171829
17.853,207133,181,171820
17.858,207127,179,171801
17.863,207121,178,171806
17.868,207113,176,171794
17.873,207085,186,171793
17.878,207083,185,171788
17.883,207061,177,171778
17.888,207047,176,171762
17.893,207028,185,171772
17.898,207021,183,171757
17.903,207003,181,171782
17.908,206992,181,171744
17.913,206983,179,171764
17.918,206967,178,171735
17.923,206951,177,171726
17.928,206935,174,171724
17.933,206906,177,171714
17.938,206912,176,171717
17.943,206888,185,171717
17.948,206875,183,171713
17.953,206864,182,171718
17.958,206865,180,171713
17.963,206879,178,171697
17.968,206859,177,171695
17.973,206844,176,171695
17.978,206829,178,171702
17.983,206826,177,171679
17.988,206842,176,171694
17.993,206824,185,171687
17.998,206845,183,171698
18.003,206834,182,171697
18.008,206844,181,171712
18.013,206850,179,171727
18.018,206865,177,171724
18.023,206875,176,171725
18.028,206877,179,171743
18.033,206886,177,171722
18.038,206881,176,171729
18.043,206901,185,171725
18.048,206878,185,171729
18.053,206897,184,171730
18.058,206891,183,171733
18.063,206890,182,171732
18.068,206883,180,171726
18.073,206903,178,171746
18.078,206867,177,171737
18.083,206885,176,171735
18.088,206906,185,171736
18.093,206894,184,171749
18.098,206897,182,171743
18.103,206897,181,171756
18.108,206900,179,171753
18.113,206909,179,171759
18.118,206913,177,171764
18.123,206920,176,171754
18.128,206917,179,171771
18.133,206925,179,171758
18.138,206944,178,171770
18.143,206946,176,171788
18.148,206949,176,171770
18.153,206952,185,171771
18.158,206976,184,171788
18.163,206954,184,171788
18.168,206970,183,171799
18.173,206969,187,171752
18.178,206982,176,171800
18.183,206967,185,171808
18.188,206990,184,171796
18.193,206977,182,171804
18.198,207010,181,171808
18.203,206999,180,171815
18.208,207015,179,171812
18.213,207025,177,171822
18.218,207036,176,171842
18.223,207062,179,171829
18.228,207042,179,171830
18.233,207053,178,171853
18.238,207066,176,171841
18.243,207098,185,171861
18.248,207088,184,171862
18.253,207088,183,171869
18.258,207111,181,171855
18.263,207118,180,171867
18.268,207129,179,171888
18.273,207158,185,171892
18.278,207154,176,171887
18.283,207176,185,171906
18.288,207181,184,171916
18.293,207159,183,171902
18.298,207178,182,171924
18.303,207191,179,171925
18.308,207223,179,171920
18.313,207232,178,171951
18.318,207243,176,171952
18.323,207247,184,171955
18.328,207262,183,171953
18.333,207282,182,171958
18.338,207281,180,171955
18.343,207294,178,171986
18.348,207303,177,171983
18.353,207326,176,171985
18.358,207322,186,171991
18.363,207336,184,171983
18.368,207335,183,172006
18.373,207344,175,172005
18.378,207365,184,172008
18.383,207374,182,172031
18.388,207397,180,172039
18.393,207390,178,172036
18.398,207415,176,172039
18.403,207418,185,172050
18.408,207419,183,172038
18.413,207398,182,172041
18.418,207377,180,172030
18.423,207370,183,172015
18.428,207361,181,172015
18.433,207328,180,171991
18.438,207305,177,171987
18.443,207304,176,171988
18.448,207289,185,171985
18.453,207269,183,171962
18.458,207268,181,171974
18.463,207256,179,171965
18.468,207261,177,171955
18.473,207224,181,171953
18.478,207215,180,171944
18.483,207219,178,171934
18.488,207195,177,171925
18.493,207177,176,171918
18.498,207168,185,171903
18.503,207153,184,171897
18.508,207136,181,171889
18.513,207099,180,171875
18.518,207101,184,171867
18.523,207039,176,171861
18.528,207027,184,171846
18.533,207010,182,171820
18.538,206979,181,171815
18.543,206954,180,171800
18.548,206918,179,171789
18.553,206905,177,171789
18.558,206880,176,171782
18.563,206881,185,171770
18.568,206859,179,171790
18.573,206822,181,171768
18.578,206800,178,171758
18.583,206786,176,171749
18.588,206765,185,171755
18.593,206738,182,171717
18.598,206715,181,171726
18.603,206702,178,171724
18.608,206684,177,171684
18.613,206673,184,171707
18.618,206665,181,171692
18.623,206634,179,171685
18.628,206617,177,171686
18.633,206604,176,171679
18.638,206618,183,171667
18.643,206576,181,171703
18.648,206580,178,171649
18.653,206578,177,171656
18.658,206564,185,171653
18.663,206549,182,171635
18.668,206540,176,171653
18.673,206553,184,171638
18.678,206547,183,171639
18.683,206551,182,171655
18.688,206560,180,171657
18.693,206574,179,171657
18.698,206579,178,171672
18.703,206594,177,171674
18.708,206604,176,171666
18.713,206572,178,171628
18.718,206593,178,171682
18.723,206608,176,171666
18.728,206583,176,171672
18.733,206600,184,171667
18.738,206591,182,171683
18.743,206584,180,171672
18.748,206576,179,171685
18.753,206601,178,171685
18.758,206590,177,171675
18.763,206595,179,171676
18.768,206571,185,171685
18.773,206583,183,171679
18.778,206568,181,171663
18.783,206565,180,171675
18.788,206566,178,171669
18.793,206572,186,171663
18.798,206569,183,171668
18.803,206554,180,171660
18.808,206553,179,171663
18.813,206546,183,171646
18.818,206565,182,171661
18.823,206552,181,171677
18.828,206549,179,171663
18.833,206558,178,171670
18.838,206549,177,171674
18.843,206563,177,171669
18.848,206556,176,171677
18.853,206581,176,171676
18.858,206579,185,171680
18.863,206586,178,171681
18.868,206584,178,171675
18.873,206597,177,171687
18.878,206584,176,171706
18.883,206602,185,171705
18.888,206613,185,171730
18.893,206606,183,171710
18.898,206633,183,171731
18.903,206634,181,171740
18.908,206634,181,171729
18.913,206656,185,171751
18.918,206652,184,171743
18.923,206674,183,171741
18.928,206693,182,171736
18.933,206687,180,171757
18.938,206693,179,171765
18.943,206696,177,171776
18.948,206700,176,171775
18.953,206723,185,171783
18.958,206726,185,171778
18.963,206735,177,171789
18.968,206758,176,171791
18.973,206779,176,171797
18.978,206774,185,171804
18.983,206782,184,171823
18.988,206810,183,171818
18.993,206826,182,171822
18.998,206833,180,171827
19.003,206838,179,171840
19.008,206861,177,171841
19.013,206852,180,171854
19.018,206859,179,171846
19.023,206880,178,171855
19.028,206883,177,171876
19.033,206890,176,171871
19.038,206896,185,171870
19.043,206927,184,171872
19.048,206926,183,171892
19.053,206954,183,171906
19.058,206948,176,171909
19.063,206958,176,171898
19.068,206982,176,171924
19.073,206990,176,171919
19.078,207003,185,171934
19.083,207017,184,171941
19.088,207044,182,171964
19.093,207038,181,171963
19.098,207051,179,171968
19.103,207073,177,171978
19.108,207091,180,171987
19.113,207082,178,171998
19.118,207084,177,171980
19.123,207085,185,172014
19.128,207114,181,171995
19.133,207098,180,172008
19.138,207103,179,172022
19.143,207106,178,172012
19.148,207098,176,172006
19.153,207081,185,171991
19.158,207052,183,171996
19.163,207059,180,171991
19.168,207025,179,171978
19.173,206994,178,171974
19.178,206977,176,171947
19.183,206930,186,171940
19.188,206915,184,171916
19.193,206858,182,171904
19.198,206842,181,171894
19.203,206790,179,171890
19.208,206788,176,171857
19.213,206747,176,171851
19.218,206716,185,171851
19.223,206697,184,171829
19.228,206671,182,171825
19.233,206641,182,171825
19.238,206609,180,171802
19.243,206564,179,171787
19.248,206532,178,171773
19.253,206517,182,171722
19.258,206460,180,171722
19.263,206434,178,171716
19.268,206422,177,171709
19.273,206399,176,171691
19.278,206387,184,171678
19.283,206358,182,171680
19.288,206328,180,171660
19.293,206295,179,171652
19.298,206303,178,171668
19.303,206305,180,171653
19.308,206248,179,171643
19.313,206226,177,171653
19.318,206235,176,171639
19.323,206213,185,171635
19.328,206212,183,171638
19.333,206198,182,171637
19.338,206187,180,171621
19.343,206168,179,171632
19.348,206157,177,171626
19.353,206142,180,171629
19.358,206137,178,171627
19.363,206140,177,171621
19.368,206121,176,171621
19.373,206128,185,171614
19.378,206111,184,171611
19.383,206096,183,171615
19.388,206085,182,171611
19.393,206075,181,171603
19.398,206072,180,171597
19.403,206083,184,171597
19.408,206054,182,171604
19.413,206077,181,171593
19.418,206070,179,171614
19.423,206094,177,171632
19.428,206110,177,171622
19.433,206108,175,171626
19.438,206128,184,171629
19.443,206145,183,171653
19.448,206131,181,171637
19.453,206136,185,171637
19.458,206150,184,171652
19.463,206151,181,171649
19.468,206160,180,171644
19.473,206154,179,171656
19.478,206176,177,171649
19.483,206188,176,171655
19.488,206180,185,171651
19.493,206188,182,171655
19.498,206182,182,171644
19.503,206175,184,171649
19.508,206192,184,171667
19.513,206171,182,171659
19.518,206171,181,171661
19.523,206196,179,171671
19.528,206185,178,171670
19.533,206205,178,171682
19.538,206210,176,171682
19.543,206216,185,171698
19.548,206250,174,171689
19.553,206233,177,171694
19.558,206221,177,171697
19.563,206232,186,171713
19.568,206245,185,171700
19.573,206254,184,171708
19.578,206242,183,171690
19.583,206254,181,171712
19.588,206253,181,171736
19.593,206265,179,171726
19.598,206303,184,171734
19.603,206281,186,171732
19.608,206293,183,171721
19.613,206314,182,171738
19.618,206306,180,171738
19.623,206323,178,171751
19.628,206345,176,171754
19.633,206340,185,171746
19.638,206364,183,171755
19.643,206369,181,171765
19.648,206388,176,171802
19.653,206397,177,171777
19.658,206397,176,171782
19.663,206406,175,171803
19.668,206384,184,171802
19.673,206414,181,171796
19.678,206436,180,171802
19.683,206435,178,171796
19.688,206442,177,171815
19.693,206470,175,171840
19.698,206470,178,171819
19.703,206485,177,171825
19.708,206488,175,171834
19.713,206500,183,171856
19.718,206515,181,171847
19.723,206511,180,171843
19.728,206542,178,171877
19.733,206544,177,171884
19.738,206596,176,171895
19.743,206567,184,171897
19.748,206588,177,171896
19.753,206603,185,171911
19.758,206628,184,171912
19.763,206655,181,171928
19.768,206651,180,171935
19.773,206663,178,171954
19.778,206686,177,171950
19.783,206690,176,171961
19.788,206712,186,171970
19.793,206738,177,171957
19.798,206747,186,171988
19.803,206747,184,171997
19.808,206748,182,172005
19.813,206761,180,171994
19.818,206777,179,172009
19.823,206792,177,172004
19.828,206809,176,172014
19.833,206816,183,172039
19.838,206832,182,172043
19.843,206866,183,172050
19.848,206858,184,172045
19.853,206893,182,172079
19.858,206902,180,172091
19.863,206908,178,172108
19.868,206928,177,172085
19.873,206945,176,172098
19.878,206945,184,172090
19.883,206956,182,172110
19.888,206973,180,172127
19.893,207000,185,172134
19.898,207004,176,172130
19.903,207012,185,172149
19.908,207018,184,172158
19.913,207039,181,172160
19.918,207042,181,172182
19.923,207062,179,172183
19.928,207081,178,172211
19.933,207074,177,172196
19.938,207086,185,172194
19.943,207104,182,172198
19.948,207095,182,172216
19.953,207099,181,172219
19.958,207093,180,172208
19.963,207077,180,172210
19.968,207079,178,172207
19.973,207063,177,172200
19.978,207043,176,172196
19.983,207023,175,172184
19.988,206988,185,172163
19.993,206942,182,172156
19.998,206923,181,172134
20.003,206902,180,172143
20.008,206854,179,172118
20.013,206845,178,172109
20.018,206824,176,172107
20.023,206782,186,172093
20.028,206761,184,172098
20.033,206734,181,172054
20.038,206704,180,172066
20.043,206695,181,172047
20.048,206677,179,172024
20.053,206624,178,172032
20.058,206597,177,172009
20.063,206564,186,171994
20.068,206549,183,171980
20.073,206527,181,171969
20.078,206512,178,171949
20.083,206470,177,171939
20.088,206453,174,171937
20.093,206429,178,171933
20.098,206411,176,171932
20.103,206395,185,171912
20.108,206369,182,171923
20.113,206362,181,171896
20.118,206350,179,171894
20.123,206328,177,171893
20.128,206318,176,171875
20.133,206295,185,171881
20.138,206287,177,171877
20.143,206285,175,171877
20.148,206271,185,171864
20.153,206247,182,171863
20.158,206234,181,171861
20.163,206243,180,171850
20.168,206231,178,171854
20.173,206206,177,171845
20.178,206201,176,171856
20.183,206186,184,171822
20.188,206161,177,171838
20.193,206153,176,171836
20.198,206140,175,171818
20.203,206126,186,171833
20.208,206112,184,171804
20.213,206114,184,171810
20.218,206107,182,171803
20.223,206116,182,171809
20.228,206119,182,171822
20.233,206115,180,171808
20.238,206136,184,171830
20.243,206150,182,171839
20.248,206157,181,171837
20.253,206166,179,171846
20.258,206171,178,171849
20.263,206157,176,171848
20.268,206158,176,171840
20.273,206156,176,171842
20.278,206143,185,171827
20.283,206152,184,171824
20.288,206141,176,171822
20.293,206136,184,171828
20.298,206124,182,171832
20.303,206122,181,171842
20.308,206142,179,171814
20.313,206137,179,171830
20.318,206156,177,171821
20.323,206139,176,171840
20.328,206120,183,171851
20.333,206136,184,171868
20.338,206149,177,171843
20.343,206133,176,171845
20.348,206129,184,171852
20.353,206140,182,171851
20.358,206133,181,171847
20.363,206131,179,171852
20.368,206147,178,171852
20.373,206156,176,171859
20.378,206142,185,171860
20.383,206157,177,171864
20.388,206152,180,171880
20.393,206146,178,171887
20.398,206156,177,171881
20.403,206160,176,171866
20.408,206171,184,171890
20.413,206167,183,171872
20.418,206164,181,171874
20.423,206198,180,171904
20.428,206188,179,171917
20.433,206184,177,171897
20.438,206192,178,171912
20.443,206205,177,171917
20.448,206198,177,171908
20.453,206210,176,171929
20.458,206230,185,171922
20.463,206249,184,171941
20.468,206250,183,171949
20.473,206237,183,171933
20.478,206256,182,171953
20.483,206246,176,171960
20.488,206267,184,171961
20.493,206283,183,171962
20.498,206295,181,171974
20.503,206283,181,171972
20.508,206286,179,171979
20.513,206317,178,171982
20.518,206322,177,171985
20.523,206307,176,172002
20.528,206317,175,172011
20.533,206342,178,172029
20.538,206356,177,172028
20.543,206350,176,172036
20.548,206378,185,172042
20.553,206378,183,172040
20.558,206400,181,172045
20.563,206406,178,172058
20.568,206412,178,172063
20.573,206433,177,172068
20.578,206430,176,172077
20.583,206460,179,172073
20.588,206451,177,172093
20.593,206470,176,172107
20.598,206486,184,172104
20.603,206491,183,172111
20.608,206506,183,172122
20.613,206517,181,172129
20.618,206521,181,172127
20.623,206539,180,172137
20.628,206551,178,172139
20.633,206553,182,172139
20.638,206574,180,172161
20.643,206605,179,172158
20.648,206605,177,172160
20.653,206604,176,172184
20.658,206634,182,172202
20.663,206636,182,172201
20.668,206653,181,172211
20.673,206667,179,172205
20.678,206709,183,172228
20.683,206700,176,172228
20.688,206710,184,172238
20.693,206712,182,172250
20.698,206744,181,172254
20.703,206733,179,172270
20.708,206758,179,172260
20.713,206751,176,172277
20.718,206773,176,172278
20.723,206777,185,172283
20.728,206780,179,172278
20.733,206800,180,172297
20.738,206825,179,172289
20.743,206817,178,172309
20.748,206831,178,172318
20.753,206879,176,172327
20.758,206895,179,172330
20.763,206891,186,172384
20.768,206903,184,172367
20.773,206935,182,172370
20.778,206921,180,172383
20.783,206972,176,172389
20.788,206979,185,172393
20.793,207005,186,172399
20.798,207020,185,172415
20.803,207024,184,172419
20.808,207021,183,172449
20.813,207054,182,172462
20.818,207066,181,172455
20.823,207073,179,172466
20.828,207088,183,172485
20.833,207121,181,172478
20.838,207118,180,172484
20.843,207129,179,172502
20.848,207146,178,172493
20.853,207149,177,172503
20.858,207154,186,172524
20.863,207153,184,172524
20.868,207150,183,172524
20.873,207138,185,172479
20.878,207108,185,172495
20.883,207091,183,172494
20.888,207072,181,172502
20.893,207056,179,172490
20.898,207023,179,172486
20.903,206983,178,172453
20.908,206960,178,172483
20.913,206934,177,172454
20.918,206905,176,172448
20.923,206902,178,172434
20.928,206858,177,172439
20.933,206829,175,172427
20.938,206793,183,172415
20.943,206793,181,172411
20.948,206760,179,172390
20.953,206756,177,172394
20.958,206731,186,172399
20.963,206701,184,172376
20.968,206695,182,172370
20.973,206667,176,172363
20.978,206637,185,172356
20.983,206640,183,172348
20.988,206613,182,172356
20.993,206601,180,172327
20.998,206564,179,172333
21.003,206542,177,172320
21.008,206523,186,172295
21.013,206504,183,172295
21.018,206488,182,172291
21.023,206469,178,172278
21.028,206464,179,172276
21.033,206431,177,172265
21.038,206410,178,172256
21.043,206383,177,172249
21.048,206369,176,172241
21.053,206359,185,172248
21.058,206354,183,172212
21.063,206328,182,172231
21.068,206288,181,172227
21.073,206298,177,172218
21.078,206297,176,172195
21.083,206280,186,172212
21.088,206239,185,172199
21.093,206238,183,172184
21.098,206223,182,172201
21.103,206193,181,172194
21.108,206209,180,172177
21.113,206205,179,172180
21.118,206176,179,172170
21.123,206175,181,172172
21.128,206129,181,172160
21.133,206134,180,172171
21.138,206153,179,172169
21.143,206152,178,172160
21.148,206155,176,172162
21.153,206144,184,172173
21.158,206153,183,172187
21.163,206156,181,172172
21.168,206172,180,172167
21.173,206165,183,172169
21.178,206155,181,172185
21.183,206149,179,172169
21.188,206156,178,172169
21.193,206143,177,172173
21.198,206140,186,172166
21.203,206135,183,172171
21.208,206126,181,172161
21.213,206145,179,172162
21.218,206117,182,172171
21.223,206142,181,172175
21.228,206145,180,172174
21.233,206128,178,172192
21.238,206133,177,172182
21.243,206141,176,172182
21.248,206130,184,172194
21.253,206122,183,172185
21.258,206104,181,172188
21.263,206106,179,172198
21.268,206140,176,172186
21.273,206121,177,172186
21.278,206128,176,172192
21.283,206130,185,172197
21.288,206123,184,172216
21.293,206124,184,172202
21.298,206130,182,172209
21.303,206151,182,172227
21.308,206156,180,172213
21.313,206136,179,172213
21.318,206144,177,172220
21.323,206155,176,172224
21.328,206152,176,172229
21.333,206176,184,172236
21.338,206186,183,172231
21.343,206179,183,172235
21.348,206180,183,172262
21.353,206185,182,172248
21.358,206181,182,172244
21.363,206191,182,172259
21.368,206198,176,172272
21.373,206222,186,172271
21.378,206197,185,172267
21.383,206201,184,172245
21.388,206183,183,172243
21.393,206186,182,172246
21.398,206179,181,172265
21.403,206202,180,172251
21.408,206184,178,172262
21.413,206216,181,172250
21.418,206219,176,172274
21.423,206216,184,172272
21.428,206229,183,172283
21.433,206240,180,172285
21.438,206263,178,172302
21.443,206262,177,172304
21.448,206284,186,172342
21.453,206303,183,172341
21.458,206317,181,172362
21.463,206351,184,172368
21.468,206340,177,172384
21.473,206353,175,172381
21.478,206366,184,172385
21.483,206360,183,172384
21.488,206388,181,172409
21.493,206384,180,172399
21.498,206391,179,172426
21.503,206413,178,172428
21.508,206425,176,172416
21.513,206413,179,172436
21.518,206452,177,172441
21.523,206443,176,172456
21.528,206463,184,172462
21.533,206464,182,172479
21.538,206471,181,172480
21.543,206497,180,172497
21.548,206489,178,172489
21.553,206484,177,172500
21.558,206517,185,172511
21.563,206519,177,172498
21.568,206509,175,172504
21.573,206527,183,172515
21.578,206513,181,172540
21.583,206553,179,172527
21.588,206567,177,172530
21.593,206555,176,172551
21.598,206557,184,172560
21.603,206585,182,172560
21.608,206577,181,172573
21.613,206608,184,172581
21.618,206605,181,172581
21.623,206615,179,172592
21.628,206632,178,172589
21.633,206639,177,172589
21.638,206656,177,172600
21.643,206643,176,172626
21.648,206669,185,172617
21.653,206680,184,172631
21.658,206674,181,172636
21.663,206663,185,172633
21.668,206679,181,172652
21.673,206698,180,172650
21.678,206702,178,172665
21.683,206704,176,172685
21.688,206725,176,172671
21.693,206732,184,172686
21.698,206749,183,172691
21.703,206732,182,172705
21.708,206770,179,172695
21.713,206781,184,172703
21.718,206778,182,172718
21.723,206799,180,172728
21.728,206795,178,172733
21.733,206815,178,172752
21.738,206804,176,172738
21.743,206827,185,172755
21.748,206836,183,172761
21.753,206852,181,172778
21.758,206855,184,172778
21.763,206856,181,172775
21.768,206877,179,172786
21.773,206864,178,172791
21.778,206863,186,172807
21.783,206905,184,172821
21.788,206909,181,172809
21.793,206909,180,172811
21.798,206914,178,172837
21.803,206941,177,172838
21.808,206927,180,172841
21.813,206936,178,172841
21.818,206927,177,172859
21.823,206909,176,172841
21.828,206879,176,172847
21.833,206850,185,172830
21.838,206837,183,172838
21.843,206804,181,172813
21.848,206766,180,172817
21.853,206742,178,172808
21.858,206735,176,172801
21.863,206665,178,172766
21.868,206647,177,172752
21.873,206619,177,172761
21.878,206582,177,172744
21.883,206555,186,172736
21.888,206516,184,172721
21.893,206499,182,172712
21.898,206483,181,172720
21.903,206450,179,172698
21.908,206431,183,172696
21.913,206405,181,172680
21.918,206385,179,172666
21.923,206338,178,172676
21.928,206325,176,172662
21.933,206303,185,172634
21.938,206273,184,172637
21.943,206259,183,172630
21.948,206237,181,172620
21.953,206214,182,172588
21.958,206180,184,172603
21.963,206164,182,172607
21.968,206133,180,172577
21.973,206134,179,172587
21.978,206083,178,172572
21.983,206086,176,172580
21.988,206064,185,172571
21.993,206031,183,172571
21.998,206036,181,172550
22.003,205996,185,172541
22.008,205998,184,172542
22.013,205964,182,172541
22.018,205953,181,172532
22.023,205928,178,172512
22.028,205930,177,172509
22.033,205886,176,172505
22.038,205882,185,172494
22.043,205864,183,172494
22.048,205853,182,172495
22.053,205827,184,172471
22.058,205804,183,172472
22.063,205786,182,172460
22.068,205780,181,172444
22.073,205770,180,172437
22.078,205764,179,172450
22.083,205753,177,172450
22.088,205766,176,172447
22.093,205764,185,172443
22.098,205747,184,172440
22.103,205737,177,172438
22.108,205711,175,172456
22.113,205714,183,172441
22.118,205729,183,172449
22.123,205707,181,172444
22.128,205712,179,172445
22.133,205704,178,172435
22.138,205683,176,172447
22.143,205662,185,172431
22.148,205658,182,172429
22.153,205711,182,172423
22.158,205646,178,172417
22.163,205645,176,172397
22.168,205638,176,172408
22.173,205618,183,172410
22.178,205609,182,172423
22.183,205611,181,172408
22.188,205581,179,172418
22.193,205587,178,172407
22.198,205574,176,172407
22.203,205564,178,172400
22.208,205558,177,172407
22.213,205556,176,172402
22.218,205536,185,172396
22.223,205537,183,172386
22.228,205509,182,172400
22.233,205514,181,172394
22.238,205505,179,172397
22.243,205518,177,172411
22.248,205508,174,172388
22.253,205500,179,172394
22.258,205500,178,172405
22.263,205489,177,172413
22.268,205482,176,172400
22.273,205504,185,172400
22.278,205488,183,172403
22.283,205479,181,172408
22.288,205476,181,172399
22.293,205482,179,172400
22.298,205471,182,172406
22.303,205488,180,172417
22.308,205502,179,172402
22.313,205510,179,172416
22.318,205485,178,172421
22.323,205502,177,172414
22.328,205518,176,172433
22.333,205524,185,172427
22.338,205532,184,172434
22.343,205501,183,172449
22.348,205507,175,172436
22.353,205498,175,172446
22.358,205529,184,172435
22.363,205527,183,172445
22.368,205533,183,172451
22.373,205536,181,172458
22.378,205535,181,172468
22.383,205555,180,172458
22.388,205550,179,172478
22.393,205565,178,172481
22.398,205569,181,172485
22.403,205571,181,172489
22.408,205564,179,172485
22.413,205579,178,172479
22.418,205594,177,172499
22.423,205605,175,172500
22.428,205618,184,172495
22.433,205617,182,172489
22.438,205635,181,172513
22.443,205628,179,172513
22.448,205640,183,172521
22.453,205663,182,172527
22.458,205666,181,172536
22.463,205684,179,172526
22.468,205692,178,172535
22.473,205694,176,172557
22.478,205726,186,172559
22.483,205718,183,172560
22.488,205741,181,172569
22.493,205745,183,172556
22.498,205757,183,172578
22.503,205760,182,172586
22.508,205785,179,172597
22.513,205782,178,172599
22.518,205794,177,172603
22.523,205805,176,172614
22.528,205825,176,172616
22.533,205824,184,172625
22.538,205824,182,172625
22.543,205865,183,172643
22.548,205855,182,172638
22.553,205872,180,172652
22.558,205868,178,172655
22.563,205888,176,172648
22.568,205912,185,172660
22.573,205914,182,172679
22.578,205907,181,172682
22.583,205931,179,172686
22.588,205929,178,172703
22.593,205980,182,172704
22.598,205968,184,172719
22.603,205981,182,172716
22.608,206004,180,172711
22.613,205991,179,172734
22.618,206011,177,172708
22.623,205999,185,172717
22.628,206024,182,172727
22.633,206024,180,172750
22.638,206038,179,172744
22.643,206054,182,172744
22.648,206064,180,172754
22.653,206062,179,172753
22.658,206076,177,172766
22.663,206082,176,172781
22.668,206097,184,172774
22.673,206114,182,172788
22.678,206128,181,172796
22.683,206114,179,172810
22.688,206129,177,172811
22.693,206144,182,172818
22.698,206143,180,172832
22.703,206180,177,172829
22.708,206177,175,172840
22.713,206196,184,172838
22.718,206199,181,172850
22.723,206207,180,172845
22.728,206236,178,172869
22.733,206217,177,172861
22.738,206234,175,172881
22.743,206258,178,172867
22.748,206265,176,172886
22.753,206276,175,172892
22.758,206273,184,172906
22.763,206292,183,172907
22.768,206293,181,172892
22.773,206299,180,172888
22.778,206270,180,172909
22.783,206248,177,172902
22.788,206255,184,172887
22.793,206234,184,172872
22.798,206221,181,172874
22.803,206194,179,172870
22.808,206150,178,172838
22.813,206130,176,172846
22.818,206091,185,172838
22.823,206060,183,172824
22.828,206039,181,172814
22.833,205992,180,172809
22.838,205989,183,172801
22.843,205959,182,172780
22.848,205957,180,172782
22.853,205904,179,172771
22.858,205867,178,172755
22.863,205850,177,172745
22.868,205837,176,172742
22.873,205810,185,172728
22.878,205789,183,172717
22.883,205753,182,172708
22.888,205734,176,172706
22.893,205731,185,172693
22.898,205694,183,172689
22.903,205708,182,172674
22.908,205684,181,172680
22.913,205651,179,172660
22.918,205644,177,172664
22.923,205654,176,172654
22.928,205634,185,172642
22.933,205615,183,172623
22.938,205606,176,172625
22.943,205585,185,172620
22.948,205576,184,172617
22.953,205564,182,172604
22.958,205549,180,172606
22.963,205546,178,172580
22.968,205531,177,172589
22.973,205498,176,172585
22.978,205507,184,172557
22.983,205485,182,172557
22.988,205461,180,172540
22.993,205445,179,172558
22.998,205418,177,172536
23.003,205411,186,172546
23.008,205398,183,172535
23.013,205408,182,172531
23.018,205394,180,172506
23.023,205361,179,172509
23.028,205345,178,172507
23.033,205358,179,172553
23.038,205357,180,172505
23.043,205336,178,172505
23.048,205349,177,172488
23.053,205327,175,172487
23.058,205344,184,172488
23.063,205362,182,172518
23.068,205331,180,172497
23.073,205340,179,172497
23.078,205326,177,172497
23.083,205286,186,172523
23.088,205289,182,172497
23.093,205314,180,172482
23.098,205304,177,172470
23.103,205286,175,172463
23.108,205275,183,172477
23.113,205266,181,172465
23.118,205271,178,172454
23.123,205266,177,172474
23.128,205240,186,172453
23.133,205238,177,172466
23.138,205247,185,172464
23.143,205233,182,172460
23.148,205230,179,172452
23.153,205235,177,172453
23.158,205212,184,172458
23.163,205209,182,172467
23.168,205217,179,172457
23.173,205205,177,172460
23.178,205191,185,172448
23.183,205190,177,172457
23.188,205190,185,172451
23.193,205163,182,172448
23.198,205181,179,172458
23.203,205185,177,172451
23.208,205176,185,172439
23.213,205173,183,172443
23.218,205192,182,172441
23.223,205201,179,172453
23.228,205181,178,172467
23.233,205186,185,172442
23.238,205185,183,172450
23.243,205194,180,172457
23.248,205204,178,172456
23.253,205200,176,172448
23.258,205201,183,172451
23.263,205225,179,172444
23.268,205210,177,172469
23.273,205228,183,172482
23.278,205229,180,172471
23.283,205240,177,172462
23.288,205246,186,172470
23.293,205254,182,172482
23.298,205265,179,172494
23.303,205249,177,172484
23.308,205271,176,172490
23.313,205284,183,172485
23.318,205279,181,172487
23.323,205281,179,172505
23.328,205289,177,172480
23.333,205303,179,172495
23.338,205314,177,172497
23.343,205314,185,172494
23.348,205316,182,172523
23.353,205328,180,172523
23.358,205338,178,172523
23.363,205322,176,172512
23.368,205337,185,172521
23.373,205354,182,172527
23.378,205358,185,172541
23.383,205363,183,172548
23.388,205380,181,172554
23.393,205388,178,172555
23.398,205402,185,172563
23.403,205401,182,172559
23.408,205422,180,172566
23.413,205438,177,172575
23.418,205449,176,172569
23.423,205451,183,172575
23.428,205459,175,172579
23.433,205484,182,172592
23.438,205478,180,172588
23.443,205494,178,172602
23.448,205501,176,172596
23.453,205530,184,172598
23.458,205524,181,172614
23.463,205523,179,172629
23.468,205545,178,172626
23.473,205550,176,172618
23.478,205576,177,172631
23.483,205584,185,172625
23.488,205597,181,172642
23.493,205607,178,172654
23.498,205640,176,172646
23.503,205644,184,172675
23.508,205641,181,172661
23.513,205670,179,172680
23.518,205661,176,172695
23.523,205669,185,172683
23.528,205682,177,172688
23.533,205718,185,172702
23.538,205721,183,172707
23.543,205721,181,172696
23.548,205717,179,172694
23.553,205735,178,172707
23.558,205745,176,172726
23.563,205750,184,172725
23.568,205762,182,172733
23.573,205776,180,172730
23.578,205806,183,172756
23.583,205810,181,172754
23.588,205825,178,172757
23.593,205832,176,172758
23.598,205825,185,172763
23.603,205838,182,172759
23.608,205858,181,172768
23.613,205852,178,172787
23.618,205870,177,172776
23.623,205883,174,172789
23.628,205904,177,172800
23.633,205926,185,172815
23.638,205919,182,172808
23.643,205929,180,172814
23.648,205933,179,172830
23.653,205963,177,172830
23.658,205951,185,172833
23.663,205976,183,172855
23.668,205977,181,172853
23.673,205998,185,172858
23.678,205985,185,172799
23.683,205989,182,172852
23.688,205974,180,172848
23.693,205959,177,172844
23.698,205947,176,172842
23.703,205923,184,172831
23.708,205903,182,172813
23.713,205855,180,172818
23.718,205849,178,172812
23.723,205807,182,172797
23.728,205791,180,172785
23.733,205761,178,172772
23.738,205743,177,172774
23.743,205714,176,172765
23.748,205677,186,172743
23.753,205658,184,172734
23.758,205633,182,172742
23.763,205598,180,172710
23.768,205587,178,172715
23.773,205561,181,172695
23.778,205539,180,172688
23.783,205518,178,172700
23.788,205491,178,172675
23.793,205450,176,172669
23.798,205451,176,172651
23.803,205431,184,172652
23.808,205413,182,172651
23.813,205409,181,172635
23.818,205383,180,172615
23.823,205371,184,172612
23.828,205370,183,172603
23.833,205343,182,172615
23.838,205330,180,172605
23.843,205310,178,172594
23.848,205292,177,172588
23.853,205264,175,172584
23.858,205257,183,172572
23.863,205256,180,172565
23.868,205234,181,172552
23.873,205223,180,172547
23.878,205198,178,172543
23.883,205197,176,172530
23.888,205205,185,172529
23.893,205168,182,172534
23.898,205162,180,172514
23.903,205144,178,172508
23.908,205119,176,172516
23.913,205113,184,172510
23.918,205079,176,172493
23.923,205112,185,172492
23.928,205082,183,172488
23.933,205088,181,172476
23.938,205071,179,172474
23.943,205076,178,172483
23.948,205072,176,172485
23.953,205074,185,172474
23.958,205074,182,172484
23.963,205074,181,172488
23.968,205106,186,172477
23.973,205074,179,172484
23.978,205077,177,172469
23.983,205070,176,172485
23.988,205064,183,172480
23.993,205071,181,172459
23.998,205057,178,172473
24.003,205056,176,172470
24.008,205052,184,172453
24.013,205045,182,172454
24.018,205023,183,172467
24.023,205029,181,172453
24.028,205028,178,172452
24.033,205019,176,172444
24.038,205007,184,172455
24.043,205014,182,172455
24.048,205008,178,172457
24.053,205005,177,172455
24.058,205020,185,172439
24.063,205002,182,172442
24.068,204992,185,172437
24.073,204996,183,172447
24.078,204994,181,172445
24.083,204991,179,172450
24.088,204981,178,172460
24.093,205007,176,172458
24.098,204995,184,172445
24.103,205007,182,172448
24.108,205010,179,172452
24.113,205013,177,172447
24.118,205011,179,172454
24.123,205016,176,172466
24.128,205008,183,172456
24.133,205026,181,172459
24.138,205024,179,172468
24.143,205036,177,172462
24.148,205041,175,172463
24.153,205032,183,172475
24.158,205052,180,172475
24.163,205063,179,172500
24.168,205061,181,172496
24.173,205092,179,172505
24.178,205065,176,172494
24.183,205080,185,172505
24.188,205078,182,172500
24.193,205093,180,172506
24.198,205111,178,172524
24.203,205125,176,172516
24.208,205131,184,172530
24.213,205141,176,172512
24.218,205155,184,172531
24.223,205150,182,172526
24.228,205165,180,172536
24.233,205182,179,172551
24.238,205218,177,172551
24.243,205214,176,172547
24.248,205208,185,172546
24.253,205195,183,172559
24.258,205227,181,172564
24.263,205256,171,172571
24.268,205243,178,172582
24.273,205250,178,172565
24.278,205256,176,172588
24.283,205263,184,172584
24.288,205280,183,172580
24.293,205275,182,172599
24.298,205283,180,172618
24.303,205303,179,172609
24.308,205309,177,172621
24.313,205322,180,172607
24.318,205326,178,172615
24.323,205336,177,172620
24.328,205343,185,172632
24.333,205353,183,172644
24.338,205368,181,172642
24.343,205380,179,172658
24.348,205377,178,172647
24.353,205375,177,172657
24.358,205403,175,172660
24.363,205385,182,172673
24.368,205416,181,172668
24.373,205411,179,172676
24.378,205425,177,172670
24.383,205416,176,172682
24.388,205422,185,172698
24.393,205461,182,172684
24.398,205456,180,172697
24.403,205485,178,172700
24.408,205479,178,172691
24.413,205506,185,172728
24.418,205511,183,172717
24.423,205500,181,172718
24.428,205520,179,172721
24.433,205536,179,172729
24.438,205549,177,172737
24.443,205550,176,172740
24.448,205551,184,172749
24.453,205592,183,172750
24.458,205635,183,172773
24.463,205614,184,172755
24.468,205610,182,172778
24.473,205626,180,172776
24.478,205628,179,172802
24.483,205631,177,172784
24.488,205670,177,172810
24.493,205667,176,172797
24.498,205661,185,172822
24.503,205681,183,172819
24.508,205680,176,172815
24.513,205692,184,172829
24.518,205684,182,172814
24.523,205675,181,172813
24.528,205682,179,172806
24.533,205642,178,172815
24.538,205650,177,172817
24.543,205630,177,172803
24.548,205585,177,172789
24.553,205586,175,172780
24.558,205558,178,172762
24.563,205563,176,172772
24.568,205524,185,172760
24.573,205490,182,172742
24.578,205490,180,172747
24.583,205457,178,172746
24.588,205451,176,172714
24.593,205446,185,172717
24.598,205421,182,172720
24.603,205401,182,172698
24.608,205393,183,172699
24.613,205357,180,172702
24.618,205349,179,172689
24.623,205340,176,172683
24.628,205327,176,172660
24.633,205318,184,172664
24.638,205297,181,172636
24.643,205291,180,172644
24.648,205250,178,172621
24.653,205272,176,172612
24.658,205257,179,172614
24.663,205258,177,172607
24.668,205230,176,172610
24.673,205225,176,172604
24.678,205214,185,172597
24.683,205207,183,172603
24.688,205201,180,172596
24.693,205193,178,172589
24.698,205190,178,172577
24.703,205169,177,172581
24.708,205153,178,172559
24.713,205176,177,172558
24.718,205145,175,172564
24.723,205155,184,172542
24.728,205133,181,172553
24.733,205124,180,172526
24.738,205094,178,172547
24.743,205101,176,172519
24.748,205107,185,172523
24.753,205093,177,172519
24.758,205096,177,172522
24.763,205077,175,172513
24.768,205064,185,172503
24.773,205066,183,172508
24.778,205078,183,172509
24.783,205070,181,172508
24.788,205074,180,172500
24.793,205084,180,172504
24.798,205106,178,172517
24.803,205073,181,172505
24.808,205099,180,172526
24.813,205090,178,172521
24.818,205093,176,172511
24.823,205101,185,172510
24.828,205085,184,172512
24.833,205087,182,172532
24.838,205081,181,172526
24.843,205093,180,172508
24.848,205083,178,172506
24.853,205078,176,172502
24.858,205059,176,172512
24.863,205086,184,172510
24.868,205062,184,172497
24.873,205059,183,172511
24.878,205077,181,172510
24.883,205069,180,172508
24.888,205054,179,172510
24.893,205054,178,172503
24.898,205067,178,172498
24.903,205087,175,172490
24.908,205035,180,172510
24.913,205051,179,172500
24.918,205059,179,172508
24.923,205064,177,172496
24.928,205060,176,172524
24.933,205037,176,172508
24.938,205036,185,172510
24.943,205061,184,172501
24.948,205057,183,172505
24.953,205054,177,172517
24.958,205078,186,172506
24.963,205056,184,172524
24.968,205062,183,172543
24.973,205060,182,172519
24.978,205073,182,172517
24.983,205077,180,172528
24.988,205079,179,172546
24.993,205083,178,172532
24.998,205076,178,172527
25.003,205078,180,172535
25.008,205106,179,172548
25.013,205098,177,172550
25.018,205118,177,172554
25.023,205120,176,172557
25.028,205120,185,172564
25.033,205127,184,172573
25.038,205143,183,172568
25.043,205140,181,172581
25.048,205137,176,172574
25.053,205156,184,172573
25.058,205154,184,172596
25.063,205164,183,172577
25.068,205173,182,172601
25.073,205182,181,172607
25.078,205188,181,172614
25.083,205204,181,172608
25.088,205196,180,172620
25.093,205220,181,172619
25.098,205173,178,172614
25.103,205210,180,172613
25.108,205237,180,172636
25.113,205236,178,172635
25.118,205247,176,172620
25.123,205250,176,172643
25.128,205270,176,172655
25.133,205268,176,172656
25.138,205286,176,172655
25.143,205293,185,172666
25.148,205298,178,172671
25.153,205302,178,172668
25.158,205320,178,172673
25.163,205325,177,172675
25.168,205326,176,172687
25.173,205342,176,172681
25.178,205338,185,172700
25.183,205341,182,172700
25.188,205368,180,172708
25.193,205354,178,172695
25.198,205380,177,172721
25.203,205379,176,172710
25.208,205398,185,172710
25.213,205399,184,172708
25.218,205404,183,172724
25.223,205412,181,172725
25.228,205420,179,172727
25.233,205438,178,172736
25.238,205451,177,172761
25.243,205449,176,172757
25.248,205470,178,172765
25.253,205486,177,172760
25.258,205485,176,172769
25.263,205510,175,172787
25.268,205519,184,172788
25.273,205547,182,172782
25.278,205555,181,172794
25.283,205544,179,172796
25.288,205573,177,172807
25.293,205568,180,172816
25.298,205605,179,172810
25.303,205586,177,172825
25.308,205607,176,172819
25.313,205619,185,172828
25.318,205627,183,172838
25.323,205638,181,172854
25.328,205644,181,172831
25.333,205677,180,172859
25.338,205672,180,172869
25.343,205683,183,172864
25.348,205689,181,172873
25.353,205685,179,172876
25.358,205665,177,172873
25.363,205631,176,172848
25.368,205632,175,172857
25.373,205624,184,172853
25.378,205592,182,172839
25.383,205568,181,172849
25.388,205544,180,172819
25.393,205518,182,172819
25.398,205499,181,172800
25.403,205454,180,172793
25.408,205445,178,172801
25.413,205418,177,172769
25.418,205382,185,172787
25.423,205377,183,172759
25.428,205343,181,172741
25.433,205309,179,172736
25.438,205282,177,172735
25.443,205287,180,172715
25.448,205231,179,172708
25.453,205213,178,172698
25.458,205197,177,172699
25.463,205155,176,172684
25.468,205139,184,172684
25.473,205114,183,172652
25.478,205097,181,172651
25.483,205079,179,172645
25.488,205053,179,172633
25.493,205025,176,172626
25.498,205027,183,172633
25.503,205004,182,172625
25.508,204995,181,172611
25.513,204973,179,172594
25.518,204956,177,172586
25.523,204938,176,172592
25.528,204916,184,172577
25.533,204897,183,172567
25.538,204843,185,172554
25.543,204845,179,172567
25.548,204843,178,172540
25.553,204832,177,172535
25.558,204804,175,172526
25.563,204811,185,172509
25.568,204789,184,172508
25.573,204761,185,172511
25.578,204760,183,172497
25.583,204765,182,172497
25.588,204733,176,172485
25.593,204723,180,172488
25.598,204710,178,172484
25.603,204714,177,172479
25.608,204686,177,172452
25.613,204691,176,172463
25.618,204670,185,172481
25.623,204662,185,172456
25.628,204666,184,172471
25.633,204677,182,172459
25.638,204681,184,172467
25.643,204668,183,172470
25.648,204680,182,172462
25.653,204679,182,172459
25.658,204670,181,172459
25.663,204678,179,172459
25.668,204650,178,172458
25.673,204660,177,172452
25.678,204662,176,172451
25.683,204656,185,172431
25.688,204647,177,172428
25.693,204627,183,172444
25.698,204639,183,172425
25.703,204631,181,172428
25.708,204618,180,172430
25.713,204628,178,172434
25.718,204600,176,172439
25.723,204628,175,172433
25.728,204620,184,172434
25.733,204600,183,172427
25.738,204621,176,172441
25.743,204606,184,172419
25.748,204586,182,172423
25.753,204584,180,172426
25.758,204587,179,172422
25.763,204589,178,172409
25.768,204589,176,172431
25.773,204589,175,172430
25.778,204575,184,172419
25.783,204585,182,172422
25.788,204589,181,172438
25.793,204589,183,172420
25.798,204605,178,172400
25.803,204591,177,172420
25.808,204597,186,172429
25.813,204586,183,172424
25.818,204595,182,172419
25.823,204604,180,172433
25.828,204600,178,172436
25.833,204610,181,172454
25.838,204618,180,172453
25.843,204612,178,172449
25.848,204627,177,172455
25.853,204635,176,172453
25.858,204624,176,172466
25.863,204647,185,172464
25.868,204636,184,172474
25.873,204644,183,172480
25.878,204649,181,172479
25.883,204666,185,172483
25.888,204662,183,172474
25.893,204667,181,172489
25.898,204682,181,172487
25.903,204674,179,172482
25.908,204685,178,172498
25.913,204688,177,172500
25.918,204709,176,172498
25.923,204729,184,172502
25.928,204707,182,172516
25.933,204739,180,172509
25.938,204720,181,172519
25.943,204736,180,172520
25.948,204731,178,172511
25.953,204747,177,172520
25.958,204746,176,172536
25.963,204752,184,172540
25.968,204766,182,172531
25.973,204773,180,172547
25.978,204780,179,172549
25.983,204783,183,172555
25.988,204815,181,172557
25.993,204798,179,172570
25.998,204814,178,172560
26.003,204827,177,172576
26.008,204833,176,172570
26.013,204858,183,172589
26.018,204869,182,172587
26.023,204863,181,172593
26.028,204866,181,172601
26.033,204880,182,172609
26.038,204885,182,172608
26.043,204908,180,172613
26.048,204895,179,172613
26.053,204929,177,172625
26.058,204948,176,172640
26.063,204953,184,172649
26.068,204950,183,172657
26.073,204957,181,172653
26.078,204990,176,172637
26.083,204987,185,172654
26.088,204989,184,172681
26.093,204993,181,172679
26.098,205006,180,172668
26.103,205030,179,172684
26.108,205027,178,172696
26.113,205039,177,172708
26.118,205036,176,172703
26.123,205066,185,172711
26.128,205079,178,172716
26.133,205070,178,172719
26.138,205098,177,172730
26.143,205105,176,172722
26.148,205102,176,172732
26.153,205135,185,172745
26.158,205147,184,172755
26.163,205133,181,172766
26.168,205155,180,172764
26.173,205162,179,172772
26.178,205210,173,172785
26.183,205215,176,172781
26.188,205227,185,172794
26.193,205215,183,172798
26.198,205229,182,172811
26.203,205231,182,172805
26.208,205247,180,172815
26.213,205260,179,172835
26.218,205281,177,172823
26.223,205258,178,172844
26.228,205255,183,172844
26.233,205258,182,172828
26.238,205247,180,172853
26.243,205260,179,172840
26.248,205235,178,172837
26.253,205218,176,172826
26.258,205188,175,172818
26.263,205157,184,172799
26.268,205146,182,172794
26.273,205086,182,172785
26.278,205075,179,172770
26.283,205058,178,172754
26.288,205009,177,172746
26.293,204983,176,172736
26.298,204963,183,172711
26.303,204939,181,172724
26.308,204900,179,172699
26.313,204884,178,172688
26.318,204855,176,172690
26.323,204830,174,172673
26.328,204790,182,172667
26.333,204773,180,172653
26.338,204750,178,172653
26.343,204759,177,172650
26.348,204717,176,172624
26.353,204682,185,172620
26.358,204660,184,172604
26.363,204643,183,172599
26.368,204628,182,172598
26.373,204613,186,172607
26.378,204593,178,172584
26.383,204583,178,172578
26.388,204553,177,172574
26.393,204534,177,172551
26.398,204523,176,172551
26.403,204506,185,172543
26.408,204486,185,172544
26.413,204471,183,172522
26.418,204435,183,172530
26.423,204435,176,172507
26.428,204408,176,172509
26.433,204406,185,172501
26.438,204379,185,172493
26.443,204361,183,172492
26.448,204332,184,172466
26.453,204337,183,172465
26.458,204328,183,172470
26.463,204309,182,172458
26.468,204294,182,172462
26.473,204289,176,172446
26.478,204262,175,172454
26.483,204264,176,172432
26.488,204245,185,172435
26.493,204227,184,172417
26.498,204240,183,172419
26.503,204232,181,172407
26.508,204231,179,172415
26.513,204213,178,172420
26.518,204202,177,172398
26.523,204220,180,172419
26.528,204205,178,172426
26.533,204212,177,172421
26.538,204230,176,172419
26.543,204219,175,172430
26.548,204233,184,172409
26.553,204204,182,172411
26.558,204213,181,172413
26.563,204206,181,172404
26.568,204194,181,172380
26.573,204171,185,172416
26.578,204209,184,172401
26.583,204175,182,172408
26.588,204176,182,172409
26.593,204160,181,172399
26.598,204184,180,172401
26.603,204165,179,172408
26.608,204164,178,172407
26.613,204167,177,172394
26.618,204205,179,172404
26.623,204167,183,172393
26.628,204153,182,172400
26.633,204143,181,172401
26.638,204157,179,172404
26.643,204155,177,172402
26.648,204161,176,172402
26.653,204142,176,172416
26.658,204154,175,172391
26.663,204147,175,172390
26.668,204157,178,172396
26.673,204158,178,172406
26.678,204168,176,172413
26.683,204162,185,172415
26.688,204167,182,172409
26.693,204198,180,172421
26.698,204172,179,172419
26.703,204197,177,172409
26.708,204166,175,172420
26.713,204188,184,172426
26.718,204209,178,172438
26.723,204211,181,172437
26.728,204207,181,172449
26.733,204190,180,172447
26.738,204205,179,172447
26.743,204232,177,172443
26.748,204230,176,172448
26.753,204237,185,172449
26.758,204233,183,172450
26.763,204226,181,172452
26.768,204245,181,172452
26.773,204251,180,172471
26.778,204253,178,172473
26.783,204260,177,172476
26.788,204272,176,172485
26.793,204270,176,172467
26.798,204277,185,172495
26.803,204296,184,172492
26.808,204302,183,172496
26.813,204326,181,172511
26.818,204337,184,172517
26.823,204345,183,172519
26.828,204341,182,172515
26.833,204365,181,172527
26.838,204358,179,172543
26.843,204380,178,172536
26.848,204383,176,172549
26.853,204391,185,172540
26.858,204400,183,172559
26.863,204409,192,172566
26.868,204420,177,172574
26.873,204426,176,172567
26.878,204452,176,172564
26.883,204449,185,172589
26.888,204467,183,172590
26.893,204462,182,172602
26.898,204456,180,172595
26.903,204485,179,172598
26.908,204494,178,172606
26.913,204498,180,172612
26.918,204504,180,172610
26.923,204510,179,172632
26.928,204523,178,172626
26.933,204548,178,172640
26.938,204534,177,172629
26.943,204554,177,172645
26.948,204578,176,172651
26.953,204585,176,172658
26.958,204588,184,172663
26.963,204613,179,172678
26.968,204627,178,172684
26.973,204637,177,172676
26.978,204638,176,172691
26.983,204657,185,172713
26.988,204673,183,172696
26.993,204674,181,172708
26.998,204689,180,172724
27.003,204690,178,172731
27.008,204704,177,172745
27.013,204725,184,172730
27.018,204723,182,172741
27.023,204740,181,172747
27.028,204760,180,172764
27.033,204771,178,172774
27.038,204788,177,172772
27.043,204797,176,172773
27.048,204822,185,172776
27.053,204816,183,172784
27.058,204830,182,172786
27.063,204845,178,172791
27.068,204838,177,172807
27.073,204840,176,172812
27.078,204870,176,172812
27.083,204874,184,172824
27.088,204900,183,172831
27.093,204927,181,172827
27.098,204941,180,172856
27.103,204947,178,172859
27.108,204968,180,172891
27.113,204986,176,172887
27.118,204977,176,172880
27.123,205034,185,172878
27.128,205029,183,172899
27.133,205050,183,172904
27.138,205051,181,172920
27.143,205077,180,172928
27.148,205065,180,172916
27.153,205060,178,172909
27.158,205037,181,172919
27.163,205053,180,172917
27.168,205045,179,172908
27.173,205032,178,172903
27.178,205031,177,172911
27.183,204995,176,172901
27.188,204973,186,172875
27.193,204939,184,172874
27.198,204920,182,172854
27.203,204902,180,172839
27.208,204858,183,172846
27.213,204841,181,172824
27.218,204826,180,172820
27.223,204788,178,172819
27.228,204750,177,172800
27.233,204724,176,172805
27.238,204729,185,172804
27.243,204684,183,172776
27.248,204674,183,172762
27.253,204657,182,172758
27.258,204641,177,172742
27.263,204596,179,172739
27.268,204586,178,172749
27.273,204591,177,172732
27.278,204565,176,172723
27.283,204564,184,172713
27.288,204521,183,172707
27.293,204502,182,172693
27.298,204482,180,172688
27.303,204476,177,172692
27.308,204463,176,172691
27.313,204417,184,172671
27.318,204416,182,172656
27.323,204419,180,172654
27.328,204389,179,172658
27.333,204380,177,172653
27.338,204365,176,172643
27.343,204344,184,172630
27.348,204306,183,172628
27.353,204292,182,172603
27.358,204282,185,172619
27.363,204268,182,172611
27.368,204254,181,172590
27.373,204233,179,172596
27.378,204230,177,172598
27.383,204197,175,172578
27.388,204204,184,172568
27.393,204179,181,172572
27.398,204157,180,172560
27.403,204165,188,172553
27.408,204133,181,172545
27.413,204141,180,172550
27.418,204108,178,172537
27.423,204113,175,172539
27.428,204108,183,172518
27.433,204097,181,172535
27.438,204092,179,172542
27.443,204110,177,172542
27.448,204108,176,172545
27.453,204115,178,172547
27.458,204103,177,172547
27.463,204109,175,172546
27.468,204104,183,172540
27.473,204099,180,172556
27.478,204097,178,172525
27.483,204094,177,172521
27.488,204083,185,172526
27.493,204077,183,172533
27.498,204076,181,172529
27.503,204057,185,172518
27.508,204071,183,172520
27.513,204055,181,172513
27.518,204049,180,172515
27.523,204043,179,172512
27.528,204051,178,172517
27.533,204050,177,172512
27.538,204053,177,172525
27.543,204060,185,172518
27.548,204047,184,172523
27.553,204037,177,172509
27.558,204032,176,172498
27.563,204047,184,172525
27.568,204031,184,172518
27.573,204021,181,172507
27.578,204030,180,172497
27.583,204038,179,172514
27.588,204059,178,172513
27.593,204041,177,172516
27.598,204037,176,172527
27.603,204059,178,172517
27.608,204042,177,172531
27.613,204046,175,172533
27.618,204068,185,172515
27.623,204065,183,172525
27.628,204097,182,172538
27.633,204077,181,172541
27.638,204082,179,172536
27.643,204082,177,172530
27.648,204099,177,172540
27.653,204106,179,172549
27.658,204121,178,172552
27.663,204108,176,172564
27.668,204118,176,172566
27.673,204115,184,172562
27.678,204130,183,172584
27.683,204144,181,172586
27.688,204136,180,172580
27.693,204164,180,172594
27.698,204204,183,172587
27.703,204158,184,172592
27.708,204197,182,172587
27.713,204185,181,172600
27.718,204178,180,172604
27.723,204191,179,172588
27.728,204214,179,172616
27.733,204214,178,172623
27.738,204238,177,172621
27.743,204240,177,172638
27.748,204237,181,172642
27.753,204258,176,172637
27.758,204272,185,172647
27.763,204284,183,172645
27.768,204278,181,172653
27.773,204298,179,172658
27.778,204294,180,172674
27.783,204313,179,172650
27.788,204336,177,172685
27.793,204367,177,172679
27.798,204357,180,172683
27.803,204357,179,172704
27.808,204385,177,172704
27.813,204376,176,172702
27.818,204408,176,172731
27.823,204382,184,172728
27.828,204421,182,172730
27.833,204438,181,172752
27.838,204434,179,172732
27.843,204452,177,172739
27.848,204471,180,172746
27.853,204472,178,172763
27.858,204472,176,172763
27.863,204507,185,172771
27.868,204507,183,172774
27.873,204522,181,172776
27.878,204533,179,172785
27.883,204535,177,172805
27.888,204555,176,172807
27.893,204557,184,172787
27.898,204562,179,172806
27.903,204578,178,172807
27.908,204586,177,172817
27.913,204616,175,172826
27.918,204618,184,172836
27.923,204617,183,172840
27.928,204648,181,172859
27.933,204646,180,172847
27.938,204653,178,172860
27.943,204687,182,172877
27.948,204690,180,172883
27.953,204692,178,172867
27.958,204695,176,172894
27.963,204728,176,172896
27.968,204746,184,172907
27.973,204747,183,172906
27.978,204764,181,172932
27.983,204755,180,172934
27.988,204763,180,172929
27.993,204792,184,172936
27.998,204814,183,172939
28.003,204823,181,172954
28.008,204816,180,172964
28.013,204834,178,172957
28.018,204851,177,172977
28.023,204866,185,172961
28.028,204884,182,172982
28.033,204888,181,172992
28.038,204903,179,172993
28.043,204907,182,172994
28.048,204933,181,172997
28.053,204945,180,173017
28.058,204964,178,173013
28.063,204986,177,173038
28.068,205004,176,173039
28.073,205014,176,173049
28.078,205001,184,173036
28.083,205049,182,173055
28.088,205035,179,173090
28.093,205075,182,173077
28.098,205056,178,173097
28.103,205065,177,173101
28.108,205081,175,173104
28.113,205098,184,173092
28.118,205103,182,173119
28.123,205113,181,173129
28.128,205129,179,173128
28.133,205099,178,173132
28.138,205107,177,173121
28.143,205104,184,173142
28.148,205087,182,173120
28.153,205092,180,173110
28.158,205075,178,173101
28.163,205052,176,173100
28.168,205009,184,173093
28.173,205001,182,173079
28.178,204972,179,173080
28.183,204956,178,173059
28.188,204921,176,173024
28.193,204896,182,173060
28.198,204896,179,173047
28.203,204854,177,173024
28.208,204836,176,173031
28.213,204801,184,173007
28.218,204794,182,173012
28.223,204779,180,173005
28.228,204744,178,172997
28.233,204714,177,173000
28.238,204722,179,172975
28.243,204690,184,172967
28.248,204677,183,172969
28.253,204665,182,172958
28.258,204642,179,172945
28.263,204639,178,172955
28.268,204606,178,172941
28.273,204580,176,172934
28.278,204575,184,172928
28.283,204558,183,172902
28.288,204537,175,172925
28.293,204518,184,172919
28.298,204499,182,172892
28.303,204490,180,172897
28.308,204474,180,172888
28.313,204458,179,172886
28.318,204451,178,172875
28.323,204421,176,172852
28.328,204417,184,172857
28.333,204406,182,172854
28.338,204368,175,172840
28.343,204356,184,172851
28.348,204348,183,172830
28.353,204340,182,172814
28.358,204306,182,172804
28.363,204312,181,172792
28.368,204288,180,172810
28.373,204272,177,172796
28.378,204256,176,172788
28.383,204238,186,172773
28.388,204223,178,172759
28.393,204209,177,172776
28.398,204194,176,172765
28.403,204207,184,172763
28.408,204202,184,172756
28.413,204207,182,172761
28.418,204211,180,172752
28.423,204205,178,172754
28.428,204199,176,172761
28.433,204193,184,172749
28.438,204200,182,172764
28.443,204210,180,172767
28.448,204200,178,172765
28.453,204205,176,172746
28.458,204184,185,172742
28.463,204189,183,172734
28.468,204180,181,172740
28.473,204181,179,172746
28.478,204176,177,172726
28.483,204165,178,172732
28.488,204162,177,172741
28.493,204153,175,172732
28.498,204181,184,172726
28.503,204148,182,172717
28.508,204154,181,172720
28.513,204153,179,172721
28.518,204134,177,172719
28.523,204138,186,172726
28.528,204148,183,172719
28.533,204127,176,172700
28.538,204138,185,172712
28.543,204129,183,172728
28.548,204105,181,172689
28.553,204121,179,172711
28.558,204116,177,172723
28.563,204103,175,172700
28.568,204112,184,172707
28.573,204118,182,172702
28.578,204119,180,172710
28.583,204105,183,172707
28.588,204131,182,172710
28.593,204117,179,172702
28.598,204125,178,172707
28.603,204113,176,172702
28.608,204116,185,172707
28.613,204134,182,172722
28.618,204136,181,172709
28.623,204131,178,172708
28.628,204107,177,172694
28.633,204135,179,172697
28.638,204134,176,172718
28.643,204132,185,172720
28.648,204150,183,172721
28.653,204147,181,172720
28.658,204158,180,172732
28.663,204145,178,172730
28.668,204144,178,172724
28.673,204155,176,172710
28.678,204157,184,172715
28.683,204168,176,172734
28.688,204184,184,172733
28.693,204176,182,172733
28.698,204188,180,172760
28.703,204192,180,172739
28.708,204205,177,172739
28.713,204209,172,172743
28.718,204216,183,172746
28.723,204231,180,172769
28.728,204244,179,172774
28.733,204236,181,172761
28.738,204260,179,172758
28.743,204259,178,172771
28.748,204255,176,172763
28.753,204272,175,172772
28.758,204263,183,172766
28.763,204304,181,172780
28.768,204298,179,172771
28.773,204320,176,172781
28.778,204323,177,172788
28.783,204323,181,172806
28.788,204333,179,172788
28.793,204338,177,172808
28.798,204348,184,172815
28.803,204360,181,172811
28.808,204370,178,172829
28.813,204372,185,172818
28.818,204388,182,172825
28.823,204399,181,172841
28.828,204417,185,172835
28.833,204426,183,172844
28.838,204426,181,172859
28.843,204449,178,172845
28.848,204448,177,172845
28.853,204445,176,172843
28.858,204471,184,172855
28.863,204477,183,172870
28.868,204489,180,172869
28.873,204499,178,172861
28.878,204518,180,172873
28.883,204511,177,172882
28.888,204529,185,172873
28.893,204550,182,172890
28.898,204549,179,172894
28.903,204546,177,172894
28.908,204579,176,172910
28.913,204585,183,172932
28.918,204576,180,172926
28.923,204597,178,172929
28.928,204623,176,172936
28.933,204619,184,172922
28.938,204638,182,172926
28.943,204643,179,172951
28.948,204645,177,172943
28.953,204669,176,172957
28.958,204686,184,172965
28.963,204703,181,172975
28.968,204691,180,172972
28.973,204704,178,172977
28.978,204705,176,172990
28.983,204711,184,172997
28.988,204725,182,172997
28.993,204749,180,172971
28.998,204740,179,173002
29.003,204766,177,173007
29.008,204766,176,173008
29.013,204792,184,173007
29.018,204800,182,173020
29.023,204806,184,173074
29.028,204827,178,173023
29.033,204831,177,173033
29.038,204849,175,173046
29.043,204844,184,173056
29.048,204845,182,173050
29.053,204900,181,173066
29.058,204894,178,173062
29.063,204887,177,173061
29.068,204916,176,173086
29.073,204926,179,173070
29.078,204947,178,173079
29.083,204950,177,173085
29.088,204972,175,173102
29.093,204960,184,173109
29.098,204983,182,173102
29.103,204983,179,173141
29.108,205015,178,173113
29.113,205018,176,173107
29.118,205022,185,173132
29.123,205039,178,173161
29.128,205063,179,173161
29.133,205065,178,173156
29.138,205086,177,173156
29.143,205096,176,173155
29.148,205106,175,173168
29.153,205097,184,173185
29.158,205093,181,173173
29.163,205099,180,173197
29.168,205088,177,173167
29.173,205095,181,173188
29.178,205065,179,173168
29.183,205053,178,173169
29.188,205037,176,173160
29.193,205017,186,173149
29.198,205016,183,173127
29.203,204956,181,173121
29.208,204957,178,173124
29.213,204923,177,173109
29.218,204894,174,173084
29.223,204862,178,173085
29.228,204854,176,173077
29.233,204832,185,173083
29.238,204798,182,173063
29.243,204787,180,173057
29.248,204758,178,173021
29.253,204736,177,173033
29.258,204715,185,173005
29.263,204706,183,173022
29.268,204689,181,173010
29.273,204651,182,172996
29.278,204648,180,173006
29.283,204625,177,172996
29.288,204614,176,172983
29.293,204582,183,172949
29.298,204569,180,172957
29.303,204572,178,172960
29.308,204557,176,172954
29.313,204553,185,172936
29.318,204524,187,172935
29.323,204511,185,172935
29.328,204495,182,172928
29.333,204467,180,172900
29.338,204458,177,172904
29.343,204437,185,172897
29.348,204421,182,172889
29.353,204414,179,172865
29.358,204377,177,172870
29.363,204376,175,172870
29.368,204355,178,172866
29.373,204336,176,172822
29.378,204318,175,172838
29.383,204311,183,172825
29.388,204301,181,172823
29.393,204292,180,172814
29.398,204264,177,172808
29.403,204263,177,172805
29.408,204264,184,172800
29.413,204231,183,172803
29.418,204227,175,172785
29.423,204213,183,172783
29.428,204196,181,172781
29.433,204198,179,172762
29.438,204200,177,172760
29.443,204191,175,172764
29.448,204207,184,172760
29.453,204194,182,172753
29.458,204188,180,172754
29.463,204181,178,172764
29.468,204188,180,172758
29.473,204191,178,172768
29.478,204203,175,172765
29.483,204207,184,172749
29.488,204175,181,172756
29.493,204167,179,172754
29.498,204175,177,172743
29.503,204162,176,172741
29.508,204186,184,172736
29.513,204160,181,172748
29.518,204165,184,172739
29.523,204149,182,172744
29.528,204145,181,172746
29.533,204136,179,172733
29.538,204157,178,172719
