df_hash,22ZHK4.L745P3
device,HZ2X61
project_hash,29R7
project_name,istanbul_aydin_university
person_hash,29R7.HN75
person_label,V121
date_time_start,2026-04-06_13-33-18.934000_+03
date_time_start_unix,1775464398.934
date_time_end,2026-04-06_13-41-40.504000_+03
length_difference_noticed,no

time,ppg_med
4.630,570
4.655,655
4.680,790
4.705,863
4.730,834
4.755,804
4.780,882
4.805,1025
4.830,1080
4.855,992
4.880,898
4.905,947
4.930,1079
4.955,1087
4.980,898
5.005,698
5.030,687
5.055,786
5.080,714
5.105,378
5.130,26
5.155,-73
5.180,-28
5.205,-206
5.230,-729
5.255,-1268
5.280,-1472
5.305,-1480
5.330,-1771
5.355,-2500
5.380,-3238
5.405,-3531
5.430,-3559
5.455,-3934
5.480,-4853
5.505,-5762
5.530,-6086
5.555,-6052
5.580,-6436
5.605,-7483
5.630,-8493
5.655,-8739
5.680,-8508
5.705,-8776
5.730,-9846
5.755,-10841
5.780,-10850
5.805,-10236
5.830,-10217
5.855,-11172
5.880,-12006
5.905,-11584
5.930,-10361
5.955,-9857
5.980,-10548
6.005,-11069
6.030,-10007
6.055,-7929
6.080,-6740
6.105,-7041
6.130,-7129
6.155,-5227
6.180,-2048
6.205,1
6.230,145
6.255,538
6.280,3444
6.305,7964
6.330,11000
6.355,11522
6.380,12308
6.405,16339
6.430,22460
6.455,26549
6.480,27164
6.505,28034
6.530,32767
6.555,32767
6.580,32767
6.605,32767
6.630,32767
6.655,32767
6.680,32767
6.705,32767
6.730,32767
6.755,32767
6.780,32767
6.805,32767
6.830,32767
6.855,32767
6.880,15189
6.905,-32768
6.930,-32768
6.955,-32768
6.980,-32768
7.005,-32768
7.030,-32768
7.055,-32768
7.080,-32768
7.105,-32768
7.130,-32768
7.155,-32768
7.180,-32768
7.205,-32768
7.230,-32768
7.255,-29189
7.280,-26766
7.305,-26622
7.330,-23998
7.355,-18175
7.380,-12908
7.405,-11040
7.430,-10910
7.455,-9004
7.480,-4734
7.505,-900
7.530,317
7.555,153
7.580,1303
7.605,4248
7.630,6832
7.655,7360
7.680,6795
7.705,7252
7.730,9112
7.755,10678
7.780,10637
7.805,9798
7.830,9879
7.855,11157
7.880,12210
7.905,11912
7.930,10881
7.955,10517
7.980,11094
8.005,11506
8.030,10858
8.055,9642
8.080,8981
8.105,9108
8.130,9149
8.155,8386
8.180,7198
8.205,6469
8.230,6379
8.255,6234
8.280,5469
8.305,4392
8.330,3708
8.355,3555
8.380,3378
8.405,2718
8.430,1819
8.455,1262
8.480,1201
8.505,1228
8.530,971
8.555,551
8.580,339
8.605,412
8.630,469
8.655,267
8.680,-60
8.705,-226
8.730,-180
8.755,-151
8.780,-305
8.805,-531
8.830,-613
8.855,-533
8.880,-479
8.905,-578
8.930,-735
8.955,-787
8.980,-722
9.005,-678
9.030,-744
9.055,-847
9.080,-873
9.105,-827
9.130,-814
9.155,-869
9.180,-884
9.205,-741
9.230,-462
9.255,-197
9.280,-51
9.305,21
9.330,129
9.355,299
9.380,446
9.405,493
9.430,473
9.455,464
9.480,457
9.505,459
9.530,445
9.555,409
9.580,364
9.605,324
9.630,280
9.655,221
9.680,153
9.705,92
9.730,42
9.755,-18
9.780,-106
9.805,-196
9.830,-230
9.855,-165
9.880,-18
9.905,144
9.930,264
9.955,335
9.980,385
10.005,432
10.030,467
10.055,471
10.080,449
10.105,424
10.130,411
10.155,405
10.180,390
10.205,360
10.230,322
10.255,279
10.280,228
10.305,167
10.330,105
10.355,47
10.380,-14
10.405,-96
10.430,-183
10.455,-228
10.480,-184
10.505,-54
10.530,107
10.555,236
10.580,314
10.605,366
10.630,420
10.655,469
10.680,488
10.705,469
10.730,435
10.755,414
10.780,411
10.805,407
10.830,383
10.855,343
10.880,297
10.905,250
10.930,197
10.955,137
10.980,78
11.005,18
11.030,-56
11.055,-145
11.080,-219
11.105,-222
11.130,-128
11.155,33
11.180,192
11.205,300
11.230,363
11.255,418
11.280,483
11.305,537
11.330,550
11.355,522
11.380,485
11.405,464
11.430,457
11.455,439
11.480,401
11.505,350
11.530,300
11.555,246
11.580,181
11.605,108
11.630,41
11.655,-16
11.680,-82
11.705,-169
11.730,-259
11.755,-298
11.780,-242
11.805,-99
11.830,71
11.855,207
11.880,291
11.905,351
11.930,418
11.955,489
11.980,532
12.005,532
12.030,503
12.055,479
12.080,474
12.105,475
12.130,458
12.155,417
12.180,366
12.205,320
12.230,275
12.255,219
12.280,150
12.305,82
12.330,25
12.355,-25
12.380,-91
12.405,-179
12.430,-257
12.455,-272
12.480,-192
12.505,-35
12.530,141
12.555,283
12.580,375
12.605,441
12.630,505
12.655,566
12.680,603
12.705,601
12.730,571
12.755,541
12.780,525
12.805,516
12.830,494
12.855,450
12.880,393
12.905,336
12.930,282
12.955,220
12.980,144
13.005,61
13.030,-9
13.055,-65
13.080,-122
13.105,-201
13.130,-298
13.155,-370
13.180,-362
13.205,-252
13.230,-74
13.255,107
13.280,245
13.305,337
13.330,412
13.355,486
13.380,547
13.405,571
13.430,554
13.455,522
13.480,503
13.505,499
13.530,486
13.555,444
13.580,380
13.605,315
13.630,259
13.655,200
13.680,127
13.705,49
13.730,-15
13.755,-63
13.780,-117
13.805,-196
13.830,-278
13.855,-304
13.880,-230
13.905,-71
13.930,103
13.955,231
13.980,302
14.005,347
14.030,392
14.055,430
14.080,436
14.105,411
14.130,385
14.155,385
14.180,410
14.205,431
14.230,429
14.255,407
14.280,382
14.305,353
14.330,313
14.355,258
14.380,202
14.405,154
14.430,102
14.455,24
14.480,-67
14.505,-120
14.530,-78
14.555,64
14.580,248
14.605,399
14.630,485
14.655,534
14.680,582
14.705,627
14.730,635
14.755,587
14.780,506
14.805,436
14.830,399
14.855,375
14.880,333
14.905,264
14.930,185
14.955,115
14.980,53
15.005,-8
15.030,-66
15.055,-110
15.080,-144
15.105,-189
15.130,-263
15.155,-340
15.180,-362
15.205,-285
15.230,-120
15.255,65
15.280,211
15.305,301
15.330,368
15.355,438
15.380,506
15.405,543
15.430,535
15.455,507
15.480,491
15.505,496
15.530,498
15.555,474
15.580,421
15.605,362
15.630,310
15.655,260
15.680,198
15.705,128
15.730,63
15.755,8
15.780,-52
15.805,-135
15.830,-220
15.855,-252
15.880,-184
15.905,-26
15.930,157
15.955,297
15.980,376
16.005,426
16.030,481
16.055,540
16.080,568
16.105,548
16.130,501
16.155,467
16.180,462
16.205,462
16.230,438
16.255,387
16.280,332
16.305,289
16.330,250
16.355,192
16.380,115
16.405,36
16.430,-26
16.455,-87
16.480,-169
16.505,-263
16.530,-320
16.555,-281
16.580,-138
16.605,51
16.630,215
16.655,315
16.680,374
16.705,428
16.730,487
16.755,527
16.780,528
16.805,501
16.830,478
16.855,474
16.880,474
16.905,454
16.930,410
16.955,358
16.980,313
17.005,267
17.030,206
17.055,130
17.080,57
17.105,1
17.130,-49
17.155,-122
17.180,-216
17.205,-288
17.230,-279
17.255,-167
17.280,7
17.305,174
17.330,287
17.355,355
17.380,410
17.405,470
17.430,518
17.455,532
17.480,513
17.505,487
17.530,475
17.555,471
17.580,453
17.605,412
17.630,360
17.655,313
17.680,270
17.705,215
17.730,144
17.755,72
17.780,19
17.805,-20
17.830,-76
17.855,-163
17.880,-253
17.905,-286
17.930,-219
17.955,-67
17.980,111
18.005,257
18.030,352
18.055,415
18.080,472
18.105,526
18.130,560
18.155,564
18.180,546
18.205,527
18.230,518
18.255,512
18.280,496
18.305,458
18.330,406
18.355,351
18.380,301
18.405,248
18.430,184
18.455,110
18.480,42
18.505,-11
18.530,-61
18.555,-129
18.580,-223
18.605,-307
18.630,-323
18.655,-234
18.680,-64
18.705,116
18.730,248
18.755,323
18.780,375
18.805,432
18.830,488
18.855,512
18.880,494
18.905,459
18.930,438
18.955,437
18.980,433
19.005,407
19.030,364
19.055,319
19.080,278
19.105,230
19.130,165
19.155,95
19.180,37
19.205,-10
19.230,-72
19.255,-155
19.280,-227
19.305,-231
19.330,-133
19.355,36
19.380,208
19.405,329
19.430,396
19.455,441
19.480,489
19.505,531
19.530,542
19.555,518
19.580,484
19.605,466
19.630,466
19.655,462
19.680,435
19.705,387
19.730,335
19.755,287
19.780,235
19.805,168
19.830,91
19.855,21
19.880,-32
19.905,-84
19.930,-156
19.955,-247
19.980,-314
20.005,-300
20.030,-183
20.055,-2
20.080,171
20.105,289
20.130,355
20.155,404
20.180,457
20.205,501
20.230,513
20.255,492
20.280,465
20.305,456
20.330,461
20.355,456
20.380,427
20.405,385
20.430,344
20.455,307
20.480,260
20.505,199
20.530,137
20.555,88
20.580,40
20.605,-32
20.630,-136
20.655,-229
20.680,-242
20.705,-143
20.730,30
20.755,201
20.780,314
20.805,372
20.830,416
20.855,468
20.880,514
20.905,527
20.930,502
20.955,468
20.980,451
21.005,451
21.030,445
21.055,417
21.080,375
21.105,335
21.130,299
21.155,253
21.180,185
21.205,107
21.230,43
21.255,0
21.280,-48
21.305,-127
21.330,-228
21.355,-297
21.380,-276
21.405,-150
21.430,31
21.455,196
21.480,302
21.505,360
21.530,405
21.555,455
21.580,490
21.605,488
21.630,450
21.655,404
21.680,378
21.705,370
21.730,357
21.755,323
21.780,276
21.805,229
21.830,186
21.855,135
21.880,73
21.905,14
21.930,-24
21.955,-55
21.980,-105
22.005,-186
22.030,-261
22.055,-265
22.080,-157
22.105,32
22.130,229
22.155,373
22.180,458
22.205,517
22.230,572
22.255,611
22.280,612
22.305,578
22.330,540
22.355,522
22.380,521
22.405,508
22.430,471
22.455,421
22.480,373
22.505,326
22.530,264
22.555,184
22.580,101
22.605,35
22.630,-25
22.655,-107
22.680,-215
22.705,-309
22.730,-323
22.755,-226
22.780,-50
22.805,132
22.830,267
22.855,350
22.880,408
22.905,461
22.930,504
22.955,520
22.980,507
23.005,487
23.030,480
23.055,486
23.080,484
23.105,460
23.130,416
23.155,368
23.180,325
23.205,281
23.230,226
23.255,159
23.280,92
23.305,39
23.330,-8
23.355,-73
23.380,-161
23.405,-240
23.430,-253
23.455,-164
23.480,4
23.505,182
23.530,306
23.555,369
23.580,406
23.605,450
23.630,491
23.655,500
23.680,466
23.705,416
23.730,387
23.755,382
23.780,375
23.805,342
23.830,289
23.855,240
23.880,199
23.905,148
23.930,74
23.955,-5
23.980,-62
24.005,-91
24.030,-120
24.055,-168
24.080,-213
24.105,-199
24.130,-93
24.155,72
24.180,231
24.205,340
24.230,405
24.255,458
24.280,510
24.305,542
24.330,542
24.355,521
24.380,508
24.405,508
24.430,501
24.455,465
24.480,404
24.505,337
24.530,275
24.555,208
24.580,132
24.605,59
24.630,2
24.655,-48
24.680,-118
24.705,-211
24.730,-283
24.755,-272
24.780,-158
24.805,15
24.830,174
24.855,282
24.880,353
24.905,421
24.930,489
24.955,530
24.980,526
25.005,494
25.030,469
25.055,464
25.080,464
25.105,445
25.130,404
25.155,355
25.180,303
25.205,244
25.230,174
25.255,106
25.280,54
25.305,7
25.330,-59
25.355,-150
25.380,-227
25.405,-227
25.430,-123
25.455,47
25.480,208
25.505,313
25.530,371
25.555,419
25.580,477
25.605,528
25.630,545
25.655,525
25.680,489
25.705,459
25.730,433
25.755,399
25.780,353
25.805,307
25.830,268
25.855,230
25.880,178
25.905,108
25.930,38
25.955,-17
25.980,-67
26.005,-133
26.030,-217
26.055,-284
26.080,-283
26.105,-189
26.130,-29
26.155,132
26.180,254
26.205,334
26.230,401
26.255,471
26.280,530
26.305,554
26.330,538
26.355,507
26.380,488
26.405,487
26.430,484
26.455,461
26.480,420
26.505,374
26.530,329
26.555,276
26.580,207
26.605,130
26.630,64
26.655,13
26.680,-38
26.705,-116
26.730,-208
26.755,-270
26.780,-248
26.805,-131
26.830,35
26.855,190
26.880,296
26.905,365
26.930,426
26.955,489
26.980,537
27.005,545
27.030,518
27.055,485
27.080,473
27.105,479
27.130,478
27.155,449
27.180,397
27.205,344
27.230,298
27.255,250
27.280,185
27.305,108
27.330,39
27.355,-11
27.380,-59
27.405,-132
27.430,-224
27.455,-287
27.480,-266
27.505,-147
27.530,21
27.555,172
27.580,271
27.605,337
27.630,398
27.655,461
27.680,501
27.705,500
27.730,471
27.755,446
27.780,441
27.805,442
27.830,428
27.855,394
27.880,356
27.905,320
27.930,277
27.955,216
27.980,143
28.005,80
28.030,32
28.055,-18
28.080,-92
28.105,-170
28.130,-200
28.155,-139
28.180,-3
28.205,150
28.230,265
28.255,333
28.280,383
28.305,434
28.330,473
28.355,478
28.380,452
28.405,422
28.430,414
28.455,422
28.480,417
28.505,384
28.530,336
28.555,291
28.580,252
28.605,203
28.630,137
28.655,69
28.680,16
28.705,-31
28.730,-98
28.755,-193
28.780,-274
28.805,-281
28.830,-184
28.855,-19
28.880,142
28.905,255
28.930,328
28.955,393
28.980,462
29.005,513
29.030,523
29.055,499
29.080,475
29.105,472
29.130,477
29.155,466
29.180,429
29.205,382
29.230,339
29.255,293
29.280,231
29.305,156
29.330,89
29.355,40
29.380,-8
29.405,-85
29.430,-185
29.455,-257
29.480,-241
29.505,-125
29.530,44
29.555,201
29.580,310
29.605,382
29.630,445
29.655,505
29.680,548
29.705,561
29.730,553
29.755,540
29.780,534
29.805,531
29.830,523
29.855,503
29.880,468
29.905,419
29.930,357
29.955,290
29.980,228
30.005,170
30.030,110
30.055,46
30.080,-14
30.105,-66
30.130,-119
30.155,-190
30.180,-283
30.205,-360
30.230,-361
30.255,-258
30.280,-83
30.305,92
30.330,214
30.355,286
30.380,346
30.405,418
30.430,490
30.455,528
30.480,521
30.505,492
30.530,472
30.555,470
30.580,466
30.605,441
30.630,399
30.655,358
30.680,325
30.705,291
30.730,241
30.755,175
30.780,110
30.805,57
30.830,3
30.855,-71
30.880,-168
30.905,-247
30.930,-256
30.955,-168
30.980,-8
31.005,165
31.030,302
31.055,392
31.080,458
31.105,519
31.130,569
31.155,588
31.180,566
31.205,523
31.230,490
31.255,481
31.280,478
31.305,459
31.330,418
31.355,368
31.380,323
31.405,278
31.430,218
31.455,141
31.480,64
31.505,4
31.530,-48
31.555,-120
31.580,-218
31.605,-305
31.630,-319
31.655,-231
31.680,-70
31.705,94
31.730,212
31.755,285
31.780,343
31.805,403
31.830,450
31.855,463
31.880,441
31.905,414
31.930,402
31.955,403
31.980,400
32.005,382
32.030,357
32.055,332
32.080,302
32.105,255
32.130,192
32.155,128
32.180,73
32.205,18
32.230,-53
32.255,-135
32.280,-183
32.305,-151
32.330,-34
32.355,123
32.380,261
32.405,352
32.430,410
32.455,459
32.480,502
32.505,519
32.530,499
32.555,460
32.580,437
32.605,441
32.630,455
32.655,447
32.680,408
32.705,353
32.730,303
32.755,257
32.780,198
32.805,123
32.830,46
32.855,-12
32.880,-59
32.905,-121
32.930,-213
32.955,-303
32.980,-329
33.005,-248
33.030,-80
33.055,104
33.080,244
33.105,329
33.130,388
33.155,448
33.180,499
33.205,517
33.230,500
33.255,473
33.280,466
33.305,476
33.330,477
33.355,451
33.380,406
33.405,363
33.430,325
33.455,277
33.480,209
33.505,135
33.530,78
33.555,37
33.580,-16
33.605,-101
33.630,-193
33.655,-230
33.680,-167
33.705,-21
33.730,143
33.755,269
33.780,343
33.805,393
33.830,442
33.855,487
33.880,506
33.905,494
33.930,469
33.955,455
33.980,459
34.005,461
34.030,441
34.055,397
34.080,346
34.105,301
34.130,264
34.155,219
34.180,160
34.205,92
34.230,30
34.255,-24
34.280,-85
34.305,-167
34.330,-255
34.355,-303
34.380,-266
34.405,-135
34.430,42
34.455,201
34.480,305
34.505,365
34.530,416
34.555,473
34.580,517
34.605,526
34.630,502
34.655,472
34.680,459
34.705,460
34.730,452
34.755,422
34.780,377
34.805,335
34.830,295
34.855,243
34.880,172
34.905,96
34.930,37
34.955,-5
34.980,-56
35.005,-133
35.030,-216
35.055,-249
35.080,-188
35.105,-43
35.130,125
35.155,255
35.180,331
35.205,381
35.230,434
35.255,487
35.280,514
35.305,501
35.330,468
35.355,447
35.380,449
35.405,454
35.430,435
35.455,388
35.480,334
35.505,289
35.530,246
35.555,190
35.580,120
35.605,55
35.630,8
35.655,-30
35.680,-90
35.705,-177
35.730,-254
35.755,-263
35.780,-175
35.805,-18
35.830,146
35.855,270
35.880,351
35.905,412
35.930,472
35.955,522
35.980,543
36.005,531
36.030,505
36.055,488
36.080,489
36.105,492
36.130,475
36.155,434
36.180,378
36.205,323
36.230,271
36.255,217
36.280,155
36.305,89
36.330,31
36.355,-18
36.380,-76
36.405,-155
36.430,-245
36.455,-306
36.480,-289
36.505,-180
36.530,-16
36.555,144
36.580,261
36.605,333
36.630,388
36.655,442
36.680,489
36.705,513
36.730,509
36.755,495
36.780,490
36.805,494
36.830,490
36.855,465
36.880,423
36.905,378
36.930,338
36.955,292
36.980,231
37.005,156
37.030,85
37.055,30
37.080,-15
37.105,-74
37.130,-154
37.155,-232
37.180,-260
37.205,-201
37.230,-66
37.255,95
37.280,230
37.305,317
37.330,371
37.355,420
37.380,471
37.405,507
37.430,510
37.455,487
37.480,464
37.505,459
37.530,467
37.555,464
37.580,435
37.605,387
37.630,338
37.655,294
37.680,246
37.705,187
37.730,121
37.755,66
37.780,24
37.805,-22
37.830,-95
37.855,-183
37.880,-240
37.905,-217
37.930,-102
37.955,63
37.980,215
38.005,317
38.030,376
38.055,419
38.080,465
38.105,502
38.130,512
38.155,495
38.180,469
38.205,454
38.230,450
38.255,440
38.280,410
38.305,363
38.330,313
38.355,269
38.380,222
38.405,162
38.430,92
38.455,27
38.480,-21
38.505,-67
38.530,-131
38.555,-213
38.580,-277
38.605,-273
38.630,-177
38.655,-15
38.680,151
38.705,276
38.730,356
38.755,418
38.780,478
38.805,526
38.830,539
38.855,515
38.880,478
38.905,460
38.930,464
38.955,467
38.980,448
39.005,404
39.030,354
39.055,308
39.080,258
39.105,192
39.130,116
39.155,50
39.180,5
39.205,-36
39.230,-101
39.255,-191
39.280,-261
39.305,-254
39.330,-149
39.355,16
39.380,176
39.405,289
39.430,358
39.455,413
39.480,470
39.505,515
39.530,528
39.555,508
39.580,479
39.605,464
39.630,464
39.655,457
39.680,427
39.705,377
39.730,325
39.755,283
39.780,243
39.805,189
39.830,121
39.855,53
39.880,0
39.905,-44
39.930,-103
39.955,-185
39.980,-262
40.005,-282
40.030,-210
40.055,-63
40.080,102
40.105,232
40.130,314
40.155,370
40.180,423
40.205,466
40.230,480
40.255,462
40.280,434
40.305,423
40.330,432
40.355,435
40.380,412
40.405,366
40.430,317
40.455,280
40.480,244
40.505,198
40.530,141
40.555,90
40.580,51
40.605,8
40.630,-55
40.655,-131
40.680,-173
40.705,-133
40.730,-5
40.755,164
40.780,318
40.805,421
40.830,483
40.855,530
40.880,572
40.905,598
40.930,594
40.955,569
40.980,544
41.005,533
41.030,528
41.055,508
41.080,467
41.105,414
41.130,363
41.155,314
41.180,254
41.205,176
41.230,95
41.255,33
41.280,-7
41.305,-55
41.330,-139
41.355,-252
41.380,-345
41.405,-358
41.430,-273
41.455,-127
41.480,20
41.505,130
41.530,206
41.555,270
41.580,334
41.605,388
41.630,415
41.655,416
41.680,407
41.705,407
41.730,417
41.755,424
41.780,415
41.805,388
41.830,352
41.855,316
41.880,281
41.905,239
41.930,185
41.955,126
41.980,70
42.005,22
42.030,-31
42.055,-101
42.080,-182
42.105,-236
42.130,-218
42.155,-111
42.180,55
42.205,220
42.230,336
42.255,402
42.280,446
42.305,494
42.330,538
42.355,554
42.380,537
42.405,509
42.430,497
42.455,505
42.480,509
42.505,485
42.530,434
42.555,378
42.580,332
42.605,289
42.630,231
42.655,160
42.680,93
42.705,43
42.730,-3
42.755,-74
42.780,-169
42.805,-244
42.830,-240
42.855,-136
42.880,26
42.905,178
42.930,277
42.955,334
42.980,379
43.005,423
43.030,452
43.055,448
43.080,423
43.105,404
43.130,403
43.155,408
43.180,397
43.205,365
43.230,324
43.255,286
43.280,247
43.305,198
43.330,139
43.355,84
43.380,34
43.405,-22
43.430,-99
43.455,-176
43.480,-203
43.505,-141
43.530,-2
43.555,158
43.580,283
43.605,357
43.630,403
43.655,448
43.680,489
43.705,508
43.730,494
43.755,464
43.780,445
43.805,443
43.830,445
43.855,429
43.880,392
43.905,346
43.930,303
43.955,259
43.980,207
44.005,142
44.030,76
44.055,19
44.080,-28
44.105,-85
44.130,-161
44.155,-243
44.180,-288
44.205,-253
44.230,-134
44.255,27
44.280,174
44.305,274
44.330,334
44.355,384
44.380,437
44.405,480
44.430,491
44.455,473
44.480,452
44.505,450
44.530,463
44.555,465
44.580,437
44.605,391
44.630,345
44.655,306
44.680,261
44.705,199
44.730,132
44.755,79
44.780,41
44.805,-7
44.830,-85
44.855,-170
44.880,-206
44.905,-150
44.930,-12
44.955,147
44.980,275
45.005,360
45.030,424
45.055,487
45.080,543
45.105,570
45.130,565
45.155,546
45.180,536
45.205,539
45.230,541
45.255,526
45.280,495
45.305,455
45.330,410
45.355,359
45.380,302
45.405,244
45.430,187
45.455,130
45.480,70
45.505,10
45.530,-44
45.555,-99
45.580,-167
45.605,-250
45.630,-324
45.655,-341
45.680,-266
45.705,-117
45.730,46
45.755,170
45.780,242
45.805,289
45.830,341
45.855,398
45.880,432
45.905,427
45.930,398
45.955,375
45.980,370
46.005,368
46.030,350
46.055,309
46.080,262
46.105,222
46.130,184
46.155,138
46.180,81
46.205,29
46.230,-7
46.255,-38
46.280,-83
46.305,-146
46.330,-191
46.355,-170
46.380,-61
46.405,107
46.430,281
46.455,413
46.480,498
46.505,555
46.530,602
46.555,634
46.580,637
46.605,612
46.630,578
46.655,555
46.680,546
46.705,537
46.730,512
46.755,466
46.780,412
46.805,361
46.830,311
46.855,254
46.880,183
46.905,106
46.930,38
46.955,-15
46.980,-64
47.005,-130
47.030,-215
47.055,-292
47.080,-312
47.105,-243
47.130,-98
47.155,69
47.180,204
47.205,290
47.230,348
47.255,404
47.280,458
47.305,491
47.330,490
47.355,467
47.380,450
47.405,449
47.430,450
47.455,436
47.480,401
47.505,360
47.530,322
47.555,281
47.580,228
47.605,162
47.630,100
47.655,52
47.680,6
47.705,-56
47.730,-137
47.755,-201
47.780,-200
47.805,-113
47.830,30
47.855,176
47.880,282
47.905,346
47.930,394
47.955,442
47.980,482
48.005,498
48.030,486
48.055,464
48.080,455
48.105,459
48.130,457
48.155,431
48.180,384
48.205,336
48.230,296
48.255,256
48.280,201
48.305,129
48.330,61
48.355,11
48.380,-32
48.405,-96
48.430,-185
48.455,-258
48.480,-258
48.505,-163
48.530,-7
48.555,142
48.580,245
48.605,308
48.630,360
48.655,413
48.680,449
48.705,453
48.730,433
48.755,415
48.780,415
48.805,422
48.830,416
48.855,390
48.880,352
48.905,313
48.930,269
48.955,217
48.980,161
49.005,109
49.030,59
49.055,-1
49.080,-79
49.105,-143
49.130,-146
49.155,-64
49.180,80
49.205,229
49.230,336
49.255,398
49.280,438
49.305,474
49.330,497
49.355,490
49.380,459
49.405,430
49.430,421
49.455,426
49.480,420
49.505,390
49.530,342
49.555,292
49.580,246
49.605,196
49.630,134
49.655,69
49.680,14
49.705,-33
49.730,-95
49.755,-183
49.780,-271
49.805,-305
49.830,-242
49.855,-92
49.880,82
49.905,221
49.930,304
49.955,357
49.980,412
50.005,469
50.030,502
50.055,498
50.080,472
50.105,452
50.130,449
50.155,447
50.180,426
50.205,387
50.230,347
50.255,314
50.280,276
50.305,221
50.330,151
50.355,86
50.380,35
50.405,-17
50.430,-89
50.455,-166
50.480,-201
50.505,-153
50.530,-28
50.555,123
50.580,250
50.605,335
50.630,398
50.655,459
50.680,514
50.705,544
50.730,540
50.755,517
50.780,498
50.805,494
50.830,496
50.855,486
50.880,456
50.905,410
50.930,361
50.955,314
50.980,264
51.005,204
51.030,133
51.055,61
51.080,1
51.105,-43
51.130,-90
51.155,-158
51.180,-240
51.205,-298
51.230,-283
51.255,-176
51.280,-15
51.305,139
51.330,248
51.355,316
51.380,376
51.405,440
51.430,493
51.455,510
51.480,492
51.505,465
51.530,454
51.555,455
51.580,449
51.605,422
51.630,381
51.655,341
51.680,305
51.705,261
51.730,201
51.755,136
51.780,80
51.805,33
51.830,-24
51.855,-106
51.880,-192
51.905,-234
51.930,-193
51.955,-70
51.980,85
52.005,220
52.030,309
52.055,366
52.080,416
52.105,465
52.130,495
52.155,493
52.180,471
52.205,454
52.230,455
52.255,462
52.280,450
52.305,412
52.330,362
52.355,318
52.380,278
52.405,225
52.430,154
52.455,80
52.480,23
52.505,-20
52.530,-74
52.555,-154
52.580,-236
52.605,-266
52.630,-207
52.655,-72
52.680,85
52.705,217
52.730,306
52.755,371
52.780,427
52.805,475
52.830,505
52.855,511
52.880,502
52.905,490
52.930,482
52.955,476
52.980,462
53.005,435
53.030,394
53.055,345
53.080,296
53.105,251
53.130,201
53.155,141
53.180,74
53.205,14
53.230,-34
53.255,-84
53.280,-154
53.305,-237
53.330,-290
53.355,-260
53.380,-135
53.405,38
53.430,190
53.455,287
53.480,348
53.505,410
53.530,480
53.555,532
53.580,543
53.605,525
53.630,509
53.655,514
53.680,525
53.705,517
53.730,488
53.755,453
53.780,424
53.805,390
53.830,339
53.855,275
53.880,217
53.905,170
53.930,124
53.955,65
53.980,0
54.005,-52
54.030,-93
54.055,-144
54.080,-220
54.105,-295
54.130,-308
54.155,-222
54.180,-59
54.205,110
54.230,236
54.255,315
54.280,380
54.305,448
54.330,505
54.355,528
54.380,521
54.405,509
54.430,509
54.455,520
54.480,523
54.505,511
54.530,486
54.555,455
54.580,416
54.605,366
54.630,312
54.655,259
54.680,205
54.705,145
54.730,79
54.755,18
54.780,-34
54.805,-89
54.830,-160
54.855,-232
54.880,-260
54.905,-205
54.930,-74
54.955,77
54.980,194
55.005,266
55.030,317
55.055,371
55.080,420
55.105,441
55.130,430
55.155,409
55.180,402
55.205,404
55.230,399
55.255,375
55.280,343
55.305,314
55.330,283
55.355,241
55.380,189
55.405,139
55.430,97
55.455,50
55.480,-16
55.505,-86
55.530,-115
55.555,-68
55.580,44
55.605,175
55.630,280
55.655,347
55.680,392
55.705,427
55.730,446
55.755,442
55.780,420
55.805,400
55.830,393
55.855,392
55.880,387
55.905,368
55.930,340
55.955,304
55.980,261
56.005,214
56.030,169
56.055,126
56.080,72
56.105,0
56.130,-76
56.155,-114
56.180,-75
56.205,38
56.230,182
56.255,301
56.280,369
56.305,398
56.330,415
56.355,428
56.380,429
56.405,409
56.430,379
56.455,355
56.480,347
56.505,342
56.530,323
56.555,280
56.580,224
56.605,172
56.630,127
56.655,79
56.680,11
56.705,-72
56.730,-143
56.755,-162
56.780,-109
56.805,0
56.830,122
56.855,223
56.880,290
56.905,333
56.930,364
56.955,383
56.980,383
57.005,363
57.030,336
57.055,318
57.080,314
57.105,316
57.130,307
57.155,280
57.180,241
57.205,201
57.230,166
57.255,123
57.280,60
57.305,-22
57.330,-92
57.355,-107
57.380,-41
57.405,85
57.430,221
57.455,323
57.480,384
57.505,426
57.530,467
57.555,498
57.580,499
57.605,469
57.630,433
57.655,417
57.680,416
57.705,405
57.730,366
57.755,310
57.780,260
57.805,223
57.830,182
57.855,120
57.880,47
57.905,-16
57.930,-67
57.955,-124
57.980,-202
58.005,-274
58.030,-284
58.055,-197
58.080,-37
58.105,126
58.130,241
58.155,312
58.180,376
58.205,457
58.230,537
58.255,581
58.280,575
58.305,543
58.330,520
58.355,516
58.380,512
58.405,488
58.430,443
58.455,393
58.480,347
58.505,297
58.530,231
58.555,151
58.580,77
58.605,23
58.630,-23
58.655,-87
58.680,-176
58.705,-258
58.730,-279
58.755,-209
58.780,-69
58.805,85
58.830,207
58.855,290
58.880,362
58.905,442
58.930,518
58.955,566
58.980,574
59.005,559
59.030,546
59.055,543
59.080,541
59.105,524
59.130,490
59.155,449
59.180,406
59.205,356
59.230,298
59.255,237
59.280,181
59.305,130
59.330,75
59.355,14
59.380,-44
59.405,-94
59.430,-144
59.455,-210
59.480,-293
59.505,-355
59.530,-346
59.555,-244
59.580,-83
59.605,76
59.630,194
59.655,277
59.680,357
59.705,448
59.730,529
59.755,573
59.780,576
59.805,563
59.830,559
59.855,566
59.880,566
59.905,548
59.930,516
59.955,481
59.980,445
60.005,400
60.030,342
60.055,282
60.080,228
60.105,179
60.130,122
60.155,56
60.180,-8
60.205,-58
60.230,-99
60.255,-154
60.280,-233
60.305,-307
60.330,-324
60.355,-249
60.380,-105
60.405,50
60.430,171
60.455,255
60.480,329
60.505,412
60.530,489
60.555,535
60.580,542
60.605,532
60.630,530
60.655,541
60.680,547
60.705,534
60.730,505
60.755,473
60.780,438
60.805,393
60.830,332
60.855,268
60.880,212
60.905,164
60.930,111
60.955,49
60.980,-12
61.005,-59
61.030,-100
61.055,-159
61.080,-240
61.105,-306
61.130,-302
61.155,-203
61.180,-45
61.205,105
61.230,210
61.255,280
61.280,350
61.305,431
61.330,503
61.355,538
61.380,539
61.405,529
61.430,526
61.455,527
61.480,520
61.505,500
61.530,473
61.555,443
61.580,407
61.605,358
61.630,300
61.655,242
61.680,189
61.705,135
61.730,81
61.755,31
61.780,-9
61.805,-52
61.830,-115
61.855,-194
61.880,-252
61.905,-242
61.930,-145
61.955,5
61.980,152
62.005,258
62.030,328
62.055,386
62.080,446
62.105,494
62.130,516
62.155,511
62.180,498
62.205,491
62.230,493
62.255,491
62.280,473
62.305,438
62.330,396
62.355,351
62.380,307
62.405,257
62.430,199
62.455,134
62.480,69
62.505,14
62.530,-35
62.555,-94
62.580,-170
62.605,-246
62.630,-281
62.655,-238
62.680,-115
62.705,44
62.730,190
62.755,292
62.780,361
62.805,419
62.830,474
62.855,513
62.880,522
62.905,506
62.930,489
62.955,486
62.980,494
63.005,493
63.030,470
63.055,428
63.080,379
63.105,334
63.130,287
63.155,229
63.180,161
63.205,94
63.230,38
63.255,-10
63.280,-69
63.305,-149
63.330,-231
63.355,-270
63.380,-226
63.405,-102
63.430,58
63.455,198
63.480,291
63.505,348
63.530,396
63.555,443
63.580,474
63.605,476
63.630,458
63.655,446
63.680,450
63.705,460
63.730,452
63.755,418
63.780,374
63.805,336
63.830,299
63.855,250
63.880,183
63.905,114
63.930,58
63.955,13
63.980,-43
64.005,-123
64.030,-199
64.055,-218
64.080,-146
64.105,0
64.130,160
64.155,284
64.180,358
64.205,403
64.230,445
64.255,480
64.280,493
64.305,479
64.330,453
64.355,438
64.380,438
64.405,436
64.430,417
64.455,380
64.480,337
64.505,295
64.530,246
64.555,184
64.580,114
64.605,51
64.630,1
64.655,-53
64.680,-129
64.705,-215
64.730,-262
64.755,-225
64.780,-98
64.805,68
64.830,213
64.855,306
64.880,363
64.905,413
64.930,463
64.955,495
64.980,493
65.005,468
65.030,448
65.055,447
65.080,454
65.105,445
65.130,412
65.155,368
65.180,327
65.205,288
65.230,236
65.255,168
65.280,99
65.305,42
65.330,-5
65.355,-68
65.380,-153
65.405,-229
65.430,-244
65.455,-164
65.480,-11
65.505,153
65.530,279
65.555,354
65.580,403
65.605,448
65.630,487
65.655,502
65.680,488
65.705,461
65.730,447
65.755,449
65.780,451
65.805,434
65.830,396
65.855,351
65.880,307
65.905,260
65.930,202
65.955,134
65.980,73
66.005,25
66.030,-23
66.055,-93
66.080,-182
66.105,-250
66.130,-247
66.155,-149
66.180,12
66.205,177
66.230,299
66.255,372
66.280,420
66.305,463
66.330,497
66.355,510
66.380,497
66.405,474
66.430,460
66.455,458
66.480,454
66.505,431
66.530,391
66.555,345
66.580,304
66.605,261
66.630,205
66.655,135
66.680,67
66.705,12
66.730,-35
66.755,-95
66.780,-177
66.805,-252
66.830,-270
66.855,-195
66.880,-43
66.905,129
66.930,265
66.955,347
66.980,397
67.005,441
67.030,481
67.055,500
67.080,486
67.105,459
67.130,443
67.155,446
67.180,451
67.205,435
67.230,396
67.255,350
67.280,310
67.305,270
67.330,215
67.355,146
67.380,80
67.405,28
67.430,-21
67.455,-91
67.480,-177
67.505,-240
67.530,-225
67.555,-116
67.580,50
67.605,211
67.630,324
67.655,390
67.680,434
67.705,476
67.730,505
67.755,508
67.780,486
67.805,460
67.830,450
67.855,453
67.880,451
67.905,426
67.930,383
67.955,336
67.980,292
68.005,243
68.030,182
68.055,111
68.080,49
68.105,0
68.130,-51
68.155,-124
68.180,-212
68.205,-268
68.230,-242
68.255,-121
68.280,49
68.305,205
68.330,309
68.355,369
68.380,415
68.405,457
68.430,484
68.455,481
68.480,458
68.505,439
68.530,436
68.555,438
68.580,427
68.605,397
68.630,359
68.655,320
68.680,273
68.705,213
68.730,147
68.755,91
68.780,45
68.805,-7
68.830,-85
68.855,-168
68.880,-206
68.905,-153
68.930,-14
68.955,153
68.980,289
69.005,369
69.030,412
69.055,448
69.080,482
69.105,499
69.130,486
69.155,457
69.180,435
69.205,434
69.230,440
69.255,429
69.280,394
69.305,343
69.330,295
69.355,254
69.380,207
69.405,148
69.430,80
69.455,20
69.480,-28
69.505,-82
69.530,-157
69.555,-243
69.580,-294
69.605,-259
69.630,-132
69.655,41
69.680,197
69.705,297
69.730,356
69.755,404
69.780,454
69.805,489
69.830,490
69.855,465
69.880,442
69.905,439
69.930,445
69.955,438
69.980,409
70.005,369
70.030,330
70.055,289
70.080,234
70.105,166
70.130,102
70.155,53
70.180,5
70.205,-64
70.230,-153
70.255,-220
70.280,-211
70.305,-110
70.330,47
70.355,201
70.380,312
70.405,382
70.430,435
70.455,480
70.480,511
70.505,516
70.530,501
70.555,483
70.580,477
70.605,478
70.630,470
70.655,443
70.680,401
70.705,354
70.730,309
70.755,262
70.780,206
70.805,141
70.830,76
70.855,22
70.880,-22
70.905,-76
70.930,-150
70.955,-232
70.980,-280
71.005,-252
71.030,-137
71.055,25
71.080,179
71.105,286
71.130,353
71.155,404
71.180,453
71.205,491
71.230,501
71.255,485
71.280,466
71.305,462
71.330,466
71.355,459
71.380,429
71.405,386
71.430,345
71.455,307
71.480,260
71.505,197
71.530,130
71.555,73
71.580,24
71.605,-34
71.630,-116
71.655,-200
71.680,-237
71.705,-191
71.730,-66
71.755,91
71.780,228
71.805,320
71.830,378
71.855,424
71.880,466
71.905,492
71.930,493
71.955,475
71.980,457
72.005,453
72.030,458
72.055,452
72.080,424
72.105,380
72.130,336
72.155,298
72.180,257
72.205,201
72.230,132
72.255,68
72.280,20
72.305,-21
72.330,-82
72.355,-168
72.380,-248
72.405,-268
72.430,-197
72.455,-53
72.480,107
72.505,236
72.530,318
72.555,373
72.580,423
72.605,469
72.630,497
72.655,500
72.680,485
72.705,473
72.730,472
72.755,473
72.780,462
72.805,429
72.830,383
72.855,336
72.880,294
72.905,249
72.930,193
72.955,128
72.980,68
73.005,21
73.030,-20
73.055,-77
73.080,-155
73.105,-229
73.130,-253
73.155,-194
73.180,-64
73.205,89
73.230,221
73.255,312
73.280,376
73.305,432
73.330,481
73.355,507
73.380,504
73.405,482
73.430,464
73.455,462
73.480,468
73.505,463
73.530,436
73.555,393
73.580,348
73.605,305
73.630,260
73.655,203
73.680,138
73.705,76
73.730,27
73.755,-12
73.780,-65
73.805,-142
73.830,-225
73.855,-269
73.880,-234
73.905,-116
73.930,43
73.955,192
73.980,298
74.005,367
74.030,421
74.055,471
74.080,509
74.105,521
74.130,511
74.155,497
74.180,494
74.205,499
74.230,497
74.255,475
74.280,435
74.305,390
74.330,348
74.355,304
74.380,249
74.405,182
74.430,113
74.455,56
74.480,9
74.505,-41
74.530,-115
74.555,-201
74.580,-261
74.605,-247
74.630,-145
74.655,8
74.680,156
74.705,257
74.730,316
74.755,363
74.780,415
74.805,457
74.830,470
74.855,453
74.880,431
74.905,425
74.930,432
74.955,427
74.980,399
75.005,359
75.030,323
75.055,293
75.080,254
75.105,196
75.130,132
75.155,80
75.180,42
75.205,-6
75.230,-82
75.255,-165
75.280,-204
75.305,-157
75.330,-32
75.355,121
75.380,252
75.405,339
75.430,397
75.455,445
75.480,483
75.505,503
75.530,498
75.555,479
75.580,464
75.605,461
75.630,462
75.655,453
75.680,424
75.705,380
75.730,333
75.755,291
75.780,248
75.805,196
75.830,131
75.855,64
75.880,7
75.905,-38
75.930,-90
75.955,-163
75.980,-245
76.005,-294
76.030,-263
76.055,-140
76.080,30
76.105,186
76.130,289
76.155,350
76.180,401
76.205,457
76.230,503
76.255,516
76.280,498
76.305,476
76.330,472
76.355,481
76.380,479
76.405,449
76.430,402
76.455,357
76.480,318
76.505,272
76.530,210
76.555,142
76.580,84
76.605,39
76.630,-14
76.655,-95
76.680,-183
76.705,-226
76.730,-185
76.755,-63
76.780,89
76.805,221
76.830,310
76.855,369
76.880,420
76.905,465
76.930,492
76.955,493
76.980,476
77.005,458
77.030,448
77.055,443
77.080,431
77.105,402
77.130,360
77.155,313
77.180,266
77.205,220
77.230,169
77.255,108
77.280,43
77.305,-15
77.330,-62
77.355,-107
77.380,-168
77.405,-246
77.430,-311
77.455,-312
77.480,-219
77.505,-48
77.530,144
77.555,303
77.580,413
77.605,490
77.630,556
77.655,607
77.680,626
77.705,608
77.730,576
77.755,558
77.780,560
77.805,562
77.830,540
77.855,492
77.880,439
77.905,395
77.930,351
77.955,290
77.980,209
78.005,127
78.030,60
78.055,0
78.080,-81
78.105,-187
78.130,-281
78.155,-310
78.180,-247
78.205,-122
78.230,8
78.255,106
78.280,178
78.305,247
78.330,321
78.355,382
78.380,412
78.405,411
78.430,402
78.455,400
78.480,399
78.505,388
78.530,363
78.555,331
78.580,297
78.605,257
78.630,207
78.655,154
78.680,109
78.705,68
78.730,15
78.755,-56
78.780,-124
78.805,-137
78.830,-62
78.855,82
78.880,240
78.905,360
78.930,428
78.955,465
78.980,495
79.005,517
79.030,516
79.055,490
79.080,457
79.105,437
79.130,435
79.155,432
79.180,407
79.205,358
79.230,300
79.255,249
79.280,203
79.305,149
79.330,82
79.355,10
79.380,-50
79.405,-100
79.430,-155
79.455,-227
79.480,-300
79.505,-327
79.530,-270
79.555,-131
79.580,36
79.605,175
79.630,261
79.655,315
79.680,364
79.705,415
79.730,448
79.755,450
79.780,434
79.805,424
79.830,430
79.855,441
79.880,439
79.905,422
79.930,399
79.955,376
79.980,344
80.005,297
80.030,245
80.055,203
80.080,168
80.105,120
80.130,46
80.155,-21
80.180,-25
80.205,70
80.230,240
80.255,408
80.280,511
80.305,543
80.330,547
80.355,559
80.380,576
80.405,569
80.430,527
80.455,474
80.480,440
80.505,429
80.530,417
80.555,381
80.580,321
80.605,255
80.630,193
80.655,129
80.680,55
80.705,-19
80.730,-76
80.755,-113
80.780,-157
80.805,-232
80.830,-327
80.855,-389
80.880,-364
80.905,-250
80.930,-95
80.955,44
80.980,146
81.005,227
81.030,304
81.055,374
81.080,415
81.105,422
81.130,413
81.155,410
81.180,417
81.205,423
81.230,414
81.255,392
81.280,362
81.305,324
81.330,275
81.355,218
81.380,162
81.405,112
81.430,55
81.455,-19
81.480,-96
81.505,-132
81.530,-91
81.555,18
81.580,150
81.605,257
81.630,327
81.655,379
81.680,425
81.705,458
81.730,462
81.755,442
81.780,421
81.805,412
81.830,410
81.855,397
81.880,370
81.905,335
81.930,301
81.955,260
81.980,206
82.005,147
82.030,96
82.055,50
82.080,-9
82.105,-89
82.130,-160
82.155,-165
82.180,-79
82.205,65
82.230,204
82.255,295
82.280,348
82.305,397
82.330,450
82.355,486
82.380,482
82.405,450
82.430,420
82.455,412
82.480,413
82.505,401
82.530,370
82.555,332
82.580,295
82.605,252
82.630,196
82.655,133
82.680,81
82.705,38
82.730,-16
82.755,-96
82.780,-178
82.805,-208
82.830,-148
82.855,-13
82.880,138
82.905,256
82.930,331
82.955,385
82.980,442
83.005,494
83.030,519
83.055,509
83.080,484
83.105,467
83.130,466
83.155,462
83.180,440
83.205,396
83.230,346
83.255,303
83.280,262
83.305,208
83.330,138
83.355,65
83.380,6
83.405,-37
83.430,-87
83.455,-161
83.480,-244
83.505,-291
83.530,-259
83.555,-143
83.580,13
83.605,157
83.630,259
83.655,330
83.680,391
83.705,452
83.730,502
83.755,524
83.780,521
83.805,506
83.830,497
83.855,496
83.880,492
83.905,472
83.930,433
83.955,384
83.980,334
84.005,287
84.030,237
84.055,179
84.080,116
84.105,59
84.130,15
84.155,-26
84.180,-85
84.205,-167
84.230,-242
84.255,-260
84.280,-191
84.305,-51
84.330,104
84.355,229
84.380,312
84.405,375
84.430,436
84.455,489
84.480,519
84.505,522
84.530,512
84.555,506
84.580,508
84.605,505
84.630,488
84.655,456
84.680,416
84.705,375
84.730,331
84.755,283
84.780,229
84.805,169
84.830,107
84.855,52
84.880,4
84.905,-41
84.930,-101
84.955,-179
84.980,-247
85.005,-258
85.030,-181
85.055,-34
85.080,124
85.105,242
85.130,308
85.155,351
85.180,397
85.205,442
85.230,463
85.255,452
85.280,431
85.305,426
85.330,438
85.355,443
85.380,421
85.405,381
85.430,340
85.455,306
85.480,267
85.505,210
85.530,146
85.555,90
85.580,45
85.605,-7
85.630,-84
85.655,-166
85.680,-203
85.705,-156
85.730,-31
85.755,120
85.780,244
85.805,322
85.830,372
85.855,416
85.880,457
85.905,478
85.930,472
85.955,450
85.980,435
86.005,436
86.030,440
86.055,427
86.080,393
86.105,349
86.130,309
86.155,272
86.180,226
86.205,166
86.230,102
86.255,48
86.280,3
86.305,-53
86.330,-132
86.355,-212
86.380,-240
86.405,-178
86.430,-37
86.455,124
86.480,249
86.505,322
86.530,369
86.555,418
86.580,467
86.605,493
86.630,484
86.655,456
86.680,439
86.705,438
86.730,438
86.755,420
86.780,384
86.805,345
86.830,307
86.855,260
86.880,197
86.905,129
86.930,73
86.955,27
86.980,-31
87.005,-114
87.030,-189
87.055,-199
87.080,-114
87.105,36
87.130,186
87.155,287
87.180,341
87.205,381
87.230,422
87.255,446
87.280,438
87.305,405
87.330,375
87.355,363
87.380,356
87.405,333
87.430,291
87.455,249
87.480,219
87.505,194
87.530,159
87.555,115
87.580,76
87.605,42
87.630,-4
87.655,-76
87.680,-145
87.705,-150
87.730,-52
87.755,124
87.780,306
87.805,431
87.830,493
87.855,528
87.880,565
87.905,595
87.930,594
87.955,560
87.980,516
88.005,487
88.030,466
88.055,433
88.080,378
88.105,311
88.130,251
88.155,194
88.180,132
88.205,61
88.230,-1
88.255,-48
88.280,-93
88.305,-157
88.330,-237
88.355,-289
88.380,-262
88.405,-150
88.430,0
88.455,131
88.480,218
88.505,282
88.530,348
88.555,416
88.580,461
88.605,471
88.630,458
88.655,451
88.680,458
88.705,465
88.730,452
88.755,421
88.780,385
88.805,352
88.830,314
88.855,262
88.880,201
88.905,144
88.930,94
88.955,36
88.980,-40
89.005,-115
89.030,-146
89.055,-99
89.080,14
89.105,147
89.130,251
89.155,315
89.180,360
89.205,405
89.230,448
89.255,467
89.280,456
89.305,430
89.330,411
89.355,408
89.380,407
89.405,392
89.430,359
89.455,321
89.480,286
89.505,248
89.530,197
89.555,135
89.580,75
89.605,29
89.630,-11
89.655,-68
89.680,-144
89.705,-214
89.730,-230
89.755,-168
89.780,-45
89.805,89
89.830,194
89.855,264
89.880,321
89.905,380
89.930,433
89.955,459
89.980,454
90.005,435
90.030,426
90.055,430
90.080,430
90.105,412
90.130,377
90.155,341
90.180,306
90.205,264
90.230,207
90.255,145
90.280,92
90.305,48
90.330,-2
90.355,-74
90.380,-147
90.405,-173
90.430,-121
90.455,-2
90.480,132
90.505,239
90.530,311
90.555,369
90.580,430
90.605,484
90.630,513
90.655,513
90.680,498
90.705,487
90.730,485
90.755,483
90.780,471
90.805,447
90.830,413
90.855,370
90.880,320
90.905,267
90.930,217
90.955,169
90.980,116
91.005,59
91.030,7
91.055,-34
91.080,-77
91.105,-137
91.130,-213
91.155,-269
91.180,-257
91.205,-158
91.230,-6
91.255,142
91.280,248
91.305,317
91.330,376
91.355,437
91.380,489
91.405,512
91.430,508
91.455,496
91.480,494
91.505,501
91.530,501
91.555,485
91.580,452
91.605,412
91.630,369
91.655,323
91.680,269
91.705,207
91.730,144
91.755,88
91.780,40
91.805,-4
91.830,-61
91.855,-135
91.880,-206
91.905,-235
91.930,-189
91.955,-73
91.980,70
92.005,191
92.030,271
92.055,324
92.080,376
92.105,427
92.130,458
92.155,455
92.180,433
92.205,420
92.230,426
92.255,434
92.280,422
92.305,386
92.330,345
92.355,310
92.380,274
92.405,225
92.430,162
92.455,105
92.480,65
92.505,27
92.530,-31
92.555,-111
92.580,-173
92.605,-168
92.630,-80
92.655,56
92.680,189
92.705,286
92.730,353
92.755,409
92.780,462
92.805,499
92.830,509
92.855,494
92.880,475
92.905,467
92.930,469
92.955,467
92.980,447
93.005,408
93.030,362
93.055,316
93.080,273
93.105,226
93.130,167
93.155,101
93.180,40
93.205,-8
93.230,-51
93.255,-107
93.280,-184
93.305,-260
93.330,-288
93.355,-234
93.380,-105
93.405,54
93.430,192
93.455,284
93.480,345
93.505,397
93.530,447
93.555,481
93.580,487
93.605,472
93.630,459
93.655,460
93.680,468
93.705,463
93.730,434
93.755,390
93.780,345
93.805,304
93.830,257
93.855,199
93.880,135
93.905,81
93.930,35
93.955,-17
93.980,-90
94.005,-169
94.030,-211
94.055,-179
94.080,-69
94.105,78
94.130,214
94.155,311
94.180,377
94.205,431
94.230,479
94.255,511
94.280,520
94.305,513
94.330,502
94.355,498
94.380,496
94.405,487
94.430,468
94.455,439
94.480,402
94.505,359
94.530,308
94.555,251
94.580,190
94.605,128
94.630,68
94.655,17
94.680,-27
94.705,-77
94.730,-146
94.755,-226
94.780,-283
94.805,-269
94.830,-168
94.855,-12
94.880,138
94.905,240
94.930,299
94.955,346
94.980,396
95.005,437
95.030,447
95.055,430
95.080,411
95.105,410
95.130,422
95.155,424
95.180,404
95.205,371
95.230,339
95.255,307
95.280,263
95.305,206
95.330,149
95.355,104
95.380,61
95.405,1
95.430,-77
95.455,-142
95.480,-146
95.505,-67
95.530,68
95.555,206
95.580,308
95.605,371
95.630,415
95.655,455
95.680,484
95.705,491
95.730,475
95.755,452
95.780,439
95.805,440
95.830,442
95.855,428
95.880,391
95.905,340
95.930,291
95.955,247
95.980,200
96.005,141
96.030,74
96.055,13
96.080,-33
96.105,-77
96.130,-139
96.155,-219
96.180,-278
96.205,-265
96.230,-161
96.255,2
96.280,160
96.305,267
96.330,328
96.355,375
96.380,428
96.405,474
96.430,492
96.455,479
96.480,459
96.505,455
96.530,463
96.555,462
96.580,439
96.605,401
96.630,363
96.655,328
96.680,283
96.705,220
96.730,152
96.755,97
96.780,55
96.805,5
96.830,-69
96.855,-150
96.880,-192
96.905,-153
96.930,-37
96.955,110
96.980,240
97.005,328
97.030,386
97.055,432
97.080,472
97.105,495
97.130,494
97.155,475
97.180,457
97.205,451
97.230,452
97.255,445
97.280,419
97.305,378
97.330,333
97.355,293
97.380,251
97.405,200
97.430,136
97.455,71
97.480,16
97.505,-29
97.530,-83
97.555,-157
97.580,-235
97.605,-271
97.630,-226
97.655,-101
97.680,57
97.705,193
97.730,279
97.755,331
97.780,378
97.805,428
97.830,462
97.855,464
97.880,443
97.905,427
97.930,430
97.955,440
97.980,433
98.005,400
98.030,356
98.055,316
98.080,280
98.105,232
98.130,170
98.155,109
98.180,63
98.205,21
98.230,-39
98.255,-121
98.280,-188
98.305,-186
98.330,-96
98.355,49
98.380,192
98.405,293
98.430,357
98.455,408
98.480,458
98.505,495
98.530,506
98.555,496
98.580,482
98.605,475
98.630,475
98.655,470
98.680,454
98.705,425
98.730,386
98.755,340
98.780,292
98.805,246
98.830,200
98.855,147
98.880,86
98.905,28
98.930,-17
98.955,-56
98.980,-109
99.005,-185
99.030,-260
99.055,-282
99.080,-213
99.105,-68
99.130,96
99.155,226
99.180,308
99.205,364
99.230,420
99.255,475
99.280,510
99.305,513
99.330,498
99.355,487
99.380,488
99.405,491
99.430,483
99.455,455
99.480,416
99.505,373
99.530,330
99.555,282
99.580,227
99.605,167
99.630,110
99.655,61
99.680,15
99.705,-38
99.730,-108
99.755,-185
99.780,-235
99.805,-219
99.830,-126
99.855,16
99.880,157
99.905,259
99.930,321
99.955,365
99.980,410
100.005,449
100.030,464
100.055,451
100.080,429
100.105,420
100.130,427
100.155,430
100.180,411
100.205,372
100.230,330
100.255,298
100.280,266
100.305,219
100.330,157
100.355,99
100.380,59
100.405,27
100.430,-22
100.455,-100
100.480,-174
100.505,-191
100.530,-123
100.555,11
100.580,156
100.605,269
100.630,343
100.655,396
100.680,444
100.705,482
100.730,498
100.755,494
100.780,484
100.805,479
100.830,478
100.855,471
100.880,453
100.905,427
100.930,396
100.955,359
100.980,315
101.005,264
101.030,211
101.055,157
101.080,100
101.105,43
101.130,-6
101.155,-49
101.180,-97
101.205,-163
101.230,-236
101.255,-279
101.280,-248
101.305,-135
101.330,19
101.355,163
101.380,262
101.405,326
101.430,379
101.455,433
101.480,477
101.505,497
101.530,492
101.555,480
101.580,475
101.605,478
101.630,475
101.655,456
101.680,421
101.705,380
101.730,341
101.755,302
101.780,254
101.805,193
101.830,129
101.855,73
101.880,28
101.905,-18
101.930,-84
101.955,-164
101.980,-221
102.005,-208
102.030,-112
102.055,34
102.080,176
102.105,279
102.130,345
102.155,399
102.180,454
102.205,499
102.230,519
102.255,514
102.280,502
102.305,500
102.330,504
102.355,502
102.380,485
102.405,455
102.430,417
102.455,372
102.480,323
102.505,270
102.530,217
102.555,161
102.580,102
102.605,46
102.630,0
102.655,-39
102.680,-87
102.705,-152
102.730,-221
102.755,-251
102.780,-205
102.805,-85
102.830,63
102.855,187
102.880,262
102.905,308
102.930,349
102.955,392
102.980,422
103.005,427
103.030,417
103.055,413
103.080,422
103.105,431
103.130,421
103.155,390
103.180,349
103.205,311
103.230,275
103.255,230
103.280,174
103.305,116
103.330,68
103.355,31
103.380,-14
103.405,-80
103.430,-157
103.455,-204
103.480,-183
103.505,-83
103.530,61
103.555,200
103.580,299
103.605,361
103.630,410
103.655,460
103.680,505
103.705,525
103.730,519
103.755,501
103.780,493
103.805,497
103.830,496
103.855,473
103.880,430
103.905,382
103.930,342
103.955,303
103.980,254
104.005,190
104.030,124
104.055,72
104.080,31
104.105,-19
104.130,-92
104.155,-170
104.180,-209
104.205,-174
104.230,-64
104.255,79
104.280,206
104.305,292
104.330,346
104.355,393
104.380,439
104.405,474
104.430,481
104.455,463
104.480,442
104.505,435
104.530,441
104.555,437
104.580,409
104.605,362
104.630,312
104.655,270
104.680,227
104.705,174
104.730,113
104.755,57
104.780,11
104.805,-36
104.830,-101
104.855,-175
104.880,-219
104.905,-189
104.930,-81
104.955,64
104.980,191
105.005,272
105.030,321
105.055,366
105.080,412
105.105,443
105.130,442
105.155,420
105.180,404
105.205,407
105.230,417
105.255,411
105.280,379
105.305,333
105.330,290
105.355,250
105.380,206
105.405,152
105.430,95
105.455,43
105.480,-12
105.505,-78
105.530,-145
105.555,-180
105.580,-145
105.605,-40
105.630,97
105.655,215
105.680,293
105.705,344
105.730,393
105.755,446
105.780,481
105.805,481
105.830,455
105.855,430
105.880,424
105.905,429
105.930,424
105.955,396
105.980,355
106.005,313
106.030,271
106.055,220
106.080,158
106.105,100
106.130,58
106.155,24
106.180,-24
106.205,-98
106.230,-168
106.255,-185
106.280,-118
106.305,12
106.330,153
106.355,260
106.380,330
106.405,386
106.430,443
106.455,496
106.480,525
106.505,523
106.530,505
106.555,491
106.580,488
106.605,486
106.630,474
106.655,446
106.680,405
106.705,359
106.730,312
106.755,262
106.780,210
106.805,153
106.830,95
106.855,42
106.880,-3
106.905,-47
106.930,-101
106.955,-172
106.980,-238
107.005,-261
107.030,-209
107.055,-90
107.080,51
107.105,170
107.130,248
107.155,303
107.180,359
107.205,416
107.230,455
107.255,460
107.280,443
107.305,426
107.330,426
107.355,431
107.380,424
107.405,396
107.430,357
107.455,320
107.480,289
107.505,253
107.530,204
107.555,148
107.580,100
107.605,63
107.630,26
107.655,-25
107.680,-91
107.705,-142
107.730,-139
107.755,-67
107.780,54
107.805,181
107.830,279
107.855,345
107.880,397
107.905,446
107.930,486
107.955,504
107.980,499
108.005,486
108.030,482
108.055,485
108.080,481
108.105,460
108.130,427
108.155,391
108.180,356
108.205,316
108.230,270
108.255,221
108.280,176
108.305,132
108.330,81
108.355,24
108.380,-24
108.405,-63
108.430,-105
108.455,-169
108.480,-251
108.505,-303
108.530,-275
108.555,-156
108.580,4
108.605,143
108.630,230
108.655,287
108.680,348
108.705,419
108.730,477
108.755,499
108.780,494
108.805,489
108.830,498
108.855,510
108.880,506
108.905,485
108.930,457
108.955,431
108.980,401
109.005,359
109.030,308
109.055,258
109.080,212
109.105,163
109.130,105
109.155,49
109.180,5
109.205,-33
109.230,-88
109.255,-165
109.280,-230
109.305,-230
109.330,-141
109.355,6
109.380,150
109.405,248
109.430,310
109.455,366
109.480,431
109.505,487
109.530,513
109.555,509
109.580,498
109.605,497
109.630,503
109.655,502
109.680,485
109.705,458
109.730,426
109.755,391
109.780,349
109.805,302
109.830,254
109.855,205
109.880,151
109.905,93
109.930,38
109.955,-6
109.980,-51
110.005,-113
110.030,-190
110.055,-249
110.080,-241
110.105,-148
110.130,0
110.155,143
110.180,242
110.205,298
110.230,339
110.255,387
110.280,431
110.305,452
110.330,445
110.355,428
110.380,422
110.405,431
110.430,437
110.455,424
110.480,390
110.505,350
110.530,314
110.555,279
110.580,236
110.605,182
110.630,129
110.655,86
110.680,47
110.705,-4
110.730,-76
110.755,-144
110.780,-165
110.805,-111
110.830,7
110.855,147
110.880,264
110.905,342
110.930,391
110.955,429
110.980,458
111.005,469
111.030,460
111.055,443
111.080,433
111.105,435
111.130,437
111.155,424
111.180,391
111.205,349
111.230,306
111.255,263
111.280,210
111.305,146
111.330,80
111.355,26
111.380,-16
111.405,-67
111.430,-141
111.455,-225
111.480,-273
111.505,-240
111.530,-122
111.555,37
111.580,178
111.605,269
111.630,326
111.655,379
111.680,437
111.705,480
111.730,489
111.755,470
111.780,450
111.805,448
111.830,454
111.855,445
111.880,415
111.905,375
111.930,342
111.955,309
111.980,263
112.005,200
112.030,139
112.055,91
112.080,49
112.105,-12
112.130,-95
112.155,-164
112.180,-168
112.205,-85
112.230,54
112.255,196
112.280,300
112.305,364
112.330,411
112.355,455
112.380,491
112.405,504
112.430,494
112.455,472
112.480,457
112.505,453
112.530,451
112.555,436
112.580,400
112.605,352
112.630,304
112.655,260
112.680,213
112.705,155
112.730,90
112.755,34
112.780,-6
112.805,-47
112.830,-109
112.855,-189
112.880,-248
112.905,-233
112.930,-129
112.955,23
112.980,162
113.005,254
113.030,310
113.055,361
113.080,413
113.105,447
113.130,449
113.155,430
113.180,415
113.205,416
113.230,419
113.255,408
113.280,382
113.305,351
113.330,319
113.355,280
113.380,228
113.405,174
113.430,127
113.455,83
113.480,28
113.505,-39
113.530,-86
113.555,-70
113.580,19
113.605,143
113.630,251
113.655,317
113.680,352
113.705,379
113.730,399
113.755,402
113.780,385
113.805,364
113.830,356
113.855,357
113.880,350
113.905,326
113.930,291
113.955,256
113.980,222
114.005,183
114.030,137
114.055,89
114.080,39
114.105,-21
114.130,-91
114.155,-144
114.180,-137
114.205,-53
114.230,78
114.255,205
114.280,289
114.305,338
114.330,380
114.355,424
114.380,454
114.405,452
114.430,429
114.455,409
114.480,406
114.505,408
114.530,395
114.555,363
114.580,322
114.605,281
114.630,238
114.655,185
114.680,127
114.705,74
114.730,24
114.755,-38
114.780,-117
114.805,-186
114.830,-198
114.855,-129
114.880,-2
114.905,129
114.930,226
114.955,291
114.980,349
115.005,416
115.030,478
115.055,509
115.080,501
115.105,474
115.130,453
115.155,447
115.180,442
115.205,422
115.230,385
115.255,341
115.280,299
115.305,257
115.330,205
115.355,144
115.380,84
115.405,33
115.430,-14
115.455,-74
115.480,-148
115.505,-210
115.530,-221
115.555,-157
115.580,-37
115.605,92
115.630,197
115.655,276
115.680,348
115.705,425
115.730,494
115.755,535
115.780,542
115.805,533
115.830,524
115.855,521
115.880,515
115.905,499
115.930,473
115.955,442
115.980,404
116.005,359
116.030,307
116.055,255
116.080,202
116.105,146
116.130,86
116.155,29
116.180,-15
116.205,-59
116.230,-117
116.255,-194
116.280,-255
116.305,-253
116.330,-166
116.355,-27
116.380,104
116.405,195
116.430,257
116.455,321
116.480,398
116.505,464
116.530,493
116.555,488
116.580,475
116.605,476
116.630,487
116.655,487
116.680,468
116.705,436
116.730,401
116.755,365
116.780,324
116.805,277
116.830,229
116.855,180
116.880,128
116.905,73
116.930,22
116.955,-20
116.980,-66
117.005,-128
117.030,-199
117.055,-240
117.080,-210
117.105,-103
117.130,37
117.155,158
117.180,240
117.205,300
117.230,366
117.255,436
117.280,487
117.305,503
117.330,495
117.355,485
117.380,485
117.405,488
117.430,479
117.455,458
117.480,430
117.505,394
117.530,348
117.555,294
117.580,241
117.605,197
117.630,153
117.655,101
117.680,41
117.705,-12
117.730,-54
117.755,-98
117.780,-161
117.805,-230
117.830,-258
117.855,-200
117.880,-64
117.905,93
117.930,217
117.955,291
117.980,345
118.005,408
118.030,476
118.055,520
118.080,527
118.105,515
118.130,508
118.155,514
118.180,518
118.205,505
118.230,476
118.255,442
118.280,405
118.305,363
118.330,315
118.355,267
118.380,221
118.405,171
118.430,111
118.455,47
118.480,-4
118.505,-44
118.530,-93
118.555,-166
118.580,-242
118.605,-266
118.630,-198
118.655,-55
118.680,99
118.705,214
118.730,282
118.755,340
118.780,408
118.805,473
118.830,506
118.855,502
118.880,487
118.905,487
118.930,500
118.955,506
118.980,490
119.005,459
119.030,427
119.055,396
119.080,357
119.105,307
119.130,252
119.155,198
119.180,145
119.205,88
119.230,32
119.255,-12
119.280,-51
119.305,-105
119.330,-181
119.355,-253
119.380,-267
119.405,-192
119.430,-46
119.455,108
119.480,223
119.505,296
119.530,351
119.555,407
119.580,455
119.605,477
119.630,472
119.655,459
119.680,457
119.705,464
119.730,470
119.755,462
119.780,439
119.805,405
119.830,364
119.855,320
119.880,276
119.905,230
119.930,177
119.955,119
119.980,63
120.005,18
120.030,-22
120.055,-77
120.080,-153
120.105,-223
120.130,-237
120.155,-164
120.180,-23
120.205,127
120.230,241
120.255,311
120.280,363
120.305,417
120.330,468
120.355,494
120.380,492
120.405,478
120.430,469
120.455,471
120.480,471
120.505,461
120.530,438
120.555,406
120.580,367
120.605,324
120.630,278
120.655,228
120.680,172
120.705,112
120.730,55
120.755,9
120.780,-31
120.805,-85
120.830,-158
120.855,-228
120.880,-248
120.905,-181
120.930,-41
120.955,118
120.980,243
121.005,319
121.030,369
121.055,419
121.080,468
121.105,500
121.130,501
121.155,485
121.180,472
121.205,473
121.230,479
121.255,474
121.280,449
121.305,410
121.330,368
121.355,330
121.380,293
121.405,248
121.430,189
121.455,125
121.480,69
121.505,27
121.530,-16
121.555,-80
121.580,-162
121.605,-226
121.630,-222
121.655,-129
121.680,20
121.705,169
121.730,271
121.755,329
121.780,370
121.805,416
121.830,455
121.855,468
121.880,454
121.905,433
121.930,429
121.955,440
121.980,447
122.005,431
122.030,393
122.055,348
122.080,307
122.105,269
122.130,222
122.155,165
122.180,108
122.205,62
122.230,23
122.255,-22
122.280,-89
122.305,-162
122.330,-203
122.355,-171
122.380,-62
122.405,89
122.430,228
122.455,320
122.480,367
122.505,398
122.530,427
122.555,449
122.580,449
122.605,430
122.630,412
122.655,412
122.680,421
122.705,417
122.730,389
122.755,348
122.780,309
122.805,276
122.830,234
122.855,175
122.880,110
122.905,58
122.930,17
122.955,-31
122.980,-105
123.005,-184
123.030,-220
123.055,-172
123.080,-43
123.105,113
123.130,243
123.155,323
123.180,372
123.205,414
123.230,455
123.255,480
123.280,476
123.305,454
123.330,438
123.355,441
123.380,449
123.405,441
123.430,408
123.455,364
123.480,325
123.505,291
123.530,247
123.555,184
123.580,114
123.605,59
123.630,19
123.655,-25
123.680,-96
123.705,-179
123.730,-229
123.755,-198
123.780,-83
123.805,73
123.830,214
123.855,312
123.880,375
123.905,425
123.930,470
123.955,501
123.980,507
124.005,496
124.030,485
124.055,483
124.080,487
124.105,482
124.130,461
124.155,424
124.180,382
124.205,339
124.230,293
124.255,241
124.280,179
124.305,114
124.330,53
124.355,0
124.380,-55
124.405,-123
124.430,-202
124.455,-259
124.480,-253
124.505,-161
124.530,-8
124.555,146
124.580,256
124.605,316
124.630,355
124.655,395
124.680,433
124.705,447
124.730,432
124.755,409
124.780,402
124.805,413
124.830,417
124.855,399
124.880,364
124.905,328
124.930,296
124.955,257
124.980,202
125.005,140
125.030,92
125.055,58
125.080,14
125.105,-58
125.130,-143
125.155,-186
125.180,-145
125.205,-23
125.230,129
125.255,258
125.280,342
125.305,394
125.330,435
125.355,471
125.380,493
125.405,497
125.430,487
125.455,477
125.480,470
125.505,465
125.530,451
125.555,422
125.580,380
125.605,332
125.630,286
125.655,242
125.680,193
125.705,132
125.730,64
125.755,4
125.780,-42
125.805,-86
125.830,-147
125.855,-227
125.880,-290
125.905,-285
125.930,-188
125.955,-26
125.980,138
126.005,259
126.030,329
126.055,377
126.080,426
126.105,473
126.130,496
126.155,490
126.180,470
126.205,463
126.230,473
126.255,483
126.280,471
126.305,433
126.330,386
126.355,345
126.380,309
126.405,264
126.430,203
126.455,136
126.480,78
126.505,33
126.530,-18
126.555,-91
126.580,-173
126.605,-219
126.630,-186
126.655,-71
126.680,85
126.705,227
126.730,324
126.755,382
126.780,428
126.805,473
126.830,507
126.855,519
126.880,510
126.905,494
126.930,486
126.955,485
126.980,480
127.005,460
127.030,426
127.055,382
127.080,335
127.105,289
127.130,240
127.155,183
127.180,119
127.205,55
127.230,2
127.255,-43
127.280,-99
127.305,-176
127.330,-255
127.355,-290
127.380,-240
127.405,-109
127.430,47
127.455,174
127.480,250
127.505,299
127.530,350
127.555,399
127.580,422
127.605,411
127.630,389
127.655,385
127.680,402
127.705,414
127.730,400
127.755,364
127.780,330
127.805,304
127.830,273
127.855,224
127.880,165
127.905,114
127.930,71
127.955,14
127.980,-63
128.005,-135
128.030,-144
128.055,-64
128.080,78
128.105,222
128.130,326
128.155,389
128.180,438
128.205,482
128.230,510
128.255,511
128.280,493
128.305,477
128.330,474
128.355,476
128.380,469
128.405,449
128.430,417
128.455,379
128.480,334
128.505,286
128.530,237
128.555,189
128.580,133
128.605,68
128.630,3
128.655,-48
128.680,-89
128.705,-141
128.730,-217
128.755,-298
128.780,-328
128.805,-265
128.830,-117
128.855,56
128.880,195
128.905,280
128.930,336
128.955,392
128.980,450
129.005,492
129.030,505
129.055,496
129.080,484
129.105,483
129.130,487
129.155,484
129.180,464
129.205,428
129.230,383
129.255,337
129.280,291
129.305,242
129.330,186
129.355,124
129.380,68
129.405,21
129.430,-25
129.455,-86
129.480,-163
129.505,-224
129.530,-222
129.555,-133
129.580,15
129.605,168
129.630,281
129.655,351
129.680,404
129.705,459
129.730,508
129.755,533
129.780,529
129.805,510
129.830,496
129.855,493
129.880,491
129.905,480
129.930,457
129.955,423
129.980,382
130.005,335
130.030,280
130.055,218
130.080,152
130.105,90
130.130,36
130.155,-8
130.180,-56
130.205,-122
130.230,-203
130.255,-270
130.280,-278
130.305,-200
130.330,-56
130.355,97
130.380,213
130.405,281
130.430,329
130.455,380
130.480,430
130.505,455
130.530,446
130.555,420
130.580,409
130.605,419
130.630,430
130.655,420
130.680,386
130.705,345
130.730,312
130.755,278
130.780,230
130.805,168
130.830,111
130.855,69
130.880,30
130.905,-28
130.930,-108
130.955,-172
130.980,-169
131.005,-82
131.030,58
131.055,196
131.080,298
131.105,367
131.130,423
131.155,472
131.180,504
131.205,508
131.230,494
131.255,479
131.280,475
131.305,474
131.330,467
131.355,449
131.380,421
131.405,386
131.430,342
131.455,290
131.480,238
131.505,187
131.530,133
131.555,73
131.580,11
131.605,-40
131.630,-81
131.655,-129
131.680,-201
131.705,-282
131.730,-320
131.755,-270
131.780,-134
131.805,32
131.830,172
131.855,264
131.880,329
131.905,394
131.930,458
131.955,500
131.980,509
132.005,496
132.030,486
132.055,486
132.080,491
132.105,488
132.130,471
132.155,443
132.180,407
132.205,363
132.230,314
132.255,263
132.280,211
132.305,155
132.330,99
132.355,47
132.380,0
132.405,-53
132.430,-122
132.455,-192
132.480,-222
132.505,-173
132.530,-46
132.555,109
132.580,238
132.605,319
132.630,373
132.655,429
132.680,488
132.705,529
132.730,536
132.755,521
132.780,506
132.805,503
132.830,503
132.855,492
132.880,466
132.905,431
132.930,393
132.955,349
132.980,300
133.005,248
133.030,195
133.055,139
133.080,79
133.105,22
133.130,-26
133.155,-72
133.180,-131
133.205,-207
133.230,-270
133.255,-269
133.280,-180
133.305,-31
133.330,113
133.355,209
133.380,259
133.405,302
133.430,356
133.455,403
133.480,419
133.505,405
133.530,390
133.555,394
133.580,409
133.605,410
133.630,388
133.655,356
133.680,328
133.705,299
133.730,253
133.755,193
133.780,136
133.805,96
133.830,60
133.855,1
133.880,-79
133.905,-141
133.930,-130
133.955,-34
133.980,107
134.005,238
134.030,327
134.055,383
134.080,429
134.105,472
134.130,501
134.155,505
134.180,490
134.205,471
134.230,460
134.255,456
134.280,449
134.305,432
134.330,401
134.355,358
134.380,309
134.405,259
134.430,209
134.455,154
134.480,92
134.505,34
134.530,-11
134.555,-48
134.580,-96
134.605,-168
134.630,-245
134.655,-279
134.680,-230
134.705,-100
134.730,59
134.755,191
134.780,276
134.805,331
134.830,386
134.855,448
134.880,499
134.905,520
134.930,514
134.955,502
134.980,499
135.005,503
135.030,498
135.055,472
135.080,427
135.105,377
135.130,332
135.155,289
135.180,236
135.205,165
135.230,86
135.255,19
135.280,-27
135.305,-71
135.330,-134
135.355,-215
135.380,-273
135.405,-257
135.430,-148
135.455,18
135.480,176
135.505,283
135.530,347
135.555,402
135.580,466
135.605,524
135.630,549
135.655,537
135.680,510
135.705,495
135.730,495
135.755,497
135.780,479
135.805,441
135.830,391
135.855,343
135.880,298
135.905,249
135.930,193
135.955,131
135.980,73
136.005,25
136.030,-15
136.055,-65
136.080,-134
136.105,-211
136.130,-260
136.155,-242
136.180,-145
136.205,0
136.230,138
136.255,236
136.280,295
136.305,342
136.330,393
136.355,439
136.380,459
136.405,449
136.430,428
136.455,421
136.480,432
136.505,442
136.530,427
136.555,388
136.580,343
136.605,308
136.630,282
136.655,245
136.680,190
136.705,130
136.730,82
136.755,47
136.780,2
136.805,-66
136.830,-141
136.855,-172
136.880,-122
136.905,2
136.930,148
136.955,265
136.980,340
137.005,393
137.030,444
137.055,490
137.080,511
137.105,503
137.130,483
137.155,472
137.180,473
137.205,474
137.230,464
137.255,442
137.280,412
137.305,377
137.330,335
137.355,287
137.380,236
137.405,183
137.430,126
137.455,65
137.480,8
137.505,-38
137.530,-82
137.555,-142
137.580,-223
137.605,-291
137.630,-294
137.655,-205
137.680,-51
137.705,107
137.730,223
137.755,294
137.780,348
137.805,404
137.830,454
137.855,480
137.880,477
137.905,461
137.930,452
137.955,453
137.980,455
138.005,443
138.030,416
138.055,376
138.080,334
138.105,295
138.130,258
138.155,217
138.180,167
138.205,111
138.230,60
138.255,17
138.280,-27
138.305,-90
138.330,-166
138.355,-218
138.380,-198
138.405,-93
138.430,63
138.455,210
138.480,308
138.505,365
138.530,410
138.555,460
138.580,505
138.605,524
138.630,516
138.655,499
138.680,495
138.705,502
138.730,506
138.755,490
138.780,455
138.805,409
138.830,362
138.855,317
138.880,268
138.905,213
138.930,155
138.955,103
138.980,58
139.005,13
139.030,-49
139.055,-133
139.080,-212
139.105,-238
139.130,-177
139.155,-40
139.180,115
139.205,233
139.230,297
139.255,335
139.280,373
139.305,408
139.330,417
139.355,391
139.380,353
139.405,336
139.430,342
139.455,343
139.480,313
139.505,259
139.530,211
139.555,186
139.580,172
139.605,147
139.630,108
139.655,72
139.680,44
139.705,5
139.730,-67
139.755,-160
139.780,-215
139.805,-178
139.830,-44
139.855,127
139.880,270
139.905,354
139.930,401
139.955,444
139.980,496
140.005,539
140.030,555
140.055,544
140.080,523
140.105,510
140.130,511
140.155,512
140.180,499
140.205,465
140.230,412
140.255,356
140.280,305
140.305,262
140.330,220
140.355,173
140.380,120
140.405,65
140.430,2
140.455,-79
140.480,-177
140.505,-260
140.530,-280
140.555,-207
140.580,-62
140.605,99
140.630,224
140.655,300
140.680,350
140.705,397
140.730,437
140.755,453
140.780,438
140.805,412
140.830,401
140.855,409
140.880,417
140.905,405
140.930,377
140.955,346
140.980,318
141.005,284
141.030,231
141.055,167
141.080,113
141.105,76
141.130,40
141.155,-19
141.180,-98
141.205,-155
141.230,-139
141.255,-40
141.280,100
141.305,226
141.330,306
141.355,353
141.380,393
141.405,435
141.430,465
141.455,468
141.480,450
141.505,434
141.530,429
141.555,429
141.580,417
141.605,387
141.630,349
141.655,310
141.680,268
141.705,214
141.730,152
141.755,94
141.780,49
141.805,4
141.830,-58
141.855,-138
141.880,-201
141.905,-200
141.930,-116
141.955,22
141.980,160
142.005,258
142.030,312
142.055,347
142.080,382
142.105,411
142.130,421
142.155,407
142.180,384
142.205,369
142.230,368
142.255,365
142.280,344
142.305,304
142.330,258
142.355,215
142.380,172
142.405,118
142.430,53
142.455,-10
142.480,-59
142.505,-99
142.530,-147
142.555,-217
142.580,-294
142.605,-338
142.630,-313
142.655,-216
142.680,-75
142.705,73
142.730,214
142.755,353
142.780,494
142.805,620
142.830,703
142.855,725
142.880,697
142.905,654
142.930,627
142.955,619
142.980,610
143.005,582
143.030,534
143.055,484
143.080,443
143.105,407
143.130,361
143.155,302
143.180,242
143.205,188
143.230,132
143.255,56
143.280,-37
143.305,-112
143.330,-115
143.355,-28
143.380,115
143.405,253
143.430,343
143.455,392
143.480,429
143.505,471
143.530,503
143.555,506
143.580,480
143.605,445
143.630,415
143.655,390
143.680,358
143.705,315
143.730,267
143.755,218
143.780,165
143.805,105
143.830,40
143.855,-21
143.880,-83
143.905,-153
143.930,-227
143.955,-275
143.980,-258
144.005,-168
144.030,-37
144.055,85
144.080,174
144.105,237
144.130,292
144.155,339
144.180,363
144.205,357
144.230,338
144.255,332
144.280,341
144.305,347
144.330,332
144.355,299
144.380,264
144.405,234
144.430,196
144.455,145
144.480,90
144.505,49
144.530,16
144.555,-33
144.580,-113
144.605,-194
144.630,-217
144.655,-143
144.680,4
144.705,161
144.730,275
144.755,346
144.780,406
144.805,473
144.830,534
144.855,559
144.880,547
144.905,519
144.930,500
144.955,494
144.980,484
145.005,460
145.030,426
145.055,388
145.080,346
145.105,290
145.130,223
145.155,156
145.180,95
145.205,30
145.230,-52
145.255,-140
145.280,-193
145.305,-169
145.330,-65
145.355,77
145.380,205
145.405,292
145.430,352
145.455,409
145.480,469
145.505,513
145.530,522
145.555,500
145.580,473
145.605,460
145.630,458
145.655,449
145.680,418
145.705,371
145.730,323
145.755,283
145.780,241
145.805,186
145.830,116
145.855,49
145.880,-4
145.905,-52
145.930,-115
145.955,-200
145.980,-278
146.005,-301
146.030,-238
146.055,-103
146.080,52
146.105,182
146.130,271
146.155,337
146.180,399
146.205,458
146.230,498
146.255,508
146.280,495
146.305,480
146.330,476
146.355,479
146.380,475
146.405,450
146.430,407
146.455,359
146.480,314
146.505,271
146.530,219
146.555,156
146.580,93
146.605,43
146.630,2
146.655,-49
146.680,-125
146.705,-205
146.730,-240
146.755,-190
146.780,-59
146.805,100
146.830,233
146.855,318
146.880,375
146.905,431
146.930,489
146.955,529
146.980,539
147.005,529
147.030,521
147.055,522
147.080,526
147.105,517
147.130,493
147.155,459
147.180,420
147.205,374
147.230,322
147.255,268
147.280,212
147.305,155
147.330,93
147.355,33
147.380,-19
147.405,-69
147.430,-131
147.455,-211
147.480,-283
147.505,-301
147.530,-232
147.555,-88
147.580,73
147.605,199
147.630,274
147.655,325
147.680,376
147.705,428
147.730,459
147.755,456
147.780,436
147.805,425
147.830,433
147.855,442
147.880,432
147.905,397
147.930,353
147.955,315
147.980,279
148.005,233
148.030,171
148.055,107
148.080,55
148.105,11
148.130,-45
148.155,-126
148.180,-210
148.205,-248
148.230,-204
148.255,-85
148.280,63
148.305,190
148.330,275
148.355,330
148.380,374
148.405,410
148.430,430
148.455,428
148.480,416
148.505,412
148.530,425
148.555,447
148.580,464
148.605,463
148.630,446
148.655,417
148.680,381
148.705,338
148.730,284
148.755,219
148.780,152
148.805,93
148.830,45
148.855,0
148.880,-64
148.905,-146
148.930,-218
148.955,-231
148.980,-154
149.005,-5
149.030,158
149.055,282
149.080,349
149.105,387
149.130,426
149.155,471
149.180,501
149.205,501
149.230,482
149.255,470
149.280,475
149.305,485
149.330,478
149.355,446
149.380,405
149.405,367
149.430,330
149.455,282
149.480,219
149.505,154
149.530,102
149.555,62
149.580,12
149.605,-62
149.630,-143
149.655,-184
149.680,-145
149.705,-27
149.730,123
149.755,253
149.780,336
149.805,381
149.830,415
149.855,448
149.880,473
149.905,478
149.930,461
149.955,436
149.980,418
150.005,408
150.030,394
150.055,366
150.080,322
150.105,273
150.130,227
150.155,184
150.180,138
150.205,82
150.230,24
150.255,-25
150.280,-64
150.305,-106
150.330,-167
150.355,-241
150.380,-290
150.405,-266
150.430,-156
150.455,4
150.480,154
150.505,255
150.530,313
150.555,360
150.580,410
150.605,450
150.630,460
150.655,445
150.680,432
150.705,438
150.730,451
150.755,447
150.780,419
150.805,382
150.830,353
150.855,327
150.880,285
150.905,222
150.930,158
150.955,110
150.980,69
151.005,8
151.030,-74
151.055,-141
151.080,-137
151.105,-42
151.130,104
151.155,242
151.180,336
151.205,394
151.230,439
151.255,479
151.280,502
151.305,499
151.330,478
151.355,461
151.380,457
151.405,458
151.430,452
151.455,430
151.480,396
151.505,356
151.530,311
151.555,264
151.580,213
151.605,156
151.630,94
151.655,34
151.680,-18
151.705,-64
151.730,-117
151.755,-191
151.780,-271
151.805,-312
151.830,-268
151.855,-133
151.880,41
151.905,188
151.930,277
151.955,327
151.980,374
152.005,431
152.030,474
152.055,482
152.080,463
152.105,447
152.130,450
152.155,459
152.180,449
152.205,414
152.230,371
152.255,334
152.280,299
152.305,250
152.330,186
152.355,125
152.380,80
152.405,37
152.430,-25
152.455,-111
152.480,-178
152.505,-173
152.530,-78
152.555,70
152.580,216
152.605,319
152.630,382
152.655,430
152.680,474
152.705,510
152.730,522
152.755,513
152.780,495
152.805,483
152.830,479
152.855,472
152.880,451
152.905,414
152.930,366
152.955,317
152.980,269
153.005,220
153.030,161
153.055,95
153.080,32
153.105,-18
153.130,-67
153.155,-129
153.180,-210
153.205,-280
153.230,-287
153.255,-201
153.280,-45
153.305,119
153.330,240
153.355,310
153.380,359
153.405,409
153.430,453
153.455,466
153.480,448
153.505,424
153.530,421
153.555,434
153.580,436
153.605,410
153.630,365
153.655,323
153.680,291
153.705,255
153.730,202
153.755,141
153.780,89
153.805,47
153.830,-3
153.855,-78
153.880,-150
153.905,-171
153.930,-106
153.955,28
153.980,176
154.005,287
154.030,355
154.055,401
154.080,446
154.105,484
154.130,499
154.155,485
154.180,459
154.205,443
154.230,441
154.255,438
154.280,416
154.305,375
154.330,329
154.355,288
154.380,248
154.405,199
154.430,139
154.455,77
154.480,26
154.505,-17
154.530,-72
154.555,-149
154.580,-232
154.605,-274
154.630,-236
154.655,-116
154.680,40
154.705,178
154.730,270
154.755,327
154.780,378
154.805,435
154.830,480
154.855,493
154.880,474
154.905,449
154.930,442
154.955,450
154.980,451
155.005,429
155.030,386
155.055,342
155.080,305
155.105,265
155.130,212
155.155,150
155.180,95
155.205,54
155.230,11
155.255,-53
155.280,-133
155.305,-183
155.330,-160
155.355,-56
155.380,87
155.405,217
155.430,306
155.455,365
155.480,418
155.505,469
155.530,505
155.555,515
155.580,504
155.605,490
155.630,486
155.655,485
155.680,477
155.705,455
155.730,423
155.755,385
155.780,343
155.805,299
155.830,251
155.855,200
155.880,142
155.905,82
155.930,25
155.955,-21
155.980,-62
156.005,-116
156.030,-189
156.055,-260
156.080,-285
156.105,-231
156.130,-107
156.155,39
156.180,160
156.205,239
156.230,295
156.255,349
156.280,399
156.305,431
156.330,434
156.355,422
156.380,417
156.405,426
156.430,435
156.455,426
156.480,395
156.505,355
156.530,321
156.555,291
156.580,255
156.605,202
156.630,141
156.655,89
156.680,51
156.705,12
156.730,-44
156.755,-114
156.780,-160
156.805,-140
156.830,-45
156.855,90
156.880,213
156.905,295
156.930,347
156.955,398
156.980,455
157.005,499
157.030,510
157.055,496
157.080,484
157.105,489
157.130,502
157.155,500
157.180,477
157.205,449
157.230,428
157.255,411
157.280,381
157.305,332
157.330,275
157.355,223
157.380,172
157.405,111
157.430,43
157.455,-14
157.480,-56
157.505,-98
157.530,-164
157.555,-244
157.580,-289
157.605,-247
157.630,-120
157.655,35
157.680,157
157.705,229
157.730,280
157.755,337
157.780,396
157.805,431
157.830,432
157.855,423
157.880,427
157.905,447
157.930,464
157.955,465
157.980,456
158.005,445
158.030,428
158.055,393
158.080,342
158.105,289
158.130,248
158.155,212
158.180,162
158.205,98
158.230,38
158.255,-2
158.280,-37
158.305,-97
158.330,-182
158.355,-247
158.380,-233
158.405,-125
158.430,33
158.455,178
158.480,276
158.505,342
158.530,405
158.555,469
158.580,515
158.605,525
158.630,510
158.655,495
158.680,495
158.705,503
158.730,501
158.755,480
158.780,445
158.805,406
158.830,368
158.855,327
158.880,280
158.905,226
158.930,168
158.955,115
158.980,70
159.005,23
159.030,-38
159.055,-117
159.080,-192
159.105,-224
159.130,-181
159.155,-70
159.180,71
159.205,196
159.230,282
159.255,336
159.280,378
159.305,415
159.330,437
159.355,437
159.380,420
159.405,404
159.430,403
159.455,411
159.480,411
159.505,392
159.530,356
159.555,317
159.580,282
159.605,244
159.630,194
159.655,132
159.680,74
159.705,30
159.730,-9
159.755,-67
159.780,-156
159.805,-248
159.830,-287
159.855,-234
159.880,-98
159.905,64
159.930,198
159.955,284
159.980,341
160.005,396
160.030,447
160.055,476
160.080,470
160.105,448
160.130,439
160.155,456
160.180,480
160.205,483
160.230,452
160.255,400
160.280,347
160.305,303
160.330,257
160.355,196
160.380,125
160.405,58
160.430,10
160.455,-23
160.480,-67
160.505,-134
160.530,-210
160.555,-250
160.580,-211
160.605,-87
160.630,81
160.655,237
160.680,344
160.705,408
160.730,457
160.755,508
160.780,553
160.805,577
160.830,579
160.855,577
160.880,588
160.905,604
160.930,602
160.955,564
160.980,497
161.005,426
161.030,364
161.055,304
161.080,231
161.105,145
161.130,69
161.155,26
161.180,5
161.205,-30
161.230,-110
161.255,-212
161.280,-274
161.305,-242
161.330,-114
161.355,49
161.380,182
161.405,255
161.430,289
161.455,320
161.480,360
161.505,394
161.530,408
161.555,404
161.580,400
161.605,401
161.630,400
161.655,383
161.680,349
161.705,303
161.730,251
161.755,194
161.780,134
161.805,78
161.830,27
161.855,-28
161.880,-98
161.905,-168
161.930,-200
161.955,-155
161.980,-34
162.005,118
162.030,244
162.055,321
162.080,367
162.105,410
162.130,459
162.155,493
162.180,494
162.205,472
162.230,456
162.255,459
162.280,471
162.305,466
162.330,437
162.355,397
162.380,364
162.405,335
162.430,295
162.455,239
162.480,177
162.505,126
162.530,78
162.555,13
162.580,-78
162.605,-166
162.630,-196
162.655,-135
162.680,-5
162.705,134
162.730,235
162.755,296
162.780,344
162.805,396
162.830,440
162.855,452
162.880,432
162.905,407
162.930,399
162.955,401
162.980,388
163.005,346
163.030,287
163.055,234
163.080,192
163.105,148
163.130,91
163.155,31
163.180,-15
163.205,-52
163.230,-99
163.255,-166
163.280,-222
163.305,-218
163.330,-126
163.355,25
163.380,176
163.405,279
163.430,336
163.455,381
163.480,435
163.505,485
163.530,506
163.555,493
163.580,469
163.605,460
163.630,466
163.655,465
163.680,441
163.705,396
163.730,351
163.755,316
163.780,279
163.805,225
163.830,157
163.855,94
163.880,48
163.905,7
163.930,-52
163.955,-133
163.980,-197
164.005,-194
164.030,-103
164.055,39
164.080,175
164.105,266
164.130,320
164.155,366
164.180,416
164.205,456
164.230,464
164.255,445
164.280,425
164.305,420
164.330,426
164.355,421
164.380,395
164.405,357
164.430,318
164.455,276
164.480,227
164.505,171
164.530,120
164.555,77
164.580,29
164.605,-36
164.630,-109
164.655,-145
164.680,-107
164.705,1
164.730,138
164.755,252
164.780,324
164.805,373
164.830,420
164.855,466
164.880,491
164.905,487
164.930,465
164.955,448
164.980,445
165.005,445
165.030,432
165.055,399
165.080,357
165.105,316
165.130,275
165.155,226
165.180,163
165.205,95
165.230,36
165.255,-9
165.280,-55
165.305,-119
165.330,-202
165.355,-272
165.380,-285
165.405,-216
165.430,-84
165.455,61
165.480,175
165.505,249
165.530,307
165.555,368
165.580,428
165.605,462
165.630,457
165.655,432
165.680,420
165.705,432
165.730,447
165.755,437
165.780,399
165.805,354
165.830,321
165.855,293
165.880,250
165.905,187
165.930,122
165.955,76
165.980,44
166.005,-3
166.030,-82
166.055,-161
166.080,-182
166.105,-110
166.130,31
166.155,181
166.180,294
166.205,368
166.230,431
166.255,499
166.280,560
166.305,588
166.330,578
166.355,551
166.380,530
166.405,522
166.430,516
166.455,498
166.480,463
166.505,418
166.530,369
166.555,319
166.580,266
166.605,209
166.630,148
166.655,85
166.680,25
166.705,-26
166.730,-75
166.755,-135
166.780,-211
166.805,-286
166.830,-319
166.855,-273
166.880,-152
166.905,-2
166.930,122
166.955,202
166.980,261
167.005,326
167.030,397
167.055,449
167.080,461
167.105,445
167.130,434
167.155,442
167.180,454
167.205,445
167.230,411
167.255,370
167.280,337
167.305,305
167.330,256
167.355,188
167.380,122
167.405,78
167.430,44
167.455,-6
167.480,-84
167.505,-153
167.530,-164
167.555,-93
167.580,32
167.605,159
167.630,256
167.655,324
167.680,381
167.705,434
167.730,471
167.755,483
167.780,473
167.805,459
167.830,452
167.855,454
167.880,457
167.905,451
167.930,429
167.955,391
167.980,343
168.005,296
168.030,254
168.055,212
168.080,158
168.105,92
168.130,30
168.155,-17
168.180,-59
168.205,-118
168.230,-200
168.255,-270
168.280,-276
168.305,-194
168.330,-50
168.355,96
168.380,206
168.405,282
168.430,350
168.455,423
168.480,485
168.505,514
168.530,511
168.555,496
168.580,489
168.605,493
168.630,496
168.655,484
168.680,457
168.705,421
168.730,382
168.755,341
168.780,299
168.805,251
168.830,197
168.855,140
168.880,88
168.905,43
168.930,-5
168.955,-70
168.980,-148
169.005,-205
169.030,-197
169.055,-106
169.080,35
169.105,173
169.130,268
169.155,325
169.180,370
169.205,421
169.230,464
169.255,480
169.280,466
169.305,444
169.330,434
169.355,438
169.380,438
169.405,420
169.430,385
169.455,348
169.480,315
169.505,280
169.530,233
169.555,172
169.580,113
169.605,67
169.630,30
169.655,-16
169.680,-87
169.705,-165
169.730,-209
169.755,-180
169.780,-76
169.805,60
169.830,181
169.855,259
169.880,307
169.905,348
169.930,389
169.955,417
169.980,422
170.005,410
170.030,401
170.055,403
170.080,408
170.105,399
170.130,374
170.155,341
170.180,305
170.205,264
170.230,214
170.255,161
170.280,115
170.305,73
170.330,20
170.355,-51
170.380,-119
170.405,-139
170.430,-79
170.455,43
170.480,179
170.505,281
170.530,342
170.555,383
170.580,419
170.605,448
170.630,452
170.655,435
170.680,414
170.705,409
170.730,416
170.755,413
170.780,387
170.805,346
170.830,306
170.855,275
170.880,240
170.905,188
170.930,123
170.955,64
170.980,17
171.005,-28
171.030,-96
171.055,-180
171.080,-238
171.105,-222
171.130,-118
171.155,34
171.180,176
171.205,271
171.230,328
171.255,377
171.280,429
171.305,472
171.330,485
171.355,473
171.380,456
171.405,452
171.430,455
171.455,446
171.480,418
171.505,380
171.530,346
171.555,311
171.580,264
171.605,200
171.630,133
171.655,75
171.680,19
171.705,-49
171.730,-134
171.755,-201
171.780,-203
171.805,-120
171.830,19
171.855,162
171.880,267
171.905,337
171.930,395
171.955,454
171.980,502
172.005,520
172.030,509
172.055,489
172.080,479
172.105,482
172.130,481
172.155,460
172.180,422
172.205,378
172.230,333
172.255,281
172.280,214
172.305,138
172.330,70
172.355,17
172.380,-33
172.405,-102
172.430,-188
172.455,-257
172.480,-260
172.505,-174
172.530,-28
172.555,120
172.580,230
172.605,302
172.630,359
172.655,417
172.680,465
172.705,482
172.730,467
172.755,443
172.780,433
172.805,436
172.830,433
172.855,409
172.880,369
172.905,329
172.930,291
172.955,246
172.980,188
173.005,123
173.030,68
173.055,19
173.080,-38
173.105,-111
173.130,-174
173.155,-180
173.180,-103
173.205,31
173.230,167
173.255,265
173.280,324
173.305,371
173.330,418
173.355,453
173.380,457
173.405,437
173.430,415
173.455,409
173.480,411
173.505,402
173.530,373
173.555,335
173.580,298
173.605,260
173.630,210
173.655,148
173.680,89
173.705,39
173.730,-14
173.755,-87
173.780,-168
173.805,-211
173.830,-171
173.855,-49
173.880,105
173.905,230
173.930,306
173.955,355
173.980,408
174.005,465
174.030,501
174.055,497
174.080,469
174.105,447
174.130,444
174.155,445
174.180,426
174.205,385
174.230,340
174.255,304
174.280,268
174.305,216
174.330,146
174.355,78
174.380,28
174.405,-12
174.430,-67
174.455,-148
174.480,-223
174.505,-242
174.530,-175
174.555,-41
174.580,108
174.605,226
174.630,304
174.655,361
174.680,419
174.705,473
174.730,506
174.755,509
174.780,491
174.805,473
174.830,469
174.855,471
174.880,459
174.905,427
174.930,384
174.955,345
174.980,312
175.005,274
175.030,218
175.055,151
175.080,91
175.105,48
175.130,7
175.155,-55
175.180,-139
175.205,-209
175.230,-213
175.255,-130
175.280,9
175.305,151
175.330,255
175.355,321
175.380,374
175.405,430
175.430,477
175.455,497
175.480,487
175.505,466
175.530,455
175.555,457
175.580,458
175.605,442
175.630,407
175.655,364
175.680,324
175.705,285
175.730,240
175.755,183
175.780,121
175.805,65
175.830,20
175.855,-25
175.880,-87
175.905,-162
175.930,-221
175.955,-223
175.980,-148
176.005,-18
176.030,114
176.055,214
176.080,277
176.105,325
176.130,375
176.155,418
176.180,436
176.205,429
176.230,415
176.255,414
176.280,421
176.305,418
176.330,396
176.355,362
176.380,331
176.405,302
176.430,262
176.455,205
176.480,145
176.505,99
176.530,61
176.555,10
176.580,-63
176.605,-131
176.630,-144
176.655,-74
176.680,57
176.705,194
176.730,291
176.755,348
176.780,388
176.805,431
176.830,468
176.855,481
176.880,467
176.905,443
176.930,430
176.955,431
176.980,431
177.005,414
177.030,380
177.055,340
177.080,300
177.105,258
177.130,204
177.155,140
177.180,79
177.205,30
177.230,-9
177.255,-60
177.280,-133
177.305,-212
177.330,-253
177.355,-219
177.380,-105
177.405,46
177.430,180
177.455,268
177.480,322
177.505,370
177.530,424
177.555,468
177.580,479
177.605,460
177.630,437
177.655,433
177.680,444
177.705,443
177.730,415
177.755,368
177.780,324
177.805,290
177.830,254
177.855,200
177.880,135
177.905,80
177.930,38
177.955,-8
177.980,-81
178.005,-163
178.030,-204
178.055,-159
178.080,-33
178.105,119
178.130,241
178.155,316
178.180,371
178.205,429
178.230,488
178.255,524
178.280,528
178.305,513
178.330,502
178.355,502
178.380,501
178.405,488
178.430,464
178.455,434
178.480,399
178.505,356
178.530,303
178.555,249
178.580,198
178.605,148
178.630,91
178.655,29
178.680,-26
178.705,-72
178.730,-122
178.755,-189
178.780,-264
178.805,-300
178.830,-254
178.855,-122
178.880,44
178.905,184
178.930,272
178.955,324
178.980,375
179.005,430
179.030,469
179.055,475
179.080,458
179.105,445
179.130,451
179.155,462
179.180,456
179.205,425
179.230,383
179.255,344
179.280,308
179.305,261
179.330,201
179.355,140
179.380,94
179.405,61
179.430,18
179.455,-48
179.480,-126
179.505,-170
179.530,-143
179.555,-43
179.580,94
179.605,221
179.630,313
179.655,374
179.680,420
179.705,458
179.730,482
179.755,483
179.780,464
179.805,445
179.830,438
179.855,444
179.880,444
179.905,424
179.930,383
179.955,334
179.980,289
180.005,246
180.030,196
180.055,136
180.080,75
180.105,25
180.130,-18
180.155,-71
180.180,-147
180.205,-228
180.230,-271
180.255,-233
180.280,-114
180.305,43
180.330,183
180.355,276
180.380,335
180.405,385
180.430,439
180.455,481
180.480,492
180.505,474
180.530,453
180.555,450
180.580,460
180.605,460
180.630,434
180.655,388
180.680,342
180.705,304
180.730,265
180.755,210
180.780,142
180.805,82
180.830,40
180.855,2
180.880,-56
180.905,-139
180.930,-210
180.955,-217
180.980,-136
181.005,4
181.030,151
181.055,264
181.080,339
181.105,394
181.130,445
181.155,486
181.180,505
181.205,501
181.230,488
181.255,478
181.280,475
181.305,473
181.330,462
181.355,436
181.380,398
181.405,354
181.430,311
181.455,269
181.480,222
181.505,163
181.530,96
181.555,36
181.580,-10
181.605,-50
181.630,-106
181.655,-182
181.680,-246
181.705,-252
181.730,-170
181.755,-22
181.780,132
181.805,248
181.830,318
181.855,367
181.880,417
181.905,465
181.930,494
181.955,494
181.980,477
182.005,464
182.030,462
182.055,463
182.080,456
182.105,432
182.130,396
182.155,355
182.180,315
182.205,271
182.230,219
182.255,160
182.280,99
182.305,46
182.330,1
182.355,-48
182.380,-113
182.405,-183
182.430,-222
182.455,-195
182.480,-91
182.505,56
182.530,196
182.555,292
182.580,348
182.605,387
182.630,426
182.655,456
182.680,465
182.705,451
182.730,434
182.755,431
182.780,441
182.805,446
182.830,428
182.855,388
182.880,342
182.905,301
182.930,261
182.955,213
182.980,154
183.005,96
183.030,50
183.055,11
183.080,-39
183.105,-111
183.130,-187
183.155,-223
183.180,-183
183.205,-70
183.230,76
183.255,206
183.280,298
183.305,357
183.330,403
183.355,444
183.380,471
183.405,476
183.430,465
183.455,451
183.480,447
183.505,449
183.530,446
183.555,427
183.580,394
183.605,354
183.630,314
183.655,273
183.680,227
183.705,171
183.730,111
183.755,58
183.780,16
183.805,-27
183.830,-87
183.855,-162
183.880,-218
183.905,-210
183.930,-119
183.955,28
183.980,178
184.005,288
184.030,355
184.055,403
184.080,450
184.105,491
184.130,507
184.155,498
184.180,480
184.205,473
184.230,478
184.255,484
184.280,474
184.305,446
184.330,405
184.355,361
184.380,315
184.405,267
184.430,213
184.455,154
184.480,96
184.505,46
184.530,3
184.555,-41
184.580,-105
184.605,-186
184.630,-250
184.655,-249
184.680,-157
184.705,0
184.730,157
184.755,266
184.780,322
184.805,358
184.830,399
184.855,438
184.880,452
184.905,436
184.930,414
184.955,409
184.980,419
185.005,420
185.030,397
185.055,358
185.080,322
185.105,293
185.130,256
185.155,201
185.180,141
185.205,91
185.230,52
185.255,4
185.280,-64
185.305,-131
185.330,-149
185.355,-84
185.380,46
185.405,190
185.430,300
185.455,366
185.480,408
185.505,445
185.530,471
185.555,475
185.580,455
185.605,432
185.630,424
185.655,431
185.680,434
185.705,415
185.730,375
185.755,329
185.780,288
185.805,247
185.830,193
185.855,127
185.880,62
185.905,12
185.930,-28
185.955,-82
185.980,-163
186.005,-248
186.030,-287
186.055,-235
186.080,-97
186.105,72
186.130,211
186.155,296
186.180,345
186.205,391
186.230,443
186.255,480
186.280,483
186.305,461
186.330,441
186.355,441
186.380,450
186.405,443
186.430,412
186.455,369
186.480,330
186.505,293
186.530,245
186.555,181
186.580,116
186.605,64
186.630,18
186.655,-41
186.680,-121
186.705,-187
186.730,-188
186.755,-101
186.780,46
186.805,195
186.830,305
186.855,374
186.880,425
186.905,473
186.930,510
186.955,522
186.980,511
187.005,491
187.030,480
187.055,478
187.080,473
187.105,455
187.130,423
187.155,382
187.180,338
187.205,293
187.230,246
187.255,193
187.280,132
187.305,67
187.330,8
187.355,-37
187.380,-80
187.405,-138
187.430,-217
187.455,-286
187.480,-295
187.505,-210
187.530,-51
187.555,119
187.580,244
187.605,313
187.630,357
187.655,405
187.680,454
187.705,480
187.730,469
187.755,443
187.780,430
187.805,438
187.830,446
187.855,432
187.880,398
187.905,363
187.930,334
187.955,299
187.980,245
188.005,181
188.030,128
188.055,90
188.080,46
188.105,-23
188.130,-104
188.155,-143
188.180,-97
188.205,24
188.230,165
188.255,272
188.280,333
188.305,370
188.330,402
188.355,425
188.380,425
188.405,407
188.430,388
188.455,385
188.480,390
188.505,385
188.530,364
188.555,335
188.580,304
188.605,268
188.630,223
188.655,173
188.680,126
188.705,81
188.730,23
188.755,-51
188.780,-115
188.805,-122
188.830,-50
188.855,76
188.880,202
188.905,290
188.930,338
188.955,366
188.980,383
189.005,384
189.030,367
189.055,344
189.080,332
189.105,333
189.130,333
189.155,319
189.180,293
189.205,264
189.230,233
189.255,197
189.280,153
189.305,107
189.330,62
189.355,10
189.380,-48
189.405,-94
189.430,-86
189.455,-1
189.480,135
189.505,267
189.530,351
189.555,392
189.580,419
189.605,447
189.630,463
189.655,450
189.680,416
189.705,388
189.730,381
189.755,381
189.780,364
189.805,325
189.830,281
189.855,241
189.880,199
189.905,141
189.930,74
189.955,14
189.980,-34
190.005,-92
190.030,-170
190.055,-238
190.080,-242
190.105,-152
190.130,2
190.155,151
190.180,251
190.205,311
190.230,368
190.255,436
190.280,493
190.305,511
190.330,493
190.355,468
190.380,456
190.405,451
190.430,435
190.455,404
190.480,368
190.505,331
190.530,287
190.555,230
190.580,169
190.605,116
190.630,70
190.655,7
190.680,-79
190.705,-161
190.730,-186
190.755,-121
190.780,13
190.805,157
190.830,265
190.855,331
190.880,384
190.905,443
190.930,500
190.955,532
190.980,529
191.005,505
191.030,482
191.055,472
191.080,468
191.105,453
191.130,420
191.155,373
191.180,323
191.205,276
191.230,225
191.255,163
191.280,94
191.305,32
191.330,-15
191.355,-60
191.380,-124
191.405,-210
191.430,-286
191.455,-301
191.480,-226
191.505,-81
191.530,76
191.555,197
191.580,275
191.605,335
191.630,400
191.655,466
191.680,510
191.705,521
191.730,510
191.755,496
191.780,492
191.805,493
191.830,487
191.855,464
191.880,424
191.905,375
191.930,326
191.955,280
191.980,230
192.005,171
192.030,106
192.055,46
192.080,0
192.105,-45
192.130,-107
192.155,-188
192.180,-254
192.205,-258
192.230,-174
192.255,-28
192.280,121
192.305,231
192.330,301
192.355,362
192.380,429
192.405,490
192.430,521
192.455,517
192.480,497
192.505,484
192.530,484
192.555,483
192.580,467
192.605,433
192.630,390
192.655,349
192.680,311
192.705,269
192.730,219
192.755,159
192.780,97
192.805,41
192.830,-8
192.855,-63
192.880,-136
192.905,-213
192.930,-256
192.955,-221
192.980,-104
193.005,51
193.030,185
193.055,268
193.080,318
193.105,371
193.130,432
193.155,476
193.180,479
193.205,452
193.230,429
193.255,431
193.280,442
193.305,434
193.330,400
193.355,357
193.380,323
193.405,291
193.430,245
193.455,182
193.480,121
193.505,78
193.530,41
193.555,-16
193.580,-97
193.605,-163
193.630,-160
193.655,-71
193.680,69
193.705,204
193.730,301
193.755,363
193.780,411
193.805,455
193.830,483
193.855,486
193.880,470
193.905,452
193.930,446
193.955,446
193.980,442
194.005,420
194.030,383
194.055,338
194.080,294
194.105,253
194.130,208
194.155,154
194.180,95
194.205,39
194.230,-6
194.255,-50
194.280,-110
194.305,-187
194.330,-253
194.355,-259
194.380,-177
194.405,-30
194.430,123
194.455,232
194.480,292
194.505,333
194.530,384
194.555,436
194.580,463
194.605,455
194.630,433
194.655,426
194.680,438
194.705,445
194.730,426
194.755,385
194.780,345
194.805,317
194.830,288
194.855,240
194.880,175
194.905,117
194.930,79
194.955,46
194.980,-8
195.005,-87
195.030,-150
195.055,-147
195.080,-58
195.105,81
195.130,216
195.155,310
195.180,365
195.205,406
195.230,446
195.255,477
195.280,487
195.305,475
195.330,456
195.355,445
195.380,446
195.405,446
195.430,431
195.455,399
195.480,356
195.505,313
195.530,273
195.555,230
195.580,177
195.605,115
195.630,59
195.655,14
195.680,-28
195.705,-86
195.730,-161
195.755,-221
195.780,-219
195.805,-133
195.830,8
195.855,146
195.880,238
195.905,288
195.930,328
195.955,377
195.980,420
196.005,431
196.030,410
196.055,386
196.080,386
196.105,404
196.130,409
196.155,384
196.180,341
196.205,304
196.230,278
196.255,247
196.280,198
196.305,142
196.330,97
196.355,65
196.380,22
196.405,-44
196.430,-114
196.455,-133
196.480,-70
196.505,59
196.530,198
196.555,301
196.580,361
196.605,402
196.630,441
196.655,472
196.680,482
196.705,467
196.730,444
196.755,432
196.780,436
196.805,442
196.830,432
196.855,401
196.880,358
196.905,314
196.930,274
196.955,233
196.980,183
197.005,123
197.030,62
197.055,12
197.080,-27
197.105,-74
197.130,-139
197.155,-210
197.180,-242
197.205,-197
197.230,-73
197.255,81
197.280,211
197.305,289
197.330,333
197.355,376
197.380,425
197.405,461
197.430,465
197.455,444
197.480,427
197.505,429
197.530,441
197.555,437
197.580,410
197.605,371
197.630,336
197.655,303
197.680,259
197.705,199
197.730,136
197.755,85
197.780,40
197.805,-16
197.830,-92
197.855,-158
197.880,-167
197.905,-93
197.930,42
197.955,185
197.980,290
198.005,349
198.030,386
198.055,421
198.080,451
198.105,461
198.130,446
198.155,423
198.180,412
198.205,415
198.230,417
198.255,401
198.280,366
198.305,324
198.330,284
198.355,240
198.380,186
198.405,126
198.430,72
198.455,30
198.480,-12
198.505,-73
198.530,-146
198.555,-195
198.580,-175
198.605,-72
198.630,75
198.655,213
198.680,305
198.705,357
198.730,395
198.755,433
198.780,459
198.805,459
198.830,439
198.855,422
198.880,423
198.905,432
198.930,428
198.955,399
198.980,354
199.005,312
199.030,275
199.055,234
199.080,178
199.105,116
199.130,62
199.155,17
199.180,-35
199.205,-109
199.230,-187
199.255,-223
199.280,-177
199.305,-52
199.330,104
199.355,237
199.380,321
199.405,371
199.430,413
199.455,455
199.480,483
199.505,483
199.530,463
199.555,445
199.580,443
199.605,449
199.630,442
199.655,410
199.680,363
199.705,318
199.730,280
199.755,238
199.780,181
199.805,116
199.830,60
199.855,16
199.880,-29
199.905,-97
199.930,-179
199.955,-234
199.980,-214
200.005,-106
200.030,51
200.055,201
200.080,305
200.105,366
200.130,411
200.155,454
200.180,489
200.205,500
200.230,487
200.255,467
200.280,460
200.305,463
200.330,462
200.355,441
200.380,401
200.405,358
200.430,319
200.455,279
200.480,227
200.505,162
200.530,98
200.555,50
200.580,13
200.605,-36
200.630,-112
200.655,-194
200.680,-231
200.705,-182
200.730,-52
200.755,104
200.780,230
200.805,306
200.830,349
200.855,389
200.880,426
200.905,445
200.930,436
200.955,414
200.980,402
201.005,406
201.030,409
201.055,394
201.080,360
201.105,324
201.130,294
201.155,261
201.180,213
201.205,155
201.230,104
201.255,65
201.280,22
201.305,-43
201.330,-118
201.355,-157
201.380,-117
201.405,0
201.430,148
201.455,271
201.480,346
201.505,388
201.530,422
201.555,453
201.580,469
201.605,460
201.630,438
201.655,423
201.680,423
201.705,427
201.730,416
201.755,384
201.780,340
201.805,298
201.830,262
201.855,221
201.880,165
201.905,101
201.930,45
201.955,2
201.980,-38
202.005,-99
202.030,-178
202.055,-239
202.080,-229
202.105,-129
202.130,28
202.155,179
202.180,279
202.205,333
202.230,372
202.255,417
202.280,457
202.305,468
202.330,449
202.355,425
202.380,419
202.405,427
202.430,425
202.455,401
202.480,363
202.505,330
202.530,302
202.555,262
202.580,204
202.605,141
202.630,95
202.655,64
202.680,20
202.705,-54
202.730,-139
202.755,-179
202.780,-131
202.805,-4
202.830,147
202.855,268
202.880,340
202.905,385
202.930,426
202.955,465
202.980,489
203.005,486
203.030,466
203.055,450
203.080,447
203.105,447
203.130,435
203.155,403
203.180,359
203.205,317
203.230,280
203.255,239
203.280,184
203.305,121
203.330,63
203.355,18
203.380,-24
203.405,-86
203.430,-164
203.455,-222
203.480,-212
203.505,-116
203.530,30
203.555,167
203.580,256
203.605,303
203.630,340
203.655,381
203.680,414
203.705,420
203.730,404
203.755,389
203.780,392
203.805,405
203.830,406
203.855,384
203.880,351
203.905,318
203.930,284
203.955,241
203.980,188
204.005,137
204.030,96
204.055,54
204.080,-7
204.105,-82
204.130,-129
204.155,-103
204.180,1
204.205,143
204.230,263
204.255,336
204.280,376
204.305,411
204.330,447
204.355,466
204.380,455
204.405,428
204.430,409
204.455,412
204.480,421
204.505,411
204.530,376
204.555,330
204.580,289
204.605,255
204.630,213
204.655,156
204.680,92
204.705,37
204.730,-7
204.755,-58
204.780,-131
204.805,-208
204.830,-247
204.855,-208
204.880,-92
204.905,57
204.930,187
204.955,272
204.980,327
205.005,379
205.030,433
205.055,474
205.080,483
205.105,466
205.130,448
205.155,447
205.180,457
205.205,455
205.230,429
205.255,386
205.280,344
205.305,305
205.330,261
205.355,203
205.380,141
205.405,90
205.430,51
205.455,4
205.480,-65
205.505,-144
205.530,-187
205.555,-155
205.580,-46
205.605,98
205.630,225
205.655,312
205.680,369
205.705,417
205.730,465
205.755,501
205.780,509
205.805,494
205.830,472
205.855,462
205.880,463
205.905,459
205.930,437
205.955,397
205.980,352
206.005,311
206.030,268
206.055,213
206.080,145
206.105,81
206.130,32
206.155,-6
206.180,-59
206.205,-139
206.230,-222
206.255,-256
206.280,-206
206.305,-84
206.330,58
206.355,173
206.380,248
206.405,300
206.430,350
206.455,395
206.480,418
206.505,416
206.530,401
206.555,390
206.580,387
206.605,383
206.630,370
206.655,347
206.680,318
206.705,282
206.730,238
206.755,189
206.780,144
206.805,103
206.830,52
206.855,-14
206.880,-79
206.905,-102
206.930,-51
206.955,63
206.980,198
207.005,306
207.030,370
207.055,410
207.080,446
207.105,477
207.130,487
207.155,471
207.180,443
207.205,425
207.230,422
207.255,418
207.280,395
207.305,352
207.330,305
207.355,265
207.380,227
207.405,179
207.430,115
207.455,50
207.480,-2
207.505,-46
207.530,-101
207.555,-178
207.580,-252
207.605,-275
207.630,-213
207.655,-78
207.680,75
207.705,199
207.730,280
207.755,340
207.780,403
207.805,463
207.830,499
207.855,501
207.880,483
207.905,469
207.930,467
207.955,465
207.980,450
208.005,420
208.030,384
208.055,345
208.080,298
208.105,241
208.130,181
208.155,131
208.180,86
208.205,28
208.230,-49
208.255,-121
208.280,-143
208.305,-86
208.330,33
208.355,165
208.380,266
208.405,329
208.430,376
208.455,426
208.480,472
208.505,492
208.530,479
208.555,450
208.580,430
208.605,426
208.630,424
208.655,406
208.680,368
208.705,325
208.730,285
208.755,243
208.780,190
208.805,124
208.830,61
208.855,11
208.880,-31
208.905,-88
208.930,-159
208.955,-212
208.980,-202
209.005,-115
209.030,16
209.055,141
209.080,225
209.105,278
209.130,326
209.155,377
209.180,415
209.205,424
209.230,409
209.255,391
209.280,386
209.305,386
209.330,376
209.355,350
209.380,316
209.405,281
209.430,242
209.455,197
209.480,148
209.505,102
209.530,55
209.555,-1
209.580,-68
209.605,-115
209.630,-103
209.655,-17
209.680,111
209.705,229
209.730,306
209.755,351
209.780,391
209.805,438
209.830,471
209.855,472
209.880,445
209.905,419
209.930,413
209.955,419
209.980,414
210.005,384
210.030,339
210.055,297
210.080,259
210.105,214
210.130,157
210.155,97
210.180,48
210.205,6
210.230,-46
210.255,-118
210.280,-181
210.305,-192
210.330,-122
210.355,7
210.380,146
210.405,250
210.430,316
210.455,367
210.480,422
210.505,474
210.530,500
210.555,493
210.580,471
210.605,456
210.630,452
210.655,445
210.680,422
210.705,385
210.730,347
210.755,311
210.780,267
210.805,211
210.830,149
210.855,97
210.880,53
210.905,0
210.930,-77
210.955,-153
210.980,-180
211.005,-123
211.030,0
211.055,133
211.080,228
211.105,282
211.130,325
211.155,376
211.180,427
211.205,450
211.230,438
211.255,412
211.280,399
211.305,399
211.330,395
211.355,372
211.380,336
211.405,302
211.430,272
211.455,234
211.480,182
211.505,123
211.530,73
211.555,31
211.580,-20
211.605,-91
211.630,-155
211.655,-167
211.680,-102
211.705,18
211.730,143
211.755,236
211.780,298
211.805,352
211.830,410
211.855,456
211.880,469
211.905,453
211.930,432
211.955,427
211.980,433
212.005,429
212.030,403
212.055,362
212.080,322
212.105,284
212.130,238
212.155,179
212.180,116
212.205,63
212.230,16
212.255,-42
212.280,-118
212.305,-188
212.330,-206
212.355,-143
212.380,-19
212.405,115
212.430,220
212.455,290
212.480,346
212.505,406
212.530,459
212.555,484
212.580,476
212.605,453
212.630,440
212.655,442
212.680,444
212.705,427
212.730,389
212.755,343
212.780,301
212.805,264
212.830,225
212.855,179
212.880,134
212.905,92
212.930,46
212.955,-18
212.980,-101
213.005,-172
213.030,-187
213.055,-122
213.080,6
213.105,147
213.130,257
213.155,327
213.180,382
213.205,441
213.230,497
213.255,526
213.280,519
213.305,495
213.330,480
213.355,481
213.380,479
213.405,454
213.430,408
213.455,359
213.480,321
213.505,281
213.530,222
213.555,148
213.580,79
213.605,28
213.630,-18
213.655,-89
213.680,-180
213.705,-246
213.730,-233
213.755,-132
213.780,7
213.805,126
213.830,199
213.855,247
213.880,299
213.905,353
213.930,386
213.955,384
213.980,362
214.005,345
214.030,343
214.055,341
214.080,325
214.105,294
214.130,261
214.155,229
214.180,193
214.205,147
214.230,101
214.255,60
214.280,17
214.305,-41
214.330,-109
214.355,-146
214.380,-106
214.405,14
214.430,173
214.455,306
214.480,389
214.505,439
214.530,488
214.555,542
214.580,580
214.605,584
214.630,567
214.655,554
214.680,551
214.705,541
214.730,506
214.755,449
214.780,391
214.805,342
214.830,293
214.855,227
214.880,149
214.905,78
214.930,21
214.955,-37
214.980,-118
215.005,-204
215.030,-245
215.055,-197
215.080,-69
215.105,78
215.130,188
215.155,250
215.180,294
215.205,347
215.230,401
215.255,425
215.280,412
215.305,384
215.330,370
215.355,375
215.380,379
215.405,364
215.430,334
215.455,301
215.480,267
215.505,221
215.530,164
215.555,106
215.580,60
215.605,14
215.630,-50
215.655,-129
215.680,-178
215.705,-145
215.730,-26
215.755,125
215.780,247
215.805,318
215.830,364
215.855,417
215.880,473
215.905,502
215.930,491
215.955,462
215.980,444
216.005,441
216.030,428
216.055,388
216.080,331
216.105,281
216.130,245
216.155,205
216.180,151
216.205,91
216.230,43
216.255,2
216.280,-55
216.305,-132
216.330,-192
216.355,-180
216.380,-79
216.405,65
216.430,190
216.455,263
216.480,305
216.505,349
216.530,398
216.555,430
216.580,428
216.605,407
216.630,393
216.655,396
216.680,401
216.705,389
216.730,359
216.755,322
216.780,284
216.805,242
216.830,193
216.855,144
216.880,93
216.905,33
216.930,-41
216.955,-108
216.980,-123
217.005,-55
217.030,76
217.055,213
217.080,303
217.105,349
217.130,382
217.155,424
217.180,462
217.205,467
217.230,438
217.255,405
217.280,393
217.305,398
217.330,391
217.355,360
217.380,316
217.405,275
217.430,237
217.455,191
217.480,134
217.505,77
217.530,29
217.555,-21
217.580,-92
217.605,-168
217.630,-199
217.655,-142
217.680,-5
217.705,149
217.730,263
217.755,326
217.780,371
217.805,425
217.830,476
217.855,494
217.880,472
217.905,439
217.930,425
217.955,429
217.980,427
218.005,399
218.030,356
218.055,316
218.080,280
218.105,234
218.130,175
218.155,115
218.180,65
218.205,17
218.230,-50
218.255,-134
218.280,-188
218.305,-162
218.330,-48
218.355,105
218.380,234
218.405,311
218.430,358
218.455,402
218.480,443
218.505,462
218.530,450
218.555,426
218.580,411
218.605,408
218.630,400
218.655,373
218.680,335
218.705,300
218.730,265
218.755,219
218.780,160
218.805,103
218.830,59
218.855,15
218.880,-48
218.905,-129
218.930,-179
218.955,-148
218.980,-30
219.005,122
219.030,245
219.055,315
219.080,357
219.105,399
219.130,442
219.155,459
219.180,443
219.205,413
219.230,397
219.255,399
219.280,398
219.305,377
219.330,339
219.355,300
219.380,265
219.405,221
219.430,162
219.455,100
219.480,48
219.505,1
219.530,-61
219.555,-140
219.580,-196
219.605,-176
219.630,-67
219.655,88
219.680,223
219.705,306
219.730,353
219.755,398
219.780,450
219.805,483
219.830,480
219.855,452
219.880,428
219.905,425
219.930,428
219.955,414
219.980,379
220.005,336
220.030,297
220.055,257
220.080,205
220.105,142
220.130,84
220.155,37
220.180,-11
220.205,-80
220.230,-162
220.255,-214
220.280,-190
220.305,-81
220.330,71
220.355,209
220.380,302
220.405,359
220.430,408
220.455,458
220.480,493
220.505,495
220.530,471
220.555,448
220.580,444
220.605,451
220.630,446
220.655,415
220.680,369
220.705,326
220.730,289
220.755,248
220.780,190
220.805,124
220.830,69
220.855,30
220.880,-11
220.905,-79
220.930,-162
220.955,-217
220.980,-196
221.005,-90
221.030,61
221.055,200
221.080,295
221.105,354
221.130,404
221.155,455
221.180,494
221.205,505
221.230,490
221.255,468
221.280,459
221.305,463
221.330,460
221.355,437
221.380,394
221.405,345
221.430,302
221.455,262
221.480,212
221.505,149
221.530,84
221.555,31
221.580,-10
221.605,-60
221.630,-133
221.655,-211
221.680,-247
221.705,-201
221.730,-75
221.755,78
221.780,203
221.805,279
221.830,325
221.855,370
221.880,415
221.905,442
221.930,438
221.955,417
221.980,406
222.005,412
222.030,419
222.055,408
222.080,378
222.105,341
222.130,306
222.155,264
222.180,212
222.205,155
222.230,109
222.255,70
222.280,19
222.305,-56
222.330,-131
222.355,-155
222.380,-92
222.405,39
222.430,184
222.455,293
222.480,356
222.505,399
222.530,442
222.555,477
222.580,488
222.605,472
222.630,446
222.655,433
222.680,437
222.705,441
222.730,427
222.755,393
222.780,349
222.805,307
222.830,265
222.855,216
222.880,155
222.905,89
222.930,33
222.955,-11
222.980,-57
223.005,-120
223.030,-198
223.055,-257
223.080,-250
223.105,-152
223.130,6
223.155,165
223.180,275
223.205,332
223.230,367
223.255,408
223.280,450
223.305,467
223.330,454
223.355,430
223.380,422
223.405,431
223.430,435
223.455,414
223.480,373
223.505,333
223.530,299
223.555,261
223.580,207
223.605,146
223.630,95
223.655,55
223.680,5
223.705,-69
223.730,-146
223.755,-172
223.780,-111
223.805,22
223.830,173
223.855,291
223.880,362
223.905,410
223.930,453
223.955,490
223.980,507
224.005,498
224.030,476
224.055,459
224.080,453
224.105,452
224.130,443
224.155,416
224.180,375
224.205,327
224.230,279
224.255,231
224.280,178
224.305,119
224.330,60
224.355,10
224.380,-32
224.405,-83
224.430,-156
224.455,-233
224.480,-267
224.505,-214
224.530,-77
224.555,87
224.580,217
224.605,291
224.630,331
224.655,372
224.680,416
224.705,439
224.730,429
224.755,404
224.780,392
224.805,401
224.830,410
224.855,397
224.880,364
224.905,330
224.930,302
224.955,266
224.980,214
225.005,154
225.030,104
225.055,63
225.080,9
225.105,-68
225.130,-144
225.155,-161
225.180,-83
225.205,64
225.230,220
225.255,332
225.280,395
225.305,435
225.330,471
225.355,498
225.380,500
225.405,479
225.430,455
225.455,447
225.480,451
225.505,448
225.530,424
225.555,382
225.580,337
225.605,297
225.630,257
225.655,206
225.680,143
225.705,79
225.730,27
225.755,-17
225.780,-72
225.805,-153
225.830,-242
225.855,-295
225.880,-263
225.905,-135
225.930,42
225.955,203
225.980,307
226.005,362
226.030,403
226.055,450
226.080,487
226.105,493
226.130,468
226.155,443
226.180,439
226.205,450
226.230,449
226.255,420
226.280,374
226.305,330
226.330,291
226.355,243
226.380,180
226.405,118
226.430,71
226.455,31
226.480,-28
226.505,-115
226.530,-189
226.555,-188
226.580,-85
226.605,80
226.630,235
226.655,333
226.680,380
226.705,416
226.730,456
226.755,483
226.780,476
226.805,444
226.830,417
226.855,411
226.880,415
226.905,402
226.930,365
226.955,319
226.980,280
227.005,242
227.030,194
227.055,133
227.080,74
227.105,26
227.130,-25
227.155,-100
227.180,-185
227.205,-231
227.230,-188
227.255,-57
227.280,109
227.305,246
227.330,330
227.355,381
227.380,426
227.405,467
227.430,482
227.455,462
227.480,430
227.505,411
227.530,413
227.555,413
227.580,391
227.605,350
227.630,307
227.655,269
227.680,228
227.705,173
227.730,111
227.755,56
227.780,11
227.805,-41
227.830,-117
227.855,-192
227.880,-216
227.905,-150
227.930,-6
227.955,154
227.980,277
228.005,348
228.030,396
228.055,444
228.080,488
228.105,504
228.130,485
228.155,450
228.180,431
228.205,435
228.230,438
228.255,418
228.280,376
228.305,331
228.330,296
228.355,260
228.380,206
228.405,136
228.430,73
228.455,34
228.480,2
228.505,-52
228.530,-139
228.555,-217
228.580,-223
228.605,-128
228.630,33
228.655,194
228.680,306
228.705,372
228.730,421
228.755,472
228.780,514
228.805,526
228.830,511
228.855,488
228.880,479
228.905,484
228.930,485
228.955,467
228.980,429
229.005,383
229.030,338
229.055,295
229.080,249
229.105,194
229.130,133
229.155,72
229.180,19
229.205,-26
229.230,-78
229.255,-146
229.280,-222
229.305,-269
229.330,-242
229.355,-130
229.380,27
229.405,170
229.430,259
229.455,305
229.480,342
229.505,387
229.530,423
229.555,429
229.580,408
229.605,387
229.630,389
229.655,402
229.680,401
229.705,377
229.730,342
229.755,314
229.780,288
229.805,247
229.830,188
229.855,130
229.880,90
229.905,58
229.930,4
229.955,-72
229.980,-132
230.005,-119
230.030,-16
230.055,136
230.080,273
230.105,359
230.130,407
230.155,447
230.180,487
230.205,512
230.230,506
230.255,479
230.280,455
230.305,447
230.330,448
230.355,440
230.380,414
230.405,375
230.430,333
230.455,293
230.480,252
230.505,206
230.530,151
230.555,88
230.580,24
230.605,-28
230.630,-67
230.655,-104
230.680,-159
230.705,-230
230.730,-281
230.755,-262
230.780,-152
230.805,14
230.830,171
230.855,271
230.880,322
230.905,361
230.930,410
230.955,457
230.980,477
231.005,466
231.030,447
231.055,446
231.080,457
231.105,459
231.130,435
231.155,397
231.180,360
231.205,328
231.230,287
231.255,228
231.280,164
231.305,115
231.330,80
231.355,35
231.380,-38
231.405,-123
231.430,-168
231.455,-132
231.480,-14
231.505,136
231.530,268
231.555,353
231.580,403
231.605,441
231.630,476
231.655,500
231.680,503
231.705,487
231.730,466
231.755,454
231.780,451
231.805,444
231.830,421
231.855,382
231.880,337
231.905,296
231.930,254
231.955,199
231.980,132
232.005,65
232.030,12
232.055,-29
232.080,-83
232.105,-162
232.130,-240
232.155,-263
232.180,-195
232.205,-53
232.230,103
232.255,218
232.280,282
232.305,322
232.330,363
232.355,399
232.380,413
232.405,401
232.430,384
232.455,383
232.480,392
232.505,393
232.530,372
232.555,339
232.580,307
232.605,274
232.630,230
232.655,173
232.680,118
232.705,76
232.730,34
232.755,-27
232.780,-103
232.805,-146
232.830,-105
232.855,22
232.880,182
232.905,307
232.930,375
232.955,410
232.980,448
233.005,488
233.030,506
233.055,490
233.080,459
233.105,444
233.130,450
233.155,453
233.180,430
233.205,385
233.230,338
233.255,297
233.280,250
233.305,181
233.330,100
233.355,32
233.380,-15
233.405,-66
233.430,-142
233.455,-228
233.480,-270
233.505,-218
233.530,-79
233.555,86
233.580,217
233.605,295
233.630,348
233.655,403
233.680,460
233.705,493
233.730,489
233.755,464
233.780,447
233.805,448
233.830,450
233.855,435
233.880,401
233.905,364
233.930,332
233.955,294
233.980,240
234.005,173
234.030,112
234.055,66
234.080,20
234.105,-46
234.130,-130
234.155,-188
234.180,-171
234.205,-64
234.230,90
234.255,231
234.280,325
234.305,378
234.330,420
234.355,461
234.380,487
234.405,482
234.430,453
234.455,425
234.480,415
234.505,413
234.530,399
234.555,363
234.580,315
234.605,272
234.630,232
234.655,182
234.680,116
234.705,46
234.730,-10
234.755,-57
234.780,-115
234.805,-192
234.830,-258
234.855,-263
234.880,-179
234.905,-29
234.930,127
234.955,246
234.980,324
235.005,384
235.030,439
235.055,477
235.080,482
235.105,461
235.130,438
235.155,430
235.180,434
235.205,429
235.230,404
235.255,363
235.280,317
235.305,270
235.330,222
235.355,175
235.380,133
235.405,89
235.430,29
235.455,-51
235.480,-124
235.505,-141
235.530,-74
235.555,59
235.580,202
235.605,304
235.630,360
235.655,400
235.680,446
235.705,489
235.730,502
235.755,478
235.780,440
235.805,420
235.830,422
235.855,425
235.880,405
235.905,362
235.930,317
235.955,282
235.980,249
236.005,203
236.030,141
236.055,80
236.080,33
236.105,-7
236.130,-63
236.155,-137
236.180,-196
236.205,-194
236.230,-109
236.255,29
236.280,165
236.305,259
236.330,315
236.355,364
236.380,420
236.405,468
236.430,482
236.455,459
236.480,425
236.505,407
236.530,409
236.555,409
236.580,390
236.605,355
236.630,319
236.655,287
236.680,249
236.705,196
236.730,136
236.755,84
236.780,43
236.805,-6
236.830,-78
236.855,-154
236.880,-186
236.905,-136
236.930,-18
236.955,116
236.980,219
237.005,283
237.030,331
237.055,381
237.080,423
237.105,437
237.130,421
237.155,397
237.180,389
237.205,395
237.230,396
237.255,377
237.280,345
237.305,314
237.330,284
237.355,247
237.380,195
237.405,140
237.430,96
237.455,58
237.480,7
237.505,-63
237.530,-129
237.555,-141
237.580,-74
237.605,50
237.630,181
237.655,277
237.680,335
237.705,380
237.730,428
237.755,469
237.780,483
237.805,467
237.830,440
237.855,426
237.880,428
237.905,427
237.930,406
237.955,367
237.980,322
238.005,282
238.030,242
238.055,195
238.080,142
238.105,92
238.130,50
238.155,4
238.180,-61
238.205,-142
238.230,-200
238.255,-189
238.280,-93
238.305,51
238.330,186
238.355,275
238.380,324
238.405,366
238.430,419
238.455,468
238.480,485
238.505,465
238.530,433
238.555,415
238.580,411
238.605,402
238.630,370
238.655,325
238.680,282
238.705,247
238.730,204
238.755,142
238.780,71
238.805,12
238.830,-28
238.855,-74
238.880,-141
238.905,-211
238.930,-233
238.955,-166
238.980,-20
239.005,153
239.030,299
239.055,403
239.080,476
239.105,532
239.130,569
239.155,579
239.180,570
239.205,560
239.230,556
239.255,549
239.280,523
239.305,481
239.330,438
239.355,402
239.380,364
239.405,307
239.430,236
239.455,167
239.480,110
239.505,52
239.530,-25
239.555,-111
239.580,-160
239.605,-130
239.630,-25
239.655,104
239.680,204
239.705,256
239.730,283
239.755,309
239.780,331
239.805,329
239.830,296
239.855,250
239.880,219
239.905,206
239.930,194
239.955,160
239.980,103
240.005,43
240.030,-5
240.055,-46
240.080,-94
240.105,-147
240.130,-188
240.155,-199
240.180,-180
240.205,-152
240.230,-133
240.255,-113
240.280,-64
240.305,34
240.330,175
240.355,319
240.380,435
240.405,517
240.430,583
240.455,645
240.480,696
240.505,719
240.530,712
240.555,690
240.580,672
240.605,662
240.630,647
240.655,617
240.680,573
240.705,524
240.730,468
240.755,399
240.780,319
240.805,240
240.830,171
240.855,101
240.880,10
240.905,-97
240.930,-178
240.955,-179
240.980,-83
241.005,64
241.030,199
241.055,282
241.080,328
241.105,369
241.130,412
241.155,437
241.180,425
241.205,388
241.230,356
241.255,342
241.280,331
241.305,304
241.330,260
241.355,214
241.380,174
241.405,131
241.430,77
241.455,19
241.480,-27
241.505,-68
241.530,-121
241.555,-197
241.580,-263
241.605,-264
241.630,-174
241.655,-25
241.680,116
241.705,208
241.730,260
241.755,304
241.780,348
241.805,374
241.830,363
241.855,328
241.880,301
241.905,294
241.930,292
241.955,273
241.980,235
242.005,194
242.030,157
242.055,113
242.080,52
242.105,-14
242.130,-68
242.155,-108
242.180,-160
242.205,-237
242.230,-306
242.255,-306
242.280,-204
242.305,-36
242.330,124
242.355,231
242.380,297
242.405,360
242.430,433
242.455,491
242.480,513
242.505,511
242.530,517
242.555,545
242.580,579
242.605,596
242.630,598
242.655,602
242.680,615
242.705,621
242.730,611
242.755,597
242.780,598
242.805,611
242.830,606
242.855,571
242.880,540
242.905,569
242.930,673
242.955,803
242.980,884
243.005,890
243.030,856
243.055,824
243.080,783
243.105,677
243.130,473
243.155,210
243.180,-18
243.205,-144
243.230,-162
243.255,-127
243.280,-101
243.305,-123
243.330,-195
243.355,-291
243.380,-374
243.405,-409
243.430,-402
243.455,-398
243.480,-448
243.505,-552
243.530,-653
243.555,-678
243.580,-612
243.605,-501
243.630,-404
243.655,-335
243.680,-268
243.705,-182
243.730,-91
243.755,-25
243.780,15
243.805,70
243.830,177
243.855,338
243.880,514
243.905,666
243.930,772
243.955,826
243.980,826
244.005,773
244.030,686
244.055,586
244.080,480
244.105,351
244.130,196
244.155,52
244.180,-15
244.205,31
244.230,166
244.255,317
244.280,430
244.305,503
244.330,561
244.355,610
244.380,631
244.405,611
244.430,570
244.455,544
244.480,543
244.505,547
244.530,529
244.555,484
244.580,431
244.605,379
244.630,321
244.655,256
244.680,201
244.705,172
244.730,161
244.755,137
244.780,89
244.805,50
244.830,74
244.855,175
244.880,307
244.905,403
244.930,442
244.955,452
244.980,474
245.005,508
245.030,521
245.055,493
245.080,441
245.105,401
245.130,384
245.155,371
245.180,338
245.205,287
245.230,230
245.255,173
245.280,106
245.305,19
245.330,-76
245.355,-170
245.380,-262
245.405,-365
245.430,-474
245.455,-553
245.480,-555
245.505,-476
245.530,-363
245.555,-278
245.580,-245
245.605,-238
245.630,-220
245.655,-187
245.680,-162
245.705,-163
245.730,-174
245.755,-155
245.780,-90
245.805,4
245.830,99
245.855,181
245.880,263
245.905,354
245.930,440
245.955,497
245.980,516
246.005,511
246.030,502
246.055,485
246.080,440
246.105,366
246.130,304
246.155,304
246.180,381
246.205,496
246.230,584
246.255,616
246.280,617
246.305,626
246.330,653
246.355,669
246.380,651
246.405,609
246.430,576
246.455,572
246.480,579
246.505,569
246.530,535
246.555,496
246.580,469
246.605,448
246.630,415
246.655,369
246.680,324
246.705,286
246.730,239
246.755,165
246.780,86
246.805,61
246.830,134
246.855,286
246.880,440
246.905,530
246.930,548
246.955,537
246.980,529
247.005,518
247.030,474
247.055,393
247.080,301
247.105,228
247.130,175
247.155,119
247.180,47
247.205,-32
247.230,-105
247.255,-170
247.280,-235
247.305,-297
247.330,-345
247.355,-375
247.380,-405
247.405,-450
247.430,-486
247.455,-459
247.480,-332
247.505,-127
247.530,83
247.555,239
247.580,339
247.605,420
247.630,506
247.655,577
247.680,596
247.705,553
247.730,477
247.755,407
247.780,354
247.805,306
247.830,256
247.855,211
247.880,180
247.905,153
247.930,114
247.955,61
247.980,12
248.005,-17
248.030,-41
248.055,-84
248.080,-145
248.105,-181
248.130,-141
248.155,-15
248.180,151
248.205,293
248.230,384
248.255,442
248.280,501
248.305,564
248.330,605
248.355,607
248.380,583
248.405,562
248.430,559
248.455,560
248.480,541
248.505,499
248.530,451
248.555,409
248.580,366
248.605,309
248.630,242
248.655,181
248.680,133
248.705,80
248.730,0
248.755,-98
248.780,-167
248.805,-154
248.830,-55
248.855,84
248.880,201
248.905,270
248.930,307
248.955,337
248.980,364
249.005,373
249.030,355
249.055,322
249.080,295
249.105,281
249.130,269
249.155,247
249.180,213
249.205,170
249.230,120
249.255,61
249.280,3
249.305,-42
249.330,-74
249.355,-105
249.380,-147
249.405,-179
249.430,-156
249.455,-44
249.480,137
249.505,325
249.530,462
249.555,537
249.580,581
249.605,615
249.630,631
249.655,611
249.680,557
249.705,503
249.730,474
249.755,462
249.780,439
249.805,394
249.830,348
249.855,328
249.880,332
249.905,326
249.930,285
249.955,214
249.980,134
250.005,52
250.030,-42
250.055,-152
250.080,-238
250.105,-249
250.130,-166
250.155,-29
250.180,99
250.205,183
250.230,232
250.255,269
250.280,300
250.305,309
250.330,292
250.355,267
250.380,259
250.405,268
250.430,275
250.455,265
250.480,249
250.505,250
250.530,274
250.555,299
250.580,303
250.605,283
250.630,248
250.655,197
250.680,121
250.705,21
250.730,-62
250.755,-76
250.780,3
250.805,143
250.830,274
250.855,355
250.880,391
250.905,412
250.930,435
250.955,447
250.980,437
251.005,414
251.030,405
251.055,419
251.080,444
251.105,464
251.130,480
251.155,495
251.180,499
251.205,462
251.230,369
251.255,239
251.280,120
251.305,36
251.330,-28
251.355,-101
251.380,-179
251.405,-213
251.430,-158
251.455,-23
251.480,127
251.505,234
251.530,282
251.555,300
251.580,313
251.605,320
251.630,304
251.655,268
251.680,236
251.705,223
251.730,223
251.755,216
251.780,195
251.805,170
251.830,153
251.855,137
251.880,112
251.905,78
251.930,46
251.955,17
251.980,-26
252.005,-95
252.030,-167
252.055,-186
252.080,-113
252.105,35
252.130,200
252.155,326
252.180,399
252.205,440
252.230,470
252.255,493
252.280,501
252.305,500
252.330,504
252.355,521
252.380,543
252.405,555
252.430,546
252.455,516
252.480,472
252.505,419
252.530,365
252.555,313
252.580,256
252.605,179
252.630,84
252.655,0
252.680,-28
252.705,28
252.730,150
252.755,283
252.780,377
252.805,418
252.830,424
252.855,418
252.880,407
252.905,385
252.930,351
252.955,314
252.980,282
253.005,259
253.030,235
253.055,201
253.080,149
253.105,84
253.130,17
253.155,-38
253.180,-87
253.205,-147
253.230,-232
253.255,-325
253.280,-381
253.305,-353
253.330,-239
253.355,-81
253.380,63
253.405,166
253.430,229
253.455,267
253.480,286
253.505,289
253.530,290
253.555,312
253.580,362
253.605,432
253.630,502
253.655,555
253.680,579
253.705,558
253.730,484
253.755,375
253.780,269
253.805,196
253.830,144
253.855,78
253.880,-5
253.905,-48
253.930,18
253.955,202
253.980,424
254.005,584
254.030,650
254.055,668
254.080,688
254.105,704
254.130,659
254.155,526
254.180,347
254.205,198
254.230,117
254.255,85
254.280,60
254.305,27
254.330,0
254.355,-12
254.380,-15
254.405,-21
254.430,-31
254.455,-49
254.480,-89
254.505,-157
254.530,-226
254.555,-237
254.580,-150
254.605,11
254.630,174
254.655,280
254.680,331
254.705,370
254.730,416
254.755,447
254.780,433
254.805,384
254.830,342
254.855,331
254.880,336
254.905,321
254.930,281
254.955,239
254.980,216
255.005,206
255.030,192
255.055,177
255.080,177
255.105,189
255.130,180
255.155,121
255.180,36
255.205,-1
255.230,59
255.255,204
255.280,363
255.305,474
255.330,531
255.355,564
255.380,596
255.405,615
255.430,606
255.455,575
255.480,543
255.505,525
255.530,511
255.555,486
255.580,450
255.605,409
255.630,364
255.655,311
255.680,249
255.705,186
255.730,128
255.755,62
255.780,-25
255.805,-123
255.830,-189
255.855,-180
255.880,-95
255.905,18
255.930,106
255.955,146
255.980,160
256.005,173
256.030,189
256.055,192
256.080,176
256.105,154
256.130,149
256.155,164
256.180,178
256.205,169
256.230,132
256.255,83
256.280,45
256.305,21
256.330,-2
256.355,-50
256.380,-132
256.405,-221
256.430,-268
256.455,-226
256.480,-85
256.505,120
256.530,338
256.555,525
256.580,665
256.605,756
256.630,798
256.655,787
256.680,732
256.705,667
256.730,626
256.755,627
256.780,646
256.805,632
256.830,542
256.855,368
256.880,148
256.905,-60
256.930,-215
256.955,-307
256.980,-354
257.005,-374
257.030,-365
257.055,-312
257.080,-205
257.105,-62
257.130,82
257.155,200
257.180,284
257.205,343
257.230,383
257.255,406
257.280,412
257.305,410
257.330,409
257.355,414
257.380,416
257.405,405
257.430,375
257.455,332
257.480,284
257.505,242
257.530,207
257.555,175
257.580,131
257.605,67
257.630,-6
257.655,-51
257.680,-26
257.705,77
257.730,218
257.755,336
257.780,396
257.805,410
257.830,407
257.855,407
257.880,404
257.905,389
257.930,370
257.955,362
257.980,369
258.005,379
258.030,376
258.055,357
258.080,326
258.105,289
258.130,243
258.155,193
258.180,144
258.205,95
258.230,36
258.255,-41
258.280,-115
258.305,-136
258.330,-67
258.355,74
258.380,226
258.405,336
258.430,396
258.455,437
258.480,483
258.505,521
258.530,532
258.555,517
258.580,503
258.605,509
258.630,520
258.655,510
258.680,471
258.705,421
258.730,375
258.755,320
258.780,234
258.805,121
258.830,14
258.855,-59
258.880,-118
258.905,-202
258.930,-320
258.955,-419
258.980,-433
259.005,-345
259.030,-210
259.055,-100
259.080,-41
259.105,0
259.130,58
259.155,131
259.180,183
259.205,197
259.230,199
259.255,231
259.280,312
259.305,426
259.330,549
259.355,661
259.380,747
259.405,783
259.430,752
259.455,665
259.480,560
259.505,460
259.530,352
259.555,205
259.580,30
259.605,-99
259.630,-103
259.655,27
259.680,215
259.705,357
259.730,410
259.755,410
259.780,412
259.805,429
259.830,433
259.855,406
259.880,375
259.905,373
259.930,397
259.955,403
259.980,353
260.005,262
260.030,177
260.055,126
260.080,93
260.105,44
260.130,-26
260.155,-96
260.180,-153
260.205,-211
260.230,-295
260.255,-387
260.280,-431
260.305,-378
260.330,-239
260.355,-79
260.380,43
260.405,115
260.430,167
260.455,218
260.480,261
260.505,277
260.530,267
260.555,259
260.580,275
260.605,307
260.630,335
260.655,342
260.680,336
260.705,330
260.730,331
260.755,347
260.780,389
260.805,457
260.830,525
260.855,541
260.880,478
260.905,369
260.930,294
260.955,315
260.980,423
261.005,546
261.030,620
261.055,638
261.080,639
261.105,650
261.130,657
261.155,629
261.180,565
