df_hash,22ZHK4.1R5J5W
device,HZ2X61
project_hash,29R7
project_name,istanbul_aydin_university
person_hash,29R7.5LYG
person_label,v126real
date_time_start,2026-04-07_17-04-33.134000_+03
date_time_start_unix,1775563473.134
date_time_end,2026-04-07_17-12-49.773000_+03
length_difference_noticed,no

time,ppg_ir,ppg_ambient,ppg_red
5.135,184707,178,94034
5.140,184725,178,94029
5.145,184703,179,94023
5.149,184712,179,94018
5.154,184698,177,94013
5.159,184700,177,94023
5.164,184706,175,94019
5.169,184704,175,94008
5.174,184698,173,94009
5.179,184682,174,94013
5.184,184705,178,94001
5.189,184701,179,93998
5.194,184699,173,94003
5.199,184694,180,93990
5.204,184694,178,93993
5.209,184699,178,94001
5.214,184685,175,93990
5.219,184701,175,93995
5.224,184684,173,93988
5.229,184689,181,93986
5.234,184680,178,93976
5.239,184691,178,93983
5.244,184692,179,93979
5.249,184682,180,93978
5.254,184677,176,93976
5.259,184670,177,93972
5.264,184644,174,93961
5.269,184645,175,93957
5.274,184636,172,93958
5.279,184630,179,93950
5.284,184628,176,93946
5.289,184626,178,93937
5.293,184627,174,93933
5.298,184623,175,93931
5.303,184631,179,93927
5.308,184620,179,93926
5.313,184620,176,93917
5.318,184611,177,93924
5.323,184611,175,93915
5.328,184618,176,93924
5.333,184606,173,93898
5.338,184616,181,93903
5.343,184614,177,93898
5.348,184627,177,93904
5.353,184612,175,93898
5.358,184614,175,93863
5.363,184612,173,93898
5.368,184619,180,93884
5.373,184609,177,93885
5.378,184621,177,93879
5.383,184627,174,93872
5.388,184639,175,93834
5.393,184606,175,93882
5.398,184614,176,93857
5.403,184643,173,93855
5.408,184623,181,93852
5.413,184632,178,93860
5.418,184629,179,93853
5.423,184629,176,93842
5.428,184637,176,93846
5.432,184652,174,93856
5.437,184671,178,93849
5.442,184671,176,93843
5.447,184672,176,93843
5.452,184685,173,93844
5.457,184663,174,93839
5.462,184704,179,93841
5.467,184700,180,93838
5.472,184709,177,93831
5.477,184702,178,93827
5.482,184712,176,93834
5.487,184734,180,93843
5.492,184741,177,93835
5.497,184732,178,93831
5.502,184750,176,93845
5.507,184758,177,93828
5.512,184778,174,93827
5.517,184785,175,93834
5.522,184800,180,93828
5.527,184807,180,93836
5.532,184809,177,93833
5.537,184834,174,93830
5.542,184820,179,93830
5.547,184848,179,93825
5.552,184854,176,93833
5.557,184857,176,93834
5.562,184869,174,93825
5.567,184893,173,93827
5.572,184887,179,93817
5.576,184881,179,93828
5.581,184902,177,93825
5.586,184911,177,93815
5.591,184915,174,93819
5.596,184922,175,93820
5.601,184938,180,93824
5.606,184936,179,93823
5.611,184952,176,93814
5.616,184959,176,93824
5.621,184989,175,93807
5.626,184990,175,93822
5.631,184987,174,93826
5.636,184994,176,93818
5.641,185012,175,93809
5.646,185014,174,93806
5.651,185025,180,93815
5.656,185027,179,93813
5.661,185040,177,93807
5.666,185037,177,93798
5.671,185053,175,93799
5.676,185047,174,93789
5.681,185058,173,93783
5.686,185073,175,93767
5.691,185061,173,93767
5.696,185066,181,93763
5.701,185085,179,93759
5.706,185083,177,93750
5.711,185072,176,93745
5.716,185074,175,93738
5.720,185080,174,93738
5.725,185097,180,93735
5.730,185098,175,93712
5.735,185101,174,93711
5.740,185121,174,93716
5.745,185096,180,93701
5.750,185123,179,93722
5.755,185124,177,93702
5.760,185135,176,93698
5.765,185116,175,93686
5.770,185131,174,93663
5.775,185118,180,93643
5.780,185100,174,93625
5.785,185090,174,93602
5.790,185049,180,93563
5.795,185034,178,93532
5.800,184982,178,93486
5.805,184944,175,93453
5.810,184934,175,93410
5.815,184901,174,93373
5.820,184868,174,93344
5.825,184839,180,93313
5.830,184810,175,93278
5.835,184802,174,93247
5.840,184789,175,93218
5.845,184766,173,93183
5.850,184743,180,93153
5.855,184702,178,93113
5.859,184661,178,93073
5.864,184623,177,93019
5.869,184593,177,92985
5.874,184540,175,92937
5.879,184494,179,92914
5.884,184438,177,92881
5.889,184397,177,92870
5.894,184359,175,92840
5.899,184295,174,92813
5.904,184230,180,92787
5.909,184156,179,92758
5.914,184117,176,92727
5.919,184051,176,92699
5.924,183983,176,92678
5.929,183918,176,92651
5.934,183877,174,92620
5.939,183805,174,92591
5.944,183772,178,92562
5.949,183702,178,92539
5.954,183658,177,92512
5.959,183629,177,92479
5.964,183587,174,92461
5.969,183553,174,92446
5.974,183541,175,92420
5.979,183502,176,92410
5.984,183460,173,92403
5.989,183460,180,92398
5.994,183454,178,92392
5.999,183454,178,92394
6.003,183440,175,92389
6.008,183420,175,92390
6.013,183429,179,92384
6.018,183413,180,92392
6.023,183408,173,92383
6.028,183387,181,92383
6.033,183390,177,92371
6.038,183365,177,92372
6.043,183349,174,92360
6.048,183328,175,92347
6.053,183338,178,92355
6.058,183317,178,92351
6.063,183277,175,92331
6.068,183284,176,92335
6.073,183262,176,92329
6.078,183244,176,92317
6.083,183262,174,92328
6.088,183264,174,92325
6.093,183254,178,92328
6.098,183244,178,92324
6.103,183252,175,92305
6.108,183250,176,92322
6.113,183263,173,92331
6.118,183265,179,92328
6.123,183279,174,92318
6.128,183255,174,92319
6.133,183260,178,92310
6.138,183244,179,92303
6.142,183241,175,92290
6.147,183228,175,92301
6.152,183221,179,92296
6.157,183229,179,92289
6.162,183220,176,92286
6.167,183227,176,92281
6.172,183229,176,92294
6.177,183207,176,92285
6.182,183233,173,92289
6.187,183242,180,92288
6.192,183221,178,92296
6.197,183219,178,92285
6.202,183240,175,92293
6.207,183221,176,92298
6.212,183222,174,92291
6.217,183215,178,92283
6.222,183222,177,92285
6.227,183206,177,92286
6.232,183219,174,92294
6.237,183214,175,92288
6.242,183214,179,92292
6.247,183202,180,92287
6.252,183215,177,92295
6.257,183227,178,92295
6.262,183222,175,92289
6.267,183237,179,92282
6.272,183242,174,92292
6.277,183241,174,92297
6.282,183242,179,92298
6.286,183264,180,92299
6.291,183280,177,92312
6.296,183279,177,92321
6.301,183288,174,92324
6.306,183308,174,92337
6.311,183319,180,92348
6.316,183347,175,92353
6.321,183376,173,92358
6.326,183363,181,92371
6.331,183380,178,92378
6.336,183421,179,92394
6.341,183435,176,92401
6.346,183423,176,92401
6.351,183455,174,92422
6.356,183474,175,92434
6.361,183489,180,92441
6.366,183510,176,92441
6.371,183537,174,92449
6.376,183535,181,92457
6.381,183556,179,92456
6.386,183569,177,92467
6.391,183570,175,92471
6.396,183578,175,92477
6.401,183597,180,92473
6.406,183605,179,92487
6.411,183623,177,92485
6.416,183619,180,92471
6.421,183632,177,92478
6.425,183637,176,92481
6.430,183652,175,92477
6.435,183645,174,92467
6.440,183648,179,92487
6.445,183654,177,92481
6.450,183658,175,92487
6.455,183689,175,92492
6.460,183712,174,92497
6.465,183710,177,92506
6.470,183732,175,92507
6.475,183744,175,92511
6.480,183756,173,92514
6.485,183766,180,92512
6.490,183789,178,92520
6.495,183794,177,92513
6.500,183812,176,92525
6.505,183805,176,92538
6.510,183814,174,92541
6.515,183861,176,92550
6.520,183872,175,92547
6.525,183884,174,92552
6.530,183896,179,92556
6.535,183923,177,92571
6.540,183923,176,92575
6.545,183952,175,92576
6.550,183957,180,92589
6.555,183962,179,92593
6.560,184012,174,92604
6.565,184013,180,92606
6.569,183994,178,92613
6.574,184052,177,92617
6.579,184043,176,92624
6.584,184055,174,92620
6.589,184096,180,92628
6.594,184093,177,92627
6.599,184099,176,92642
6.604,184120,175,92637
6.609,184142,176,92659
6.614,184145,175,92644
6.619,184164,174,92652
6.624,184175,180,92648
6.629,184191,179,92659
6.634,184192,176,92661
6.639,184205,176,92667
6.644,184219,175,92660
6.649,184245,175,92674
6.654,184249,174,92675
6.659,184257,177,92678
6.664,184277,176,92684
6.669,184280,176,92691
6.674,184304,174,92683
6.679,184316,180,92690
6.684,184321,177,92697
6.689,184352,177,92704
6.694,184358,176,92718
6.699,184397,176,92730
6.704,184422,174,92738
6.708,184427,180,92744
6.713,184428,178,92753
6.718,184454,178,92766
6.723,184473,176,92756
6.728,184487,176,92776
6.733,184505,174,92773
6.738,184499,174,92768
6.743,184501,178,92773
6.748,184493,179,92771
6.753,184480,179,92733
6.758,184459,174,92763
6.763,184445,179,92751
6.768,184435,180,92756
6.773,184409,177,92744
6.778,184366,177,92750
6.783,184310,174,92730
6.788,184276,174,92715
6.793,184231,179,92698
6.798,184187,179,92680
6.803,184130,179,92688
6.808,184108,179,92681
6.813,184085,177,92674
6.818,184059,177,92682
6.823,184019,174,92647
6.828,183984,174,92641
6.833,183947,179,92627
6.838,183910,179,92618
6.843,183881,176,92607
6.848,183859,177,92607
6.852,183852,178,92603
6.857,183833,174,92597
6.862,183808,179,92581
6.867,183794,179,92588
6.872,183781,177,92582
6.877,183786,178,92598
6.882,183779,175,92602
6.887,183772,175,92587
6.892,183782,173,92595
6.897,183783,180,92604
6.902,183785,174,92605
6.907,183773,174,92606
6.912,183771,179,92608
6.917,183751,180,92594
6.922,183749,177,92606
6.927,183751,178,92604
6.932,183731,175,92603
6.937,183732,175,92575
6.942,183724,173,92600
6.947,183717,178,92585
6.952,183706,174,92591
6.957,183713,181,92588
6.962,183725,178,92600
6.967,183722,178,92599
6.972,183724,175,92606
6.977,183732,175,92605
6.982,183732,179,92602
6.987,183746,178,92599
6.991,183759,175,92610
6.996,183748,183,92596
7.001,183770,176,92600
7.006,183763,176,92595
7.011,183752,173,92606
7.016,183758,180,92584
7.021,183760,176,92587
7.026,183753,177,92581
7.031,183751,174,92586
7.036,183729,182,92581
7.041,183727,178,92574
7.046,183714,178,92560
7.051,183717,179,92555
7.056,183710,180,92561
7.061,183691,177,92550
7.066,183682,178,92540
7.071,183672,176,92547
7.076,183667,177,92524
7.081,183650,180,92529
7.086,183643,176,92526
7.091,183637,174,92524
7.096,183633,178,92507
7.101,183628,173,92511
7.106,183640,181,92520
7.111,183606,178,92507
7.116,183600,179,92511
7.121,183599,176,92499
7.126,183587,176,92490
7.131,183589,173,92499
7.135,183576,180,92493
7.140,183585,178,92476
7.145,183581,179,92480
7.150,183577,173,92477
7.155,183544,181,92474
7.160,183567,179,92464
7.165,183561,178,92468
7.170,183557,176,92461
7.175,183550,177,92455
7.180,183547,176,92462
7.185,183555,175,92449
7.190,183547,173,92462
7.195,183549,177,92458
7.200,183567,175,92449
7.205,183566,174,92437
7.210,183568,180,92446
7.215,183561,179,92429
7.220,183578,177,92441
7.225,183581,177,92445
7.230,183582,176,92453
7.235,183588,175,92433
7.240,183593,174,92434
7.245,183574,180,92439
7.250,183590,174,92422
7.255,183586,174,92429
7.260,183587,173,92415
7.265,183603,180,92414
7.270,183591,178,92420
7.274,183606,178,92432
7.279,183607,177,92421
7.284,183628,177,92414
7.289,183619,176,92405
7.294,183634,178,92407
7.299,183629,177,92403
7.304,183632,176,92403
7.309,183631,175,92407
7.314,183639,177,92401
7.319,183619,180,92397
7.324,183647,179,92388
7.329,183655,177,92400
7.334,183652,176,92387
7.339,183631,176,92385
7.344,183668,178,92391
7.349,183663,177,92388
7.354,183683,176,92394
7.359,183697,175,92389
7.364,183690,174,92386
7.369,183699,180,92387
7.374,183705,179,92397
7.379,183733,177,92397
7.384,183733,176,92414
7.389,183782,180,92411
7.394,183780,175,92413
7.399,183793,174,92430
7.404,183804,180,92437
7.409,183809,178,92434
7.414,183842,177,92454
7.418,183853,176,92444
7.423,183864,174,92455
7.428,183882,174,92461
7.433,183889,180,92466
7.438,183928,172,92467
7.443,183921,176,92460
7.448,183937,176,92474
7.453,183946,174,92476
7.458,183955,181,92476
7.463,183960,182,92487
7.468,184008,177,92486
7.473,184003,175,92494
7.478,184023,175,92496
7.483,184030,173,92516
7.488,184062,176,92515
7.493,184071,174,92508
7.498,184078,174,92517
7.503,184107,179,92525
7.508,184099,179,92523
7.513,184130,176,92537
7.518,184118,176,92533
7.523,184135,174,92538
7.528,184125,181,92521
7.533,184121,178,92524
7.538,184097,174,92504
7.543,184054,179,92500
7.548,184030,179,92489
7.553,184017,177,92486
7.558,183967,176,92472
7.562,183919,174,92469
7.567,183893,175,92456
7.572,183857,179,92442
7.577,183808,180,92434
7.582,183753,181,92392
7.587,183709,174,92405
7.592,183665,180,92396
7.597,183640,181,92393
7.602,183587,178,92385
7.607,183549,178,92366
7.612,183522,176,92361
7.617,183489,177,92352
7.622,183472,175,92335
7.627,183418,175,92323
7.632,183444,175,92316
7.637,183392,176,92316
7.642,183342,173,92303
7.647,183344,180,92301
7.652,183332,176,92310
7.657,183334,176,92300
7.662,183326,173,92302
7.667,183298,181,92298
7.672,183298,177,92302
7.677,183277,177,92303
7.682,183279,177,92305
7.687,183263,177,92311
7.692,183249,173,92307
7.697,183250,181,92307
7.701,183244,178,92306
7.706,183244,177,92306
7.711,183233,174,92306
7.716,183217,174,92305
7.721,183203,178,92304
7.726,183176,177,92292
7.731,183178,178,92292
7.736,183173,178,92297
7.741,183158,174,92294
7.746,183171,174,92299
7.751,183166,177,92296
7.756,183162,178,92292
7.761,183162,174,92297
7.766,183185,175,92304
7.771,183184,172,92311
7.776,183190,180,92297
7.781,183194,177,92310
7.786,183208,178,92314
7.791,183220,175,92320
7.796,183229,175,92305
7.801,183200,179,92311
7.806,183240,179,92313
7.811,183220,176,92312
7.816,183233,176,92321
7.821,183214,173,92320
7.826,183218,174,92312
7.831,183217,174,92299
7.836,183219,175,92306
7.841,183213,173,92298
7.845,183201,180,92299
7.850,183202,177,92298
7.855,183187,177,92306
7.860,183176,175,92290
7.865,183153,175,92292
7.870,183175,173,92300
7.875,183163,178,92290
7.880,183160,173,92280
7.885,183127,180,92276
7.890,183127,176,92278
7.895,183140,177,92266
7.900,183129,174,92267
7.905,183134,175,92269
7.910,183115,179,92270
7.915,183111,179,92261
7.920,183107,177,92259
7.925,183090,180,92253
7.930,183090,177,92248
7.935,183096,177,92242
7.940,183096,174,92252
7.945,183064,174,92246
7.950,183094,179,92255
7.955,183096,178,92250
7.960,183096,175,92245
7.965,183102,175,92248
7.970,183107,179,92247
7.975,183103,175,92249
7.980,183102,173,92241
7.984,183118,179,92246
7.989,183111,177,92259
7.994,183120,176,92240
7.999,183103,174,92242
8.004,183127,181,92238
8.009,183129,178,92242
8.014,183123,177,92243
8.019,183131,174,92234
8.024,183137,177,92242
8.029,183145,175,92238
8.034,183153,181,92240
8.039,183164,178,92238
8.044,183175,177,92238
8.049,183157,175,92246
8.054,183175,175,92236
8.059,183188,173,92233
8.064,183186,179,92231
8.069,183184,177,92226
8.074,183184,180,92218
8.079,183194,178,92228
8.084,183180,177,92215
8.089,183179,175,92216
8.094,183181,181,92211
8.099,183191,178,92205
8.104,183201,177,92206
8.109,183193,176,92196
8.114,183209,175,92195
8.119,183201,174,92211
8.124,183212,176,92203
8.128,183223,174,92201
8.133,183226,180,92188
8.138,183221,178,92192
8.143,183228,176,92178
8.148,183241,175,92187
8.153,183245,174,92185
8.158,183260,180,92188
8.163,183250,178,92176
8.168,183258,175,92187
8.173,183279,178,92184
8.178,183280,177,92182
8.183,183285,174,92187
8.188,183290,173,92192
8.193,183305,179,92197
8.198,183314,178,92193
8.203,183331,176,92184
8.208,183334,174,92189
8.213,183344,180,92184
8.218,183375,176,92191
8.223,183361,176,92200
8.228,183362,175,92202
8.233,183380,173,92202
8.238,183384,179,92203
8.243,183382,177,92189
8.248,183403,176,92197
8.253,183416,174,92198
8.258,183430,181,92205
8.263,183442,178,92207
8.267,183451,181,92218
8.272,183464,178,92219
8.277,183494,179,92227
8.282,183510,176,92234
8.287,183517,176,92239
8.292,183542,174,92240
8.297,183538,181,92251
8.302,183559,178,92245
8.307,183575,177,92244
8.312,183545,175,92229
8.317,183527,174,92229
8.322,183493,179,92221
8.327,183484,178,92225
8.332,183456,176,92202
8.337,183436,176,92202
8.342,183412,174,92196
8.347,183379,174,92196
8.352,183335,178,92181
8.357,183282,178,92176
8.362,183247,175,92169
8.367,183175,180,92155
8.372,183159,177,92161
8.377,183114,177,92134
8.382,183052,174,92122
8.387,183045,174,92118
8.392,182979,179,92109
8.397,182943,179,92093
8.402,182886,176,92078
8.407,182878,176,92066
8.411,182847,176,92114
8.416,182808,177,92047
8.421,182776,175,92035
8.426,182771,176,92027
8.431,182749,173,92015
8.436,182724,181,92016
8.441,182707,178,92013
8.446,182693,179,92009
8.451,182694,176,92006
8.456,182673,176,91999
8.461,182688,176,91999
8.466,182648,176,92010
8.471,182643,173,92011
8.476,182628,175,92008
8.481,182613,179,92006
8.486,182597,179,91994
8.491,182577,176,91991
8.496,182573,176,91985
8.501,182557,174,91982
8.506,182541,175,91970
8.511,182520,179,91977
8.516,182489,180,91954
8.521,182485,177,91955
8.526,182482,177,91946
8.531,182462,175,91941
8.536,182437,175,91936
8.541,182446,172,91936
8.546,182457,179,91936
8.550,182461,175,91951
8.555,182459,176,91960
8.560,182466,175,91959
8.565,182483,175,91958
8.570,182475,172,91967
8.575,182473,180,91952
8.580,182486,176,91958
8.585,182482,176,91967
8.590,182496,173,91956
8.595,182481,181,91958
8.600,182474,177,91949
8.605,182468,177,91948
8.610,182476,177,91942
8.615,182462,177,91940
8.620,182455,174,91947
8.625,182465,174,91935
8.630,182452,178,91941
8.635,182470,178,91943
8.640,182450,175,91940
8.645,182449,175,91943
8.650,182445,179,91932
8.655,182444,179,91936
8.660,182436,179,91933
8.665,182423,179,91929
8.670,182431,176,91930
8.675,182429,176,91930
8.680,182403,173,91931
8.685,182433,181,91922
8.690,182408,178,91931
8.694,182410,178,91924
8.699,182435,175,91928
8.704,182412,177,91932
8.709,182407,176,91929
8.714,182402,176,91930
8.719,182404,173,91936
8.724,182412,180,91933
8.729,182430,177,91929
8.734,182428,177,91932
8.739,182435,175,91940
8.744,182448,175,91953
8.749,182449,173,91945
8.754,182472,175,91953
8.759,182478,174,91961
8.764,182475,174,91965
8.769,182495,179,91977
8.774,182502,179,91971
8.779,182520,177,91987
8.784,182518,176,91984
8.789,182541,174,91995
8.794,182536,174,92000
8.799,182547,180,91992
8.804,182572,175,92001
8.809,182569,174,92012
8.814,182580,174,92012
8.819,182589,179,92021
8.824,182612,179,92031
8.829,182630,177,92025
8.833,182640,176,92044
8.838,182636,174,92042
8.843,182670,174,92049
8.848,182671,179,92045
8.853,182680,174,92057
8.858,182687,178,92056
8.863,182702,177,92076
8.868,182730,176,92067
8.873,182733,175,92081
8.878,182756,174,92077
8.883,182767,179,92101
8.888,182776,179,92103
8.893,182790,177,92096
8.898,182786,176,92099
8.903,182822,174,92104
8.908,182815,180,92112
8.913,182823,179,92113
8.918,182842,176,92119
8.923,182860,175,92117
8.928,182863,175,92124
8.933,182877,174,92136
8.938,182900,179,92144
8.943,182902,178,92132
8.948,182930,177,92133
8.953,182935,175,92153
8.958,182942,175,92161
8.963,182964,180,92162
8.968,182991,178,92175
8.973,183000,177,92187
8.977,183027,175,92186
8.982,183037,175,92191
8.987,183054,174,92186
8.992,183065,179,92213
8.997,183072,174,92216
9.002,183109,179,92219
9.007,183114,177,92236
9.012,183128,175,92223
9.017,183140,174,92237
9.022,183155,177,92243
9.027,183174,176,92230
9.032,183176,174,92259
9.037,183190,180,92254
9.042,183206,178,92254
9.047,183210,180,92258
9.052,183236,178,92265
9.057,183239,178,92270
9.062,183273,176,92282
9.067,183281,175,92283
9.072,183295,174,92293
9.077,183314,174,92289
9.082,183314,178,92290
9.087,183330,177,92292
9.092,183321,175,92290
9.097,183307,177,92272
9.102,183291,175,92263
9.107,183280,174,92263
9.112,183239,179,92248
9.116,183217,178,92231
9.121,183170,176,92231
9.126,183141,175,92216
9.131,183116,173,92207
9.136,183053,179,92207
9.141,183016,176,92186
9.146,182957,180,92177
9.151,182920,176,92161
9.156,182878,175,92153
9.161,182822,173,92145
9.166,182782,179,92136
9.171,182778,175,92134
9.176,182725,175,92123
9.181,182688,179,92117
9.186,182665,179,92098
9.191,182628,176,92096
9.196,182604,180,92087
9.201,182591,177,92078
9.206,182572,176,92078
9.211,182548,173,92073
9.216,182526,180,92067
9.221,182532,177,92075
9.226,182514,176,92087
9.231,182533,174,92089
9.236,182514,181,92085
9.241,182531,178,92085
9.246,182520,174,92117
9.251,182511,178,92113
9.256,182509,177,92121
9.260,182521,175,92131
9.265,182519,176,92135
9.270,182524,173,92150
9.275,182534,174,92157
9.280,182519,179,92169
9.285,182535,180,92159
9.290,182534,172,92164
9.295,182538,175,92169
9.300,182528,172,92189
9.305,182533,180,92187
9.310,182548,177,92189
9.315,182546,178,92198
9.320,182571,176,92206
9.325,182572,176,92229
9.330,182578,174,92238
9.335,182605,175,92247
9.340,182645,176,92271
9.345,182664,181,92270
9.350,182683,178,92289
9.355,182683,178,92298
9.360,182714,183,92302
9.365,182707,176,92307
9.370,182732,173,92304
9.375,182721,181,92318
9.380,182733,177,92324
9.385,182742,178,92318
9.390,182769,179,92326
9.395,182741,179,92333
9.399,182770,176,92332
9.404,182775,177,92345
9.409,182786,174,92352
9.414,182796,175,92368
9.419,182817,179,92381
9.424,182819,179,92391
9.429,182827,175,92402
9.434,182862,176,92419
9.439,182882,176,92443
9.444,182886,176,92464
9.449,182938,173,92504
9.454,182972,180,92530
9.459,183019,176,92573
9.464,183053,176,92611
9.469,183108,173,92643
9.474,183140,181,92677
9.479,183181,178,92711
9.484,183213,178,92740
9.489,183236,179,92768
9.494,183263,179,92793
9.499,183283,177,92805
9.504,183292,177,92813
9.509,183316,174,92826
9.514,183321,175,92834
9.519,183345,180,92848
9.524,183332,179,92858
9.529,183322,176,92859
9.534,183327,180,92839
9.539,183333,176,92845
9.543,183336,176,92848
9.548,183332,174,92850
9.553,183343,174,92846
9.558,183321,179,92833
9.563,183329,179,92837
9.568,183312,176,92830
9.573,183315,176,92828
9.578,183331,174,92812
9.583,183335,176,92808
9.588,183354,175,92821
9.593,183352,175,92820
9.598,183342,174,92813
9.603,183346,174,92809
9.608,183361,179,92814
9.613,183359,178,92805
9.618,183379,176,92820
9.623,183367,175,92813
9.628,183388,173,92825
9.633,183421,177,92845
9.638,183432,178,92831
9.643,183429,177,92843
9.648,183448,175,92837
9.653,183467,174,92854
9.658,183494,180,92858
9.663,183505,179,92870
9.668,183533,177,92888
9.673,183540,176,92895
9.678,183554,174,92907
9.683,183595,177,92930
9.687,183635,176,92942
9.692,183647,175,92959
9.697,183693,174,92967
9.702,183706,180,92998
9.707,183721,179,92993
9.712,183773,178,93016
9.717,183773,176,93034
9.722,183792,175,93020
9.727,183811,173,93054
9.732,183835,175,93059
9.737,183855,175,93061
9.742,183868,174,93070
9.747,183894,173,93073
9.752,183901,179,93073
9.757,183924,179,93084
9.762,183921,177,93083
9.767,183949,176,93085
9.772,183928,175,93075
9.777,183935,175,93091
9.782,183960,177,93082
9.787,183962,176,93089
9.792,183983,175,93091
9.797,184002,174,93100
9.802,184030,173,93097
9.807,184036,179,93112
9.812,184077,177,93125
9.817,184103,176,93139
9.822,184124,174,93155
9.826,184121,179,93156
9.831,184155,179,93173
9.836,184165,178,93171
9.841,184184,176,93185
9.846,184191,176,93190
9.851,184198,173,93179
9.856,184216,180,93194
9.861,184182,178,93169
9.866,184166,178,93172
9.871,184136,176,93151
9.876,184124,179,93137
9.881,184074,177,93131
9.886,184043,177,93126
9.891,183993,175,93114
9.896,183948,175,93092
9.901,183909,173,93092
9.906,183863,181,93074
9.911,183816,178,93063
9.916,183781,177,93061
9.921,183776,175,93045
9.926,183711,179,93041
9.931,183680,177,93039
9.936,183654,178,93030
9.941,183630,175,93014
9.946,183600,175,93001
9.951,183554,173,92994
9.956,183530,174,92978
9.961,183518,179,92976
9.966,183497,179,92965
9.970,183479,177,92944
9.975,183464,174,92959
9.980,183448,179,92950
9.985,183437,179,92946
9.990,183415,176,92941
9.995,183413,176,92952
10.000,183394,175,92931
10.005,183400,175,92937
10.010,183384,172,92931
10.015,183371,179,92926
10.020,183363,176,92926
10.025,183352,178,92916
10.030,183345,176,92908
10.035,183329,177,92912
10.040,183313,175,92907
10.045,183295,176,92901
10.050,183290,174,92891
10.055,183240,174,92883
10.060,183252,173,92878
10.065,183242,180,92872
10.070,183240,178,92894
10.075,183235,181,92865
10.080,183225,178,92869
10.085,183230,177,92866
10.090,183213,175,92869
10.095,183234,176,92863
10.100,183246,173,92860
10.105,183247,174,92854
10.109,183242,179,92861
10.114,183227,179,92861
10.119,183264,179,92858
10.124,183229,181,92839
10.129,183244,178,92851
10.134,183243,179,92849
10.139,183227,177,92828
10.144,183236,177,92829
10.149,183208,175,92828
10.154,183220,175,92819
10.159,183213,173,92818
10.164,183197,181,92815
10.169,183202,173,92812
10.174,183202,174,92805
10.179,183182,179,92805
10.184,183171,179,92801
10.189,183180,176,92793
10.194,183157,177,92783
10.199,183151,175,92780
10.204,183162,175,92782
10.209,183138,173,92773
10.214,183148,180,92760
10.219,183142,173,92760
10.224,183131,174,92764
10.229,183127,179,92740
10.234,183142,179,92752
10.239,183110,176,92743
10.244,183102,176,92735
10.249,183114,174,92735
10.253,183107,175,92732
10.258,183107,179,92728
10.263,183099,182,92726
10.268,183102,173,92722
10.273,183110,173,92720
10.278,183105,179,92711
10.283,183122,178,92713
10.288,183108,177,92712
10.293,183116,177,92707
10.298,183117,175,92713
10.303,183114,176,92724
10.308,183134,174,92719
10.313,183127,175,92719
10.318,183150,177,92716
10.323,183167,177,92711
10.328,183165,175,92716
10.333,183184,177,92717
10.338,183167,175,92725
10.343,183181,176,92726
10.348,183202,173,92728
10.353,183196,175,92734
10.358,183213,180,92738
10.363,183224,172,92708
10.368,183237,174,92742
10.373,183238,175,92748
10.378,183256,173,92752
10.383,183275,181,92751
10.388,183278,178,92759
10.392,183280,178,92754
10.397,183287,176,92750
10.402,183293,176,92742
10.407,183288,174,92731
10.412,183307,177,92746
10.417,183299,173,92733
10.422,183287,181,92733
10.427,183304,179,92729
10.432,183314,179,92731
10.437,183312,177,92719
10.442,183338,177,92730
10.447,183332,175,92730
10.452,183352,175,92733
10.457,183367,174,92730
10.462,183386,178,92724
10.467,183370,179,92738
10.472,183382,178,92728
10.477,183396,176,92735
10.482,183408,176,92727
10.487,183409,175,92732
10.492,183428,175,92737
10.497,183437,173,92728
10.502,183435,179,92730
10.507,183457,178,92730
10.512,183464,173,92735
10.517,183480,179,92731
10.522,183493,177,92743
10.527,183520,175,92737
10.532,183524,174,92746
10.536,183542,180,92743
10.541,183553,178,92750
10.546,183569,177,92767
10.551,183567,175,92774
10.556,183581,174,92761
10.561,183599,176,92763
10.566,183616,175,92751
10.571,183591,173,92759
10.576,183590,179,92749
10.581,183570,178,92741
10.586,183558,177,92735
10.591,183539,176,92739
10.596,183511,175,92715
10.601,183498,174,92712
10.606,183449,175,92708
10.611,183430,176,92701
10.616,183397,176,92675
10.621,183367,175,92672
10.626,183315,174,92667
10.631,183288,173,92645
10.636,183262,180,92657
10.641,183228,177,92640
10.646,183191,177,92635
10.651,183167,174,92626
10.656,183124,174,92614
10.661,183116,175,92613
10.666,183085,175,92612
10.671,183055,174,92589
10.675,183035,174,92577
10.680,183027,179,92574
10.685,183014,180,92561
10.690,182983,177,92563
10.695,182971,177,92545
10.700,182940,176,92544
10.705,182954,180,92540
10.710,182937,174,92535
10.715,182902,174,92525
10.720,182907,180,92523
10.725,182889,180,92527
10.730,182906,179,92528
10.735,182888,180,92524
10.740,182872,178,92514
10.745,182854,178,92514
10.750,182850,177,92511
10.755,182819,174,92508
10.760,182825,180,92507
10.765,182800,180,92494
10.770,182799,178,92497
10.775,182786,178,92496
10.780,182775,176,92486
10.785,182779,177,92498
10.790,182781,175,92492
10.795,182778,175,92493
10.800,182785,173,92499
10.805,182790,177,92500
10.810,182792,175,92509
10.815,182804,176,92502
10.819,182816,174,92519
10.824,182825,175,92518
10.829,182821,172,92525
10.834,182842,181,92508
10.839,182855,178,92527
10.844,182865,180,92514
10.849,182857,177,92518
10.854,182872,174,92520
10.859,182868,173,92514
10.864,182862,174,92517
10.869,182859,173,92506
10.874,182856,174,92511
10.879,182870,173,92517
10.884,182865,175,92519
10.889,182848,174,92517
10.894,182859,176,92509
10.899,182850,178,92526
10.904,182853,181,92510
10.909,182845,173,92518
10.914,182850,174,92503
10.919,182831,173,92505
10.924,182858,175,92509
10.929,182852,173,92497
10.934,182850,175,92508
10.939,182847,174,92500
10.944,182854,176,92506
10.949,182856,177,92514
10.954,182852,180,92503
10.958,182866,179,92507
10.963,182856,181,92498
10.968,182855,172,92515
10.973,182866,174,92513
10.978,182866,173,92515
10.983,182874,176,92511
10.988,182906,175,92509
10.993,182897,177,92516
10.998,182894,172,92514
11.003,182920,175,92531
11.008,182908,174,92529
11.013,182931,176,92538
11.018,182942,175,92535
11.023,182938,177,92535
11.028,182958,176,92542
11.033,182955,178,92559
11.038,182992,177,92559
11.043,182994,179,92574
11.048,183018,174,92556
11.053,183023,176,92566
11.058,183024,175,92572
11.063,183051,177,92579
11.068,183045,177,92577
11.073,183065,179,92597
11.078,183085,178,92594
11.083,183083,180,92599
11.088,183101,179,92595
11.093,183104,174,92613
11.098,183126,175,92612
11.102,183139,178,92614
11.107,183149,177,92613
11.112,183144,179,92628
11.117,183149,178,92628
11.122,183187,180,92621
11.127,183177,179,92622
11.132,183202,174,92619
11.137,183202,174,92628
11.142,183202,177,92644
11.147,183230,174,92632
11.152,183237,176,92621
11.157,183230,174,92628
11.162,183261,176,92638
11.167,183272,175,92629
11.172,183274,177,92634
11.177,183273,176,92645
11.182,183311,177,92644
11.187,183288,175,92636
11.192,183273,180,92634
11.197,183314,173,92630
11.202,183316,175,92632
11.207,183326,175,92641
11.212,183343,177,92642
11.217,183338,177,92637
11.222,183363,179,92638
11.227,183379,178,92640
11.232,183392,179,92651
11.237,183405,179,92653
11.241,183409,176,92662
11.246,183434,174,92665
11.251,183447,176,92651
11.256,183446,175,92664
11.261,183469,177,92667
11.266,183470,176,92655
11.271,183476,177,92663
11.276,183490,177,92673
11.281,183508,178,92667
11.286,183538,177,92684
11.291,183532,183,92697
11.296,183570,177,92693
11.301,183581,179,92700
11.306,183596,178,92709
11.311,183618,180,92723
11.316,183644,179,92723
11.321,183669,180,92728
11.326,183674,179,92739
11.331,183695,174,92740
11.336,183685,173,92741
11.341,183688,177,92753
11.346,183671,176,92741
11.351,183669,177,92745
11.356,183651,177,92726
11.361,183609,178,92726
11.366,183611,177,92725
11.371,183570,178,92718
11.376,183546,177,92714
11.381,183512,178,92704
11.385,183479,178,92706
11.390,183443,174,92688
11.395,183392,173,92690
11.400,183359,174,92667
11.405,183325,174,92657
11.410,183299,174,92645
11.415,183262,174,92642
11.420,183243,175,92633
11.425,183224,174,92618
11.430,183197,176,92613
11.435,183147,178,92600
11.440,183147,175,92597
11.445,183119,175,92602
11.450,183101,176,92583
11.455,183094,175,92596
11.460,183099,176,92580
11.465,183089,176,92584
11.470,183080,176,92580
11.475,183087,176,92573
11.480,183053,177,92567
11.485,183054,173,92580
11.490,183053,174,92578
11.495,183044,173,92581
11.500,183058,174,92583
11.505,183054,174,92590
11.510,183027,175,92583
11.515,183043,176,92578
11.520,183012,176,92577
11.524,183002,177,92564
11.529,182977,177,92563
11.534,182961,173,92555
11.539,182954,173,92535
11.544,182921,174,92527
11.549,182904,174,92522
11.554,182893,174,92511
11.559,182869,174,92504
11.564,182864,174,92488
11.569,182859,174,92476
11.574,182853,175,92478
11.579,182843,177,92468
11.584,182836,178,92453
11.589,182822,179,92440
11.594,182792,179,92419
11.599,182789,179,92403
11.604,182738,179,92381
11.609,182718,180,92355
11.614,182674,173,92328
11.619,182661,174,92303
11.624,182637,173,92281
11.629,182607,173,92245
11.634,182557,176,92233
11.639,182543,175,92194
11.644,182516,175,92179
11.649,182503,175,92161
11.654,182468,176,92122
11.659,182423,175,92103
11.664,182412,175,92083
11.668,182380,176,92053
11.673,182354,176,92029
11.678,182339,176,92019
11.683,182333,173,92001
11.688,182316,174,92000
11.693,182297,175,91988
11.698,182283,175,91976
11.703,182290,176,91962
11.708,182267,175,91939
11.713,182253,176,91937
11.718,182237,175,91941
11.723,182231,177,91922
11.728,182236,178,91914
11.733,182224,179,91896
11.738,182217,178,91883
11.743,182207,180,91876
11.748,182201,173,91866
11.753,182189,174,91867
11.758,182193,174,91844
11.763,182182,175,91843
11.768,182181,174,91843
11.773,182186,176,91831
11.778,182188,178,91816
11.783,182160,180,91792
11.788,182164,178,91789
11.793,182160,179,91774
11.798,182141,177,91759
11.803,182128,178,91761
11.808,182129,177,91733
11.812,182108,179,91725
11.817,182116,178,91705
11.822,182110,179,91682
11.827,182112,173,91678
11.832,182104,178,91678
11.837,182097,177,91658
11.842,182093,178,91641
11.847,182090,177,91636
11.852,182088,178,91635
11.857,182085,176,91609
11.862,182091,177,91621
11.867,182100,176,91606
11.872,182100,177,91598
11.877,182111,179,91585
11.882,182106,181,91581
11.887,182113,179,91575
11.892,182090,180,91575
11.897,182101,178,91566
11.902,182112,180,91556
11.907,182114,178,91544
11.912,182111,180,91540
11.917,182126,179,91532
11.922,182116,183,91554
11.927,182108,178,91516
11.932,182116,180,91507
11.937,182113,178,91501
11.942,182133,179,91502
11.947,182121,178,91470
11.951,182136,181,91473
11.956,182142,179,91473
11.961,182141,174,91463
11.966,182148,173,91469
11.971,182157,177,91460
11.976,182149,177,91447
11.981,182159,178,91447
11.986,182175,177,91444
11.991,182181,179,91441
11.996,182204,178,91449
12.001,182205,180,91445
12.006,182221,178,91444
12.011,182220,181,91436
12.016,182233,172,91436
12.021,182237,177,91439
12.026,182249,175,91443
12.031,182273,177,91441
12.036,182276,176,91438
12.041,182285,178,91441
12.046,182303,176,91438
12.051,182309,178,91452
12.056,182324,177,91447
12.061,182329,178,91451
12.066,182339,176,91451
12.071,182344,174,91455
12.076,182362,173,91458
12.081,182392,174,91471
12.086,182407,173,91466
12.091,182428,174,91462
12.095,182445,173,91482
12.100,182465,175,91489
12.105,182461,174,91488
12.110,182492,176,91506
12.115,182515,174,91508
12.120,182531,179,91519
12.125,182557,177,91532
12.130,182558,179,91533
12.135,182592,178,91545
12.140,182613,180,91558
12.145,182630,178,91567
12.150,182667,181,91576
12.155,182672,173,91583
12.160,182696,174,91595
12.165,182729,174,91619
12.170,182743,178,91609
12.175,182767,176,91620
12.180,182781,178,91628
12.185,182809,177,91633
12.190,182830,179,91654
12.195,182842,177,91663
12.200,182861,179,91669
12.205,182888,177,91678
12.210,182915,179,91690
12.215,182903,178,91705
12.220,182921,174,91710
12.225,182975,174,91709
12.230,183011,175,91731
12.234,183018,175,91736
12.239,183047,176,91752
12.244,183064,174,91766
12.249,183089,176,91772
12.254,183119,174,91789
12.259,183126,176,91794
12.264,183166,179,91801
12.269,183173,176,91812
12.274,183209,174,91829
12.279,183225,175,91829
12.284,183238,175,91838
12.289,183236,176,91842
12.294,183267,175,91844
12.299,183242,176,91841
12.304,183249,176,91843
12.309,183221,177,91849
12.314,183231,171,91859
12.319,183205,176,91855
12.324,183188,175,91869
12.329,183173,176,91869
12.334,183144,176,91866
12.339,183112,177,91866
12.344,183094,176,91860
12.349,183055,178,91849
12.354,183038,177,91860
12.359,182985,178,91837
12.364,182965,173,91837
12.369,182940,176,91822
12.374,182901,177,91816
12.378,182890,179,91824
12.383,182858,178,91808
12.388,182836,179,91803
12.393,182813,179,91796
12.398,182789,180,91785
12.403,182776,179,91778
12.408,182768,174,91778
12.413,182760,176,91787
12.418,182765,178,91784
12.423,182755,178,91788
12.428,182755,179,91792
12.433,182752,179,91801
12.438,182737,180,91804
12.443,182761,180,91804
12.448,182736,174,91810
12.453,182748,174,91809
12.458,182700,184,91806
12.463,182719,178,91811
12.468,182721,179,91810
12.473,182706,180,91819
12.478,182714,174,91821
12.483,182713,174,91829
12.488,182712,174,91831
12.493,182707,174,91853
12.498,182700,175,91843
12.503,182683,176,91839
12.508,182721,180,91846
12.513,182705,175,91852
12.517,182715,176,91860
12.522,182734,176,91871
12.527,182735,177,91879
12.532,182760,176,91885
12.537,182770,177,91902
12.542,182770,177,91903
12.547,182804,177,91902
12.552,182800,177,91908
12.557,182792,181,91913
12.562,182807,173,91907
12.567,182808,173,91902
12.572,182804,173,91912
12.577,182811,174,91909
12.582,182813,174,91904
12.587,182818,175,91913
12.592,182829,175,91910
12.597,182811,174,91906
12.602,182793,175,91915
12.607,182802,177,91910
12.612,182808,178,91908
12.617,182809,178,91904
12.622,182811,178,91908
12.627,182798,178,91903
12.632,182816,178,91903
12.637,182794,178,91912
12.642,182791,179,91896
12.647,182793,179,91898
12.652,182787,180,91894
12.657,182803,175,91898
12.661,182799,177,91898
12.666,182801,176,91899
12.671,182812,177,91913
12.676,182822,177,91908
12.681,182819,178,91913
12.686,182819,177,91915
12.691,182837,178,91922
12.696,182844,178,91929
12.701,182867,183,91924
12.706,182866,174,91928
12.711,182876,175,91949
12.716,182884,175,91949
12.721,182893,176,91968
12.726,182928,175,91965
12.731,182917,176,91980
12.736,182947,176,91979
12.741,182960,178,91997
12.746,182974,178,92012
12.751,182989,174,92015
12.756,182990,174,92034
12.761,183011,175,92034
12.766,183038,174,92037
12.771,183022,176,92032
12.776,183063,174,92053
12.781,183058,176,92051
12.786,183064,176,92060
12.791,183081,177,92055
12.796,183098,176,92060
12.800,183122,175,92049
12.805,183114,177,92068
12.810,183120,178,92080
12.815,183141,178,92091
12.820,183150,180,92095
12.825,183174,179,92095
12.830,183161,181,92092
12.835,183169,173,92090
12.840,183183,175,92097
12.845,183189,174,92086
12.850,183182,178,92086
12.855,183197,178,92086
12.860,183207,180,92090
12.865,183211,178,92090
12.870,183224,181,92091
12.875,183226,173,92095
12.880,183241,175,92095
12.885,183230,174,92085
12.890,183235,176,92076
12.895,183247,175,92088
12.900,183276,180,92091
12.905,183272,178,92100
12.910,183278,180,92091
12.915,183301,172,92097
12.920,183300,175,92091
12.925,183304,174,92101
12.930,183312,176,92100
12.935,183339,174,92108
12.940,183350,176,92107
12.944,183364,175,92080
12.949,183384,175,92103
12.954,183384,174,92110
12.959,183402,176,92127
12.964,183408,174,92120
12.969,183422,176,92129
12.974,183440,174,92134
12.979,183452,176,92152
12.984,183460,174,92144
12.989,183482,176,92157
12.994,183525,177,92160
12.999,183524,179,92176
13.004,183545,177,92187
13.009,183562,179,92190
13.014,183577,177,92192
13.019,183584,179,92208
13.024,183604,176,92219
13.029,183622,179,92222
13.034,183639,177,92232
13.039,183679,179,92236
13.044,183682,174,92247
13.049,183697,176,92258
13.054,183730,174,92276
13.059,183723,176,92289
13.064,183763,174,92285
13.069,183764,177,92284
13.074,183776,175,92295
13.079,183791,177,92303
13.083,183821,176,92306
13.088,183837,178,92310
13.093,183844,180,92329
13.098,183853,174,92322
13.103,183870,173,92330
13.108,183888,175,92339
13.113,183879,174,92333
13.118,183865,176,92327
13.123,183871,174,92318
13.128,183853,177,92327
13.133,183826,175,92323
13.138,183812,176,92316
13.143,183792,179,92326
13.148,183774,181,92309
13.153,183754,173,92309
13.158,183717,175,92298
13.163,183688,173,92297
13.168,183651,175,92298
13.173,183641,174,92289
13.178,183599,176,92284
13.183,183558,174,92275
13.188,183541,177,92271
13.193,183521,178,92268
13.198,183483,180,92255
13.203,183445,179,92242
13.208,183441,181,92239
13.213,183398,179,92227
13.218,183400,181,92232
13.223,183385,179,92225
13.227,183371,181,92224
13.232,183372,179,92217
13.237,183382,176,92178
13.242,183366,176,92219
13.247,183367,178,92234
13.252,183346,177,92234
13.257,183353,178,92238
13.262,183343,177,92224
13.267,183336,179,92222
13.272,183333,177,92222
13.277,183331,179,92230
13.282,183335,178,92226
13.287,183308,175,92231
13.292,183328,174,92229
13.297,183317,176,92238
13.302,183311,175,92241
13.307,183299,177,92245
13.312,183279,177,92246
13.317,183308,178,92249
13.322,183294,177,92240
13.327,183292,179,92247
13.332,183291,177,92249
13.337,183300,175,92261
13.342,183298,174,92249
13.347,183318,176,92260
13.352,183321,175,92278
13.357,183331,176,92283
13.362,183349,175,92287
13.366,183343,177,92286
13.371,183371,176,92302
13.376,183366,178,92295
13.381,183382,176,92296
13.386,183385,176,92296
13.391,183380,173,92299
13.396,183383,174,92308
13.401,183382,173,92320
13.406,183383,175,92304
13.411,183391,175,92314
13.416,183398,175,92317
13.421,183407,175,92325
13.426,183412,176,92317
13.431,183415,176,92320
13.436,183421,179,92329
13.441,183415,180,92338
13.446,183408,180,92334
13.451,183410,180,92329
13.456,183421,181,92340
13.461,183410,173,92329
13.466,183405,175,92332
13.471,183398,174,92341
13.476,183401,175,92326
13.481,183393,174,92320
13.486,183413,178,92343
13.491,183407,178,92341
13.496,183428,180,92334
13.501,183424,180,92346
13.506,183426,174,92351
13.510,183427,174,92348
13.515,183449,174,92355
13.520,183450,175,92355
13.525,183458,175,92356
13.530,183449,179,92364
13.535,183474,179,92365
13.540,183467,179,92365
13.545,183468,180,92378
13.550,183474,180,92369
13.555,183494,180,92373
13.560,183500,180,92390
13.565,183516,181,92373
13.570,183532,180,92385
13.575,183533,174,92407
13.580,183542,176,92396
13.585,183549,176,92399
13.590,183554,176,92402
13.595,183595,175,92416
13.600,183591,174,92416
13.605,183600,180,92428
13.610,183618,178,92435
13.615,183623,177,92440
13.620,183646,176,92451
13.625,183662,174,92467
13.630,183679,180,92470
13.635,183697,173,92456
13.640,183685,179,92467
13.645,183713,178,92481
13.650,183743,177,92485
13.654,183750,176,92492
13.659,183763,175,92497
13.664,183772,173,92496
13.669,183787,180,92508
13.674,183799,178,92504
13.679,183803,174,92500
13.684,183821,173,92512
13.689,183828,180,92517
13.694,183842,178,92528
13.699,183851,178,92536
13.704,183875,177,92546
13.709,183893,177,92540
13.714,183902,175,92557
13.719,183919,175,92558
13.724,183944,174,92535
13.729,183950,176,92565
13.734,183960,175,92580
13.739,183988,176,92585
13.744,184009,175,92581
13.749,184024,176,92601
13.754,184034,174,92597
13.759,184034,175,92595
13.764,184069,173,92608
13.769,184081,181,92614
13.774,184118,173,92609
13.779,184126,174,92613
13.784,184125,180,92624
13.789,184134,180,92633
13.793,184152,177,92642
13.798,184178,178,92655
13.803,184202,176,92660
13.808,184214,178,92658
13.813,184240,175,92679
13.818,184250,176,92693
13.823,184261,176,92689
13.828,184281,177,92703
13.833,184301,175,92709
13.838,184310,175,92716
13.843,184321,173,92710
13.848,184309,181,92715
13.853,184307,179,92702
13.858,184312,179,92697
13.863,184301,178,92693
13.868,184286,178,92683
13.873,184261,173,92681
13.878,184226,180,92667
13.883,184211,177,92655
13.888,184187,178,92659
13.893,184132,176,92627
13.898,184095,177,92633
13.903,184078,174,92619
13.908,184043,175,92617
13.913,184008,174,92604
13.918,183989,176,92601
13.923,183957,175,92594
13.928,183919,176,92578
13.933,183886,174,92573
13.937,183843,175,92576
13.942,183828,173,92561
13.947,183804,181,92546
13.952,183801,179,92554
13.957,183756,179,92543
13.962,183734,178,92543
13.967,183737,180,92535
13.972,183724,174,92535
13.977,183703,174,92523
13.982,183695,173,92530
13.987,183688,181,92519
13.992,183668,179,92521
13.997,183665,180,92515
14.002,183635,177,92521
14.007,183639,177,92508
14.012,183631,175,92532
14.017,183596,177,92515
14.022,183598,176,92515
14.027,183593,176,92517
14.032,183580,173,92506
14.037,183557,181,92506
14.042,183534,178,92505
14.047,183534,178,92497
14.052,183518,175,92489
14.057,183513,176,92490
14.062,183502,173,92496
14.067,183522,176,92487
14.072,183499,178,92496
14.076,183494,178,92499
14.081,183510,176,92502
14.086,183531,176,92507
14.091,183512,174,92505
14.096,183536,174,92512
14.101,183526,179,92507
14.106,183547,180,92516
14.111,183537,177,92519
14.116,183557,181,92518
14.121,183533,178,92526
14.126,183551,179,92518
14.131,183545,177,92525
14.136,183547,178,92519
14.141,183527,175,92521
14.146,183549,176,92516
14.151,183550,174,92526
14.156,183544,174,92521
14.161,183534,179,92520
14.166,183544,176,92522
14.171,183547,173,92528
14.176,183536,180,92521
14.181,183531,177,92524
14.186,183532,178,92520
14.191,183519,176,92522
14.196,183518,175,92523
14.201,183514,173,92524
14.206,183515,180,92517
14.211,183509,177,92519
14.216,183505,181,92501
14.220,183471,178,92508
14.225,183482,178,92511
14.230,183484,176,92502
14.235,183473,176,92501
14.240,183477,174,92501
14.245,183479,175,92505
14.250,183499,173,92508
14.255,183504,179,92516
14.260,183513,178,92527
14.265,183536,174,92517
14.270,183522,179,92520
14.275,183540,179,92526
14.280,183540,177,92529
14.285,183543,177,92535
14.290,183545,175,92539
14.295,183571,175,92536
14.300,183558,174,92539
14.305,183564,174,92543
14.310,183583,175,92540
14.315,183598,181,92543
14.320,183594,179,92555
14.325,183599,178,92558
14.330,183603,177,92555
14.335,183607,176,92543
14.340,183614,175,92553
14.345,183620,174,92555
14.350,183637,180,92558
14.355,183655,179,92561
14.359,183647,174,92563
14.364,183665,180,92569
14.369,183668,178,92569
14.374,183694,177,92577
14.379,183705,176,92584
14.384,183719,175,92598
14.389,183726,174,92593
14.394,183749,174,92606
14.399,183757,174,92603
14.404,183754,173,92605
14.409,183783,175,92606
14.414,183799,174,92616
14.419,183788,174,92623
14.424,183805,173,92614
14.429,183829,181,92627
14.434,183836,179,92633
14.439,183845,178,92626
14.444,183849,177,92627
14.449,183869,177,92638
14.454,183865,176,92648
14.459,183891,174,92634
14.464,183905,173,92645
14.469,183919,181,92653
14.474,183917,179,92652
14.479,183928,178,92659
14.484,183923,177,92649
14.489,183946,176,92670
14.494,183970,175,92665
14.499,183985,176,92679
14.503,184007,175,92678
14.508,184017,178,92701
14.513,184046,177,92708
14.518,184066,177,92714
14.523,184086,175,92731
14.528,184112,175,92753
14.533,184142,174,92753
14.538,184160,174,92769
14.543,184176,173,92781
14.548,184195,181,92787
14.553,184209,176,92774
14.558,184248,175,92808
14.563,184265,173,92809
14.568,184279,181,92834
14.573,184303,179,92833
14.578,184331,179,92853
14.583,184363,176,92864
14.588,184381,177,92874
14.593,184403,176,92881
14.598,184440,177,92902
14.603,184483,176,92907
14.608,184485,180,92935
14.613,184499,178,92943
14.618,184500,178,92953
14.623,184516,176,92959
14.628,184530,177,92957
14.633,184532,175,92956
14.638,184488,177,92948
14.642,184489,176,92941
14.647,184466,176,92939
14.652,184438,177,92941
14.657,184425,178,92925
14.662,184382,176,92930
14.667,184353,177,92918
14.672,184306,175,92914
14.677,184273,176,92902
14.682,184243,174,92887
14.687,184189,175,92873
14.692,184133,173,92859
14.697,184107,180,92845
14.702,184078,174,92836
14.707,184049,174,92826
14.712,184007,172,92813
14.717,183987,179,92815
14.722,183947,176,92811
14.727,183935,178,92803
14.732,183909,174,92775
14.737,183873,175,92781
14.742,183860,178,92771
14.747,183823,179,92756
14.752,183818,177,92744
14.757,183788,178,92739
14.762,183771,176,92740
14.767,183753,178,92713
14.772,183740,175,92720
14.777,183708,176,92712
14.782,183699,173,92687
14.786,183662,175,92696
14.791,183653,173,92686
14.796,183611,174,92681
14.801,183601,175,92677
14.806,183578,176,92661
14.811,183560,173,92658
14.816,183533,174,92656
14.821,183526,179,92640
14.826,183500,180,92640
14.831,183469,177,92628
14.836,183458,179,92623
14.841,183451,176,92623
14.846,183454,175,92614
14.851,183429,178,92612
14.856,183427,180,92612
14.861,183415,177,92618
14.866,183418,180,92612
14.871,183408,177,92608
14.876,183409,178,92613
14.881,183436,176,92624
14.886,183421,178,92621
14.891,183438,176,92632
14.896,183430,174,92622
14.901,183434,175,92623
14.906,183431,177,92620
14.911,183424,175,92621
14.916,183431,177,92623
14.921,183444,175,92634
14.925,183459,176,92637
14.930,183475,174,92648
14.935,183467,176,92648
14.940,183484,174,92660
14.945,183506,178,92664
14.950,183503,176,92668
14.955,183495,177,92672
14.960,183490,175,92682
14.965,183506,177,92674
14.970,183480,175,92686
14.975,183475,176,92682
14.980,183469,174,92678
14.985,183468,175,92664
14.990,183458,173,92675
14.995,183450,177,92661
15.000,183449,175,92666
15.005,183435,176,92655
15.010,183445,173,92670
15.015,183442,174,92656
15.020,183447,173,92659
15.025,183425,174,92652
15.030,183434,172,92657
15.035,183444,174,92664
15.040,183448,178,92655
15.045,183441,175,92661
15.050,183446,173,92656
15.055,183447,174,92648
15.060,183437,178,92662
15.065,183447,178,92667
15.069,183450,176,92661
15.074,183446,175,92655
15.079,183450,173,92660
15.084,183461,174,92660
15.089,183468,174,92621
15.094,183472,175,92661
15.099,183476,173,92677
15.104,183471,180,92672
15.109,183500,178,92668
15.114,183515,178,92683
15.119,183528,176,92681
15.124,183530,176,92693
15.129,183550,174,92700
15.134,183554,175,92702
15.139,183580,176,92699
15.144,183562,176,92699
15.149,183591,175,92705
15.154,183574,174,92697
15.159,183591,173,92707
15.164,183606,180,92704
15.169,183624,178,92709
15.174,183643,179,92710
15.179,183642,177,92725
15.184,183632,176,92715
15.189,183668,179,92733
15.194,183659,175,92741
15.199,183681,174,92740
15.204,183683,174,92734
15.208,183689,181,92740
15.213,183706,179,92749
15.218,183726,178,92744
15.223,183726,177,92764
15.228,183731,175,92752
15.233,183755,175,92764
15.238,183745,176,92751
15.243,183762,175,92761
15.248,183760,173,92764
15.253,183772,172,92761
15.258,183775,179,92761
15.263,183797,179,92767
15.268,183795,178,92769
15.273,183804,178,92755
15.278,183803,176,92768
15.283,183814,176,92764
15.288,183828,180,92770
15.293,183835,178,92770
15.298,183860,178,92776
15.303,183846,178,92773
15.308,183870,178,92776
15.313,183872,177,92777
15.318,183871,177,92769
15.323,183878,177,92769
15.328,183900,176,92766
15.333,183909,176,92775
15.338,183924,178,92779
15.343,183958,177,92798
15.348,183965,177,92794
15.352,183997,176,92810
15.357,184031,176,92812
15.362,184043,175,92833
15.367,184056,175,92833
15.372,184087,174,92856
15.377,184121,180,92853
15.382,184145,175,92866
15.387,184154,174,92866
15.392,184168,180,92882
15.397,184186,179,92883
15.402,184201,177,92890
15.407,184219,176,92889
15.412,184218,175,92895
15.417,184251,174,92919
15.422,184267,180,92895
15.427,184271,179,92910
15.432,184301,173,92924
15.437,184317,180,92930
15.442,184342,177,92935
15.447,184354,177,92947
15.452,184413,175,92966
15.457,184425,175,92988
15.462,184443,174,92979
15.467,184444,174,92987
15.472,184446,179,92985
15.477,184431,179,92979
15.482,184407,175,92978
15.487,184372,175,92967
15.491,184347,173,92962
15.496,184313,181,92953
15.501,184276,179,92946
15.506,184237,179,92933
15.511,184192,177,92918
15.516,184134,177,92901
15.521,184095,176,92894
15.526,184060,176,92880
15.531,184026,177,92882
15.536,183972,178,92867
15.541,183945,176,92863
15.546,183916,178,92854
15.551,183870,175,92841
15.556,183840,175,92828
15.561,183803,174,92814
15.566,183755,175,92790
15.571,183735,173,92786
15.576,183707,181,92768
15.581,183677,177,92764
15.586,183657,178,92749
15.591,183610,175,92735
15.596,183603,176,92732
15.601,183566,174,92714
15.606,183539,175,92703
15.611,183518,173,92705
15.616,183504,181,92688
15.621,183478,178,92695
15.626,183461,181,92726
15.631,183437,172,92678
15.635,183418,181,92665
15.640,183385,179,92657
15.645,183353,180,92644
15.650,183348,178,92649
15.655,183331,179,92632
15.660,183325,177,92629
15.665,183291,177,92620
15.670,183303,175,92621
15.675,183239,178,92609
15.680,183258,177,92613
15.685,183253,179,92615
15.690,183265,176,92609
15.695,183260,177,92617
15.700,183256,175,92605
15.705,183249,176,92624
15.710,183283,174,92621
15.715,183272,175,92601
15.720,183257,173,92617
15.725,183258,176,92612
15.730,183259,174,92611
15.735,183239,175,92615
15.740,183239,173,92612
15.745,183243,181,92598
15.750,183254,178,92605
15.755,183234,179,92610
15.760,183223,178,92605
15.765,183235,179,92608
15.770,183220,177,92600
15.775,183255,175,92605
15.779,183237,175,92599
15.784,183230,177,92596
15.789,183222,175,92598
15.794,183195,176,92587
15.799,183216,175,92573
15.804,183200,176,92577
15.809,183182,174,92583
15.814,183159,175,92569
15.819,183160,172,92568
15.824,183175,178,92571
15.829,183149,175,92557
15.834,183145,175,92562
15.839,183142,174,92549
15.844,183150,175,92547
15.849,183144,173,92542
15.854,183137,181,92551
15.859,183140,177,92538
15.864,183137,178,92537
15.869,183135,176,92536
15.874,183151,176,92549
15.879,183163,174,92541
15.884,183157,175,92551
15.889,183156,173,92549
15.894,183155,174,92547
15.899,183188,179,92547
15.904,183194,181,92555
15.909,183198,179,92558
15.914,183206,179,92564
15.918,183205,186,92558
15.923,183219,174,92565
15.928,183221,179,92563
15.933,183232,179,92577
15.938,183274,178,92582
15.943,183266,179,92591
15.948,183280,176,92590
15.953,183280,176,92596
15.958,183311,175,92604
15.963,183313,175,92618
15.968,183341,176,92632
15.973,183359,175,92637
15.978,183378,174,92654
15.983,183394,174,92653
15.988,183429,179,92662
15.993,183417,178,92670
15.998,183461,175,92681
16.003,183475,175,92691
16.008,183509,180,92700
16.013,183531,179,92703
16.018,183553,174,92714
16.023,183572,181,92732
16.028,183592,178,92744
16.033,183642,178,92751
16.038,183660,177,92758
16.043,183681,177,92772
16.048,183690,175,92782
16.053,183731,175,92802
16.058,183771,180,92803
16.062,183799,180,92831
16.067,183831,174,92841
16.072,183865,174,92858
16.077,183921,180,92881
16.082,183948,180,92899
16.087,183994,178,92915
16.092,184012,178,92928
16.097,184037,177,92947
16.102,184083,176,92965
16.107,184081,176,92973
16.112,184144,176,92999
16.117,184155,178,92995
16.122,184177,178,93013
16.127,184202,176,93021
16.132,184257,176,93033
16.137,184274,176,93050
16.142,184290,176,93055
16.147,184299,176,93074
16.152,184347,176,93087
16.157,184353,176,93097
16.162,184385,176,93088
16.167,184408,178,93117
16.172,184438,178,93128
16.177,184468,177,93133
16.182,184492,176,93148
16.187,184512,175,93168
16.192,184531,174,93178
16.197,184574,180,93191
16.201,184588,178,93193
16.206,184635,177,93214
16.211,184692,178,93228
16.216,184650,178,93227
16.221,184684,177,93244
16.226,184694,176,93248
16.231,184721,175,93257
16.236,184743,174,93269
16.241,184756,179,93284
16.246,184766,179,93305
16.251,184803,177,93325
16.256,184818,176,93359
16.261,184876,179,93337
16.266,184872,174,93349
16.271,184911,179,93349
16.276,184923,179,93371
16.281,184948,177,93381
16.286,184965,177,93394
16.291,185001,174,93416
16.296,185018,175,93421
16.301,185054,180,93439
16.306,185077,180,93457
16.311,185109,174,93463
16.316,185133,181,93469
16.321,185154,178,93480
16.326,185166,178,93494
16.331,185182,175,93495
16.336,185202,176,93505
16.341,185235,173,93505
16.345,185241,181,93508
16.350,185250,178,93504
16.355,185214,180,93506
16.360,185219,175,93489
16.365,185192,175,93478
16.370,185171,179,93479
16.375,185153,180,93472
16.380,185134,179,93469
16.385,185098,179,93463
16.390,185088,177,93465
16.395,185037,177,93433
16.400,185001,176,93436
16.405,184961,176,93430
16.410,184920,178,93409
16.415,184874,179,93408
16.420,184852,176,93408
16.425,184821,176,93393
16.430,184797,174,93395
16.435,184756,175,93375
16.440,184735,180,93368
16.445,184679,180,93351
16.450,184673,177,93339
16.455,184627,178,93344
16.460,184603,178,93323
16.465,184582,178,93330
16.470,184573,175,93312
16.475,184573,176,93309
16.480,184572,174,93308
16.484,184558,175,93301
16.489,184551,173,93302
16.494,184567,174,93318
16.499,184546,180,93309
16.504,184545,176,93311
16.509,184542,174,93294
16.514,184519,175,93312
16.519,184527,173,93299
16.524,184515,181,93300
16.529,184522,178,93304
16.534,184492,180,93291
16.539,184497,176,93290
16.544,184488,177,93281
16.549,184471,175,93270
16.554,184483,181,93277
16.559,184459,173,93263
16.564,184430,174,93260
16.569,184436,179,93256
16.574,184435,179,93253
16.579,184445,177,93256
16.584,184446,177,93264
16.589,184460,175,93268
16.594,184464,176,93269
16.599,184475,173,93270
16.604,184491,177,93264
16.609,184487,174,93259
16.614,184485,176,93273
16.619,184497,173,93262
16.624,184488,175,93259
16.628,184496,180,93266
16.633,184498,180,93262
16.638,184507,177,93249
16.643,184496,177,93257
16.648,184490,175,93255
16.653,184475,179,93252
16.658,184479,176,93246
16.663,184448,176,93249
16.668,184478,173,93250
16.673,184469,174,93236
16.678,184461,178,93242
16.683,184468,179,93251
16.688,184450,176,93245
16.693,184468,176,93248
16.698,184468,173,93268
16.703,184474,179,93256
16.708,184484,176,93262
16.713,184469,177,93247
16.718,184462,174,93255
16.723,184491,175,93254
16.728,184499,179,93262
16.733,184493,180,93261
16.738,184480,177,93274
16.743,184501,178,93281
16.748,184507,175,93282
16.753,184526,178,93283
16.758,184533,175,93289
16.763,184539,176,93298
16.767,184533,173,93282
16.772,184548,181,93290
16.777,184548,178,93302
16.782,184544,177,93285
16.787,184545,175,93307
16.792,184566,176,93298
16.797,184586,177,93309
16.802,184569,177,93316
16.807,184587,176,93318
16.812,184579,176,93320
16.817,184596,174,93320
16.822,184604,174,93324
16.827,184610,179,93336
16.832,184616,180,93332
16.837,184643,179,93340
16.842,184646,179,93342
16.847,184660,174,93357
16.852,184660,181,93343
16.857,184679,179,93350
16.862,184672,178,93358
16.867,184689,176,93364
16.872,184700,176,93364
16.877,184704,175,93374
16.882,184733,175,93389
16.887,184742,174,93379
16.892,184748,181,93381
16.897,184753,175,93394
16.902,184769,175,93397
16.907,184799,180,93399
16.911,184811,179,93392
16.916,184815,177,93395
16.921,184827,177,93411
16.926,184828,176,93415
16.931,184859,175,93414
16.936,184866,180,93416
16.941,184880,179,93424
16.946,184885,174,93431
16.951,184898,180,93434
16.956,184925,178,93430
16.961,184933,176,93447
16.966,184953,175,93447
16.971,184966,174,93461
16.976,184980,180,93456
16.981,184987,178,93465
16.986,184990,177,93464
16.991,185016,178,93462
16.996,185040,174,93487
17.001,185034,181,93485
17.006,185062,179,93482
17.011,185064,178,93494
17.016,185078,177,93500
17.021,185084,175,93500
17.026,185106,174,93491
17.031,185115,174,93498
17.036,185124,180,93492
17.041,185093,174,93502
17.046,185122,181,93502
17.050,185150,179,93494
17.055,185157,178,93500
17.060,185171,176,93507
17.065,185176,176,93513
17.070,185196,174,93518
17.075,185215,174,93520
17.080,185219,174,93522
17.085,185243,181,93528
17.090,185246,176,93535
17.095,185250,176,93541
17.100,185281,176,93544
17.105,185283,176,93536
17.110,185281,174,93538
17.115,185298,175,93540
17.120,185285,173,93536
17.125,185275,175,93526
17.130,185266,174,93524
17.135,185255,181,93512
17.140,185242,175,93511
17.145,185230,176,93511
17.150,185224,174,93507
17.155,185170,175,93509
17.160,185150,173,93496
17.165,185128,174,93488
17.170,185106,180,93477
17.175,185063,180,93473
17.180,185016,178,93474
17.185,184993,178,93462
17.190,184973,174,93451
17.194,184940,181,93449
17.199,184910,179,93449
17.204,184888,178,93432
17.209,184852,177,93422
17.214,184822,176,93400
17.219,184797,174,93394
17.224,184792,174,93394
17.229,184766,180,93372
17.234,184742,180,93375
17.239,184716,174,93353
17.244,184715,175,93359
17.249,184703,173,93350
17.254,184695,179,93355
17.259,184681,178,93344
17.264,184676,178,93342
17.269,184655,177,93350
17.274,184637,177,93348
17.279,184648,175,93352
17.284,184642,181,93356
17.289,184644,174,93345
17.294,184634,181,93358
17.299,184631,179,93341
17.304,184604,179,93363
17.309,184610,176,93355
17.314,184602,177,93348
17.319,184607,174,93335
17.324,184581,175,93347
17.329,184592,173,93337
17.333,184580,176,93337
17.338,184566,174,93352
17.343,184592,175,93354
17.348,184602,173,93354
17.353,184613,181,93359
17.358,184603,179,93363
17.363,184620,179,93369
17.368,184619,178,93373
17.373,184627,178,93365
17.378,184638,175,93372
17.383,184669,181,93384
17.388,184649,174,93370
17.393,184666,175,93377
17.398,184653,179,93388
17.403,184677,179,93382
17.408,184689,177,93387
17.413,184678,178,93398
17.418,184684,176,93385
17.423,184685,177,93393
17.428,184720,174,93394
17.433,184710,178,93405
17.438,184710,176,93409
17.443,184720,178,93410
17.448,184715,175,93413
17.453,184722,176,93408
17.458,184712,173,93428
17.463,184711,174,93408
17.468,184708,179,93413
17.473,184703,179,93419
17.477,184694,177,93406
17.482,184690,181,93396
17.487,184688,177,93398
17.492,184689,177,93385
17.497,184672,174,93383
17.502,184671,174,93391
17.507,184665,179,93368
17.512,184666,180,93363
17.517,184659,178,93371
17.522,184669,179,93365
17.527,184672,179,93397
17.532,184663,179,93373
17.537,184675,176,93361
17.542,184696,177,93361
17.547,184696,174,93373
17.552,184698,175,93372
17.557,184708,179,93361
17.562,184713,179,93368
17.567,184714,176,93374
17.572,184725,176,93369
17.577,184733,179,93403
17.582,184734,178,93372
17.587,184742,175,93382
17.592,184754,175,93383
17.597,184761,180,93387
17.602,184775,179,93390
17.607,184795,176,93398
17.612,184802,177,93399
17.616,184820,174,93408
17.621,184826,174,93401
17.626,184839,175,93415
17.631,184841,175,93417
17.636,184853,180,93418
17.641,184862,179,93411
17.646,184887,176,93428
17.651,184907,177,93436
17.656,184904,174,93444
17.661,184931,181,93448
17.666,184935,179,93447
17.671,184930,178,93470
17.676,184977,175,93469
17.681,184981,176,93468
17.686,184979,174,93475
17.691,184999,181,93483
17.696,185023,177,93489
17.701,185030,176,93498
17.706,185053,174,93496
17.711,185052,180,93501
17.716,185086,177,93513
17.721,185090,177,93503
17.726,185094,177,93513
17.731,185103,176,93519
17.736,185103,174,93522
17.741,185145,174,93523
17.746,185145,179,93515
17.751,185154,178,93524
17.756,185177,177,93539
17.760,185195,176,93532
17.765,185205,174,93539
17.770,185207,181,93541
17.775,185213,174,93551
17.780,185233,173,93555
17.785,185248,179,93547
17.790,185258,178,93560
17.795,185278,176,93565
17.800,185291,175,93565
17.805,185343,173,93594
17.810,185327,178,93593
17.815,185352,177,93602
17.820,185372,176,93610
17.825,185382,177,93612
17.830,185404,175,93609
17.835,185393,174,93606
17.840,185422,179,93619
17.845,185428,177,93625
17.850,185456,175,93641
17.855,185463,173,93644
17.860,185485,179,93638
17.865,185511,177,93648
17.870,185543,180,93664
17.875,185557,174,93673
17.880,185555,180,93668
17.885,185570,179,93685
17.890,185592,177,93685
17.895,185604,176,93698
17.900,185594,175,93699
17.904,185607,174,93683
17.909,185580,179,93680
17.914,185579,177,93673
17.919,185549,179,93665
17.924,185528,178,93654
17.929,185515,176,93655
17.934,185471,175,93644
17.939,185439,173,93643
17.944,185414,179,93626
17.949,185385,177,93628
17.954,185331,175,93619
17.959,185295,180,93602
17.964,185261,179,93596
17.969,185232,173,93588
17.974,185186,180,93579
17.979,185174,178,93571
17.984,185138,178,93552
17.989,185102,175,93547
17.994,185090,175,93530
17.999,185043,173,93532
18.004,185033,180,93527
18.009,185008,177,93513
18.014,184994,177,93510
18.019,184968,177,93501
18.024,184955,177,93496
18.029,184932,174,93478
18.034,184923,181,93484
18.039,184922,177,93498
18.043,184927,177,93493
18.048,184917,174,93490
18.053,184897,181,93485
18.058,184892,177,93490
18.063,184863,179,93480
18.068,184851,176,93471
18.073,184832,176,93466
18.078,184816,175,93467
18.083,184802,175,93456
18.088,184782,173,93449
18.093,184767,181,93432
18.098,184756,178,93443
18.103,184748,178,93434
18.108,184738,176,93427
18.113,184724,174,93419
18.118,184716,177,93421
18.123,184678,178,93410
18.128,184688,175,93411
18.133,184693,177,93404
18.138,184705,175,93404
18.143,184704,175,93409
18.148,184704,173,93411
18.153,184712,174,93409
18.158,184711,178,93410
18.163,184704,175,93415
18.168,184714,173,93418
18.173,184711,180,93404
18.178,184699,178,93411
18.183,184719,179,93399
18.187,184699,176,93402
18.192,184702,177,93404
18.197,184698,174,93401
18.202,184698,175,93376
18.207,184674,179,93389
18.212,184696,175,93389
18.217,184683,173,93384
18.222,184696,180,93398
18.227,184688,177,93390
18.232,184674,178,93391
18.237,184661,176,93393
18.242,184665,177,93392
18.247,184665,174,93386
18.252,184669,176,93389
18.257,184664,173,93376
18.262,184654,177,93393
18.267,184652,175,93386
18.272,184659,175,93383
18.277,184639,179,93388
18.282,184644,179,93380
18.287,184641,176,93380
18.292,184647,177,93390
18.297,184639,173,93377
18.302,184626,180,93380
18.307,184655,177,93381
18.312,184658,181,93383
18.317,184648,177,93380
18.322,184662,178,93389
18.326,184663,174,93408
18.331,184686,175,93394
18.336,184696,179,93405
18.341,184693,180,93415
18.346,184713,177,93410
18.351,184717,177,93416
18.356,184733,175,93450
18.361,184742,178,93426
18.366,184748,175,93434
18.371,184755,175,93418
18.376,184744,179,93421
18.381,184748,179,93425
18.386,184770,176,93418
18.391,184777,176,93439
18.396,184784,174,93430
18.401,184790,175,93436
18.406,184850,172,93438
18.411,184820,176,93445
18.416,184809,180,93443
18.421,184827,179,93452
18.426,184841,177,93460
18.431,184850,177,93454
18.436,184874,174,93462
18.441,184876,174,93462
18.446,184882,179,93464
18.451,184906,179,93474
18.456,184961,174,93473
18.461,184931,174,93477
18.466,184955,179,93488
18.470,184968,178,93501
18.475,184983,176,93505
18.480,184983,175,93517
18.485,185013,173,93507
18.490,185019,179,93519
18.495,185014,176,93530
18.500,185064,176,93527
18.505,185081,173,93550
18.510,185075,175,93534
18.515,185104,180,93539
18.520,185101,179,93547
18.525,185130,177,93559
18.530,185146,176,93573
18.535,185154,175,93572
18.540,185171,181,93576
18.545,185184,178,93595
18.550,185200,179,93592
18.555,185229,178,93609
18.560,185241,177,93606
18.565,185248,175,93621
18.570,185282,174,93636
18.575,185300,180,93628
18.580,185292,178,93646
18.585,185336,176,93649
18.590,185341,176,93648
18.595,185363,174,93659
18.600,185374,180,93656
18.605,185386,174,93665
18.609,185413,174,93680
18.614,185425,174,93689
18.619,185405,174,93688
18.624,185440,181,93691
18.629,185461,179,93700
18.634,185481,178,93693
18.639,185490,178,93708
18.644,185514,177,93719
18.649,185538,178,93732
18.654,185551,179,93740
18.659,185578,177,93746
18.664,185603,177,93762
18.669,185606,175,93763
18.674,185627,175,93774
18.679,185646,173,93788
18.684,185668,179,93789
18.689,185678,178,93784
18.694,185692,177,93792
18.699,185672,179,93775
18.704,185662,178,93779
18.709,185653,177,93776
18.714,185644,176,93766
18.719,185619,175,93765
18.724,185600,174,93766
18.729,185567,178,93757
18.734,185539,178,93756
18.739,185492,177,93743
18.744,185472,176,93734
18.749,185411,184,93733
18.753,185391,174,93728
18.758,185358,174,93709
18.763,185325,180,93701
18.768,185307,178,93703
18.773,185270,178,93693
18.778,185253,177,93697
18.783,185225,176,93685
18.788,185188,174,93674
18.793,185174,174,93665
18.798,185161,178,93667
18.803,185150,178,93666
18.808,185118,176,93654
18.813,185119,176,93649
18.818,185117,173,93659
18.823,185114,174,93668
18.828,185109,179,93666
18.833,185109,179,93669
18.838,185106,177,93670
18.843,185099,177,93681
18.848,185085,177,93673
18.853,185097,178,93686
18.858,185078,175,93677
18.863,185094,175,93687
18.868,185078,173,93700
18.873,185078,180,93696
18.878,185080,178,93696
18.883,185070,179,93688
18.888,185069,176,93691
18.892,185047,177,93691
18.897,185049,178,93677
18.902,185034,177,93694
18.907,185037,175,93677
18.912,185031,176,93687
18.917,185037,174,93695
18.922,185028,174,93683
18.927,185051,179,93680
18.932,185068,179,93698
18.937,185067,176,93712
18.942,185093,176,93717
18.947,185100,178,93715
18.952,185111,179,93721
18.957,185094,176,93732
18.962,185109,176,93728
18.967,185124,174,93726
18.972,185137,175,93743
18.977,185125,180,93739
18.982,185145,181,93745
18.987,185157,179,93737
18.992,185145,175,93742
18.997,185149,173,93745
19.002,185126,181,93745
19.007,185125,178,93739
19.012,185135,179,93739
19.017,185116,176,93744
19.022,185136,176,93747
19.027,185130,174,93743
19.032,185118,174,93753
19.036,185124,179,93745
19.041,185112,176,93746
19.046,185126,174,93753
19.051,185127,175,93754
19.056,185138,173,93754
19.061,185113,181,93751
19.066,185132,178,93754
19.071,185122,178,93761
19.076,185151,176,93771
19.081,185153,177,93771
19.086,185163,174,93779
19.091,185158,178,93776
19.096,185150,174,93783
19.101,185156,175,93799
19.106,185154,179,93796
19.111,185174,179,93787
19.116,185177,176,93788
19.121,185186,177,93804
19.126,185186,174,93809
19.131,185195,175,93809
19.136,185205,179,93802
19.141,185187,175,93807
19.146,185192,179,93806
19.151,185215,179,93819
19.156,185209,176,93823
19.161,185230,176,93819
19.166,185250,174,93819
19.171,185243,174,93825
19.175,185248,179,93823
19.180,185250,179,93824
19.185,185261,179,93865
19.190,185268,178,93835
19.195,185280,175,93833
19.200,185287,175,93838
19.205,185306,179,93850
19.210,185310,179,93861
19.215,185335,176,93868
19.220,185344,177,93878
19.225,185364,175,93878
19.230,185371,175,93886
19.235,185361,176,93893
19.240,185410,176,93888
19.245,185416,173,93903
19.250,185411,174,93903
19.255,185423,179,93908
19.260,185431,180,93917
19.265,185452,177,93915
19.270,185466,177,93915
19.275,185456,176,93926
19.280,185490,176,93924
19.285,185485,177,93929
19.290,185501,178,93931
19.295,185504,176,93928
19.300,185524,176,93938
19.305,185517,174,93946
19.310,185555,173,93958
19.315,185545,179,93956
19.319,185568,180,93962
19.324,185579,178,93964
19.329,185591,177,93963
19.334,185612,175,93974
19.339,185611,176,93978
19.344,185628,174,93983
19.349,185642,174,93988
19.354,185659,180,93995
19.359,185681,180,94005
19.364,185698,178,94019
19.369,185711,177,94022
19.374,185739,176,94043
19.379,185753,174,94037
19.384,185767,177,94058
19.389,185781,177,94069
19.394,185789,175,94081
19.399,185835,175,94094
19.404,185858,174,94126
19.409,185891,180,94157
19.414,185934,178,94165
19.419,185959,178,94203
19.424,186012,176,94235
19.429,186053,175,94262
19.434,186088,177,94305
19.439,186144,177,94329
19.444,186156,175,94359
19.449,186209,174,94396
19.454,186231,173,94394
19.458,186262,179,94436
19.463,186275,178,94455
19.468,186275,178,94456
19.473,186250,178,94465
19.478,186251,178,94467
19.483,186222,179,94470
19.488,186197,178,94470
19.493,186180,177,94468
19.498,186156,176,94468
19.503,186096,175,94455
19.508,186056,174,94440
19.513,186016,174,94426
19.518,185968,180,94417
19.523,185935,180,94401
19.528,185886,175,94399
19.533,185854,175,94385
19.538,185810,173,94365
19.543,185770,181,94342
19.548,185742,179,94337
19.553,185717,179,94342
19.558,185681,177,94316
19.563,185659,177,94315
19.568,185641,176,94310
19.573,185622,176,94289
19.578,185604,178,94287
19.583,185583,178,94279
19.588,185561,176,94276
19.593,185547,177,94272
19.598,185524,175,94255
19.602,185497,175,94244
19.607,185509,174,94252
19.612,185476,175,94231
19.617,185473,173,94227
19.622,185447,174,94229
19.627,185419,179,94215
19.632,185404,180,94206
19.637,185402,177,94195
19.642,185380,178,94180
19.647,185363,176,94180
19.652,185342,176,94169
19.657,185337,173,94169
19.662,185325,174,94155
19.667,185308,179,94155
19.672,185277,179,94150
19.677,185276,174,94138
19.682,185264,174,94142
19.687,185247,173,94123
19.692,185261,181,94118
19.697,185245,178,94116
19.702,185265,179,94129
19.707,185256,177,94121
19.712,185258,177,94119
19.717,185254,175,94117
19.722,185262,176,94069
19.727,185246,176,94097
19.732,185234,176,94102
19.737,185236,174,94095
19.742,185236,175,94076
19.746,185227,173,94072
19.751,185216,180,94062
19.756,185217,177,94062
19.761,185182,177,94041
19.766,185179,175,94040
19.771,185192,177,94036
19.776,185162,176,94024
19.781,185169,177,94011
19.786,185159,174,94007
19.791,185128,176,93996
19.796,185125,173,94004
19.801,185112,180,93989
19.806,185112,177,93981
19.811,185103,178,93970
19.816,185098,175,93962
19.821,185072,180,93951
19.826,185052,177,93936
19.831,185052,178,93940
19.836,185049,175,93931
19.841,185029,176,93930
19.846,185024,173,93921
19.851,185038,181,93909
19.856,185034,178,93917
19.861,185032,179,93909
19.866,185026,176,93908
19.871,185025,181,93905
19.876,185028,178,93894
19.881,185017,179,93892
19.885,185035,176,93884
19.890,185016,177,93880
19.895,185015,173,93872
19.900,185007,174,93875
19.905,185026,179,93879
19.910,185015,180,93872
19.915,185013,178,93874
19.920,185030,177,93866
19.925,185022,175,93856
19.930,185013,176,93870
19.935,185030,173,93856
19.940,185026,174,93861
19.945,185038,179,93870
19.950,185050,179,93856
19.955,185067,176,93875
19.960,185059,177,93864
19.965,185085,175,93856
19.970,185080,179,93869
19.975,185080,177,93858
19.980,185085,178,93863
19.985,185090,176,93863
19.990,185100,177,93859
19.995,185111,174,93866
20.000,185120,175,93855
20.005,185114,173,93865
20.010,185128,181,93872
20.015,185134,172,93867
20.020,185147,175,93857
20.025,185130,173,93868
20.029,185144,181,93868
20.034,185162,178,93860
20.039,185162,178,93868
20.044,185167,176,93874
20.049,185182,176,93874
20.054,185204,174,93877
20.059,185205,175,93876
20.064,185209,175,93876
20.069,185222,176,93878
20.074,185234,173,93891
20.079,185241,175,93878
20.084,185252,173,93877
20.089,185263,181,93887
20.094,185257,178,93892
20.099,185278,180,93889
20.104,185292,178,93885
20.109,185299,179,93890
20.114,185323,173,93894
20.119,185335,181,93898
20.124,185338,179,93901
20.129,185329,179,93898
20.134,185375,177,93913
20.139,185388,178,93909
20.144,185400,176,93930
20.149,185405,177,93908
20.154,185419,175,93917
20.159,185447,176,93917
20.164,185441,177,93946
20.168,185458,178,93936
20.173,185467,176,93947
20.178,185468,177,93931
20.183,185479,175,93943
20.188,185494,175,93943
20.193,185506,174,93954
20.198,185517,181,93946
20.203,185531,179,93955
20.208,185552,179,93963
20.213,185560,173,93963
20.218,185568,181,93969
20.223,185599,179,93979
20.228,185597,178,93985
20.233,185613,176,93983
20.238,185629,175,93991
20.243,185603,174,93983
20.248,185624,180,93978
20.253,185601,179,93972
20.258,185588,177,93972
20.263,185568,177,93961
20.268,185533,175,93941
20.273,185517,174,93933
20.278,185481,174,93930
20.283,185437,180,93931
20.288,185412,179,93926
20.293,185354,177,93895
20.298,185320,176,93898
20.303,185277,174,93881
20.308,185207,176,93877
20.312,185179,179,93850
20.317,185138,178,93843
20.322,185119,176,93841
20.327,185086,175,93827
20.332,185008,175,93815
20.337,185005,174,93806
20.342,184966,180,93795
20.347,184940,178,93781
20.352,184914,177,93776
20.357,184893,179,93764
20.362,184879,178,93764
20.367,184830,177,93764
20.372,184831,176,93761
20.377,184819,175,93762
20.382,184804,174,93751
20.387,184785,179,93750
20.392,184775,179,93742
20.397,184755,177,93733
20.402,184749,177,93739
20.407,184725,179,93739
20.412,184727,178,93741
20.417,184702,176,93727
20.422,184677,175,93733
20.427,184674,175,93726
20.432,184659,181,93710
20.437,184637,178,93717
20.442,184621,177,93721
20.447,184610,176,93712
20.451,184616,175,93709
20.456,184604,176,93699
20.461,184569,177,93696
20.466,184571,175,93689
20.471,184562,174,93690
20.476,184561,180,93691
20.481,184569,179,93691
20.486,184559,176,93689
20.491,184558,176,93692
20.496,184567,174,93700
20.501,184579,174,93702
20.506,184597,175,93711
20.511,184598,175,93707
20.516,184594,179,93705
20.521,184611,179,93710
20.526,184596,176,93698
20.531,184604,175,93707
20.536,184598,173,93704
20.541,184595,180,93707
20.546,184587,177,93700
20.551,184607,180,93731
20.556,184590,180,93694
20.561,184571,179,93709
20.566,184567,177,93673
20.571,184569,178,93684
20.576,184590,175,93694
20.581,184572,175,93688
20.586,184552,173,93686
20.591,184548,180,93687
20.595,184541,177,93680
20.600,184503,181,93674
20.605,184509,179,93673
20.610,184540,180,93671
20.615,184523,177,93670
20.620,184511,178,93660
20.625,184506,175,93663
20.630,184521,176,93649
20.635,184526,173,93662
20.640,184510,181,93672
20.645,184506,179,93665
20.650,184521,175,93667
20.655,184506,173,93673
20.660,184521,180,93680
20.665,184525,177,93666
20.670,184531,178,93678
20.675,184539,175,93681
20.680,184534,176,93680
20.685,184539,174,93694
20.690,184548,175,93694
20.695,184554,173,93696
20.700,184565,176,93700
20.705,184569,173,93695
20.710,184576,181,93699
20.715,184581,177,93701
20.720,184591,178,93711
20.725,184598,175,93700
20.730,184589,176,93718
20.734,184608,173,93714
20.739,184610,181,93713
20.744,184623,177,93717
20.749,184670,174,93720
20.754,184650,178,93717
20.759,184654,179,93729
20.764,184671,176,93727
20.769,184669,177,93728
20.774,184668,175,93727
20.779,184708,175,93744
20.784,184689,174,93737
20.789,184704,175,93732
20.794,184722,174,93743
20.799,184721,178,93747
20.804,184726,176,93745
20.809,184728,178,93753
20.814,184745,176,93741
20.819,184770,177,93750
20.824,184754,175,93753
20.829,184762,176,93757
20.834,184790,175,93762
20.839,184783,176,93763
20.844,184806,182,93764
20.849,184795,175,93758
20.854,184812,173,93762
20.859,184816,180,93762
20.864,184840,178,93775
20.869,184851,179,93784
20.874,184872,177,93777
20.878,184867,178,93785
20.883,184896,176,93778
20.888,184913,177,93794
20.893,184913,178,93795
20.898,184932,179,93799
20.903,184937,176,93796
20.908,184940,176,93801
20.913,184963,174,93799
20.918,184976,175,93800
20.923,184985,173,93806
20.928,185004,181,93817
20.933,185019,178,93826
20.938,185035,178,93818
20.943,185047,173,93835
20.948,185048,174,93835
20.953,185073,179,93843
20.958,185108,179,93857
20.963,185110,177,93861
20.968,185114,178,93873
20.973,185139,176,93874
20.978,185155,177,93887
20.983,185158,175,93896
20.988,185186,175,93879
20.993,185217,173,93901
20.998,185226,180,93904
21.003,185237,178,93910
21.008,185248,177,93919
21.013,185275,175,93923
21.017,185289,175,93926
21.022,185283,173,93932
21.027,185304,181,93925
21.032,185304,178,93933
21.037,185333,178,93947
21.042,185347,173,93931
21.047,185357,180,93958
21.052,185376,178,93958
21.057,185392,177,93974
21.062,185415,176,93979
21.067,185412,176,93983
21.072,185439,175,93985
21.077,185439,175,93987
21.082,185467,173,93998
21.087,185499,175,94036
21.092,185504,175,94014
21.097,185529,175,94023
21.102,185538,174,94024
21.107,185566,181,94030
21.112,185586,179,94054
21.117,185590,178,94067
21.122,185619,177,94057
21.127,185645,177,94065
21.132,185666,175,94079
21.137,185712,178,94074
21.142,185698,178,94084
21.147,185706,177,94089
21.152,185715,175,94098
21.157,185725,175,94103
21.161,185737,174,94090
21.166,185755,180,94095
21.171,185763,179,94110
21.176,185796,177,94120
21.181,185804,176,94126
21.186,185825,178,94132
21.191,185852,177,94153
21.196,185880,176,94150
21.201,185899,175,94168
21.206,185920,174,94177
21.211,185937,174,94183
21.216,185971,180,94181
21.221,185956,178,94186
21.226,185971,176,94185
21.231,185963,175,94192
21.236,185950,176,94174
21.241,185921,175,94161
21.246,185900,174,94158
21.251,185866,180,94140
21.256,185842,177,94138
21.261,185772,177,94074
21.266,185764,174,94120
21.271,185716,174,94100
21.276,185667,179,94094
21.281,185626,180,94086
21.286,185572,180,94079
21.291,185538,179,94076
21.296,185515,177,94062
21.300,185462,177,94050
21.305,185416,175,94036
21.310,185388,175,94020
21.315,185353,173,94012
21.320,185322,180,94002
21.325,185295,177,93995
21.330,185279,177,93987
21.335,185265,177,93989
21.340,185244,177,93990
21.345,185225,175,93966
21.350,185217,175,93980
21.355,185205,173,93972
21.360,185199,181,93964
21.365,185174,178,93979
21.370,185171,178,93963
21.375,185161,176,93966
21.380,185146,177,93950
21.385,185140,178,93957
21.390,185154,178,93970
21.395,185130,175,93969
21.400,185095,176,93972
21.405,185122,174,93975
21.410,185105,174,93964
21.415,185115,179,93963
21.420,185093,179,93955
21.425,185083,176,93959
21.430,185069,180,93933
21.435,185061,176,93954
21.440,185042,178,93947
21.444,185037,175,93948
21.449,185025,175,93945
21.454,185028,179,93950
21.459,185029,179,93953
21.464,185040,175,93953
21.469,185035,175,93950
21.474,185057,173,93962
21.479,185053,177,93962
21.484,185068,174,93965
21.489,185071,174,93966
21.494,185078,178,93961
21.499,185071,177,93973
21.504,185072,174,93972
21.509,185086,175,93976
21.514,185088,180,93967
21.519,185088,179,93970
21.524,185082,175,93982
21.529,185081,179,93969
21.534,185092,175,93966
21.539,185066,176,93952
21.544,185084,174,93969
21.549,185078,181,93960
21.554,185063,177,93965
21.559,185051,178,93962
21.564,185051,175,93953
21.569,185057,176,93958
21.574,185046,173,93950
21.579,185033,177,93953
21.583,185048,174,93951
21.588,185039,181,93950
21.593,185051,177,93947
21.598,185050,178,93943
21.603,185039,174,93945
21.608,185046,174,93954
21.613,185045,179,93949
21.618,185047,178,93957
21.623,185062,175,93960
21.628,185073,178,93955
21.633,185074,174,93963
21.638,185093,175,93974
21.643,185085,173,93973
21.648,185081,180,93976
21.653,185102,176,93996
21.658,185118,177,93999
21.663,185115,174,94000
21.668,185122,174,93992
21.673,185162,170,94015
21.678,185152,175,94014
21.683,185150,173,94017
21.688,185194,180,94029
21.693,185180,177,94025
21.698,185191,177,94042
21.703,185202,174,94052
21.708,185224,174,94060
21.713,185253,178,94060
21.718,185252,178,94065
21.723,185292,179,94068
21.727,185274,174,94080
21.732,185296,178,94097
21.737,185318,177,94112
21.742,185325,175,94111
21.747,185335,175,94112
21.752,185359,179,94128
21.757,185365,179,94129
21.762,185372,176,94128
21.767,185399,176,94134
21.772,185407,176,94139
21.777,185425,176,94142
21.782,185452,173,94153
21.787,185461,179,94164
21.792,185477,176,94184
21.797,185483,176,94182
21.802,185498,174,94173
21.807,185528,181,94187
21.812,185528,177,94195
21.817,185538,178,94192
21.822,185553,180,94194
21.827,185553,179,94204
21.832,185579,176,94208
21.837,185601,176,94204
21.842,185621,175,94223
21.847,185635,174,94219
21.852,185649,180,94222
21.857,185672,179,94244
21.862,185681,177,94226
21.867,185690,177,94244
21.871,185720,179,94249
21.876,185739,179,94252
21.881,185755,177,94265
21.886,185790,177,94284
21.891,185798,176,94291
21.896,185820,176,94291
21.901,185835,174,94296
21.906,185853,174,94316
21.911,185876,179,94306
21.916,185905,180,94337
21.921,185900,173,94326
21.926,185901,180,94320
21.931,185913,178,94333
21.936,185914,177,94331
21.941,185945,176,94337
21.946,185963,175,94344
21.951,185991,173,94358
21.956,185974,181,94350
21.961,186006,178,94365
21.966,186061,180,94359
21.971,186047,178,94376
21.976,186043,177,94370
21.981,186073,175,94378
21.986,186095,173,94398
21.991,186107,179,94387
21.996,186119,179,94405
22.001,186139,177,94412
22.006,186146,176,94411
22.010,186176,175,94411
22.015,186183,176,94424
22.020,186211,175,94428
22.025,186218,174,94438
22.030,186222,180,94441
22.035,186243,177,94431
22.040,186248,177,94447
22.045,186257,176,94453
22.050,186268,174,94456
22.055,186302,179,94456
22.060,186326,179,94465
22.065,186338,173,94472
22.070,186346,180,94478
22.075,186361,178,94493
22.080,186377,178,94485
22.085,186384,176,94495
22.090,186395,176,94491
22.095,186383,174,94482
22.100,186367,174,94463
22.105,186362,178,94454
22.110,186316,180,94433
22.115,186286,176,94407
22.120,186218,175,94372
22.125,186144,173,94325
22.130,186068,180,94279
22.135,185992,178,94256
22.140,185915,177,94215
22.145,185856,175,94187
22.150,185793,175,94163
22.154,185734,180,94136
22.159,185685,179,94125
22.164,185628,173,94107
22.169,185600,180,94102
22.174,185564,178,94089
22.179,185534,178,94081
22.184,185507,175,94072
22.189,185489,176,94067
22.194,185467,174,94069
22.199,185445,181,94066
22.204,185436,178,94054
22.209,185424,179,94061
22.214,185424,179,94067
22.219,185428,179,94061
22.224,185405,175,94055
22.229,185421,174,94076
22.234,185411,179,94057
22.239,185405,179,94075
22.244,185429,176,94074
22.249,185407,175,94078
22.254,185447,171,94080
22.259,185408,175,94089
22.264,185416,180,94094
22.269,185427,179,94106
22.274,185427,176,94098
22.279,185430,176,94098
22.284,185438,174,94110
22.289,185440,181,94108
22.293,185413,178,94107
22.298,185406,178,94103
22.303,185414,176,94107
22.308,185419,179,94096
22.313,185398,176,94104
22.318,185401,177,94090
22.323,185397,174,94085
22.328,185386,175,94079
22.333,185394,179,94074
22.338,185409,178,94075
22.343,185411,176,94076
22.348,185393,176,94064
22.353,185380,173,94057
22.358,185371,179,94054
22.363,185374,177,94051
22.368,185407,177,94056
22.373,185405,174,94036
22.378,185394,174,94045
22.383,185391,178,94027
22.388,185378,177,94024
22.393,185380,174,94010
22.398,185371,180,94007
22.403,185357,177,94006
22.408,185359,181,94004
22.413,185347,177,93997
22.418,185347,177,94000
22.423,185352,173,93983
22.428,185336,179,93986
22.433,185347,176,93993
22.437,185334,176,93986
22.442,185322,173,93967
22.447,185326,179,93965
22.452,185319,176,93976
22.457,185308,179,93973
22.462,185321,176,93961
22.467,185303,175,93962
22.472,185299,173,93955
22.477,185308,180,93951
22.482,185284,176,93953
22.487,185282,177,93941
22.492,185285,174,93936
22.497,185289,180,93936
22.502,185293,187,93931
22.507,185289,180,93947
22.512,185294,177,93924
22.517,185290,177,93924
22.522,185286,174,93922
22.527,185287,174,93917
22.532,185277,178,93934
22.537,185290,178,93916
22.542,185291,175,93919
22.547,185282,174,93911
22.552,185348,176,93926
22.557,185287,181,93912
22.562,185294,178,93917
22.567,185303,178,93908
22.572,185309,175,93910
22.576,185307,175,93907
22.581,185296,179,93908
22.586,185322,178,93915
22.591,185321,175,93913
22.596,185328,175,93918
22.601,185323,175,93906
22.606,185358,175,93921
22.611,185345,174,93915
22.616,185355,174,93921
22.621,185367,179,93920
22.626,185380,178,93925
22.631,185380,175,93913
22.636,185384,174,93917
22.641,185408,179,93911
22.646,185411,177,93917
22.651,185436,173,93914
22.656,185431,179,93922
22.661,185441,176,93921
22.666,185478,176,93920
22.671,185498,174,93927
22.676,185513,180,93927
22.681,185524,178,93922
22.686,185540,177,93933
22.691,185553,174,93937
22.696,185569,174,93941
22.701,185594,175,93937
22.706,185605,174,93943
22.711,185606,179,93947
22.716,185597,177,93938
22.720,185616,174,93936
22.725,185627,180,93941
22.730,185643,177,93942
22.735,185670,176,93937
22.740,185679,174,93943
22.745,185678,179,93958
22.750,185698,179,93937
22.755,185682,178,93942
22.760,185709,176,93943
22.765,185712,174,93942
22.770,185712,178,93940
22.775,185720,176,93933
22.780,185739,175,93926
22.785,185740,173,93937
22.790,185751,179,93937
22.795,185755,179,93931
22.800,185793,175,93924
22.805,185790,173,93943
22.810,185808,179,93945
22.815,185840,176,93943
22.820,185855,175,93961
22.825,185880,180,93960
22.830,185898,179,93970
22.835,185912,176,93972
22.840,185923,175,93986
22.845,185944,175,93968
22.850,185932,174,93966
22.855,185920,179,93967
22.859,185901,177,93960
22.864,185884,175,93945
22.869,185850,180,93938
22.874,185825,178,93934
22.879,185793,176,93913
22.884,185765,175,93906
22.889,185712,181,93888
22.894,185680,174,93881
22.899,185623,180,93860
22.904,185576,177,93853
22.909,185550,176,93837
22.914,185515,173,93825
22.919,185481,179,93821
22.924,185433,176,93806
22.929,185408,175,93781
22.934,185361,179,93780
22.939,185356,179,93760
22.944,185316,180,93758
22.949,185297,179,93753
22.954,185274,176,93753
22.959,185266,176,93747
22.964,185248,174,93746
22.969,185246,180,93739
22.974,185224,177,93748
22.979,185250,176,93749
22.984,185248,173,93758
22.989,185261,179,93754
22.994,185238,180,93756
22.999,185234,178,93766
23.003,185227,175,93758
23.008,185211,175,93750
23.013,185201,178,93750
23.018,185188,177,93759
23.023,185193,174,93753
23.028,185169,181,93747
23.033,185141,177,93738
23.038,185145,178,93712
23.043,185124,178,93734
23.048,185133,177,93735
23.053,185125,174,93747
23.058,185157,182,93754
23.063,185145,178,93764
23.068,185157,178,93738
23.073,185162,174,93774
23.078,185163,182,93785
23.083,185185,177,93792
23.088,185232,178,93803
23.093,185236,176,93815
23.098,185225,176,93822
23.103,185247,173,93836
23.108,185262,181,93840
23.113,185265,177,93842
23.118,185266,177,93846
23.123,185288,174,93848
23.128,185289,174,93845
23.133,185292,178,93847
23.138,185299,175,93844
23.142,185288,178,93845
23.147,185297,178,93843
23.152,185293,175,93845
23.157,185300,175,93847
23.162,185316,180,93844
23.167,185298,179,93855
23.172,185313,176,93839
23.177,185309,176,93833
23.182,185291,173,93830
23.187,185296,176,93844
23.192,185301,173,93839
23.197,185300,181,93834
23.202,185318,177,93843
23.207,185296,178,93837
23.212,185285,175,93824
23.217,185303,176,93840
23.222,185296,174,93845
23.227,185306,181,93835
23.232,185303,178,93842
23.237,185344,178,93849
23.242,185332,174,93859
23.247,185358,181,93870
23.252,185360,177,93884
23.257,185375,177,93900
23.262,185406,174,93903
23.267,185411,174,93906
23.272,185440,178,93916
23.277,185446,179,93931
23.282,185466,176,93940
23.286,185471,179,93935
23.291,185507,176,93961
23.296,185518,176,93977
23.301,185530,173,93975
23.306,185558,181,93977
23.311,185562,178,93982
23.316,185568,177,93985
23.321,185589,175,93989
23.326,185601,175,93988
23.331,185611,176,93986
23.336,185637,176,94003
23.341,185644,174,94004
23.346,185641,174,94014
23.351,185642,180,94019
23.356,185674,180,94020
23.361,185669,178,94021
23.366,185672,177,94017
23.371,185691,175,94021
23.376,185683,175,94016
23.381,185710,178,94015
23.386,185695,178,94013
23.391,185683,175,93999
23.396,185679,175,94000
23.401,185669,174,93995
23.406,185668,180,93989
23.411,185665,177,93985
23.416,185662,177,93986
23.421,185670,175,93978
23.425,185673,174,93976
23.430,185684,176,93967
23.435,185679,175,93972
23.440,185677,181,93964
23.445,185695,180,93963
23.450,185697,177,93970
23.455,185709,177,93964
23.460,185714,175,93971
23.465,185709,175,93972
23.470,185745,180,93981
23.475,185761,179,93991
23.480,185768,180,93995
23.485,185785,179,94006
23.490,185813,177,94014
23.495,185811,176,94021
23.500,185848,174,94029
23.505,185859,180,94039
23.510,185884,178,94053
23.515,185894,177,94060
23.520,185910,175,94072
23.525,185932,174,94071
23.530,185946,178,94079
23.535,185974,177,94109
23.540,185985,176,94109
23.545,186007,174,94107
23.550,186020,179,94132
23.555,186031,178,94129
23.560,186045,177,94134
23.565,186055,176,94151
23.569,186074,175,94145
23.574,186079,174,94153
23.579,186101,176,94151
23.584,186095,174,94155
23.589,186121,181,94152
23.594,186132,180,94174
23.599,186153,178,94173
23.604,186164,177,94186
23.609,186201,176,94190
23.614,186202,175,94206
23.619,186227,174,94211
23.624,186245,179,94200
23.629,186246,174,94207
23.634,186254,180,94219
23.639,186251,180,94211
23.644,186242,177,94190
23.649,186226,177,94199
23.654,186195,176,94185
23.659,186179,176,94191
23.664,186146,174,94179
23.669,186124,181,94190
23.674,186117,175,94182
23.679,186072,178,94184
23.684,186025,175,94165
23.689,185986,176,94169
23.694,185952,173,94149
23.699,185905,179,94145
23.704,185877,177,94139
23.709,185829,177,94129
23.713,185815,174,94129
23.718,185769,175,94123
23.723,185761,176,94122
23.728,185739,175,94115
23.733,185708,180,94108
23.738,185687,179,94111
23.743,185676,177,94104
23.748,185677,176,94107
23.753,185670,174,94109
23.758,185676,181,94125
23.763,185661,179,94118
23.768,185677,178,94143
23.773,185679,178,94133
23.778,185690,178,94146
23.783,185698,175,94134
23.788,185700,174,94166
23.793,185695,179,94168
23.798,185706,179,94173
23.803,185706,177,94179
23.808,185691,177,94181
23.813,185685,174,94191
23.818,185673,181,94183
23.823,185674,178,94180
23.828,185649,177,94199
23.833,185652,175,94182
23.838,185643,175,94175
23.843,185634,179,94174
23.848,185635,179,94163
23.852,185629,175,94174
23.857,185606,176,94167
23.862,185611,173,94165
23.867,185604,174,94140
23.872,185618,174,94175
23.877,185629,175,94164
23.882,185625,179,94167
23.887,185626,179,94181
23.892,185638,176,94173
23.897,185631,176,94176
23.902,185643,174,94190
23.907,185655,176,94187
23.912,185648,173,94182
23.917,185649,175,94230
23.922,185652,177,94194
23.927,185663,178,94193
23.932,185667,175,94202
23.937,185675,175,94206
23.942,185686,180,94193
23.947,185678,180,94208
23.952,185680,176,94202
23.957,185686,177,94221
23.962,185696,174,94216
23.967,185698,177,94230
23.972,185703,174,94220
23.977,185714,182,94238
23.982,185716,177,94237
23.987,185731,178,94245
23.992,185730,175,94243
23.996,185744,175,94250
24.001,185735,179,94249
24.006,185743,179,94259
24.011,185737,175,94247
24.016,185764,179,94252
24.021,185786,176,94256
24.026,185755,176,94269
24.031,185772,173,94264
24.036,185767,180,94267
24.041,185768,178,94262
24.046,185778,178,94277
24.051,185783,175,94277
24.056,185804,176,94283
24.061,185816,173,94281
24.066,185847,176,94306
24.071,185837,173,94308
24.076,185860,180,94313
24.081,185866,177,94317
24.086,185893,177,94330
24.091,185895,174,94326
24.096,185911,175,94339
24.101,185904,179,94333
24.106,185913,179,94337
24.111,185903,176,94331
24.116,185925,180,94336
24.121,185933,177,94341
24.126,185931,177,94341
24.131,185944,174,94343
24.135,185964,174,94352
24.140,185968,179,94342
24.145,185988,179,94359
24.150,185996,176,94365
24.155,186014,177,94357
24.160,186012,177,94318
24.165,186002,178,94369
24.170,186005,175,94357
24.175,186018,175,94365
24.180,186041,173,94361
24.185,186024,180,94362
24.190,186040,178,94355
24.195,186048,178,94350
24.200,186053,176,94361
24.205,186054,176,94365
24.210,186076,176,94350
24.215,186068,177,94364
24.220,186092,175,94357
24.225,186095,175,94351
24.230,186097,174,94355
24.235,186111,181,94363
24.240,186120,179,94362
24.245,186132,179,94354
24.250,186151,177,94369
24.255,186152,168,94374
24.260,186163,178,94376
24.265,186179,178,94365
24.270,186184,176,94375
24.275,186187,177,94364
24.279,186205,176,94377
24.284,186209,176,94378
24.289,186208,175,94381
24.294,186227,174,94364
24.299,186220,180,94374
24.304,186233,180,94371
24.309,186239,174,94375
24.314,186247,181,94383
24.319,186266,179,94394
24.324,186262,177,94379
24.329,186264,176,94395
24.334,186287,175,94389
24.339,186298,174,94398
24.344,186322,174,94396
24.349,186337,180,94401
24.354,186351,179,94418
24.359,186367,178,94412
24.364,186379,177,94421
24.369,186401,177,94420
24.374,186408,176,94420
24.379,186410,175,94423
24.384,186421,174,94425
24.389,186421,174,94424
24.394,186433,180,94428
24.399,186439,179,94422
24.404,186442,178,94421
24.409,186443,176,94426
24.414,186443,176,94418
24.418,186465,175,94414
24.423,186483,180,94419
24.428,186494,179,94421
24.433,186496,177,94431
24.438,186506,177,94432
24.443,186516,175,94437
24.448,186525,174,94437
24.453,186548,174,94439
24.458,186561,175,94452
24.463,186558,174,94448
24.468,186583,181,94451
24.473,186587,179,94463
24.478,186597,179,94470
24.483,186624,177,94460
24.488,186615,177,94464
24.493,186623,175,94464
24.498,186622,175,94458
24.503,186616,176,94441
24.508,186618,176,94435
24.513,186586,174,94409
24.518,186554,174,94389
24.523,186513,180,94361
24.528,186483,179,94339
24.533,186453,177,94298
24.538,186405,176,94277
24.543,186377,174,94248
24.548,186351,182,94238
24.553,186355,176,94228
24.558,186341,175,94231
24.562,186337,174,94218
24.567,186316,181,94214
24.572,186297,178,94200
24.577,186280,178,94206
24.582,186272,175,94188
24.587,186239,175,94187
24.592,186216,179,94202
24.597,186186,179,94200
24.602,186154,180,94192
24.607,186127,179,94186
24.612,186087,176,94181
24.617,186059,177,94180
24.622,186027,173,94185
24.627,185989,181,94165
24.632,185965,178,94186
24.637,185934,177,94173
24.642,185911,175,94174
24.647,185889,175,94173
24.652,185863,176,94164
24.657,185844,176,94165
24.662,185822,173,94158
24.667,185801,181,94150
24.672,185780,178,94139
24.677,185746,179,94131
24.682,185766,176,94138
24.687,185760,177,94127
24.692,185742,174,94131
24.697,185720,176,94081
24.701,185737,180,94129
24.706,185722,180,94134
24.711,185711,176,94126
24.716,185698,177,94138
24.721,185699,175,94143
24.726,185674,176,94145
24.731,185682,173,94140
24.736,185662,182,94151
24.741,185653,179,94123
24.746,185673,175,94136
24.751,185625,177,94123
24.756,185604,178,94118
24.761,185605,174,94115
24.766,185581,175,94110
24.771,185572,180,94108
24.776,185575,180,94102
24.781,185566,177,94104
24.786,185579,178,94114
24.791,185595,175,94106
24.796,185583,179,94113
24.801,185588,176,94115
24.806,185617,176,94125
24.811,185632,174,94145
24.816,185632,181,94144
24.821,185670,177,94159
24.826,185676,177,94170
24.831,185705,174,94185
24.836,185721,181,94180
24.841,185739,177,94198
24.845,185741,181,94197
24.850,185747,177,94210
24.855,185770,179,94207
24.860,185776,176,94215
24.865,185784,176,94225
24.870,185802,172,94236
24.875,185809,181,94232
24.880,185828,177,94243
24.885,185833,177,94246
24.890,185848,174,94250
24.895,185846,178,94250
24.900,185860,175,94270
24.905,185879,176,94275
24.910,185885,179,94273
24.915,185872,180,94289
24.920,185896,176,94297
24.925,185882,177,94292
24.930,185900,174,94289
24.935,185898,175,94310
24.940,185906,179,94312
24.945,185906,175,94318
24.950,185910,173,94319
24.955,185925,180,94324
24.960,185928,177,94319
24.965,185952,178,94324
24.970,185962,176,94323
24.975,185967,177,94336
24.980,185974,174,94347
24.984,185984,176,94353
24.989,186009,176,94362
24.994,185999,177,94366
24.999,186021,175,94353
25.004,186035,176,94364
25.009,186039,173,94375
25.014,186069,174,94372
25.019,186073,180,94378
25.024,186082,180,94374
25.029,186086,178,94383
25.034,186105,178,94393
25.039,186105,185,94397
25.044,186115,177,94395
25.049,186146,176,94406
25.054,186153,176,94405
25.059,186149,175,94417
25.064,186180,176,94431
25.069,186190,174,94437
25.074,186207,175,94441
25.079,186217,173,94444
25.084,186249,181,94450
25.089,186256,175,94463
25.094,186259,176,94465
25.099,186264,175,94477
25.104,186280,176,94473
25.109,186322,174,94478
25.114,186334,181,94501
25.119,186344,179,94507
25.124,186376,179,94505
25.128,186373,177,94511
25.133,186402,177,94537
25.138,186419,179,94536
25.143,186444,179,94543
25.148,186457,177,94558
25.153,186471,177,94547
25.158,186503,175,94559
25.163,186516,175,94565
25.168,186525,173,94572
25.173,186552,180,94590
25.178,186549,178,94588
25.183,186574,178,94587
25.188,186594,180,94592
25.193,186607,179,94611
25.198,186612,178,94610
25.203,186638,176,94615
25.208,186640,175,94629
25.213,186662,175,94631
25.218,186677,173,94639
25.223,186709,179,94644
25.228,186723,178,94665
25.233,186758,177,94677
25.238,186773,179,94689
25.243,186790,178,94685
25.248,186818,177,94696
25.253,186824,176,94699
25.258,186852,175,94712
25.263,186858,174,94717
25.267,186851,180,94713
25.272,186880,178,94718
25.277,186893,177,94721
25.282,186921,176,94726
25.287,186935,178,94740
25.292,186932,178,94742
25.297,186943,178,94742
25.302,186974,177,94746
25.307,186964,176,94753
25.312,187002,175,94765
25.317,187000,175,94775
25.322,187019,174,94771
25.327,187041,181,94787
25.332,187054,175,94791
25.337,187079,179,94798
25.342,187079,177,94798
25.347,187121,177,94801
25.352,187120,176,94814
25.357,187127,175,94826
25.362,187147,175,94822
25.367,187168,175,94826
25.372,187174,173,94832
25.377,187179,181,94842
25.382,187208,175,94846
25.387,187217,176,94833
25.392,187219,174,94845
25.397,187218,176,94839
25.402,187233,175,94841
25.407,187240,175,94835
25.411,187237,173,94841
25.416,187258,181,94855
25.421,187284,180,94853
25.426,187298,179,94849
25.431,187297,174,94848
25.436,187322,181,94862
25.441,187332,178,94866
25.446,187343,179,94863
25.451,187364,177,94886
25.456,187405,177,94896
25.461,187417,174,94901
25.466,187426,175,94903
25.471,187438,179,94904
25.476,187440,179,94901
25.481,187411,176,94887
25.486,187392,176,94881
25.491,187390,174,94885
25.496,187359,181,94866
25.501,187332,178,94860
25.506,187305,178,94866
25.511,187258,175,94858
25.516,187238,175,94843
25.521,187181,174,94832
25.526,187140,177,94782
25.531,187078,175,94815
25.536,187033,175,94800
25.541,187005,174,94788
25.546,186963,181,94787
25.550,186928,178,94770
25.555,186904,179,94758
25.560,186868,177,94754
25.565,186839,177,94749
25.570,186821,175,94741
25.575,186786,178,94750
25.580,186781,176,94739
25.585,186775,177,94731
25.590,186761,175,94736
25.595,186749,176,94727
25.600,186743,173,94722
25.605,186725,181,94744
25.610,186708,178,94725
25.615,186706,178,94717
25.620,186700,176,94718
25.625,186723,182,94715
25.630,186666,179,94707
25.635,186645,181,94694
25.640,186610,177,94678
25.645,186589,178,94670
25.650,186566,176,94650
25.655,186533,177,94626
25.660,186498,174,94624
25.665,186479,176,94607
25.670,186467,174,94594
25.675,186457,178,94587
25.680,186423,176,94584
25.685,186423,177,94576
25.690,186395,175,94567
25.694,186397,176,94565
25.699,186387,173,94565
25.704,186392,174,94563
25.709,186376,180,94543
25.714,186391,180,94555
25.719,186411,177,94552
25.724,186403,174,94547
25.729,186386,179,94552
25.734,186410,179,94547
25.739,186408,177,94545
25.744,186409,178,94551
25.749,186421,176,94547
25.754,186411,177,94559
25.759,186434,175,94564
25.764,186415,176,94554
25.769,186434,174,94562
25.774,186420,178,94551
25.779,186432,176,94547
25.784,186400,176,94541
25.789,186397,174,94536
25.794,186403,176,94533
25.799,186386,174,94537
25.804,186390,175,94534
25.809,186365,173,94519
25.814,186374,181,94524
25.819,186357,171,94518
25.824,186338,175,94514
25.829,186354,173,94498
25.834,186338,181,94496
25.838,186332,178,94503
25.843,186326,178,94505
25.848,186324,176,94496
25.853,186320,176,94499
25.858,186328,174,94487
25.863,186315,174,94485
25.868,186322,175,94486
25.873,186299,178,94475
25.878,186295,176,94475
25.883,186305,176,94470
25.888,186291,174,94466
25.893,186285,180,94462
25.898,186282,178,94449
25.903,186268,178,94447
25.908,186251,175,94419
25.913,186252,175,94426
25.918,186247,176,94425
25.923,186241,177,94413
25.928,186227,176,94400
25.933,186232,175,94400
25.938,186226,174,94402
25.943,186223,180,94399
25.948,186228,178,94395
25.953,186232,178,94387
25.958,186244,176,94386
25.963,186219,176,94381
25.968,186228,177,94380
25.973,186237,178,94382
25.977,186235,176,94386
25.982,186246,176,94394
25.987,186235,175,94383
25.992,186235,174,94382
25.997,186263,180,94387
26.002,186257,178,94384
26.007,186259,177,94383
26.012,186275,176,94399
26.017,186284,178,94393
26.022,186295,177,94399
26.027,186310,176,94400
26.032,186314,175,94415
26.037,186325,181,94411
26.042,186346,180,94411
26.047,186324,179,94410
26.052,186365,177,94412
26.057,186354,177,94413
26.062,186342,179,94463
26.067,186351,177,94401
26.072,186367,176,94401
26.077,186355,174,94398
26.082,186366,181,94399
26.087,186371,179,94397
26.092,186384,178,94391
26.097,186379,177,94389
26.102,186379,176,94393
26.107,186365,175,94380
26.112,186383,177,94383
26.117,186386,176,94371
26.121,186383,174,94391
26.126,186386,174,94372
26.131,186401,179,94373
26.136,186394,178,94370
26.141,186409,177,94373
26.146,186412,176,94372
26.151,186422,175,94361
26.156,186420,176,94360
26.161,186458,179,94364
26.166,186438,175,94363
26.171,186428,174,94360
26.176,186430,181,94347
26.181,186435,178,94354
26.186,186433,178,94343
26.191,186447,176,94343
26.196,186445,176,94343
26.201,186474,174,94344
26.206,186468,181,94342
26.211,186481,176,94343
26.216,186481,178,94341
26.221,186493,176,94345
26.226,186489,176,94334
26.231,186515,174,94337
26.236,186505,174,94341
26.241,186500,180,94333
26.246,186535,180,94346
26.251,186503,178,94330
26.256,186519,175,94321
26.260,186508,179,94319
26.265,186480,179,94314
26.270,186456,178,94284
26.275,186444,178,94280
26.280,186401,175,94280
26.285,186386,175,94264
26.290,186347,174,94245
26.295,186309,181,94237
26.300,186242,178,94213
26.305,186199,178,94195
26.310,186146,179,94190
26.315,186112,179,94169
26.320,186042,176,94162
26.325,186002,176,94151
26.330,185988,174,94137
26.335,185940,181,94118
26.340,185906,178,94095
26.345,185864,179,94081
26.350,185821,177,94073
26.355,185786,179,94059
26.360,185768,179,94066
26.365,185733,180,94032
26.370,185722,178,94023
26.375,185695,178,94012
26.380,185688,176,94012
26.385,185650,177,94014
26.390,185653,174,94008
26.395,185645,175,93994
26.400,185638,180,93994
26.404,185632,176,93991
26.409,185593,174,93985
26.414,185571,175,93975
26.419,185567,173,93974
26.424,185565,181,93977
26.429,185537,178,93963
26.434,185533,179,93959
26.439,185531,176,93952
26.444,185508,177,93947
26.449,185501,175,93936
26.454,185485,179,93936
26.459,185487,176,93925
26.464,185463,176,93925
26.469,185470,173,93931
26.474,185464,181,93922
26.479,185468,178,93923
26.484,185451,179,93916
26.489,185467,176,93915
26.494,185470,177,93920
26.499,185484,174,93936
26.504,185495,178,93935
26.509,185505,175,93928
26.514,185491,176,93931
26.519,185495,173,93926
26.524,185486,181,93922
26.529,185489,178,93921
26.534,185515,178,93929
26.539,185520,175,93935
26.543,185516,176,93928
26.548,185518,174,93934
26.553,185519,174,93938
26.558,185513,179,93923
26.563,185537,178,93929
26.568,185521,175,93939
26.573,185529,176,93939
26.578,185540,173,93949
26.583,185543,180,93950
26.588,185556,177,93949
26.593,185522,177,93957
26.598,185546,175,93936
26.603,185539,178,93948
26.608,185520,176,93929
26.613,185518,176,93939
26.618,185512,174,93922
26.623,185497,174,93921
26.628,185508,179,93927
26.633,185511,179,93922
26.638,185504,176,93925
26.643,185502,176,93930
26.648,185472,173,93928
26.653,185498,176,93933
26.658,185502,173,93927
26.663,185521,180,93922
26.668,185524,178,93927
26.673,185525,178,93937
26.678,185540,175,93949
26.683,185529,175,93937
26.687,185526,173,93929
26.692,185562,174,93949
26.697,185543,175,93936
26.702,185535,175,93944
26.707,185554,173,93931
26.712,185570,180,93944
26.717,185570,177,93942
26.722,185565,177,93936
26.727,185591,174,93946
26.732,185590,181,93938
26.737,185599,178,93942
26.742,185596,178,93951
26.747,185608,179,93938
26.752,185606,178,93940
26.757,185615,176,93949
26.762,185622,175,93954
26.767,185655,173,93949
26.772,185670,180,93955
26.777,185659,178,93961
26.782,185675,178,93967
26.787,185684,176,93969
26.792,185687,176,93971
26.797,185718,174,93982
26.802,185710,180,93976
26.807,185701,178,93969
26.812,185731,177,93987
26.817,185747,176,93984
26.822,185754,175,93994
26.826,185755,180,93976
26.831,185768,180,93984
26.836,185771,177,93976
26.841,185796,176,93989
26.846,185788,176,93991
26.851,185790,175,93991
26.856,185811,173,93996
26.861,185827,179,93989
26.866,185840,177,93985
26.871,185843,176,93997
26.876,185851,175,93989
26.881,185858,174,93994
26.886,185883,179,93997
26.891,185897,180,93951
26.896,185894,181,94006
26.901,185895,178,93999
26.906,185910,177,94010
26.911,185911,175,94012
26.916,185940,174,94010
26.921,185963,180,94021
26.926,185972,180,94028
26.931,185971,178,94028
26.936,186001,177,94042
26.941,186021,178,94045
26.946,186042,178,94053
26.951,186065,176,94060
26.956,186073,175,94068
26.961,186073,174,94058
26.966,186068,180,94065
26.970,186101,178,94059
26.975,186104,176,94070
26.980,186116,174,94071
26.985,186135,181,94086
26.990,186145,174,94085
26.995,186167,174,94100
27.000,186187,178,94098
27.005,186215,177,94107
27.010,186215,176,94106
27.015,186233,175,94124
27.020,186254,180,94122
27.025,186262,179,94131
27.030,186262,176,94125
27.035,186266,176,94133
27.040,186263,177,94124
27.045,186237,177,94124
27.050,186244,174,94116
27.055,186212,174,94102
27.060,186176,179,94102
27.065,186150,178,94095
27.070,186121,176,94096
27.075,186092,175,94095
27.080,186052,179,94083
27.085,186017,177,94073
27.090,185965,174,94073
27.095,185924,180,94065
27.100,185876,178,94038
27.105,185811,178,94042
27.109,185784,175,94029
27.114,185742,175,94005
27.119,185686,180,93995
27.124,185653,180,93984
27.129,185581,177,93955
27.134,185554,178,93934
27.139,185522,179,93912
27.144,185476,179,93905
27.149,185440,176,93897
27.154,185428,176,93882
27.159,185403,174,93861
27.164,185377,174,93858
27.169,185362,178,93855
27.174,185344,179,93853
27.179,185356,177,93863
27.184,185333,179,93864
27.189,185347,178,93867
27.194,185340,178,93859
27.199,185330,175,93867
27.204,185327,175,93879
27.209,185323,173,93886
27.214,185289,180,93880
27.219,185303,177,93889
27.224,185276,177,93891
27.229,185247,174,93870
27.234,185256,178,93874
27.239,185247,174,93879
27.244,185234,182,93870
27.249,185237,177,93863
27.253,185224,177,93864
27.258,185225,174,93868
27.263,185219,174,93877
27.268,185219,178,93886
27.273,185241,178,93892
27.278,185241,175,93889
27.283,185273,180,93892
27.288,185263,173,93918
27.293,185286,179,93908
27.298,185286,176,93911
27.303,185282,176,93919
27.308,185291,173,93908
27.313,185296,180,93911
27.318,185307,176,93911
27.323,185300,176,93897
27.328,185284,173,93908
27.333,185291,177,93896
27.338,185277,174,93899
27.343,185277,175,93896
27.348,185287,179,93886
27.353,185283,179,93891
27.358,185263,176,93877
27.363,185248,176,93892
27.368,185259,174,93876
27.373,185266,181,93878
27.378,185242,178,93873
27.383,185238,176,93876
27.388,185234,180,93879
27.392,185231,179,93863
27.397,185221,176,93859
27.402,185221,176,93859
27.407,185201,173,93855
27.412,185177,180,93849
27.417,185207,177,93855
27.422,185198,177,93855
27.427,185202,174,93876
27.432,185200,177,93865
27.437,185214,174,93875
27.442,185232,182,93884
27.447,185231,177,93885
27.452,185242,177,93891
27.457,185249,175,93904
27.462,185259,174,93900
27.467,185271,179,93914
27.472,185285,179,93916
27.477,185285,179,93923
27.482,185292,181,93932
27.487,185296,178,93934
27.492,185312,177,93932
27.497,185316,174,93925
27.502,185325,175,93929
27.507,185326,179,93931
27.512,185331,178,93947
27.517,185324,177,93938
27.522,185338,177,93936
27.527,185329,178,93931
27.532,185323,178,93931
27.536,185362,174,93933
27.541,185343,175,93931
27.546,185358,179,93939
27.551,185362,179,93944
27.556,185380,178,93945
27.561,185388,177,93946
27.566,185417,175,93954
27.571,185416,174,93953
27.576,185427,176,93954
27.581,185431,175,93957
27.586,185445,173,93961
27.591,185458,179,93964
27.596,185467,177,93961
27.601,185455,176,93966
27.606,185478,174,93973
27.611,185497,174,93975
27.616,185507,179,93960
27.621,185503,178,93971
27.626,185519,180,93988
27.631,185554,179,93984
27.636,185562,177,94003
27.641,185575,177,94020
27.646,185603,176,94032
27.651,185620,175,94048
27.656,185644,174,94059
27.661,185657,174,94057
27.666,185696,180,94069
27.671,185694,179,94079
27.675,185731,177,94097
27.680,185760,177,94112
27.685,185773,176,94130
27.690,185835,176,94155
27.695,185852,175,94195
27.700,185890,174,94219
27.705,185931,181,94228
27.710,185965,179,94258
27.715,185998,177,94286
27.720,186031,179,94345
27.725,186084,176,94330
27.730,186096,178,94356
27.735,186128,177,94382
27.740,186186,176,94411
27.745,186212,175,94425
27.750,186249,174,94448
27.755,186270,180,94477
27.760,186315,180,94497
27.765,186348,179,94521
27.770,186367,174,94543
27.775,186407,181,94559
27.780,186444,179,94582
27.785,186451,178,94584
27.790,186480,175,94617
27.795,186528,176,94609
27.800,186529,174,94630
27.805,186529,181,94639
27.810,186552,178,94657
27.815,186588,178,94665
27.819,186599,179,94679
27.824,186621,179,94686
27.829,186642,176,94686
27.834,186643,175,94688
27.839,186669,179,94703
27.844,186692,179,94702
27.849,186730,177,94719
27.854,186744,177,94732
27.859,186766,175,94751
27.864,186790,174,94765
27.869,186804,176,94764
27.874,186811,176,94783
27.879,186837,174,94769
27.884,186806,181,94771
27.889,186788,178,94743
27.894,186778,178,94746
27.899,186741,175,94721
27.904,186689,176,94717
27.909,186649,173,94700
27.914,186607,179,94680
27.919,186549,174,94663
27.924,186491,174,94658
27.929,186439,173,94627
27.934,186364,180,94607
27.939,186335,178,94592
27.944,186282,178,94577
27.949,186252,176,94578
27.954,186222,177,94565
27.959,186183,175,94551
27.963,186156,175,94552
27.968,186145,173,94549
27.973,186121,174,94554
27.978,186101,179,94536
27.983,186098,179,94538
27.988,186058,177,94532
27.993,186045,177,94533
27.998,186048,175,94530
28.003,186024,175,94522
28.008,186003,179,94515
28.013,185992,186,94516
28.018,185979,173,94517
28.023,185962,180,94498
28.028,185945,177,94502
28.033,185927,177,94481
28.038,185892,175,94488
28.043,185867,175,94468
28.048,185844,172,94462
28.053,185834,180,94449
28.058,185829,177,94449
28.063,185834,181,94453
28.068,185805,177,94459
28.073,185807,179,94440
28.078,185780,177,94444
28.083,185797,177,94437
28.088,185774,174,94427
28.093,185767,175,94427
28.098,185743,173,94412
28.102,185720,181,94412
28.107,185747,178,94412
28.112,185712,175,94408
28.117,185709,179,94402
28.122,185706,180,94413
28.127,185717,176,94415
28.132,185714,176,94396
28.137,185712,173,94400
28.142,185718,174,94394
28.147,185723,179,94398
28.152,185721,179,94392
28.157,185731,177,94398
28.162,185714,174,94394
28.167,185739,180,94391
28.172,185736,179,94386
28.177,185720,177,94389
28.182,185724,178,94387
28.187,185712,175,94397
28.192,185711,176,94383
28.197,185712,174,94380
28.202,185692,175,94374
28.207,185702,173,94383
28.212,185692,176,94379
28.217,185686,174,94378
28.222,185693,175,94366
28.227,185685,173,94365
28.232,185669,181,94365
28.237,185656,179,94357
28.242,185666,179,94356
28.246,185638,177,94355
28.251,185645,177,94358
28.256,185643,175,94326
28.261,185644,178,94354
28.266,185659,177,94357
28.271,185653,178,94354
28.276,185644,176,94362
28.281,185665,175,94372
28.286,185681,173,94365
28.291,185662,180,94353
28.296,185687,177,94369
28.301,185674,177,94372
28.306,185706,178,94370
28.311,185700,175,94363
28.316,185685,173,94370
28.321,185689,180,94365
28.326,185692,177,94370
28.331,185698,177,94373
28.336,185701,175,94379
28.341,185702,174,94387
28.346,185723,172,94390
28.351,185727,179,94385
28.356,185764,174,94395
28.361,185760,189,94397
28.366,185756,176,94394
28.371,185773,175,94401
28.376,185763,173,94399
28.381,185792,180,94394
28.385,185779,177,94407
28.390,185795,176,94399
28.395,185803,173,94411
28.400,185792,180,94408
28.405,185831,174,94412
28.410,185837,181,94407
28.415,185841,178,94416
28.420,185829,177,94420
28.425,185867,175,94414
28.430,185882,174,94423
28.435,185890,179,94431
28.440,185902,179,94434
28.445,185914,176,94430
28.450,185930,175,94459
28.455,185947,176,94453
28.460,185956,175,94460
28.465,185957,173,94456
28.470,185979,179,94469
28.475,185981,177,94467
28.480,185990,176,94471
28.485,186015,174,94479
28.490,186014,173,94453
28.495,186025,179,94464
28.500,186038,178,94478
28.505,186060,180,94479
28.510,186060,178,94477
28.515,186058,177,94489
28.520,186066,176,94475
28.525,186083,174,94487
28.529,186096,174,94487
28.534,186106,179,94484
28.539,186101,177,94490
28.544,186114,175,94497
28.549,186129,178,94472
28.554,186137,176,94494
28.559,186140,175,94496
28.564,186158,174,94500
28.569,186158,180,94489
28.574,186180,179,94486
28.579,186183,177,94494
28.584,186185,176,94493
28.589,186178,174,94490
28.594,186203,174,94505
28.599,186212,177,94495
28.604,186205,176,94487
28.609,186212,174,94498
28.614,186230,181,94492
28.619,186223,178,94488
28.624,186236,177,94495
28.629,186244,176,94482
28.634,186236,175,94496
28.639,186261,180,94489
28.644,186284,179,94504
28.649,186294,173,94500
28.654,186297,180,94508
28.659,186300,178,94513
28.664,186310,177,94518
28.668,186346,176,94525
28.673,186368,175,94524
28.678,186376,173,94536
28.683,186378,180,94533
28.688,186408,177,94534
28.693,186397,176,94541
28.698,186402,178,94533
28.703,186380,177,94524
28.708,186382,175,94520
28.713,186357,174,94502
28.718,186330,178,94501
28.723,186299,178,94486
28.728,186265,176,94474
28.733,186238,176,94460
28.738,186181,174,94453
28.743,186128,174,94439
28.748,186069,175,94417
28.753,186029,175,94400
28.758,185964,173,94381
28.763,185939,181,94368
28.768,185878,178,94358
28.773,185847,178,94340
28.778,185815,175,94318
28.783,185786,176,94306
28.788,185732,173,94302
28.793,185716,174,94293
28.798,185665,178,94273
28.803,185656,179,94248
28.808,185622,176,94241
28.812,185574,177,94228
28.817,185572,174,94220
28.822,185546,175,94209
28.827,185546,172,94205
28.832,185529,181,94187
28.837,185486,178,94183
28.842,185482,187,94173
28.847,185477,178,94162
28.852,185452,180,94164
28.857,185449,177,94149
28.862,185429,177,94146
28.867,185430,174,94130
28.872,185399,175,94136
28.877,185393,173,94130
28.882,185364,181,94109
28.887,185345,177,94107
28.892,185322,175,94083
28.897,185305,173,94078
28.902,185304,174,94071
28.907,185275,172,94044
28.912,185245,180,94053
28.917,185225,176,94039
28.922,185229,176,94021
28.927,185198,173,94010
28.932,185216,181,94002
28.937,185185,177,93975
28.942,185159,174,93962
28.947,185139,178,93940
28.951,185116,179,93918
28.956,185107,175,93896
28.961,185085,176,93875
28.966,185059,173,93848
28.971,185047,181,93831
28.976,185028,177,93803
28.981,184994,178,93781
28.986,184956,175,93750
28.991,184910,179,93718
28.996,184878,176,93698
29.001,184857,176,93667
29.006,184796,174,93641
29.011,184782,175,93612
29.016,184745,179,93580
29.021,184714,178,93556
29.026,184676,175,93543
29.031,184667,175,93515
29.036,184609,179,93483
29.041,184597,176,93467
29.046,184568,179,93436
29.051,184545,179,93416
29.056,184514,176,93403
29.061,184495,176,93388
29.066,184486,174,93353
29.071,184447,174,93351
29.076,184438,178,93320
29.081,184435,178,93320
29.086,184424,175,93292
29.091,184406,174,93297
29.095,184408,179,93296
29.100,184399,179,93280
29.105,184383,175,93280
29.110,184388,175,93268
29.115,184388,173,93270
29.120,184395,180,93260
29.125,184383,177,93269
29.130,184398,177,93267
29.135,184414,175,93264
29.140,184391,178,93267
29.145,184399,175,93265
29.150,184411,176,93265
29.155,184413,173,93261
29.160,184422,181,93270
29.165,184416,178,93262
29.170,184411,178,93264
29.175,184434,176,93258
29.180,184436,174,93273
29.185,184462,177,93272
29.190,184460,181,93289
29.195,184458,178,93294
29.200,184481,178,93302
29.205,184504,176,93305
29.210,184507,176,93314
29.215,184522,173,93329
29.220,184547,180,93348
29.225,184557,177,93351
29.230,184592,177,93361
29.234,184623,178,93364
29.239,184635,177,93377
29.244,184646,176,93394
29.249,184676,175,93399
29.254,184712,180,93405
29.259,184717,180,93410
29.264,184729,177,93422
29.269,184743,177,93422
29.274,184751,175,93421
29.279,184759,174,93418
29.284,184758,175,93427
29.289,184757,174,93412
29.294,184774,179,93427
29.299,184788,178,93439
29.304,184809,176,93449
29.309,184839,175,93449
29.314,184829,174,93458
29.319,184839,180,93460
29.324,184846,179,93454
29.329,184874,178,93471
29.334,184883,180,93463
29.339,184887,179,93463
29.344,184913,177,93480
29.349,184918,177,93481
29.354,184937,175,93489
29.359,184961,174,93500
29.364,184987,174,93514
29.369,185007,180,93522
29.374,185008,179,93531
29.378,185023,182,93537
29.383,185064,173,93549
29.388,185070,179,93555
29.393,185084,178,93563
29.398,185100,177,93573
29.403,185122,176,93577
29.408,185145,176,93579
29.413,185150,175,93583
29.418,185158,174,93591
29.423,185159,174,93599
29.428,185197,175,93592
29.433,185212,175,93601
29.438,185208,173,93619
29.443,185226,180,93615
29.448,185265,178,93639
29.453,185282,178,93637
29.458,185314,175,93662
29.463,185324,175,93667
29.468,185336,174,93673
29.473,185351,174,93667
29.478,185385,177,93706
29.483,185386,174,93692
29.488,185402,180,93693
29.493,185399,180,93694
29.498,185388,178,93679
29.503,185367,178,93691
29.508,185340,176,93678
29.513,185343,176,93685
29.517,185304,174,93672
29.522,185298,174,93679
29.527,185270,175,93667
29.532,185227,176,93661
29.537,185198,174,93655
29.542,185163,175,93656
29.547,185124,173,93654
29.552,185104,180,93638
29.557,185065,178,93634
29.562,185022,178,93622
29.567,185008,176,93620
29.572,184969,176,93622
29.577,184940,177,93606
29.582,184924,178,93609
29.587,184896,175,93589
29.592,184881,175,93604
29.597,184871,172,93594
29.602,184852,180,93575
29.607,184844,177,93575
29.612,184834,178,93569
29.617,184822,176,93567
29.622,184811,176,93560
29.627,184800,177,93569
29.632,184805,177,93574
29.637,184800,175,93575
29.642,184801,176,93575
29.647,184796,174,93569
29.652,184784,181,93573
29.657,184786,178,93584
29.661,184767,178,93578
29.666,184762,176,93564
29.671,184753,175,93557
29.676,184752,178,93563
29.681,184727,178,93556
29.686,184714,174,93560
29.691,184697,175,93549
29.696,184704,179,93545
29.701,184689,180,93540
29.706,184683,176,93540
29.711,184693,177,93543
29.716,184676,174,93548
29.721,184687,178,93550
29.726,184703,174,93540
29.731,184707,175,93550
29.736,184721,172,93561
29.741,184723,180,93555
29.746,184745,177,93569
29.751,184742,178,93580
29.756,184765,175,93580
29.761,184763,176,93570
29.766,184774,173,93576
29.771,184793,179,93582
29.776,184778,178,93585
29.781,184808,178,93586
29.786,184795,176,93586
29.791,184815,177,93591
29.796,184802,174,93592
29.801,184795,174,93587
29.805,184790,178,93602
29.810,184808,179,93593
29.815,184804,175,93592
29.820,184824,180,93610
29.825,184827,177,93609
29.830,184812,177,93614
29.835,184813,174,93611
29.840,184822,174,93620
29.845,184814,178,93622
29.850,184822,179,93623
29.855,184823,176,93621
29.860,184831,177,93624
29.865,184848,174,93623
29.870,184818,177,93633
29.875,184819,175,93634
29.880,184830,176,93645
29.885,184837,173,93632
29.890,184853,180,93633
29.895,184843,177,93632
29.900,184863,176,93629
29.905,184863,173,93634
29.910,184867,181,93647
29.915,184883,179,93632
29.920,184888,178,93654
29.925,184894,175,93655
29.930,184909,176,93672
29.935,184931,173,93659
29.940,184915,180,93670
29.944,184924,177,93663
29.949,184922,177,93658
29.954,184937,175,93656
29.959,184940,175,93670
29.964,185004,175,93679
29.969,184953,176,93680
29.974,184964,174,93682
29.979,184969,174,93677
29.984,184986,179,93675
29.989,184986,180,93682
29.994,184999,179,93701
29.999,184994,178,93699
30.004,185031,176,93700
30.009,185050,176,93702
30.014,185060,176,93707
30.019,185075,176,93709
30.024,185095,174,93722
30.029,185100,180,93735
30.034,185107,178,93733
30.039,185128,177,93735
30.044,185148,176,93766
30.049,185167,176,93759
30.054,185193,174,93768
30.059,185189,174,93774
30.064,185186,175,93777
30.069,185234,175,93795
30.074,185244,180,93806
30.079,185254,179,93805
30.084,185263,177,93805
30.088,185278,176,93806
