df_hash,22ZHK4.SWSTG1
device,HZ2X61
project_hash,29R7
project_name,istanbul_aydin_university
person_hash,29R7.3DZJ
person_label,V43
date_time_start,2025-10-27_14-26-26.785000_+03
date_time_start_unix,1761560786.785
date_time_end,2025-10-27_14-34-14.077000_+03
length_difference_noticed,no

time,ppg_med
6.181,472
6.206,542
6.231,654
6.256,715
6.281,691
6.306,666
6.331,731
6.356,849
6.381,895
6.406,822
6.431,744
6.456,784
6.481,894
6.506,901
6.531,744
6.556,578
6.581,569
6.606,651
6.631,592
6.656,313
6.681,22
6.706,-60
6.731,-23
6.756,-170
6.781,-604
6.806,-1051
6.831,-1220
6.856,-1226
6.881,-1467
6.906,-2071
6.931,-2683
6.956,-2926
6.981,-2948
7.006,-3259
7.031,-4020
7.056,-4774
7.081,-5043
7.106,-5014
7.131,-5332
7.156,-6200
7.181,-7038
7.206,-7241
7.231,-7050
7.256,-7271
7.281,-8159
7.306,-8984
7.331,-8992
7.356,-8483
7.381,-8466
7.406,-9259
7.431,-9951
7.456,-9602
7.481,-8588
7.506,-8170
7.531,-8744
7.556,-9178
7.581,-8298
7.606,-6575
7.631,-5589
7.656,-5840
7.681,-5915
7.706,-4339
7.731,-1703
7.756,-4
7.781,114
7.806,436
7.831,2844
7.856,6592
7.881,9109
7.906,9540
7.931,10189
7.956,13529
7.981,18605
8.006,21995
8.031,22504
8.056,23220
8.081,27581
8.106,32767
8.131,32767
8.156,32767
8.181,32767
8.206,32767
8.231,32767
8.256,32767
8.281,32767
8.306,32767
8.331,32767
8.356,32767
8.381,32767
8.406,32767
8.431,12469
8.456,-32768
8.481,-32768
8.506,-32768
8.531,-32768
8.556,-32768
8.581,-32768
8.606,-32768
8.631,-32768
8.656,-32768
8.681,-32768
8.706,-32768
8.731,-32768
8.756,-32768
8.781,-29927
8.806,-24149
8.831,-22191
8.856,-22123
8.881,-20004
8.906,-15215
8.931,-10857
8.956,-9298
8.981,-9184
9.006,-7612
9.031,-4085
9.056,-908
9.081,112
9.106,-8
9.131,960
9.156,3423
9.181,5600
9.206,6078
9.231,5642
9.256,6047
9.281,7619
9.306,8963
9.331,8970
9.356,8283
9.381,8304
9.406,9281
9.431,10074
9.456,9776
9.481,8899
9.506,8585
9.531,9052
9.556,9392
9.581,8872
9.606,7893
9.631,7369
9.656,7485
9.681,7527
9.706,6915
9.731,5969
9.756,5406
9.781,5362
9.806,5266
9.831,4663
9.856,3811
9.881,3283
9.906,3187
9.931,3067
9.956,2562
9.981,1876
10.006,1456
10.031,1383
10.056,1300
10.081,923
10.106,412
10.131,116
10.156,95
10.181,70
10.206,-181
10.231,-536
10.256,-719
10.281,-667
10.306,-584
10.331,-641
10.356,-770
10.381,-792
10.406,-674
10.431,-561
10.456,-566
10.481,-623
10.506,-599
10.531,-479
10.556,-375
10.581,-366
10.606,-398
10.631,-367
10.656,-259
10.681,-165
10.706,-147
10.731,-165
10.756,-140
10.781,-59
10.806,14
10.831,30
10.856,17
10.881,36
10.906,100
10.931,158
10.956,170
10.981,158
11.006,155
11.031,133
11.056,108
11.081,82
11.106,61
11.131,42
11.156,18
11.181,-13
11.206,-44
11.231,-57
11.256,-39
11.281,8
11.306,68
11.331,118
11.356,152
11.381,175
11.406,201
11.431,232
11.456,262
11.481,282
11.506,290
11.531,292
11.556,296
11.581,304
11.606,312
11.631,315
11.656,314
11.681,309
11.706,303
11.731,293
11.756,280
11.781,264
11.806,251
11.831,240
11.856,229
11.881,213
11.906,192
11.931,170
11.956,150
11.981,129
12.006,107
12.031,84
12.056,64
12.081,48
12.106,29
12.131,1
12.156,-31
12.181,-51
12.206,-41
12.231,4
12.256,69
12.281,127
12.306,164
12.331,186
12.356,209
12.381,242
12.406,277
12.431,301
12.456,308
12.481,305
12.506,305
12.531,311
12.556,319
12.581,323
12.606,323
12.631,318
12.656,311
12.681,300
12.706,284
12.731,267
12.756,252
12.781,240
12.806,226
12.831,208
12.856,189
12.881,171
12.906,153
12.931,133
12.956,109
12.981,85
13.006,66
13.031,48
13.056,23
13.081,-11
13.106,-43
13.131,-50
13.156,-18
13.181,40
13.206,104
13.231,150
13.256,176
13.281,195
13.306,220
13.331,251
13.356,278
13.381,291
13.406,292
13.431,290
13.456,293
13.481,302
13.506,311
13.531,312
13.556,305
13.581,294
13.606,282
13.631,268
13.656,251
13.681,231
13.706,210
13.731,192
13.756,177
13.781,158
13.806,135
13.831,108
13.856,86
13.881,69
13.906,50
13.931,21
13.956,-11
13.981,-29
14.006,-13
14.031,38
14.056,108
14.081,167
14.106,204
14.131,224
14.156,242
14.181,267
14.206,291
14.231,305
14.256,305
14.281,296
14.306,291
14.331,292
14.356,297
14.381,298
14.406,289
14.431,273
14.456,256
14.481,240
14.506,224
14.531,203
14.556,177
14.581,150
14.606,127
14.631,106
14.656,80
14.681,45
14.706,15
14.731,9
14.756,41
14.781,100
14.806,161
14.831,200
14.856,217
14.881,227
14.906,244
14.931,265
14.956,274
14.981,264
15.006,244
15.031,228
15.056,223
15.081,224
15.106,222
15.131,213
15.156,200
15.181,184
15.206,165
15.231,143
15.256,122
15.281,103
15.306,80
15.331,50
15.356,16
15.381,-4
15.406,7
15.431,52
15.456,111
15.481,161
15.506,192
15.531,214
15.556,239
15.581,268
15.606,289
15.631,294
15.656,284
15.681,273
15.706,269
15.731,270
15.756,267
15.781,258
15.806,243
15.831,226
15.856,205
15.881,180
15.906,155
15.931,135
15.956,117
15.981,94
16.006,62
16.031,29
16.056,16
16.081,37
16.106,85
16.131,138
16.156,177
16.181,200
16.206,222
16.231,251
16.256,282
16.281,304
16.306,308
16.331,302
16.356,295
16.381,292
16.406,290
16.431,286
16.456,278
16.481,268
16.506,257
16.531,242
16.556,223
16.581,202
16.606,183
16.631,166
16.656,148
16.681,126
16.706,103
16.731,79
16.756,54
16.781,27
16.806,2
16.831,-7
16.856,10
16.881,51
16.906,101
16.931,142
16.956,169
16.981,190
17.006,216
17.031,247
17.056,271
17.081,282
17.106,280
17.131,276
17.156,277
17.181,283
17.206,285
17.231,280
17.256,270
17.281,261
17.306,253
17.331,243
17.356,229
17.381,212
17.406,198
17.431,188
17.456,179
17.481,166
17.506,148
17.531,128
17.556,113
17.581,100
17.606,82
17.631,56
17.656,28
17.681,12
17.706,22
17.731,55
17.756,98
17.781,136
17.806,164
17.831,185
17.856,208
17.881,234
17.906,257
17.931,273
17.956,279
17.981,279
18.006,276
18.031,273
18.056,270
18.081,269
18.106,269
18.131,266
18.156,260
18.181,250
18.206,239
18.231,228
18.256,217
18.281,203
18.306,187
18.331,173
18.356,161
18.381,151
18.406,138
18.431,122
18.456,105
18.481,91
18.506,76
18.531,56
18.556,31
18.581,13
18.606,16
18.631,46
18.656,89
18.681,129
18.706,155
18.731,172
18.756,193
18.781,223
18.806,255
18.831,276
18.856,282
18.881,279
18.906,277
18.931,282
18.956,289
18.981,293
19.006,292
19.031,288
19.056,282
19.081,275
19.106,263
19.131,248
19.156,234
19.181,220
19.206,208
19.231,195
19.256,180
19.281,165
19.306,149
19.331,130
19.356,109
19.381,88
19.406,68
19.431,48
19.456,24
19.481,-5
19.506,-31
19.531,-37
19.556,-14
19.581,33
19.606,86
19.631,127
19.656,152
19.681,173
19.706,201
19.731,238
19.756,272
19.781,293
19.806,300
19.831,301
19.856,307
19.881,317
19.906,325
19.931,328
19.956,325
19.981,318
20.006,309
20.031,296
20.056,281
20.081,266
20.106,251
20.131,237
20.156,220
20.181,200
20.206,181
20.231,164
20.256,147
20.281,127
20.306,102
20.331,78
20.356,60
20.381,44
20.406,20
20.431,-13
20.456,-46
20.481,-56
20.506,-28
20.531,28
20.556,90
20.581,138
20.606,167
20.631,192
20.656,225
20.681,262
20.706,294
20.731,310
20.756,315
20.781,318
20.806,324
20.831,332
20.856,338
20.881,339
20.906,337
20.931,333
20.956,324
20.981,308
21.006,287
21.031,265
21.056,246
21.081,230
21.106,213
21.131,195
21.156,178
21.181,161
21.206,142
21.231,118
21.256,93
21.281,70
21.306,50
21.331,26
21.356,-3
21.381,-36
21.406,-55
21.431,-43
21.456,0
21.481,60
21.506,116
21.531,154
21.556,179
21.581,201
21.606,228
21.631,255
21.656,272
21.681,276
21.706,273
21.731,273
21.756,278
21.781,283
21.806,284
21.831,279
21.856,272
21.881,265
21.906,257
21.931,245
21.956,229
21.981,213
22.006,198
22.031,184
22.056,165
22.081,142
22.106,120
22.131,103
22.156,89
22.181,70
22.206,42
22.231,14
22.256,5
22.281,26
22.306,74
22.331,129
22.356,171
22.381,196
22.406,214
22.431,236
22.456,262
22.481,283
22.506,290
22.531,284
22.556,276
22.581,275
22.606,281
22.631,287
22.656,287
22.681,279
22.706,266
22.731,252
22.756,238
22.781,223
22.806,209
22.831,196
22.856,182
22.881,164
22.906,142
22.931,119
22.956,99
22.981,83
23.006,63
23.031,36
23.056,10
23.081,0
23.106,16
23.131,58
23.156,106
23.181,143
23.206,166
23.231,188
23.256,216
23.281,248
23.306,273
23.331,284
23.356,285
23.381,286
23.406,292
23.431,298
23.456,300
23.481,298
23.506,295
23.531,289
23.556,280
23.581,266
23.606,250
23.631,236
23.656,223
23.681,208
23.706,190
23.731,172
23.756,159
23.781,146
23.806,126
23.831,97
23.856,66
23.881,42
23.906,26
23.931,10
23.956,-7
23.981,-15
24.006,2
24.031,47
24.056,105
24.081,150
24.106,174
24.131,188
24.156,207
24.181,234
24.206,260
24.231,274
24.256,276
24.281,276
24.306,281
24.331,291
24.356,297
24.381,296
24.406,292
24.431,287
24.456,281
24.481,271
24.506,259
24.531,245
24.556,231
24.581,217
24.606,202
24.631,187
24.656,172
24.681,157
24.706,137
24.731,114
24.756,90
24.781,69
24.806,49
24.831,26
24.856,5
24.881,0
24.906,20
24.931,66
24.956,120
24.981,163
25.006,187
25.031,202
25.056,223
25.081,251
25.106,277
25.131,290
25.156,291
25.181,287
25.206,286
25.231,288
25.256,291
25.281,290
25.306,286
25.331,278
25.356,264
25.381,248
25.406,230
25.431,214
25.456,198
25.481,178
25.506,153
25.531,128
25.556,109
25.581,93
25.606,73
25.631,43
25.656,15
25.681,6
25.706,29
25.731,79
25.756,133
25.781,173
25.806,196
25.831,214
25.856,236
25.881,260
25.906,275
25.931,275
25.956,267
25.981,260
26.006,262
26.031,268
26.056,269
26.081,262
26.106,250
26.131,237
26.156,223
26.181,204
26.206,178
26.231,150
26.256,126
26.281,107
26.306,86
26.331,54
26.356,15
26.381,-15
26.406,-20
26.431,10
26.456,66
26.481,123
26.506,165
26.531,191
26.556,213
26.581,241
26.606,272
26.631,295
26.656,299
26.681,289
26.706,279
26.731,276
26.756,279
26.781,279
26.806,270
26.831,253
26.856,235
26.881,216
26.906,195
26.931,169
26.956,142
26.981,119
27.006,97
27.031,69
27.056,31
27.081,-3
27.106,-14
27.131,11
27.156,67
27.181,127
27.206,173
27.231,202
27.256,228
27.281,259
27.306,292
27.331,313
27.356,320
27.381,316
27.406,311
27.431,311
27.456,310
27.481,306
27.506,297
27.531,285
27.556,271
27.581,254
27.606,234
27.631,213
27.656,190
27.681,165
27.706,139
27.731,114
27.756,92
27.781,71
27.806,44
27.831,9
27.856,-23
27.881,-35
27.906,-15
27.931,33
27.956,89
27.981,133
28.006,164
28.031,190
28.056,222
28.081,258
28.106,286
28.131,300
28.156,301
28.181,298
28.206,298
28.231,301
28.256,304
28.281,304
28.306,299
28.331,290
28.356,275
28.381,258
28.406,240
28.431,224
28.456,209
28.481,196
28.506,182
28.531,163
28.556,140
28.581,114
28.606,92
28.631,75
28.656,61
28.681,42
28.706,15
28.731,-10
28.756,-18
28.781,4
28.806,51
28.831,103
28.856,141
28.881,165
28.906,185
28.931,211
28.956,241
28.981,263
29.006,272
29.031,272
29.056,272
29.081,279
29.106,286
29.131,289
29.156,286
29.181,281
29.206,276
29.231,271
29.256,263
29.281,252
29.306,241
29.331,230
29.356,220
29.381,207
29.406,193
29.431,179
29.456,165
29.481,149
29.506,131
29.531,111
29.556,95
29.581,81
29.606,63
29.631,38
29.656,14
29.681,9
29.706,31
29.731,74
29.756,119
29.781,150
29.806,165
29.831,177
29.856,198
29.881,225
29.906,248
29.931,258
29.956,257
29.981,256
30.006,259
30.031,265
30.056,271
30.081,273
30.106,271
30.131,267
30.156,259
30.181,249
30.206,238
30.231,230
30.256,224
30.281,215
30.306,202
30.331,187
30.356,174
30.381,164
30.406,152
30.431,136
30.456,118
30.481,104
30.506,93
30.531,80
30.556,58
30.581,31
30.606,17
30.631,29
30.656,68
30.681,115
30.706,152
30.731,172
30.756,185
30.781,203
30.806,225
30.831,247
30.856,259
30.881,265
30.906,269
30.931,277
30.956,286
30.981,291
31.006,292
31.031,289
31.056,286
31.081,281
31.106,274
31.131,265
31.156,255
31.181,243
31.206,231
31.231,217
31.256,203
31.281,190
31.306,174
31.331,155
31.356,134
31.381,114
31.406,98
31.431,83
31.456,61
31.481,31
31.506,6
31.531,4
31.556,34
31.581,84
31.606,133
31.631,166
31.656,183
31.681,199
31.706,222
31.731,247
31.756,265
31.781,269
31.806,267
31.831,266
31.856,270
31.881,276
31.906,279
31.931,278
31.956,275
31.981,270
32.006,260
32.031,245
32.056,229
32.081,212
32.106,195
32.131,176
32.156,154
32.181,133
32.206,116
32.231,98
32.256,71
32.281,37
32.306,9
32.331,7
32.356,38
32.381,90
32.406,143
32.431,179
32.456,200
32.481,216
32.506,235
32.531,254
32.556,264
32.581,262
32.606,255
32.631,252
32.656,257
32.681,263
32.706,262
32.731,253
32.756,237
32.781,220
32.806,202
32.831,181
32.856,158
32.881,138
32.906,121
32.931,103
32.956,77
32.981,42
33.006,12
33.031,6
33.056,34
33.081,88
33.106,142
33.131,180
33.156,202
33.181,223
33.206,251
33.231,280
33.256,295
33.281,293
33.306,282
33.331,274
33.356,275
33.381,278
33.406,273
33.431,260
33.456,243
33.481,226
33.506,205
33.531,179
33.556,152
33.581,130
33.606,111
33.631,86
33.656,50
33.681,13
33.706,-4
33.731,12
33.756,59
33.781,114
33.806,157
33.831,185
33.856,209
33.881,237
33.906,268
33.931,293
33.956,304
33.981,306
34.006,305
34.031,307
34.056,310
34.081,309
34.106,303
34.131,293
34.156,279
34.181,262
34.206,242
34.231,223
34.256,207
34.281,191
34.306,173
34.331,149
34.356,125
34.381,103
34.406,85
34.431,64
34.456,34
34.481,0
34.506,-24
34.531,-22
34.556,10
34.581,60
34.606,109
34.631,144
34.656,166
34.681,188
34.706,216
34.731,248
34.756,274
34.781,287
34.806,289
34.831,288
34.856,290
34.881,296
34.906,301
34.931,301
34.956,295
34.981,284
35.006,271
35.031,258
35.056,245
35.081,230
35.106,212
35.131,194
35.156,178
35.181,163
35.206,147
35.231,129
35.256,110
35.281,92
35.306,74
35.331,54
35.356,30
35.381,8
35.406,0
35.431,16
35.456,54
35.481,97
35.506,131
35.531,152
35.556,168
35.581,190
35.606,217
35.631,241
35.656,255
35.681,258
35.706,259
35.731,262
35.756,267
35.781,270
35.806,269
35.831,265
35.856,260
35.881,255
35.906,248
35.931,240
35.956,231
35.981,222
36.006,213
36.031,204
36.056,196
36.081,188
36.106,179
36.131,166
36.156,151
36.181,137
36.206,127
36.231,118
36.256,102
36.281,78
36.306,54
36.331,43
36.356,58
36.381,93
36.406,132
36.431,160
36.456,173
36.481,182
36.506,197
36.531,218
36.556,237
36.581,246
36.606,246
36.631,245
36.656,248
36.681,255
36.706,262
36.731,265
36.756,264
36.781,262
36.806,260
36.831,258
36.856,253
36.881,244
36.906,233
36.931,223
36.956,213
36.981,203
37.006,191
37.031,178
37.056,166
37.081,154
37.106,141
37.131,128
37.156,114
37.181,99
37.206,81
37.231,61
37.256,46
37.281,46
37.306,65
37.331,98
37.356,132
37.381,158
37.406,173
37.431,185
37.456,202
37.481,222
37.506,240
37.531,248
37.556,247
37.581,245
37.606,250
37.631,261
37.656,271
37.681,273
37.706,266
37.731,257
37.756,250
37.781,245
37.806,238
37.831,224
37.856,207
37.881,190
37.906,177
37.931,165
37.956,152
37.981,138
38.006,122
38.031,104
38.056,83
38.081,57
38.106,37
38.131,36
38.156,60
38.181,103
38.206,147
38.231,179
38.256,198
38.281,212
38.306,228
38.331,244
38.356,256
38.381,261
38.406,262
38.431,263
38.456,264
38.481,263
38.506,261
38.531,260
38.556,260
38.581,257
38.606,244
38.631,223
38.656,201
38.681,183
38.706,169
38.731,151
38.756,128
38.781,103
38.806,80
38.831,56
38.856,29
38.881,2
38.906,-9
38.931,6
38.956,49
38.981,102
39.006,146
39.031,173
39.056,194
39.081,219
39.106,251
39.131,279
39.156,294
39.181,296
39.206,293
39.231,293
39.256,298
39.281,303
39.306,304
39.331,299
39.356,290
39.381,276
39.406,261
39.431,243
39.456,225
39.481,207
39.506,189
39.531,167
39.556,143
39.581,118
39.606,95
39.631,73
39.656,46
39.681,12
39.706,-22
39.731,-41
39.756,-31
39.781,10
39.806,70
39.831,125
39.856,164
39.881,190
39.906,214
39.931,243
39.956,273
39.981,295
40.006,303
40.031,303
40.056,303
40.081,308
40.106,314
40.131,317
40.156,314
40.181,308
40.206,300
40.231,291
40.256,280
40.281,266
40.306,251
40.331,235
40.356,217
40.381,198
40.406,178
40.431,159
40.456,139
40.481,116
40.506,94
40.531,76
40.556,61
40.581,42
40.606,15
40.631,-15
40.656,-34
40.681,-24
40.706,16
40.731,71
40.756,119
40.781,152
40.806,175
40.831,199
40.856,228
40.881,256
40.906,272
40.931,278
40.956,278
40.981,281
41.006,288
41.031,295
41.056,299
41.081,297
41.106,293
41.131,287
41.156,277
41.181,266
41.206,255
41.231,245
41.256,235
41.281,223
41.306,209
41.331,193
41.356,177
41.381,159
41.406,141
41.431,123
41.456,107
41.481,91
41.506,70
41.531,46
41.556,26
41.581,23
41.606,43
41.631,81
41.656,122
41.681,154
41.706,175
41.731,191
41.756,210
41.781,230
41.806,243
41.831,247
41.856,243
41.881,241
41.906,244
41.931,251
41.956,255
41.981,253
42.006,248
42.031,243
42.056,237
42.081,230
42.106,219
42.131,205
42.156,190
42.181,176
42.206,164
42.231,153
42.256,142
42.281,128
42.306,109
42.331,88
42.356,72
42.381,71
42.406,89
42.431,122
42.456,157
42.481,182
42.506,197
42.531,207
42.556,218
42.581,231
42.606,240
42.631,241
42.656,236
42.681,233
42.706,236
42.731,242
42.756,244
42.781,239
42.806,229
42.831,218
42.856,210
42.881,203
42.906,193
42.931,178
42.956,163
42.981,151
43.006,141
43.031,127
43.056,107
43.081,85
43.106,73
43.131,79
43.156,104
43.181,139
43.206,168
43.231,185
43.256,195
43.281,206
43.306,222
43.331,241
43.356,253
43.381,254
43.406,248
43.431,243
43.456,242
43.481,244
43.506,243
43.531,238
43.556,228
43.581,217
43.606,206
43.631,194
43.656,179
43.681,164
43.706,150
43.731,137
43.756,121
43.781,97
43.806,71
43.831,52
43.856,53
43.881,76
43.906,111
43.931,144
43.956,166
43.981,181
44.006,198
44.031,220
44.056,243
44.081,258
44.106,261
44.131,259
44.156,259
44.181,263
44.206,266
44.231,264
44.256,257
44.281,248
44.306,238
44.331,226
44.356,212
44.381,196
44.406,183
44.431,171
44.456,156
44.481,134
44.506,110
44.531,88
44.556,70
44.581,49
44.606,24
44.631,1
44.656,-4
44.681,16
44.706,59
44.731,106
44.756,142
44.781,166
44.806,188
44.831,216
44.856,249
44.881,276
44.906,290
44.931,294
44.956,298
44.981,308
45.006,322
45.031,334
45.056,340
45.081,340
45.106,336
45.131,329
45.156,321
45.181,313
45.206,303
45.231,293
45.256,283
45.281,271
45.306,257
45.331,240
45.356,219
45.381,195
45.406,172
45.431,149
45.456,124
45.481,90
45.506,48
45.531,10
45.556,-10
45.581,-6
45.606,14
45.631,38
45.656,56
45.681,70
45.706,88
45.731,115
45.756,146
45.781,171
45.806,186
45.831,193
45.856,200
45.881,211
45.906,224
45.931,236
45.956,245
45.981,248
46.006,246
46.031,242
46.056,236
46.081,230
46.106,223
46.131,213
46.156,200
46.181,186
46.206,173
46.231,159
46.256,142
46.281,124
46.306,108
46.331,97
46.356,86
46.381,67
46.406,39
46.431,13
46.456,8
46.481,34
46.506,85
46.531,139
46.556,181
46.581,209
46.606,231
46.631,255
46.656,281
46.681,299
46.706,305
46.731,300
46.756,295
46.781,294
46.806,299
46.831,304
46.856,305
46.881,301
46.906,292
46.931,282
46.956,270
46.981,257
47.006,242
47.031,226
47.056,212
47.081,198
47.106,183
47.131,166
47.156,148
47.181,132
47.206,118
47.231,101
47.256,77
47.281,50
47.306,33
47.331,40
47.356,71
47.381,114
47.406,153
47.431,178
47.456,194
47.481,208
47.506,222
47.531,235
47.556,241
47.581,240
47.606,237
47.631,237
47.656,239
47.681,241
47.706,242
47.731,240
47.756,235
47.781,227
47.806,218
47.831,209
47.856,199
47.881,184
47.906,166
47.931,147
47.956,132
47.981,120
48.006,106
48.031,87
48.056,71
48.081,70
48.106,92
48.131,130
48.156,167
48.181,189
48.206,199
48.231,206
48.256,219
48.281,233
48.306,239
48.331,234
48.356,227
48.381,224
48.406,227
48.431,230
48.456,228
48.481,221
48.506,213
48.531,204
48.556,193
48.581,180
48.606,168
48.631,156
48.656,142
48.681,122
48.706,96
48.731,77
48.756,76
48.781,99
48.806,135
48.831,169
48.856,189
48.881,199
48.906,209
48.931,224
48.956,242
48.981,253
49.006,254
49.031,247
49.056,242
49.081,242
49.106,242
49.131,239
49.156,229
49.181,218
49.206,207
49.231,197
49.256,185
49.281,169
49.306,154
49.331,142
49.356,129
49.381,112
49.406,89
49.431,71
49.456,72
49.481,95
49.506,131
49.531,164
49.556,185
49.581,200
49.606,217
49.631,239
49.656,257
49.681,265
49.706,263
49.731,259
49.756,258
49.781,261
49.806,262
49.831,258
49.856,249
49.881,237
49.906,223
49.931,209
49.956,195
49.981,182
50.006,169
50.031,155
50.056,140
50.081,126
50.106,112
50.131,94
50.156,70
50.181,45
50.206,30
50.231,39
50.256,70
50.281,111
50.306,146
50.331,168
50.356,185
50.381,207
50.406,235
50.431,260
50.456,272
50.481,272
50.506,268
50.531,268
50.556,272
50.581,276
50.606,275
50.631,269
50.656,263
50.681,255
50.706,246
50.731,233
50.756,217
50.781,201
50.806,188
50.831,178
50.856,167
50.881,151
50.906,131
50.931,112
50.956,94
50.981,76
51.006,53
51.031,27
51.056,6
51.081,4
51.106,28
51.131,72
51.156,121
51.181,160
51.206,186
51.231,206
51.256,227
51.281,250
51.306,269
51.331,278
51.356,280
51.381,281
51.406,284
51.431,291
51.456,296
51.481,296
51.506,290
51.531,280
51.556,270
51.581,261
51.606,251
51.631,238
51.656,223
51.681,205
51.706,188
51.731,174
51.756,159
51.781,141
51.806,121
51.831,102
51.856,86
51.881,69
51.906,47
51.931,22
51.956,5
51.981,13
52.006,49
52.031,102
52.056,152
52.081,185
52.106,202
52.131,216
52.156,237
52.181,260
52.206,277
52.231,281
52.256,277
52.281,274
52.306,277
52.331,284
52.356,286
52.381,279
52.406,268
52.431,256
52.456,245
52.481,234
52.506,222
52.531,210
52.556,197
52.581,183
52.606,167
52.631,150
52.656,134
52.681,118
52.706,98
52.731,74
52.756,51
52.781,43
52.806,59
52.831,96
52.856,139
52.881,173
52.906,192
52.931,204
52.956,216
52.981,231
53.006,242
53.031,243
53.056,235
53.081,227
53.106,227
53.131,233
53.156,238
53.181,235
53.206,227
53.231,216
53.256,206
53.281,195
53.306,181
53.331,165
53.356,151
53.381,139
53.406,125
53.431,104
53.456,82
53.481,71
53.506,81
53.531,113
53.556,152
53.581,183
53.606,200
53.631,212
53.656,225
53.681,240
53.706,249
53.731,248
53.756,239
53.781,233
53.806,233
53.831,237
53.856,237
53.881,230
53.906,219
53.931,208
53.956,195
53.981,180
54.006,163
54.031,147
54.056,134
54.081,118
54.106,96
54.131,72
54.156,60
54.181,70
54.206,99
54.231,134
54.256,163
54.281,183
54.306,199
54.331,219
54.356,239
54.381,254
54.406,259
54.431,258
54.456,255
54.481,254
54.506,256
54.531,258
54.556,258
54.581,252
54.606,240
54.631,223
54.656,204
54.681,188
54.706,176
54.731,164
54.756,151
54.781,135
54.806,117
54.831,97
54.856,76
54.881,61
54.906,60
54.931,75
54.956,105
54.981,137
55.006,162
55.031,180
55.056,197
55.081,220
55.106,246
55.131,264
55.156,271
55.181,268
55.206,264
55.231,265
55.256,269
55.281,271
55.306,266
55.331,258
55.356,252
55.381,247
55.406,240
55.431,226
55.456,208
55.481,191
55.506,178
55.531,168
55.556,156
55.581,140
55.606,126
55.631,116
55.656,108
55.681,93
55.706,69
55.731,44
55.756,33
55.781,49
55.806,85
55.831,125
55.856,153
55.881,169
55.906,183
55.931,204
55.956,231
55.981,254
56.006,265
56.031,267
56.056,265
56.081,265
56.106,269
56.131,272
56.156,272
56.181,268
56.206,262
56.231,255
56.256,247
56.281,239
56.306,228
56.331,215
56.356,201
56.381,189
56.406,178
56.431,165
56.456,149
56.481,132
56.506,116
56.531,101
56.556,84
56.581,62
56.606,40
56.631,30
56.656,42
56.681,75
56.706,112
56.731,140
56.756,156
56.781,170
56.806,189
56.831,211
56.856,228
56.881,234
56.906,231
56.931,228
56.956,230
56.981,236
57.006,240
57.031,238
57.056,234
57.081,229
57.106,225
57.131,220
57.156,214
57.181,209
57.206,204
57.231,198
57.256,190
57.281,180
57.306,171
57.331,164
57.356,157
57.381,146
57.406,130
57.431,114
57.456,107
57.481,116
57.506,140
57.531,171
57.556,198
57.581,216
57.606,227
57.631,240
57.656,256
57.681,272
57.706,282
57.731,283
57.756,277
57.781,270
57.806,263
57.831,255
57.856,245
57.881,234
57.906,223
57.931,213
57.956,204
57.981,192
58.006,178
58.031,162
58.056,146
58.081,132
58.106,120
58.131,108
58.156,90
58.181,68
58.206,46
58.231,37
58.256,49
58.281,80
58.306,119
58.331,150
58.356,169
58.381,182
58.406,198
58.431,218
58.456,236
58.481,243
58.506,241
58.531,238
58.556,239
58.581,242
58.606,242
58.631,235
58.656,224
58.681,213
58.706,204
58.731,195
58.756,181
58.781,164
58.806,147
58.831,133
58.856,120
58.881,102
58.906,80
58.931,60
58.956,53
58.981,66
59.006,96
59.031,132
59.056,162
59.081,183
59.106,203
59.131,225
59.156,251
59.181,271
59.206,280
59.231,279
59.256,276
59.281,277
59.306,278
59.331,275
59.356,266
59.381,255
59.406,246
59.431,239
59.456,229
59.481,216
59.506,200
59.531,186
59.556,173
59.581,158
59.606,141
59.631,126
59.656,116
59.681,106
59.706,90
59.731,68
59.756,51
59.781,57
59.806,87
59.831,128
59.856,160
59.881,177
59.906,187
59.931,205
59.956,232
59.981,258
60.006,271
60.031,270
60.056,265
60.081,265
60.106,270
60.131,273
60.156,272
60.181,266
60.206,259
60.231,251
60.256,242
60.281,233
60.306,224
60.331,216
60.356,208
60.381,197
60.406,184
60.431,172
60.456,160
60.481,146
60.506,131
60.531,116
60.556,105
60.581,94
60.606,77
60.631,54
60.656,32
60.681,28
60.706,47
60.731,83
60.756,117
60.781,138
60.806,148
60.831,159
60.856,179
60.881,205
60.906,228
60.931,239
60.956,241
60.981,242
61.006,245
61.031,250
61.056,255
61.081,256
61.106,254
61.131,252
61.156,248
61.181,244
61.206,239
61.231,235
61.256,231
61.281,225
61.306,216
61.331,205
61.356,194
61.381,185
61.406,177
61.431,168
61.456,158
61.481,148
61.506,137
61.531,125
61.556,108
61.581,89
61.606,74
61.631,74
61.656,91
61.681,120
61.706,148
61.731,169
61.756,182
61.781,194
61.806,211
61.831,230
61.856,244
61.881,250
61.906,249
61.931,248
61.956,250
61.981,255
62.006,259
62.031,259
62.056,255
62.081,250
62.106,245
62.131,239
62.156,231
62.181,220
62.206,209
62.231,199
62.256,191
62.281,184
62.306,174
62.331,160
62.356,146
62.381,133
62.406,124
62.431,115
62.456,100
62.481,81
62.506,67
62.531,68
62.556,87
62.581,115
62.606,141
62.631,158
62.656,169
62.681,182
62.706,199
62.731,214
62.756,222
62.781,225
62.806,227
62.831,235
62.856,244
62.881,251
62.906,251
62.931,249
62.956,247
62.981,244
63.006,239
63.031,230
63.056,220
63.081,211
63.106,204
63.131,192
63.156,175
63.181,156
63.206,140
63.231,128
63.256,115
63.281,93
63.306,67
63.331,48
63.356,47
63.381,68
63.406,100
63.431,130
63.456,151
63.481,166
63.506,182
63.531,203
63.556,225
63.581,245
63.606,259
63.631,266
63.656,271
63.681,275
63.706,280
63.731,284
63.756,287
63.781,285
63.806,280
63.831,272
63.856,263
63.881,255
63.906,245
63.931,232
63.956,216
63.981,201
64.006,186
64.031,169
64.056,148
64.081,125
64.106,104
64.131,87
64.156,71
64.181,49
64.206,20
64.231,-4
64.256,-9
64.281,13
64.306,54
64.331,96
64.356,127
64.381,147
64.406,168
64.431,197
64.456,230
64.481,256
64.506,271
64.531,276
64.556,281
64.581,290
64.606,302
64.631,310
64.656,311
64.681,307
64.706,300
64.731,293
64.756,283
64.781,270
64.806,257
64.831,245
64.856,235
64.881,224
64.906,209
64.931,193
64.956,177
64.981,163
65.006,146
65.031,124
65.056,99
65.081,77
65.106,59
65.131,42
65.156,19
65.181,-8
65.206,-28
65.231,-23
65.256,12
65.281,67
65.306,119
65.331,156
65.356,180
65.381,203
65.406,230
65.431,259
65.456,279
65.481,288
65.506,292
65.531,297
65.556,305
65.581,312
65.606,313
65.631,312
65.656,311
65.681,310
65.706,303
65.731,291
65.756,277
65.781,265
65.806,257
65.831,246
65.856,230
65.881,210
65.906,192
65.931,177
65.956,161
65.981,142
66.006,123
66.031,108
66.056,97
66.081,80
66.106,48
66.131,11
66.156,-12
66.181,-4
66.206,36
66.231,90
66.256,134
66.281,160
66.306,175
66.331,193
66.356,215
66.381,235
66.406,245
66.431,245
66.456,242
66.481,244
66.506,251
66.531,260
66.556,264
66.581,261
66.606,253
66.631,242
66.656,231
66.681,221
66.706,212
66.731,201
66.756,186
66.781,166
66.806,145
66.831,128
66.856,114
66.881,99
66.906,78
66.931,55
66.956,40
66.981,47
67.006,78
67.031,119
67.056,156
67.081,178
67.106,191
67.131,204
67.156,225
67.181,247
67.206,263
67.231,268
67.256,266
67.281,263
67.306,264
67.331,266
67.356,266
67.381,264
67.406,258
67.431,250
67.456,238
67.481,224
67.506,209
67.531,194
67.556,180
67.581,164
67.606,147
67.631,130
67.656,112
67.681,92
67.706,68
67.731,48
67.756,46
67.781,67
67.806,106
67.831,147
67.856,175
67.881,190
67.906,202
67.931,220
67.956,243
67.981,260
68.006,266
68.031,262
68.056,256
68.081,256
68.106,258
68.131,260
68.156,258
68.181,251
68.206,242
68.231,230
68.256,218
68.281,206
68.306,196
68.331,188
68.356,176
68.381,160
68.406,141
68.431,123
68.456,111
68.481,102
68.506,89
68.531,68
68.556,45
68.581,33
68.606,42
68.631,74
68.656,116
68.681,152
68.706,177
68.731,193
68.756,211
68.781,233
68.806,254
68.831,267
68.856,271
68.881,272
68.906,277
68.931,285
68.956,293
68.981,295
69.006,290
69.031,283
69.056,275
69.081,267
69.106,258
69.131,249
69.156,240
69.181,232
69.206,221
69.231,208
69.256,194
69.281,178
69.306,162
69.331,143
69.356,124
69.381,106
69.406,88
69.431,70
69.456,48
69.481,26
69.506,15
69.531,24
69.556,55
69.581,96
69.606,133
69.631,158
69.656,173
69.681,185
69.706,200
69.731,212
69.756,220
69.781,222
69.806,222
69.831,224
69.856,227
69.881,232
69.906,236
69.931,239
69.956,242
69.981,241
70.006,238
70.031,232
70.056,226
70.081,224
70.106,222
70.131,218
70.156,209
70.181,197
70.206,183
70.231,171
70.256,158
70.281,142
70.306,119
70.331,94
70.356,74
70.381,68
70.406,82
70.431,114
70.456,151
70.481,182
70.506,201
70.531,213
70.556,225
70.581,241
70.606,255
70.631,261
70.656,259
70.681,255
70.706,257
70.731,262
70.756,265
70.781,260
70.806,251
70.831,244
70.856,239
70.881,233
70.906,222
70.931,208
70.956,195
70.981,186
71.006,175
71.031,159
71.056,138
71.081,121
71.106,109
71.131,93
71.156,65
71.181,29
71.206,5
71.231,14
71.256,56
71.281,110
71.306,153
71.331,174
71.356,184
71.381,198
71.406,221
71.431,245
71.456,260
71.481,264
71.506,263
71.531,263
71.556,268
71.581,274
71.606,278
71.631,277
71.656,269
71.681,256
71.706,241
71.731,227
71.756,216
71.781,205
71.806,192
71.831,175
71.856,158
71.881,142
71.906,127
71.931,112
71.956,98
71.981,84
72.006,70
72.031,53
72.056,31
72.081,14
72.106,15
72.131,41
72.156,85
72.181,130
72.206,165
72.231,187
72.256,207
72.281,230
72.306,254
72.331,272
72.356,282
72.381,285
72.406,288
72.431,292
72.456,295
72.481,297
72.506,295
72.531,293
72.556,288
72.581,281
72.606,274
72.631,267
72.656,261
72.681,251
72.706,238
72.731,222
72.756,207
72.781,193
72.806,178
72.831,160
72.856,141
72.881,121
72.906,102
72.931,78
72.956,47
72.981,17
73.006,2
73.031,13
73.056,49
73.081,94
73.106,132
73.131,157
73.156,174
73.181,192
73.206,216
73.231,239
73.256,255
73.281,260
73.306,258
73.331,255
73.356,256
73.381,260
73.406,264
73.431,264
73.456,261
73.481,255
73.506,248
73.531,242
73.556,234
73.581,223
73.606,211
73.631,199
73.656,189
73.681,176
73.706,160
73.731,143
73.756,127
73.781,113
73.806,98
73.831,78
73.856,56
73.881,45
73.906,56
73.931,90
73.956,132
73.981,164
74.006,180
74.031,188
74.056,199
74.081,216
74.106,234
74.131,242
74.156,240
74.181,233
74.206,230
74.231,232
74.256,236
74.281,238
74.306,235
74.331,231
74.356,225
74.381,220
74.406,214
74.431,206
74.456,194
74.481,179
74.506,162
74.531,147
74.556,134
74.581,121
74.606,103
74.631,85
74.656,74
74.681,80
74.706,106
74.731,142
74.756,172
74.781,190
74.806,198
74.831,206
74.856,220
74.881,236
74.906,247
74.931,249
74.956,246
74.981,244
75.006,245
75.031,248
75.056,249
75.081,247
75.106,241
75.131,234
75.156,225
75.181,214
75.206,203
75.231,191
75.256,180
75.281,166
75.306,152
75.331,137
75.356,120
75.381,100
75.406,78
75.431,62
75.456,62
75.481,83
75.506,117
75.531,152
75.556,175
75.581,188
75.606,200
75.631,218
75.656,241
75.681,257
75.706,261
75.731,256
75.756,253
75.781,256
75.806,263
75.831,266
75.856,261
75.881,252
75.906,246
75.931,243
75.956,238
75.981,226
76.006,209
76.031,193
76.056,182
76.081,172
76.106,157
76.131,138
76.156,119
76.181,104
76.206,90
76.231,70
76.256,44
76.281,22
76.306,21
76.331,47
76.356,87
76.381,126
76.406,153
76.431,171
76.456,190
76.481,214
76.506,239
76.531,257
76.556,266
76.581,269
76.606,272
76.631,276
76.656,282
76.681,286
76.706,289
76.731,288
76.756,282
76.781,272
76.806,259
76.831,245
76.856,232
76.881,219
76.906,205
76.931,190
76.956,175
76.981,158
77.006,140
77.031,123
77.056,106
77.081,89
77.106,68
77.131,44
77.156,26
77.181,29
77.206,57
77.231,101
77.256,142
77.281,170
77.306,186
77.331,203
77.356,227
77.381,252
77.406,266
77.431,267
77.456,263
77.481,264
77.506,271
77.531,276
77.556,275
77.581,268
77.606,260
77.631,254
77.656,246
77.681,234
77.706,219
77.731,206
77.756,193
77.781,179
77.806,162
77.831,144
77.856,130
77.881,117
77.906,96
77.931,67
77.956,39
77.981,31
78.006,54
78.031,98
78.056,143
78.081,174
78.106,190
78.131,202
78.156,220
78.181,239
78.206,251
78.231,252
78.256,247
78.281,245
78.306,247
78.331,250
78.356,248
78.381,240
78.406,229
78.431,220
78.456,210
78.481,197
78.506,179
78.531,160
78.556,143
78.581,129
78.606,112
78.631,87
78.656,59
78.681,40
78.706,44
78.731,73
78.756,116
78.781,158
78.806,188
78.831,209
78.856,229
78.881,250
78.906,270
78.931,284
78.956,287
78.981,284
79.006,279
79.031,278
79.056,279
79.081,277
79.106,271
79.131,259
79.156,244
79.181,228
79.206,214
79.231,197
79.256,178
79.281,158
79.306,140
79.331,124
79.356,106
79.381,80
79.406,48
79.431,21
79.456,15
79.481,35
79.506,72
79.531,111
79.556,140
79.581,160
79.606,177
79.631,197
79.656,218
79.681,233
79.706,238
79.731,236
79.756,232
79.781,232
79.806,232
79.831,229
79.856,220
79.881,208
79.906,196
79.931,188
79.956,185
79.981,184
80.006,185
80.031,186
80.056,189
80.081,191
80.106,190
80.131,185
80.156,174
80.181,161
80.206,146
80.231,126
80.256,103
80.281,84
80.306,82
80.331,102
80.356,138
80.381,175
80.406,199
80.431,213
80.456,225
80.481,243
80.506,263
80.531,277
80.556,280
80.581,278
80.606,278
80.631,282
80.656,287
80.681,290
80.706,290
80.731,288
80.756,285
80.781,277
80.806,266
80.831,255
80.856,248
80.881,242
80.906,233
80.931,220
80.956,206
80.981,193
81.006,179
81.031,161
81.056,138
81.081,114
81.106,92
81.131,70
81.156,45
81.181,19
81.206,4
81.231,12
81.256,42
81.281,82
81.306,115
81.331,135
81.356,149
81.381,166
81.406,187
81.431,205
81.456,215
81.481,218
81.506,218
81.531,219
81.556,224
81.581,229
81.606,234
81.631,235
81.656,231
81.681,223
81.706,215
81.731,209
81.756,207
81.781,204
81.806,199
81.831,191
81.856,181
81.881,172
81.906,164
81.931,154
81.956,144
81.981,131
82.006,114
82.031,95
82.056,82
82.081,84
82.106,106
82.131,141
82.156,175
82.181,197
82.206,207
82.231,216
82.256,229
82.281,243
82.306,251
82.331,250
82.356,244
82.381,241
82.406,246
82.431,252
82.456,253
82.481,248
82.506,240
82.531,232
82.556,225
82.581,216
82.606,203
82.631,188
82.656,173
82.681,162
82.706,152
82.731,138
82.756,118
82.781,94
82.806,76
82.831,77
82.856,96
82.881,126
82.906,156
82.931,178
82.956,194
82.981,210
83.006,227
83.031,240
83.056,246
83.081,247
83.106,245
83.131,244
83.156,242
83.181,240
83.206,237
83.231,235
83.256,233
83.281,226
83.306,213
83.331,198
83.356,184
83.381,172
83.406,158
83.431,142
83.456,125
83.481,111
83.506,96
83.531,75
83.556,52
83.581,38
83.606,46
83.631,79
83.656,124
83.681,163
83.706,187
83.731,201
83.756,217
83.781,238
83.806,261
83.831,276
83.856,281
83.881,281
83.906,279
83.931,278
83.956,280
83.981,281
84.006,279
84.031,274
84.056,266
84.081,255
84.106,243
84.131,230
84.156,215
84.181,200
84.206,184
84.231,168
84.256,151
84.281,132
84.306,111
84.331,93
84.356,78
84.381,59
84.406,34
84.431,6
84.456,-8
84.481,5
84.506,46
84.531,98
84.556,142
84.581,169
84.606,186
84.631,207
84.656,234
84.681,260
84.706,276
84.731,282
84.756,284
84.781,289
84.806,296
84.831,302
84.856,304
84.881,302
84.906,298
84.931,291
84.956,281
84.981,268
85.006,253
85.031,238
85.056,224
85.081,209
85.106,193
85.131,174
85.156,152
85.181,131
85.206,112
85.231,96
85.256,80
85.281,56
85.306,25
85.331,0
85.356,-3
85.381,24
85.406,74
85.431,127
85.456,165
85.481,186
85.506,201
85.531,220
85.556,242
85.581,259
85.606,264
85.631,263
85.656,261
85.681,264
85.706,269
85.731,272
85.756,272
85.781,269
85.806,262
85.831,251
85.856,236
85.881,224
85.906,216
85.931,209
85.956,197
85.981,176
86.006,153
86.031,135
86.056,122
86.081,107
86.106,81
86.131,51
86.156,33
86.181,42
86.206,76
86.231,122
86.256,162
86.281,188
86.306,207
86.331,223
86.356,239
86.381,249
86.406,252
86.431,250
86.456,247
86.481,246
86.506,249
86.531,252
86.556,252
86.581,248
86.606,237
86.631,222
86.656,207
86.681,193
86.706,181
86.731,168
86.756,153
86.781,138
86.806,124
86.831,107
86.856,84
86.881,57
86.906,39
86.931,44
86.956,76
86.981,122
87.006,162
87.031,185
87.056,196
87.081,210
87.106,231
87.131,253
87.156,265
87.181,263
87.206,255
87.231,251
87.256,255
87.281,261
87.306,264
87.331,260
87.356,251
87.381,237
87.406,222
87.431,207
87.456,194
87.481,183
87.506,171
87.531,155
87.556,137
87.581,119
87.606,100
87.631,80
87.656,57
87.681,38
87.706,37
87.731,60
87.756,102
87.781,147
87.806,180
87.831,200
87.856,216
87.881,237
87.906,260
87.931,276
87.956,280
87.981,275
88.006,273
88.031,277
88.056,284
88.081,286
88.106,280
88.131,270
88.156,261
88.181,253
88.206,244
88.231,230
88.256,212
88.281,197
88.306,187
88.331,179
88.356,164
88.381,143
88.406,119
88.431,102
88.456,92
88.481,83
88.506,65
88.531,38
88.556,14
88.581,12
88.606,38
88.631,82
88.656,128
88.681,161
88.706,181
88.731,195
88.756,212
88.781,232
88.806,249
88.831,258
88.856,260
88.881,258
88.906,258
88.931,261
88.956,266
88.981,269
89.006,267
89.031,260
89.056,250
89.081,242
89.106,235
89.131,227
89.156,218
89.181,206
89.206,193
89.231,179
89.256,165
89.281,151
89.306,138
89.331,125
89.356,109
89.381,88
89.406,66
89.431,51
89.456,57
89.481,85
89.506,127
89.531,168
89.556,198
89.581,218
89.606,234
89.631,251
89.656,265
89.681,272
89.706,271
89.731,268
89.756,267
89.781,270
89.806,271
89.831,267
89.856,257
89.881,246
89.906,233
89.931,221
89.956,210
89.981,201
90.006,190
90.031,175
90.056,157
90.081,139
90.106,124
90.131,113
90.156,97
90.181,72
90.206,45
90.231,32
90.256,44
90.281,80
90.306,126
90.331,164
90.356,187
90.381,203
90.406,219
90.431,235
90.456,248
90.481,253
90.506,251
90.531,248
90.556,247
90.581,249
90.606,249
90.631,248
90.656,242
90.681,233
90.706,221
90.731,207
90.756,191
90.781,173
90.806,156
90.831,139
90.856,123
90.881,104
90.906,78
90.931,49
90.956,27
90.981,27
91.006,55
91.031,100
91.056,144
91.081,176
91.106,196
91.131,214
91.156,237
91.181,260
91.206,273
91.231,275
91.256,270
91.281,268
91.306,271
91.331,275
91.356,274
91.381,267
91.406,255
91.431,243
91.456,232
91.481,220
91.506,204
91.531,185
91.556,163
91.581,141
91.606,120
91.631,101
91.656,78
91.681,50
91.706,24
91.731,16
91.756,34
91.781,75
91.806,121
91.831,159
91.856,185
91.881,206
91.906,230
91.931,255
91.956,274
91.981,282
92.006,282
92.031,282
92.056,284
92.081,287
92.106,288
92.131,287
92.156,286
92.181,284
92.206,277
92.231,263
92.256,246
92.281,229
92.306,214
92.331,200
92.356,185
92.381,169
92.406,153
92.431,136
92.456,118
92.481,100
92.506,85
92.531,68
92.556,46
92.581,19
92.606,-2
92.631,-1
92.656,29
92.681,79
92.706,129
92.731,163
92.756,183
92.781,200
92.806,222
92.831,247
92.856,264
92.881,270
92.906,269
92.931,269
92.956,272
92.981,276
93.006,277
93.031,276
93.056,272
93.081,267
93.106,259
93.131,251
93.156,242
93.181,233
93.206,223
93.231,210
93.256,195
93.281,181
93.306,167
93.331,153
93.356,139
93.381,124
93.406,110
93.431,92
93.456,72
93.481,54
93.506,50
93.531,67
93.556,103
93.581,142
93.606,170
93.631,184
93.656,194
93.681,207
93.706,223
93.731,234
93.756,238
93.781,236
93.806,236
93.831,241
93.856,247
93.881,248
93.906,245
93.931,240
93.956,235
93.981,228
94.006,220
94.031,210
94.056,202
94.081,193
94.106,181
94.131,166
94.156,151
94.181,140
94.206,129
94.231,112
94.256,90
94.281,71
94.306,70
94.331,91
94.356,126
94.381,158
94.406,179
94.431,191
94.456,203
94.481,217
94.506,231
94.531,238
94.556,237
94.581,234
94.606,235
94.631,238
94.656,242
94.681,241
94.706,234
94.731,226
94.756,218
94.781,212
94.806,207
94.831,200
94.856,187
94.881,171
94.906,156
94.931,144
94.956,134
94.981,121
95.006,101
95.031,80
95.056,69
95.081,78
95.106,105
95.131,138
95.156,165
95.181,182
95.206,194
95.231,207
95.256,224
95.281,239
95.306,250
95.331,254
95.356,254
95.381,254
95.406,256
95.431,259
95.456,259
95.481,256
95.506,250
95.531,242
95.556,233
95.581,223
95.606,212
95.631,200
95.656,190
95.681,179
95.706,166
95.731,150
95.756,134
95.781,120
95.806,107
95.831,92
95.856,71
95.881,50
95.906,41
95.931,54
95.956,86
95.981,124
96.006,153
96.031,169
96.056,180
96.081,196
96.106,218
96.131,239
96.156,251
96.181,254
96.206,255
96.231,259
96.256,265
96.281,271
96.306,274
96.331,274
96.356,274
96.381,273
96.406,269
96.431,261
96.456,252
96.481,241
96.506,230
96.531,218
96.556,204
96.581,191
96.606,178
96.631,163
96.656,147
96.681,131
96.706,116
96.731,100
96.756,81
96.781,56
96.806,32
96.831,22
96.856,37
96.881,72
96.906,113
96.931,146
96.956,166
96.981,180
97.006,197
97.031,218
97.056,239
97.081,251
97.106,255
97.131,257
97.156,261
97.181,269
97.206,276
97.231,278
97.256,275
97.281,268
97.306,261
97.331,254
97.356,245
97.381,233
97.406,219
97.431,208
97.456,199
97.481,189
97.506,174
97.531,154
97.556,134
97.581,118
97.606,103
97.631,83
97.656,60
97.681,41
97.706,41
97.731,65
97.756,104
97.781,143
97.806,170
97.831,187
97.856,203
97.881,223
97.906,242
97.931,254
97.956,257
97.981,254
98.006,254
98.031,258
98.056,262
98.081,265
98.106,262
98.131,255
98.156,246
98.181,234
98.206,221
98.231,207
98.256,190
98.281,170
98.306,150
98.331,131
98.356,114
98.381,93
98.406,64
98.431,32
98.456,11
98.481,13
98.506,42
98.531,84
98.556,125
98.581,154
98.606,178
98.631,204
98.656,233
98.681,258
98.706,273
98.731,277
98.756,276
98.781,278
98.806,281
98.831,284
98.856,284
98.881,280
98.906,272
98.931,260
98.956,244
98.981,229
99.006,215
99.031,200
99.056,182
99.081,159
99.106,135
99.131,112
99.156,91
99.181,66
99.206,37
99.231,12
99.256,7
99.281,29
99.306,73
99.331,120
99.356,157
99.381,182
99.406,204
99.431,230
99.456,258
99.481,280
99.506,290
99.531,292
99.556,292
99.581,294
99.606,294
99.631,291
99.656,284
99.681,276
99.706,270
99.731,262
99.756,250
99.781,234
99.806,218
99.831,203
99.856,186
99.881,165
99.906,140
99.931,117
99.956,98
99.981,80
100.006,55
100.031,25
100.056,2
100.081,1
100.106,29
100.131,76
100.156,123
100.181,156
100.206,176
100.231,192
100.256,213
100.281,238
100.306,258
100.331,270
100.356,273
100.381,274
100.406,277
100.431,282
100.456,286
100.481,285
100.506,280
100.531,272
100.556,261
100.581,249
100.606,236
100.631,225
100.656,215
100.681,204
100.706,187
100.731,166
100.756,143
100.781,125
100.806,113
100.831,99
100.856,76
100.881,49
100.906,31
100.931,37
100.956,67
100.981,109
101.006,144
101.031,165
101.056,177
101.081,192
101.106,213
101.131,232
101.156,243
101.181,243
101.206,238
101.231,235
101.256,236
101.281,238
101.306,238
101.331,234
101.356,228
101.381,220
101.406,210
101.431,199
101.456,186
101.481,173
101.506,159
101.531,147
101.556,136
101.581,123
101.606,106
101.631,89
101.656,83
101.681,95
101.706,123
101.731,155
101.756,180
101.781,193
101.806,201
101.831,213
101.856,229
101.881,243
101.906,248
101.931,247
101.956,244
101.981,245
102.006,247
102.031,247
102.056,243
102.081,237
102.106,229
102.131,219
102.156,208
102.181,196
102.206,184
102.231,172
102.256,160
102.281,147
102.306,135
102.331,124
102.356,111
102.381,93
102.406,75
102.431,70
102.456,86
102.481,118
102.506,150
102.531,170
102.556,178
102.581,187
102.606,205
102.631,228
102.656,245
102.681,250
102.706,249
102.731,250
102.756,254
102.781,257
102.806,256
102.831,251
102.856,246
102.881,243
102.906,240
102.931,234
102.956,225
102.981,216
103.006,208
103.031,200
103.056,190
103.081,179
103.106,169
103.131,158
103.156,146
103.181,130
103.206,114
103.231,99
103.256,84
103.281,68
103.306,54
103.331,50
103.356,64
103.381,94
103.406,130
103.431,157
103.456,174
103.481,185
103.506,200
103.531,219
103.556,238
103.581,250
103.606,253
103.631,253
103.656,254
103.681,258
103.706,261
103.731,263
103.756,264
103.781,264
103.806,264
103.831,263
103.856,258
103.881,251
103.906,243
103.931,235
103.956,227
103.981,214
104.006,199
104.031,183
104.056,169
104.081,156
104.106,141
104.131,125
104.156,109
104.181,94
104.206,78
104.231,59
104.256,39
104.281,28
104.306,38
104.331,70
104.356,111
104.381,147
104.406,168
104.431,180
104.456,195
104.481,216
104.506,238
104.531,252
104.556,256
104.581,257
104.606,260
104.631,268
104.656,276
104.681,280
104.706,281
104.731,279
104.756,275
104.781,268
104.806,259
104.831,247
104.856,236
104.881,224
104.906,212
104.931,198
104.956,185
104.981,171
105.006,154
105.031,135
105.056,116
105.081,101
105.106,89
105.131,74
105.156,55
105.181,38
105.206,39
105.231,64
105.256,105
105.281,144
105.306,170
105.331,184
105.356,196
105.381,215
105.406,236
105.431,250
105.456,254
105.481,253
105.506,254
105.531,258
105.556,262
105.581,263
105.606,263
105.631,260
105.656,253
105.681,240
105.706,222
105.731,205
105.756,193
105.781,182
105.806,167
105.831,147
105.856,127
105.881,110
105.906,95
105.931,74
105.956,46
105.981,20
106.006,16
106.031,42
106.056,89
106.081,135
106.106,168
106.131,187
106.156,204
106.181,228
106.206,256
106.231,276
106.256,285
106.281,284
106.306,282
106.331,285
106.356,292
106.381,297
106.406,296
106.431,289
106.456,279
106.481,271
106.506,262
106.531,249
106.556,232
106.581,211
106.606,192
106.631,175
106.656,158
106.681,139
106.706,116
106.731,95
106.756,76
106.781,55
106.806,27
106.831,-1
106.856,-16
106.881,-2
106.906,40
106.931,95
106.956,140
106.981,166
107.006,182
107.031,203
107.056,233
107.081,262
107.106,279
107.131,283
107.156,281
107.181,283
107.206,290
107.231,296
107.256,297
107.281,292
107.306,285
107.331,279
107.356,271
107.381,259
107.406,242
107.431,225
107.456,210
107.481,198
107.506,185
107.531,169
107.556,149
107.581,128
107.606,110
107.631,94
107.656,75
107.681,51
107.706,25
107.731,11
107.756,22
107.781,59
107.806,109
107.831,153
107.856,180
107.881,196
107.906,211
107.931,232
107.956,250
107.981,260
108.006,260
108.031,258
108.056,260
108.081,266
108.106,272
108.131,273
108.156,270
108.181,264
108.206,256
108.231,246
108.256,234
108.281,222
108.306,210
108.331,196
108.356,178
108.381,158
108.406,142
108.431,128
108.456,113
108.481,91
108.506,66
108.531,54
108.556,64
108.581,98
108.606,139
108.631,172
108.656,190
108.681,200
108.706,211
108.731,227
108.756,240
108.781,245
108.806,241
108.831,234
108.856,230
108.881,233
108.906,236
108.931,237
108.956,232
108.981,222
109.006,209
109.031,194
109.056,177
109.081,160
109.106,144
109.131,129
109.156,113
109.181,92
109.206,69
109.231,55
109.256,60
109.281,84
109.306,120
109.331,154
109.356,175
109.381,188
109.406,201
109.431,220
109.456,239
109.481,252
109.506,254
109.531,249
109.556,246
109.581,250
109.606,255
109.631,255
109.656,247
109.681,234
109.706,223
109.731,214
109.756,204
109.781,190
109.806,173
109.831,158
109.856,147
109.881,135
109.906,115
109.931,85
109.956,57
109.981,45
110.006,57
110.031,90
110.056,131
110.081,164
110.106,185
110.131,199
110.156,214
110.181,233
110.206,254
110.231,269
110.256,274
110.281,272
110.306,268
110.331,268
110.356,272
110.381,276
110.406,274
110.431,267
110.456,256
110.481,244
110.506,234
110.531,223
110.556,211
110.581,198
110.606,184
110.631,166
110.656,145
110.681,125
110.706,109
110.731,97
110.756,83
110.781,63
110.806,37
110.831,18
110.856,20
110.881,48
110.906,90
110.931,129
110.956,155
110.981,172
111.006,190
111.031,213
111.056,239
111.081,258
111.106,268
111.131,271
111.156,273
111.181,277
111.206,284
111.231,291
111.256,293
111.281,288
111.306,278
111.331,266
111.356,256
111.381,249
111.406,240
111.431,227
111.456,211
111.481,196
111.506,184
111.531,171
111.556,155
111.581,138
111.606,123
111.631,110
111.656,93
111.681,69
111.706,42
111.731,28
111.756,40
111.781,76
111.806,120
111.831,154
111.856,175
111.881,189
111.906,206
111.931,224
111.956,238
111.981,243
112.006,242
112.031,240
112.056,241
112.081,243
112.106,245
112.131,244
112.156,239
112.181,230
112.206,219
112.231,208
112.256,199
112.281,190
112.306,178
112.331,162
112.356,145
112.381,131
112.406,116
112.431,97
112.456,72
112.481,51
112.506,48
112.531,72
112.556,113
112.581,153
112.606,181
112.631,196
112.656,211
112.681,231
112.706,251
112.731,262
112.756,262
112.781,255
112.806,250
112.831,252
112.856,259
112.881,264
112.906,261
112.931,252
112.956,240
112.981,229
113.006,218
113.031,205
113.056,187
113.081,167
113.106,151
113.131,140
113.156,129
113.181,108
113.206,80
113.231,57
113.256,54
113.281,79
113.306,122
113.331,164
113.356,192
113.381,209
113.406,223
113.431,243
113.456,265
113.481,280
113.506,283
113.531,278
113.556,274
113.581,273
113.606,274
113.631,273
113.656,266
113.681,255
113.706,242
113.731,229
113.756,218
113.781,206
113.806,192
113.831,176
113.856,157
113.881,137
113.906,116
113.931,98
113.956,83
113.981,70
114.006,53
114.031,30
114.056,6
114.081,-5
114.106,5
114.131,41
114.156,88
114.181,128
114.206,154
114.231,172
114.256,193
114.281,222
114.306,252
114.331,272
114.356,278
114.381,278
114.406,279
114.431,285
114.456,291
114.481,292
114.506,286
114.531,279
114.556,271
114.581,264
114.606,253
114.631,239
114.656,223
114.681,209
114.706,197
114.731,185
114.756,169
114.781,150
114.806,130
114.831,114
114.856,101
114.881,88
114.906,67
114.931,41
114.956,22
114.981,23
115.006,51
115.031,96
115.056,140
115.081,171
115.106,191
115.131,209
115.156,231
115.181,256
115.206,273
115.231,278
115.256,275
115.281,273
115.306,276
115.331,284
115.356,290
115.381,292
115.406,289
115.431,283
115.456,275
115.481,267
115.506,258
115.531,248
115.556,236
115.581,224
115.606,210
115.631,197
115.656,182
115.681,164
115.706,144
115.731,126
115.756,112
115.781,102
115.806,90
115.831,69
115.856,43
115.881,24
115.906,27
115.931,54
115.956,94
115.981,131
116.006,156
116.031,173
116.056,189
116.081,208
116.106,225
116.131,234
116.156,232
116.181,228
116.206,228
116.231,235
116.256,245
116.281,250
116.306,249
116.331,244
116.356,237
116.381,230
116.406,221
116.431,211
116.456,201
116.481,190
116.506,179
116.531,166
116.556,152
116.581,140
116.606,127
116.631,111
116.656,93
116.681,78
116.706,77
116.731,95
116.756,127
116.781,161
116.806,186
116.831,202
116.856,215
116.881,229
116.906,243
116.931,250
116.956,250
116.981,248
117.006,248
117.031,252
117.056,255
117.081,255
117.106,250
117.131,243
117.156,234
117.181,222
117.206,210
117.231,199
117.256,190
117.281,181
117.306,168
117.331,152
117.356,135
117.381,119
117.406,101
117.431,79
117.456,56
117.481,45
117.506,54
117.531,84
117.556,122
117.581,153
117.606,172
117.631,185
117.656,202
117.681,224
117.706,245
117.731,257
117.756,259
117.781,257
117.806,257
117.831,263
117.856,270
117.881,273
117.906,269
117.931,259
117.956,249
117.981,240
118.006,233
118.031,223
118.056,211
118.081,196
118.106,182
118.131,168
118.156,153
118.181,137
118.206,122
118.231,108
118.256,93
118.281,71
118.306,44
118.331,23
118.356,24
118.381,51
118.406,94
118.431,135
118.456,163
118.481,181
118.506,201
118.531,225
118.556,248
118.581,261
118.606,264
118.631,266
118.656,271
118.681,278
118.706,283
118.731,284
118.756,282
118.781,281
118.806,280
118.831,275
118.856,264
118.881,251
118.906,239
118.931,231
118.956,221
118.981,206
119.006,188
119.031,169
119.056,153
119.081,138
119.106,122
119.131,103
119.156,80
119.181,53
119.206,27
119.231,12
119.256,19
119.281,51
119.306,98
119.331,142
119.356,172
119.381,188
119.406,202
119.431,219
119.456,237
119.481,248
119.506,251
119.531,251
119.556,253
119.581,259
119.606,264
119.631,264
119.656,260
119.681,256
119.706,252
119.731,246
119.756,235
119.781,221
119.806,205
119.831,190
119.856,172
119.881,154
119.906,137
119.931,120
119.956,100
119.981,73
120.006,46
120.031,33
120.056,46
120.081,84
120.106,131
120.131,170
120.156,196
120.181,213
120.206,230
120.231,248
120.256,263
120.281,268
120.306,266
120.331,262
120.356,261
120.381,262
120.406,263
120.431,261
120.456,255
120.481,244
120.506,231
120.531,216
120.556,202
120.581,186
120.606,167
120.631,145
120.656,124
120.681,107
120.706,89
120.731,66
120.756,39
120.781,19
120.806,22
120.831,54
120.856,103
120.881,150
120.906,183
120.931,204
120.956,223
120.981,246
121.006,267
121.031,279
121.056,282
121.081,281
121.106,280
121.131,282
121.156,282
121.181,279
121.206,274
121.231,266
121.256,254
121.281,236
121.306,217
121.331,199
121.356,183
121.381,165
121.406,143
121.431,121
121.456,102
121.481,86
121.506,65
121.531,36
121.556,10
121.581,7
121.606,36
121.631,88
121.656,141
121.681,177
121.706,195
121.731,211
121.756,234
121.781,259
121.806,276
121.831,279
121.856,274
121.881,272
121.906,275
121.931,279
121.956,277
121.981,270
122.006,261
122.031,252
122.056,241
122.081,227
122.106,211
122.131,194
122.156,178
122.181,161
122.206,141
122.231,123
122.256,106
122.281,89
122.306,65
122.331,38
122.356,19
122.381,26
122.406,62
122.431,112
122.456,157
122.481,185
122.506,201
122.531,219
122.556,242
122.581,262
122.606,269
122.631,267
122.656,263
122.681,265
122.706,272
122.731,275
122.756,270
122.781,262
122.806,254
122.831,247
122.856,238
122.881,225
122.906,209
122.931,194
122.956,179
122.981,164
123.006,147
123.031,128
123.056,109
123.081,87
123.106,63
123.131,46
123.156,47
123.181,74
123.206,118
123.231,159
123.256,184
123.281,197
123.306,207
123.331,224
123.356,242
123.381,252
123.406,248
123.431,239
123.456,235
123.481,238
123.506,243
123.531,243
123.556,236
123.581,226
123.606,215
123.631,204
123.656,189
123.681,173
123.706,157
123.731,143
123.756,125
123.781,103
123.806,80
123.831,70
123.856,82
123.881,112
123.906,147
123.931,175
123.956,191
123.981,204
124.006,220
124.031,239
124.056,251
124.081,252
124.106,245
124.131,238
124.156,238
124.181,240
124.206,239
124.231,232
124.256,221
124.281,210
124.306,199
124.331,185
124.356,169
124.381,153
124.406,141
124.431,131
124.456,113
124.481,86
124.506,58
124.531,47
124.556,63
124.581,101
124.606,142
124.631,172
124.656,188
124.681,200
124.706,217
124.731,240
124.756,260
124.781,269
124.806,267
124.831,260
124.856,255
124.881,254
124.906,255
124.931,255
124.956,250
124.981,239
125.006,226
125.031,212
125.056,200
125.081,189
125.106,178
125.131,165
125.156,151
125.181,139
125.206,126
125.231,109
125.256,86
125.281,62
125.306,50
125.331,61
125.356,92
125.381,132
125.406,163
125.431,182
125.456,194
125.481,209
125.506,230
125.531,250
125.556,262
125.581,264
125.606,263
125.631,264
125.656,267
125.681,267
125.706,261
125.731,249
125.756,237
125.781,229
125.806,222
125.831,214
125.856,203
125.881,191
125.906,179
125.931,165
125.956,150
125.981,133
126.006,119
126.031,106
126.056,89
126.081,67
126.106,43
126.131,32
126.156,44
126.181,75
126.206,111
126.231,139
126.256,155
126.281,167
126.306,185
126.331,206
126.356,222
126.381,230
126.406,231
126.431,231
126.456,234
126.481,238
126.506,238
126.531,236
126.556,233
126.581,230
126.606,225
126.631,218
126.656,211
126.681,206
126.706,201
126.731,194
126.756,183
126.781,170
126.806,159
126.831,149
126.856,137
126.881,123
126.906,114
126.931,122
126.956,152
126.981,196
127.006,240
127.031,274
127.056,297
127.081,318
127.106,340
127.131,363
127.156,377
127.181,377
127.206,363
127.231,342
127.256,321
127.281,304
127.306,284
127.331,256
127.356,219
127.381,179
127.406,145
127.431,124
127.456,112
127.481,103
127.506,90
127.531,76
127.556,61
127.581,47
127.606,27
127.631,1
127.656,-22
127.681,-28
127.706,-8
127.731,29
127.756,72
127.781,105
127.806,126
127.831,146
127.856,172
127.881,201
127.906,224
127.931,233
127.956,232
127.981,228
128.006,231
128.031,238
128.056,243
128.081,240
128.106,231
128.131,219
128.156,208
128.181,199
128.206,189
128.231,179
128.256,168
128.281,156
128.306,143
128.331,129
128.356,117
128.381,107
128.406,97
128.431,85
128.456,69
128.481,59
128.506,63
128.531,88
128.556,126
128.581,166
128.606,197
128.631,221
128.656,242
128.681,265
128.706,287
128.731,304
128.756,313
128.781,316
128.806,318
128.831,320
128.856,322
128.881,322
128.906,318
128.931,312
128.956,302
128.981,290
129.006,277
129.031,263
129.056,249
129.081,232
129.106,214
129.131,197
129.156,182
129.181,165
129.206,145
129.231,121
129.256,98
129.281,79
129.306,63
129.331,42
129.356,16
129.381,-2
129.406,0
129.431,28
129.456,74
129.481,120
129.506,153
129.531,175
129.556,196
129.581,220
129.606,245
129.631,264
129.656,275
129.681,280
129.706,284
129.731,287
129.756,287
129.781,285
129.806,283
129.831,280
129.856,274
129.881,265
129.906,253
129.931,240
129.956,227
129.981,213
130.006,197
130.031,183
130.056,171
130.081,160
130.106,145
130.131,127
130.156,109
130.181,96
130.206,84
130.231,68
130.256,45
130.281,24
130.306,22
130.331,46
130.356,89
130.381,133
130.406,164
130.431,184
130.456,202
130.481,222
130.506,242
130.531,252
130.556,252
130.581,249
130.606,249
130.631,256
130.656,263
130.681,267
130.706,264
130.731,257
130.756,247
130.781,236
130.806,225
130.831,213
130.856,199
130.881,185
130.906,169
130.931,155
130.956,143
130.981,130
131.006,110
131.031,84
131.056,61
131.081,57
131.106,78
131.131,117
131.156,155
131.181,181
131.206,196
131.231,209
131.256,225
131.281,242
131.306,252
131.331,254
131.356,251
131.381,251
131.406,255
131.431,258
131.456,256
131.481,250
131.506,242
131.531,232
131.556,219
131.581,203
131.606,188
131.631,175
131.656,165
131.681,153
131.706,135
131.731,115
131.756,98
131.781,85
131.806,72
131.831,53
131.856,34
131.881,29
131.906,48
131.931,87
131.956,131
131.981,164
132.006,182
132.031,197
132.056,217
132.081,243
132.106,269
132.131,285
132.156,291
132.181,292
132.206,294
132.231,298
132.256,303
132.281,304
132.306,299
132.331,287
132.356,271
132.381,255
132.406,242
132.431,231
132.456,219
132.481,205
132.506,189
132.531,173
132.556,159
132.581,143
132.606,124
132.631,106
132.656,90
132.681,77
132.706,61
132.731,38
132.756,14
132.781,5
132.806,23
132.831,66
132.856,116
132.881,156
132.906,181
132.931,197
132.956,215
132.981,235
133.006,254
133.031,264
133.056,269
133.081,273
133.106,279
133.131,284
133.156,287
133.181,287
133.206,287
133.231,285
133.256,278
133.281,265
133.306,251
133.331,240
133.356,232
133.381,224
133.406,210
133.431,191
133.456,171
133.481,154
133.506,137
133.531,120
133.556,104
133.581,90
133.606,78
133.631,63
133.656,45
133.681,29
133.706,31
133.731,59
133.756,104
133.781,152
133.806,185
133.831,204
133.856,216
133.881,230
133.906,246
133.931,258
133.956,261
133.981,257
134.006,251
134.031,250
134.056,253
134.081,256
134.106,255
134.131,247
134.156,234
134.181,221
134.206,210
134.231,201
134.256,190
134.281,173
134.306,152
134.331,133
134.356,119
134.381,105
134.406,85
134.431,59
134.456,40
134.481,46
134.506,79
134.531,127
134.556,171
134.581,198
134.606,214
134.631,228
134.656,245
134.681,261
134.706,268
134.731,267
134.756,261
134.781,258
134.806,258
134.831,259
134.856,257
134.881,252
134.906,242
134.931,227
134.956,211
134.981,195
135.006,181
135.031,166
135.056,149
135.081,130
135.106,111
135.131,92
135.156,70
135.181,41
135.206,12
135.231,-3
135.256,6
135.281,45
135.306,100
135.331,151
135.356,188
135.381,212
135.406,234
135.431,259
135.456,283
135.481,300
135.506,307
135.531,307
135.556,308
135.581,312
135.606,320
135.631,325
135.656,321
135.681,307
135.706,290
135.731,274
135.756,263
135.781,253
135.806,237
135.831,216
135.856,195
135.881,176
135.906,160
135.931,141
135.956,115
135.981,87
136.006,63
136.031,44
136.056,23
136.081,-4
136.106,-29
136.131,-34
136.156,-7
136.181,44
136.206,101
136.231,145
136.256,174
136.281,195
136.306,219
136.331,245
136.356,265
136.381,275
136.406,278
136.431,281
136.456,287
136.481,292
136.506,295
136.531,294
136.556,290
136.581,284
136.606,275
136.631,265
136.656,254
136.681,243
136.706,229
136.731,212
136.756,193
136.781,176
136.806,163
136.831,151
136.856,136
136.881,117
136.906,95
136.931,74
136.956,53
136.981,29
137.006,8
137.031,3
137.056,24
137.081,70
137.106,124
137.131,166
137.156,191
137.181,208
137.206,227
137.231,249
137.256,266
137.281,270
137.306,265
137.331,260
137.356,262
137.381,269
137.406,275
137.431,275
137.456,271
137.481,265
137.506,258
137.531,244
137.556,227
137.581,209
137.606,194
137.631,178
137.656,160
137.681,140
137.706,121
137.731,105
137.756,88
137.781,64
137.806,38
137.831,24
137.856,36
137.881,76
137.906,127
137.931,171
137.956,199
137.981,215
138.006,230
138.031,245
138.056,256
138.081,259
138.106,255
138.131,251
138.156,252
138.181,256
138.206,258
138.231,253
138.256,241
138.281,227
138.306,215
138.331,204
138.356,193
138.381,179
138.406,161
138.431,144
138.456,130
138.481,117
138.506,99
138.531,72
138.556,42
138.581,23
138.606,27
138.631,57
138.656,100
138.681,142
138.706,174
138.731,199
138.756,223
138.781,251
138.806,276
138.831,293
138.856,298
138.881,297
138.906,295
138.931,295
138.956,296
138.981,295
139.006,289
139.031,279
139.056,268
139.081,258
139.106,249
139.131,239
139.156,227
139.181,210
139.206,191
139.231,169
139.256,145
139.281,122
139.306,105
139.331,93
139.356,83
139.381,69
139.406,51
139.431,39
139.456,47
139.481,79
139.506,127
139.531,172
139.556,201
139.581,214
139.606,220
139.631,227
139.656,233
139.681,234
139.706,229
139.731,223
139.756,223
139.781,230
139.806,239
139.831,246
139.856,248
139.881,247
139.906,245
139.931,241
139.956,235
139.981,228
140.006,219
140.031,207
140.056,193
140.081,177
140.106,160
140.131,142
140.156,126
140.181,111
140.206,96
140.231,77
140.256,50
140.281,22
140.306,4
140.331,9
140.356,42
140.381,89
140.406,133
140.431,162
140.456,179
140.481,196
140.506,221
140.531,248
140.556,268
140.581,275
140.606,276
140.631,278
140.656,287
140.681,298
140.706,306
140.731,306
140.756,303
140.781,298
140.806,292
140.831,284
140.856,272
140.881,259
140.906,246
140.931,231
140.956,212
140.981,186
141.006,159
141.031,136
141.056,118
141.081,101
141.106,77
141.131,47
141.156,21
141.181,16
141.206,39
141.231,82
141.256,127
141.281,160
141.306,179
141.331,192
141.356,205
141.381,216
141.406,218
141.431,211
141.456,200
141.481,195
141.506,196
141.531,199
141.556,199
141.581,195
141.606,191
141.631,192
141.656,198
141.681,205
141.706,210
141.731,208
141.756,201
141.781,192
141.806,183
141.831,170
141.856,150
141.881,123
141.906,95
141.931,83
141.956,95
141.981,132
142.006,178
142.031,218
142.056,244
142.081,263
142.106,280
142.131,296
142.156,305
142.181,302
142.206,290
142.231,279
142.256,271
142.281,268
142.306,264
142.331,258
142.356,249
142.381,234
142.406,215
142.431,193
142.456,172
142.481,156
142.506,142
142.531,124
142.556,99
142.581,70
142.606,44
142.631,20
142.656,-5
142.681,-31
142.706,-46
142.731,-38
142.756,-1
142.781,51
142.806,102
142.831,140
142.856,168
142.881,196
142.906,228
142.931,260
142.956,285
142.981,299
143.006,306
143.031,311
143.056,316
143.081,320
143.106,318
143.131,313
143.156,306
143.181,298
143.206,286
143.231,271
143.256,255
143.281,243
143.306,234
143.331,224
143.356,205
143.381,179
143.406,154
143.431,135
143.456,120
143.481,99
143.506,68
143.531,37
143.556,25
143.581,44
143.606,90
143.631,141
143.656,179
143.681,201
143.706,216
143.731,234
143.756,252
143.781,263
143.806,262
143.831,254
143.856,248
143.881,250
143.906,255
143.931,258
143.956,256
143.981,250
144.006,240
144.031,227
144.056,212
144.081,196
144.106,181
144.131,166
144.156,148
144.181,128
144.206,109
144.231,91
144.256,72
144.281,49
144.306,29
144.331,24
144.356,46
144.381,91
144.406,143
144.431,183
144.456,205
144.481,218
144.506,230
144.531,245
144.556,257
144.581,259
144.606,253
144.631,247
144.656,246
144.681,249
144.706,250
144.731,246
144.756,237
144.781,226
144.806,212
144.831,195
144.856,173
144.881,154
144.906,139
144.931,126
144.956,107
144.981,78
145.006,49
145.031,36
145.056,51
145.081,91
145.106,137
145.131,175
145.156,197
145.181,212
145.206,226
145.231,242
145.256,255
145.281,260
145.306,259
145.331,255
145.356,253
145.381,254
145.406,256
145.431,255
145.456,249
145.481,236
145.506,221
145.531,207
145.556,196
145.581,183
145.606,164
145.631,141
145.656,118
145.681,102
145.706,88
145.731,68
145.756,41
145.781,18
145.806,18
145.831,49
145.856,100
145.881,150
145.906,185
145.931,204
145.956,221
145.981,242
146.006,263
146.031,277
146.056,279
146.081,277
146.106,276
146.131,279
146.156,282
146.181,282
146.206,279
146.231,274
146.256,266
146.281,254
146.306,240
146.331,225
146.356,213
146.381,204
146.406,194
146.431,178
146.456,156
146.481,133
146.506,115
146.531,101
146.556,86
146.581,63
146.606,35
146.631,16
146.656,21
146.681,55
146.706,107
146.731,157
146.756,191
146.781,212
146.806,229
146.831,249
146.856,266
146.881,275
146.906,273
146.931,267
146.956,265
146.981,269
147.006,273
147.031,272
147.056,266
147.081,258
147.106,249
147.131,238
147.156,224
147.181,209
147.206,197
147.231,185
147.256,170
147.281,152
147.306,133
147.331,118
147.356,102
147.381,81
147.406,55
147.431,34
147.456,35
147.481,63
147.506,108
147.531,152
147.556,183
147.581,199
147.606,211
147.631,224
147.656,236
147.681,242
147.706,240
147.731,234
147.756,230
147.781,231
147.806,234
147.831,234
147.856,228
147.881,219
147.906,210
147.931,200
147.956,188
147.981,172
148.006,155
148.031,140
148.056,126
148.081,109
148.106,86
148.131,62
148.156,51
148.181,64
148.206,101
148.231,147
148.256,186
148.281,210
148.306,224
148.331,238
148.356,254
148.381,268
148.406,274
148.431,271
148.456,265
148.481,262
148.506,264
148.531,266
148.556,262
148.581,251
148.606,235
148.631,218
148.656,205
148.681,193
148.706,180
148.731,163
148.756,145
148.781,128
148.806,113
148.831,94
148.856,69
148.881,42
148.906,27
148.931,39
148.956,79
148.981,131
149.006,176
149.031,203
149.056,218
149.081,231
149.106,248
149.131,263
149.156,272
149.181,272
149.206,270
149.231,269
149.256,268
149.281,266
149.306,261
149.331,254
149.356,248
149.381,237
149.406,223
149.431,205
149.456,190
149.481,178
149.506,165
149.531,148
149.556,128
149.581,109
149.606,92
149.631,74
149.656,49
149.681,19
149.706,0
149.731,7
149.756,47
149.781,105
149.806,160
149.831,197
149.856,217
149.881,231
149.906,249
149.931,269
149.956,284
149.981,288
150.006,284
150.031,279
150.056,279
150.081,282
150.106,284
150.131,280
150.156,271
150.181,259
150.206,247
150.231,234
150.256,220
150.281,205
150.306,187
150.331,169
150.356,151
150.381,133
150.406,117
150.431,100
150.456,79
150.481,51
150.506,22
150.531,6
150.556,17
150.581,57
150.606,110
150.631,158
150.656,191
150.681,214
150.706,234
150.731,254
150.756,270
150.781,276
150.806,273
150.831,270
150.856,273
150.881,279
150.906,282
150.931,279
150.956,271
150.981,260
151.006,249
151.031,236
151.056,221
151.081,205
151.106,188
151.131,172
151.156,155
151.181,140
151.206,124
151.231,104
151.256,78
151.281,52
151.306,36
151.331,45
151.356,78
151.381,124
151.406,166
151.431,194
151.456,211
151.481,226
151.506,239
151.531,246
151.556,243
151.581,236
151.606,232
151.631,232
151.656,231
151.681,224
151.706,212
151.731,202
151.756,197
151.781,191
151.806,179
151.831,160
151.856,142
151.881,131
151.906,120
151.931,99
151.956,70
151.981,45
152.006,44
152.031,72
152.056,120
152.081,165
152.106,197
152.131,218
152.156,235
152.181,254
152.206,268
152.231,274
152.256,271
152.281,265
152.306,262
152.331,262
152.356,260
152.381,254
152.406,243
152.431,231
152.456,219
152.481,206
152.506,189
152.531,170
152.556,150
152.581,134
152.606,119
152.631,99
152.656,71
152.681,42
152.706,25
152.731,35
152.756,72
152.781,122
152.806,166
152.831,195
152.856,214
152.881,231
152.906,250
152.931,268
152.956,277
152.981,277
153.006,272
153.031,269
153.056,268
153.081,267
153.106,264
153.131,258
153.156,250
153.181,238
153.206,222
153.231,205
153.256,191
153.281,178
153.306,163
153.331,143
153.356,121
153.381,103
153.406,89
153.431,74
153.456,52
153.481,25
153.506,9
153.531,19
153.556,58
153.581,111
153.606,158
153.631,189
153.656,207
153.681,224
153.706,245
153.731,265
153.756,277
153.781,280
153.806,279
153.831,281
153.856,286
153.881,292
153.906,293
153.931,288
153.956,280
153.981,270
154.006,259
154.031,248
154.056,238
154.081,226
154.106,213
154.131,195
154.156,175
154.181,156
154.206,140
154.231,128
154.256,115
154.281,96
154.306,72
154.331,50
154.356,44
154.381,61
154.406,97
154.431,139
154.456,174
154.481,197
154.506,211
154.531,225
154.556,239
154.581,250
154.606,253
154.631,247
154.656,238
154.681,231
154.706,227
154.731,224
154.756,220
154.781,213
154.806,204
154.831,194
154.856,185
154.881,176
154.906,169
154.931,162
154.956,153
154.981,141
155.006,129
155.031,120
155.056,111
155.081,99
155.106,81
155.131,64
155.156,62
155.181,83
155.206,124
155.231,169
155.256,202
155.281,220
155.306,228
155.331,234
155.356,241
155.381,243
155.406,239
155.431,233
155.456,230
155.481,232
155.506,234
155.531,230
155.556,220
155.581,210
155.606,202
155.631,195
155.656,185
155.681,169
155.706,153
155.731,139
155.756,127
155.781,110
155.806,85
155.831,59
155.856,47
155.881,59
155.906,92
155.931,134
155.956,169
155.981,193
156.006,210
156.031,226
156.056,242
156.081,256
156.106,262
156.131,263
156.156,263
156.181,264
156.206,269
156.231,274
156.256,278
156.281,278
156.306,274
156.331,268
156.356,261
156.381,254
156.406,247
156.431,237
156.456,226
156.481,215
156.506,205
156.531,194
156.556,177
156.581,154
156.606,134
156.631,127
156.656,140
156.681,163
156.706,182
156.731,186
156.756,180
156.781,175
156.806,179
156.831,191
156.856,198
156.881,195
156.906,188
156.931,183
156.956,187
156.981,194
157.006,197
157.031,195
157.056,190
157.081,185
157.106,180
157.131,173
157.156,162
157.181,151
157.206,142
157.231,135
157.256,125
157.281,109
157.306,91
157.331,77
157.356,66
157.381,54
157.406,34
157.431,12
157.456,2
157.481,15
157.506,55
157.531,106
157.556,152
157.581,185
157.606,207
157.631,229
157.656,254
157.681,278
157.706,294
157.731,301
157.756,302
157.781,303
157.806,309
157.831,318
157.856,325
157.881,327
157.906,321
157.931,309
157.956,296
157.981,284
158.006,273
158.031,260
158.056,242
158.081,221
158.106,202
158.131,185
158.156,169
158.181,150
158.206,127
158.231,106
158.256,90
158.281,74
158.306,53
158.331,27
158.356,4
158.381,0
158.406,21
158.431,63
158.456,107
158.481,141
158.506,163
158.531,181
158.556,200
158.581,220
158.606,237
158.631,245
158.656,249
158.681,252
158.706,257
158.731,264
158.756,269
158.781,271
158.806,270
158.831,266
158.856,260
158.881,252
158.906,241
158.931,226
158.956,211
158.981,195
159.006,180
159.031,165
159.056,149
159.081,134
159.106,120
159.131,104
159.156,85
159.181,66
159.206,54
159.231,60
159.256,88
159.281,132
159.306,178
159.331,215
159.356,239
159.381,258
159.406,274
159.431,286
159.456,290
159.481,284
159.506,275
159.531,272
159.556,274
159.581,278
159.606,278
159.631,272
159.656,262
159.681,251
159.706,239
159.731,223
159.756,202
159.781,177
159.806,153
159.831,132
159.856,115
159.881,96
159.906,72
159.931,43
159.956,17
159.981,8
160.006,25
160.031,63
160.056,109
160.081,146
160.106,168
160.131,183
160.156,200
160.181,220
160.206,236
160.231,242
160.256,240
160.281,236
160.306,237
160.331,242
160.356,246
160.381,244
160.406,239
160.431,234
160.456,227
160.481,217
160.506,202
160.531,185
160.556,173
160.581,163
160.606,154
160.631,142
160.656,126
160.681,108
160.706,88
160.731,64
160.756,39
160.781,23
160.806,29
160.831,61
160.856,109
160.881,156
160.906,189
160.931,209
160.956,227
160.981,249
161.006,273
161.031,290
161.056,296
161.081,294
161.106,292
161.131,294
161.156,298
161.181,299
161.206,293
161.231,284
161.256,272
161.281,260
161.306,245
161.331,228
161.356,211
161.381,196
161.406,180
161.431,158
161.456,132
161.481,107
161.506,90
161.531,78
161.556,62
161.581,35
161.606,4
161.631,-11
161.656,1
161.681,42
161.706,94
161.731,140
161.756,171
161.781,194
161.806,214
161.831,236
161.856,255
161.881,266
161.906,270
161.931,272
161.956,277
161.981,286
162.006,298
162.031,308
162.056,310
162.081,303
162.106,290
162.131,273
162.156,256
162.181,238
162.206,219
162.231,199
162.256,181
162.281,164
162.306,141
162.331,109
162.356,76
162.381,55
162.406,61
162.431,91
162.456,129
162.481,158
162.506,174
162.531,184
162.556,195
162.581,209
162.606,218
162.631,219
162.656,216
162.681,215
162.706,219
162.731,223
162.756,223
162.781,218
162.806,212
162.831,205
162.856,196
162.881,183
162.906,167
162.931,150
162.956,134
162.981,121
163.006,106
163.031,87
163.056,63
163.081,40
163.106,28
163.131,38
163.156,71
163.181,115
163.206,154
163.231,178
163.256,192
163.281,209
163.306,235
163.331,262
163.356,279
163.381,279
163.406,273
163.431,271
163.456,278
163.481,287
163.506,288
163.531,280
163.556,268
163.581,259
163.606,251
163.631,239
163.656,223
163.681,206
163.706,191
163.731,177
163.756,161
163.781,143
163.806,127
163.831,114
163.856,98
163.881,74
163.906,47
163.931,32
163.956,42
163.981,77
164.006,120
164.031,155
164.056,173
164.081,184
164.106,200
164.131,224
164.156,248
164.181,261
164.206,261
164.231,256
164.256,255
164.281,260
164.306,267
164.331,269
164.356,264
164.381,255
164.406,247
164.431,241
164.456,236
164.481,228
164.506,217
164.531,205
164.556,192
164.581,179
164.606,165
164.631,149
164.656,133
164.681,118
164.706,103
164.731,85
164.756,65
164.781,47
164.806,42
164.831,59
164.856,95
164.881,139
164.906,173
164.931,192
164.956,202
164.981,213
165.006,228
165.031,244
165.056,252
165.081,251
165.106,247
165.131,247
165.156,251
165.181,255
165.206,255
165.231,251
165.256,246
165.281,240
165.306,232
165.331,221
165.356,209
165.381,197
165.406,185
165.431,170
165.456,153
165.481,137
165.506,123
165.531,109
165.556,90
165.581,68
165.606,56
165.631,64
165.656,94
165.681,134
165.706,169
165.731,191
165.756,206
165.781,219
165.806,233
165.831,243
165.856,246
165.881,246
165.906,247
165.931,251
165.956,253
165.981,250
166.006,243
166.031,236
166.056,228
166.081,220
166.106,210
166.131,199
166.156,188
166.181,176
166.206,161
166.231,143
166.256,126
166.281,111
166.306,96
166.331,76
166.356,54
166.381,41
166.406,51
166.431,83
166.456,125
166.481,161
166.506,184
166.531,199
166.556,215
166.581,235
166.606,252
166.631,262
166.656,264
166.681,261
166.706,260
166.731,264
166.756,271
166.781,277
166.806,278
166.831,272
166.856,258
166.881,241
166.906,224
166.931,210
166.956,197
166.981,185
167.006,170
167.031,154
167.056,136
167.081,120
167.106,105
167.131,90
167.156,71
167.181,46
167.206,24
167.231,18
167.256,37
167.281,79
167.306,128
167.331,166
167.356,188
167.381,202
167.406,221
167.431,245
167.456,266
167.481,276
167.506,277
167.531,277
167.556,281
167.581,288
167.606,291
167.631,286
167.656,278
167.681,270
167.706,264
167.731,256
167.756,243
167.781,227
167.806,213
167.831,201
167.856,189
167.881,175
167.906,156
167.931,137
167.956,119
167.981,102
168.006,81
168.031,54
168.056,27
168.081,10
168.106,16
168.131,46
168.156,91
168.181,136
168.206,173
168.231,200
168.256,222
168.281,243
168.306,260
168.331,270
168.356,270
168.381,266
168.406,264
168.431,266
168.456,271
168.481,273
168.506,270
168.531,261
168.556,251
168.581,240
168.606,231
168.631,220
168.656,205
168.681,185
168.706,164
168.731,146
168.756,130
168.781,112
168.806,87
168.831,58
168.856,40
168.881,47
168.906,80
168.931,126
168.956,167
168.981,192
169.006,205
169.031,217
169.056,231
169.081,242
169.106,245
169.131,239
169.156,232
169.181,231
169.206,234
169.231,237
169.256,234
169.281,225
169.306,215
169.331,202
169.356,186
169.381,168
169.406,152
169.431,139
169.456,127
169.481,107
169.506,80
169.531,55
169.556,47
169.581,67
169.606,109
169.631,155
169.656,190
169.681,210
169.706,224
169.731,238
169.756,252
169.781,262
169.806,263
169.831,256
169.856,249
169.881,246
169.906,244
169.931,240
169.956,233
169.981,224
170.006,215
170.031,203
170.056,187
170.081,166
170.106,146
170.131,131
170.156,117
170.181,96
170.206,68
170.231,42
170.256,36
170.281,60
170.306,105
170.331,151
170.356,185
170.381,206
170.406,224
170.431,246
170.456,268
170.481,280
170.506,280
170.531,274
170.556,272
170.581,276
170.606,278
170.631,275
170.656,268
170.681,262
170.706,256
170.731,246
170.756,227
170.781,204
170.806,184
170.831,170
170.856,159
170.881,143
170.906,122
170.931,103
170.956,86
170.981,66
171.006,39
171.031,13
171.056,4
171.081,27
171.106,75
171.131,128
171.156,166
171.181,186
171.206,199
171.231,218
171.256,240
171.281,258
171.306,265
171.331,265
171.356,266
171.381,271
171.406,277
171.431,278
171.456,273
171.481,267
171.506,262
171.531,257
171.556,249
171.581,236
171.606,221
171.631,207
171.656,197
171.681,186
171.706,173
171.731,155
171.756,136
171.781,119
171.806,106
171.831,92
171.856,73
171.881,50
171.906,34
171.931,38
171.956,66
171.981,110
172.006,152
172.031,181
172.056,199
172.081,216
172.106,234
172.131,250
172.156,258
172.181,258
172.206,256
172.231,258
172.256,264
172.281,268
172.306,266
172.331,261
172.356,256
172.381,251
172.406,243
172.431,231
172.456,217
172.481,203
172.506,191
172.531,179
172.556,165
172.581,149
172.606,135
172.631,122
172.656,105
172.681,82
172.706,60
172.731,54
172.756,72
172.781,109
172.806,147
172.831,174
172.856,187
172.881,197
172.906,211
172.931,226
172.956,234
172.981,230
173.006,221
173.031,218
173.056,225
173.081,234
173.106,234
173.131,224
173.156,211
173.181,203
173.206,199
173.231,192
173.256,177
173.281,159
173.306,145
173.331,136
173.356,126
173.381,108
173.406,86
173.431,74
173.456,86
173.481,120
173.506,160
173.531,192
173.556,209
173.581,220
173.606,232
173.631,248
173.656,260
173.681,264
173.706,260
173.731,253
173.756,251
173.781,252
173.806,252
173.831,247
173.856,236
173.881,222
173.906,210
173.931,199
173.956,187
173.981,173
174.006,157
174.031,140
174.056,124
174.081,105
174.106,81
174.131,55
174.156,40
174.181,46
174.206,75
174.231,115
174.256,151
174.281,177
174.306,195
174.331,214
174.356,235
174.381,251
174.406,257
174.431,254
174.456,252
174.481,256
174.506,263
174.531,266
174.556,262
174.581,254
174.606,246
174.631,239
174.656,232
174.681,221
174.706,207
174.731,193
174.756,178
174.781,163
174.806,145
174.831,129
174.856,116
174.881,103
174.906,85
174.931,59
174.956,36
174.981,29
175.006,48
175.031,88
175.056,132
175.081,166
175.106,189
175.131,206
175.156,224
175.181,245
175.206,263
175.231,271
175.256,272
175.281,272
175.306,275
175.331,282
175.356,286
175.381,283
175.406,275
175.431,266
175.456,258
175.481,249
175.506,237
175.531,220
175.556,203
175.581,190
175.606,179
175.631,164
175.656,145
175.681,125
175.706,111
175.731,102
175.756,89
175.781,66
175.806,38
175.831,22
175.856,35
175.881,73
175.906,122
175.931,161
175.956,184
175.981,198
176.006,213
176.031,231
176.056,247
176.081,255
176.106,255
176.131,253
176.156,252
176.181,255
176.206,258
176.231,261
176.256,260
176.281,255
176.306,243
176.331,230
176.356,217
176.381,205
176.406,192
176.431,175
176.456,158
176.481,143
176.506,131
176.531,117
176.556,95
176.581,70
176.606,57
176.631,68
176.656,103
176.681,147
176.706,180
176.731,199
176.756,211
176.781,226
176.806,241
176.831,250
176.856,246
176.881,237
176.906,233
176.931,238
176.956,246
176.981,248
177.006,241
177.031,229
177.056,218
177.081,208
177.106,193
177.131,173
177.156,154
177.181,139
177.206,126
177.231,109
177.256,87
177.281,68
177.306,65
177.331,86
177.356,123
177.381,160
177.406,187
177.431,203
177.456,216
177.481,229
177.506,239
177.531,243
177.556,240
177.581,235
177.606,234
177.631,237
177.656,240
177.681,238
177.706,232
177.731,223
177.756,211
177.781,196
177.806,178
177.831,160
177.856,146
177.881,134
177.906,116
177.931,91
177.956,65
177.981,52
178.006,63
178.031,95
178.056,133
178.081,165
178.106,187
178.131,202
178.156,220
178.181,240
178.206,255
178.231,262
178.256,260
178.281,256
178.306,255
178.331,258
178.356,258
178.381,252
178.406,239
178.431,225
178.456,212
178.481,200
178.506,187
178.531,171
178.556,154
178.581,141
178.606,130
178.631,115
178.656,93
178.681,67
178.706,52
178.731,60
178.756,91
178.781,131
178.806,165
178.831,185
178.856,198
178.881,214
178.906,236
178.931,255
178.956,264
178.981,262
179.006,255
179.031,253
179.056,257
179.081,261
179.106,262
179.131,260
179.156,255
179.181,247
179.206,235
179.231,219
179.256,204
179.281,193
179.306,182
179.331,167
179.356,148
179.381,129
179.406,115
179.431,104
179.456,90
179.481,68
179.506,45
179.531,35
179.556,50
179.581,84
179.606,124
179.631,156
179.656,177
179.681,193
179.706,212
179.731,232
179.756,248
179.781,255
179.806,256
179.831,257
179.856,262
179.881,268
179.906,270
179.931,267
179.956,260
179.981,252
180.006,244
180.031,236
180.056,226
180.081,215
180.106,205
180.131,197
180.156,187
180.181,174
180.206,157
180.231,141
180.256,127
180.281,111
180.306,91
180.331,69
180.356,56
180.381,62
180.406,88
180.431,126
180.456,159
180.481,180
180.506,191
180.531,202
180.556,218
180.581,234
180.606,242
180.631,241
180.656,237
180.681,237
180.706,242
180.731,246
180.756,246
180.781,242
180.806,237
180.831,231
180.856,224
180.881,212
180.906,198
180.931,185
180.956,175
180.981,168
181.006,160
181.031,149
181.056,133
181.081,111
181.106,88
181.131,75
181.156,79
181.181,103
181.206,137
181.231,164
181.256,179
181.281,184
181.306,192
181.331,207
181.356,223
181.381,232
181.406,232
181.431,229
181.456,230
181.481,236
181.506,243
181.531,244
181.556,240
181.581,232
181.606,223
181.631,212
181.656,199
181.681,186
181.706,174
181.731,162
181.756,148
181.781,134
181.806,120
181.831,108
181.856,92
181.881,73
181.906,57
181.931,56
181.956,78
181.981,115
182.006,154
182.031,181
182.056,195
182.081,207
182.106,222
182.131,241
182.156,257
182.181,263
182.206,263
182.231,262
182.256,267
182.281,275
182.306,281
182.331,280
182.356,273
182.381,264
182.406,257
182.431,252
182.456,242
182.481,227
182.506,207
182.531,189
182.556,176
182.581,166
182.606,152
182.631,132
182.656,110
182.681,91
182.706,75
182.731,56
182.756,35
182.781,21
182.806,27
182.831,58
182.856,102
182.881,139
182.906,162
182.931,175
182.956,190
182.981,213
183.006,237
183.031,253
183.056,260
183.081,261
183.106,262
183.131,265
183.156,269
183.181,272
183.206,274
183.231,273
183.256,268
183.281,257
183.306,245
183.331,236
183.356,230
183.381,223
183.406,213
183.431,199
183.456,184
183.481,169
183.506,153
183.531,136
183.556,120
183.581,104
183.606,88
183.631,65
183.656,37
183.681,14
183.706,12
183.731,38
183.756,84
183.781,132
183.806,169
183.831,193
183.856,213
183.881,234
183.906,257
183.931,276
183.956,285
183.981,287
184.006,287
184.031,290
184.056,296
184.081,300
184.106,301
184.131,298
184.156,290
184.181,279
184.206,266
184.231,251
184.256,238
184.281,226
184.306,214
184.331,197
184.356,174
184.381,149
184.406,127
184.431,109
184.456,89
184.481,62
184.506,33
184.531,13
184.556,16
184.581,45
184.606,88
184.631,130
184.656,160
184.681,181
184.706,198
184.731,214
184.756,227
184.781,233
184.806,234
184.831,233
184.856,235
184.881,239
184.906,241
184.931,238
184.956,231
184.981,224
185.006,218
185.031,212
185.056,201
185.081,184
185.106,163
185.131,145
185.156,130
185.181,114
185.206,91
185.231,61
185.256,36
185.281,33
185.306,58
185.331,103
185.356,149
185.381,183
185.406,203
185.431,220
185.456,239
185.481,258
185.506,270
185.531,272
185.556,269
185.581,268
185.606,270
185.631,272
185.656,270
185.681,263
185.706,251
185.731,238
185.756,225
185.781,210
185.806,194
185.831,177
185.856,160
185.881,142
185.906,121
185.931,94
185.956,63
185.981,36
186.006,23
186.031,35
186.056,69
186.081,113
186.106,154
186.131,183
186.156,205
186.181,226
186.206,249
186.231,267
186.256,277
186.281,277
186.306,274
186.331,274
186.356,279
186.381,283
186.406,284
186.431,279
186.456,271
186.481,262
186.506,250
186.531,237
186.556,222
186.581,208
186.606,195
186.631,182
186.656,164
186.681,142
186.706,120
186.731,101
186.756,87
186.781,73
186.806,52
186.831,26
186.856,4
186.881,3
186.906,30
186.931,76
186.956,124
186.981,160
187.006,183
187.031,201
187.056,224
187.081,247
187.106,265
187.131,272
187.156,272
187.181,273
187.206,277
187.231,282
187.256,284
187.281,283
187.306,281
187.331,278
187.356,273
187.381,264
187.406,251
187.431,238
187.456,225
187.481,212
187.506,197
187.531,180
187.556,164
187.581,148
187.606,132
187.631,117
187.656,102
187.681,86
187.706,66
187.731,39
187.756,13
187.781,3
187.806,18
187.831,57
187.856,104
187.881,142
187.906,168
187.931,187
187.956,208
187.981,231
188.006,249
188.031,259
188.056,262
188.081,264
188.106,269
188.131,276
188.156,282
188.181,284
188.206,282
188.231,276
188.256,267
188.281,255
188.306,243
188.331,231
188.356,220
188.381,209
188.406,198
188.431,187
188.456,175
188.481,161
188.506,147
188.531,132
188.556,119
188.581,106
188.606,89
188.631,69
188.656,54
188.681,56
188.706,81
188.731,119
188.756,157
188.781,182
188.806,195
188.831,206
188.856,219
188.881,232
188.906,237
188.931,235
188.956,230
188.981,231
189.006,237
189.031,244
189.056,245
189.081,242
189.106,235
189.131,228
189.156,219
189.181,207
189.206,197
189.231,187
189.256,178
189.281,166
189.306,149
189.331,132
189.356,120
189.381,110
189.406,97
189.431,78
189.456,60
189.481,59
189.506,79
189.531,114
189.556,149
189.581,173
189.606,188
189.631,203
189.656,222
189.681,241
189.706,252
189.731,255
189.756,254
189.781,256
189.806,263
189.831,269
189.856,272
189.881,271
189.906,268
189.931,264
189.956,257
189.981,247
190.006,235
190.031,224
190.056,213
190.081,202
190.106,190
190.131,179
190.156,166
190.181,152
190.206,136
190.231,120
190.256,108
190.281,96
190.306,79
190.331,57
190.356,38
190.381,36
190.406,59
190.431,99
190.456,139
190.481,167
190.506,183
190.531,198
190.556,217
190.581,237
190.606,249
190.631,250
190.656,249
190.681,253
190.706,263
190.731,273
190.756,276
190.781,274
190.806,270
190.831,265
190.856,258
190.881,247
190.906,234
190.931,223
190.956,215
190.981,205
191.006,192
191.031,175
191.056,159
191.081,147
191.106,136
191.131,123
191.156,107
191.181,89
191.206,71
191.231,53
191.256,35
191.281,23
191.306,28
191.331,53
191.356,94
191.381,135
191.406,166
191.431,186
191.456,202
191.481,221
191.506,240
191.531,255
191.556,263
191.581,267
191.606,271
191.631,278
191.656,284
191.681,289
191.706,291
191.731,292
191.756,291
191.781,285
191.806,274
191.831,262
191.856,251
191.881,240
191.906,227
191.931,211
191.956,190
191.981,170
192.006,152
192.031,137
192.056,125
192.081,113
192.106,100
192.131,82
192.156,57
192.181,31
192.206,17
192.231,26
192.256,60
192.281,106
192.306,148
192.331,176
192.356,192
192.381,206
192.406,224
192.431,240
192.456,250
192.481,252
192.506,251
192.531,253
192.556,260
192.581,267
192.606,269
192.631,268
192.656,266
192.681,261
192.706,252
192.731,238
192.756,222
192.781,209
192.806,199
192.831,187
192.856,170
192.881,149
192.906,132
192.931,120
192.956,106
192.981,82
193.006,51
193.031,29
193.056,33
193.081,67
193.106,115
193.131,158
193.156,185
193.181,202
193.206,217
193.231,235
193.256,251
193.281,258
193.306,256
193.331,252
193.356,252
193.381,255
193.406,258
193.431,257
193.456,252
193.481,244
193.506,235
193.531,225
193.556,214
193.581,200
193.606,184
193.631,165
193.656,146
193.681,129
193.706,112
193.731,92
193.756,64
193.781,33
193.806,12
193.831,15
193.856,45
193.881,92
193.906,140
193.931,174
193.956,198
193.981,217
194.006,239
194.031,260
194.056,275
194.081,279
194.106,278
194.131,279
194.156,284
194.181,291
194.206,292
194.231,287
194.256,277
194.281,265
194.306,254
194.331,242
194.356,229
194.381,215
194.406,201
194.431,186
194.456,167
194.481,144
194.506,123
194.531,105
194.556,90
194.581,68
194.606,39
194.631,9
194.656,0
194.681,18
194.706,63
194.731,115
194.756,154
194.781,178
194.806,196
194.831,217
194.856,242
194.881,262
194.906,270
194.931,270
194.956,269
194.981,272
195.006,277
195.031,281
195.056,282
195.081,280
195.106,276
195.131,271
195.156,262
195.181,249
195.206,234
195.231,218
195.256,202
195.281,187
195.306,173
195.331,159
195.356,143
195.381,124
195.406,106
195.431,92
195.456,80
195.481,64
195.506,39
195.531,13
195.556,1
195.581,18
195.606,61
195.631,113
195.656,153
195.681,175
195.706,189
195.731,207
195.756,231
195.781,252
195.806,263
195.831,265
195.856,267
195.881,274
195.906,284
195.931,290
195.956,290
195.981,285
196.006,280
196.031,273
196.056,264
196.081,252
196.106,239
196.131,227
196.156,217
196.181,208
196.206,195
196.231,180
196.256,162
196.281,145
196.306,129
196.331,115
196.356,100
196.381,81
196.406,59
196.431,42
196.456,42
196.481,64
196.506,103
196.531,144
196.556,173
196.581,189
196.606,200
196.631,215
196.656,231
196.681,242
196.706,244
196.731,241
196.756,240
196.781,244
196.806,251
196.831,253
196.856,249
196.881,241
196.906,233
196.931,225
196.956,216
196.981,206
197.006,194
197.031,181
197.056,166
197.081,152
197.106,141
197.131,132
197.156,123
197.181,108
197.206,87
197.231,71
197.256,73
197.281,98
197.306,136
197.331,173
197.356,196
197.381,209
197.406,218
197.431,229
197.456,240
197.481,246
197.506,244
197.531,240
197.556,239
197.581,242
197.606,246
197.631,248
197.656,244
197.681,234
197.706,222
197.731,211
197.756,202
197.781,194
197.806,183
197.831,167
197.856,150
197.881,134
197.906,121
197.931,106
197.956,84
197.981,61
198.006,47
198.031,56
198.056,87
198.081,126
198.106,157
198.131,175
198.156,187
198.181,202
198.206,222
198.231,242
198.256,254
198.281,256
198.306,254
198.331,255
198.356,261
198.381,268
198.406,272
198.431,270
198.456,262
198.481,250
198.506,239
198.531,230
198.556,222
198.581,213
198.606,201
198.631,187
198.656,171
198.681,156
198.706,141
198.731,127
198.756,116
198.781,103
198.806,85
198.831,62
198.856,42
198.881,37
198.906,55
198.931,91
198.956,131
198.981,161
199.006,179
199.031,194
199.056,213
199.081,235
199.106,252
199.131,259
199.156,260
199.181,260
199.206,264
199.231,270
199.256,274
199.281,276
199.306,275
199.331,270
199.356,262
199.381,252
199.406,241
199.431,231
199.456,222
199.481,213
199.506,203
199.531,191
199.556,177
199.581,162
199.606,146
199.631,132
199.656,117
199.681,101
199.706,80
199.731,57
199.756,39
199.781,38
199.806,59
199.831,97
199.856,136
199.881,167
199.906,187
199.931,202
199.956,218
199.981,232
200.006,242
200.031,245
200.056,245
200.081,246
200.106,250
200.131,254
200.156,255
200.181,253
200.206,251
200.231,248
200.256,242
200.281,230
200.306,215
200.331,201
200.356,191
200.381,182
200.406,171
200.431,155
200.456,138
200.481,121
200.506,104
200.531,83
200.556,61
200.581,48
200.606,56
200.631,85
200.656,125
200.681,161
200.706,186
200.731,203
200.756,222
200.781,242
200.806,257
200.831,261
200.856,256
200.881,251
200.906,250
200.931,255
200.956,258
200.981,258
201.006,255
201.031,248
201.056,236
201.081,219
201.106,202
201.131,187
201.156,175
201.181,163
201.206,147
201.231,129
201.256,110
201.281,89
201.306,66
201.331,40
201.356,23
201.381,27
201.406,57
201.431,103
201.456,147
201.481,179
201.506,200
201.531,219
201.556,241
201.581,263
201.606,278
201.631,282
201.656,281
201.681,279
201.706,281
201.731,284
201.756,284
201.781,280
201.806,272
201.831,263
201.856,252
201.881,240
201.906,225
201.931,207
201.956,191
201.981,178
202.006,167
202.031,152
202.056,131
202.081,109
202.106,89
202.131,72
202.156,53
202.181,27
202.206,3
202.231,-1
202.256,23
202.281,71
202.306,124
202.331,164
202.356,189
202.381,209
202.406,231
202.431,254
202.456,268
202.481,273
202.506,274
202.531,279
202.556,288
202.581,295
202.606,296
202.631,291
202.656,285
202.681,280
202.706,273
202.731,261
202.756,246
202.781,230
202.806,216
202.831,203
202.856,190
202.881,176
202.906,161
202.931,142
202.956,121
202.981,100
203.006,81
203.031,61
203.056,38
203.081,15
203.106,1
203.131,12
203.156,48
203.181,99
203.206,147
203.231,180
203.256,201
203.281,219
203.306,238
203.331,255
203.356,265
203.381,267
203.406,265
203.431,264
203.456,268
203.481,273
203.506,277
203.531,277
203.556,271
203.581,262
203.606,251
203.631,241
203.656,231
203.681,221
203.706,210
203.731,197
203.756,184
203.781,171
203.806,156
203.831,142
203.856,127
203.881,111
203.906,93
203.931,71
203.956,53
203.981,47
204.006,63
204.031,96
204.056,135
204.081,170
204.106,194
204.131,210
204.156,224
204.181,234
204.206,238
204.231,237
204.256,234
204.281,234
204.306,238
204.331,243
204.356,245
204.381,244
204.406,239
204.431,230
204.456,219
204.481,207
204.506,194
204.531,182
204.556,167
204.581,152
204.606,138
204.631,127
204.656,115
204.681,96
204.706,72
204.731,54
204.756,59
204.781,90
204.806,134
204.831,171
204.856,193
204.881,205
204.906,219
204.931,239
204.956,257
204.981,265
205.006,261
205.031,255
205.056,252
205.081,254
205.106,257
205.131,257
205.156,253
205.181,248
205.206,238
205.231,224
205.256,208
205.281,193
205.306,182
205.331,170
205.356,155
205.381,136
205.406,118
205.431,103
205.456,88
205.481,69
205.506,51
205.531,44
205.556,59
205.581,94
205.606,136
205.631,170
205.656,193
205.681,209
205.706,224
205.731,241
205.756,253
205.781,259
205.806,260
205.831,260
205.856,262
205.881,265
205.906,265
205.931,262
205.956,257
205.981,251
206.006,244
206.031,237
206.056,228
206.081,216
206.106,203
206.131,189
206.156,174
206.181,158
206.206,141
206.231,127
206.256,116
206.281,105
206.306,90
206.331,67
206.356,42
206.381,29
206.406,41
206.431,78
206.456,125
206.481,166
206.506,190
206.531,204
206.556,216
206.581,231
206.606,246
206.631,255
206.656,257
206.681,256
206.706,258
206.731,263
206.756,270
206.781,274
206.806,273
206.831,268
206.856,260
206.881,250
206.906,241
206.931,230
206.956,218
206.981,204
207.006,191
207.031,180
207.056,171
207.081,159
207.106,143
207.131,123
207.156,105
207.181,89
207.206,72
207.231,52
207.256,36
207.281,34
207.306,56
207.331,95
207.356,136
207.381,168
207.406,188
207.431,204
207.456,220
207.481,236
207.506,248
207.531,253
207.556,255
207.581,258
207.606,261
207.631,263
207.656,265
207.681,268
207.706,270
207.731,266
207.756,255
207.781,240
207.806,226
207.831,219
207.856,213
207.881,202
207.906,185
207.931,168
207.956,155
207.981,143
208.006,125
208.031,98
208.056,71
208.081,58
208.106,68
208.131,98
208.156,136
208.181,169
208.206,192
208.231,207
208.256,217
208.281,226
208.306,232
208.331,235
208.356,232
208.381,228
208.406,226
208.431,230
208.456,236
208.481,239
208.506,233
208.531,222
208.556,210
208.581,200
208.606,191
208.631,178
208.656,161
208.681,142
208.706,124
208.731,104
208.756,81
208.781,57
208.806,44
208.831,53
208.856,83
208.881,124
208.906,161
208.931,186
208.956,203
208.981,218
209.006,235
209.031,250
209.056,257
209.081,254
209.106,246
209.131,240
209.156,242
209.181,247
209.206,249
209.231,242
209.256,227
209.281,211
209.306,199
209.331,194
209.356,189
209.381,180
209.406,166
209.431,148
209.456,128
209.481,103
209.506,73
209.531,47
209.556,39
209.581,57
209.606,96
209.631,141
209.656,176
209.681,197
209.706,213
209.731,231
209.756,251
209.781,268
209.806,275
209.831,275
209.856,273
209.881,275
209.906,279
209.931,281
209.956,277
209.981,270
210.006,259
210.031,246
210.056,231
210.081,214
210.106,201
210.131,191
210.156,183
210.181,169
210.206,150
210.231,127
210.256,108
210.281,93
210.306,76
210.331,54
210.356,28
210.381,12
210.406,19
210.431,50
210.456,95
210.481,138
210.506,172
210.531,196
210.556,216
210.581,235
210.606,250
210.631,260
210.656,265
210.681,266
210.706,267
210.731,269
210.756,273
210.781,277
210.806,280
210.831,278
210.856,270
210.881,258
210.906,245
210.931,234
210.956,224
210.981,213
211.006,201
211.031,187
211.056,170
211.081,151
211.106,134
211.131,122
211.156,111
211.181,97
211.206,77
211.231,55
211.256,45
211.281,59
211.306,95
211.331,139
211.356,173
211.381,193
211.406,206
211.431,220
211.456,237
211.481,251
211.506,256
211.531,251
211.556,244
211.581,242
211.606,244
211.631,246
211.656,244
211.681,236
211.706,225
211.731,212
211.756,199
211.781,186
211.806,173
211.831,162
211.856,151
211.881,141
211.906,128
211.931,111
211.956,90
211.981,75
212.006,75
212.031,97
212.056,133
212.081,170
212.106,195
212.131,207
212.156,214
212.181,224
212.206,235
212.231,242
212.256,239
212.281,231
212.306,225
212.331,226
212.356,231
212.381,231
212.406,224
212.431,215
212.456,205
212.481,196
212.506,184
212.531,170
212.556,154
212.581,140
212.606,124
212.631,105
212.656,86
212.681,78
212.706,90
212.731,120
212.756,154
212.781,180
212.806,195
212.831,206
212.856,221
212.881,238
212.906,248
212.931,247
212.956,238
212.981,231
213.006,233
213.031,239
213.056,240
213.081,232
213.106,218
213.131,206
213.156,198
213.181,190
213.206,179
213.231,166
213.256,152
213.281,139
213.306,125
213.331,107
213.356,84
213.381,65
213.406,62
213.431,78
213.456,108
213.481,140
213.506,165
213.531,182
213.556,199
213.581,218
213.606,240
213.631,257
213.656,267
213.681,270
213.706,271
213.731,273
213.756,277
213.781,280
213.806,279
213.831,272
213.856,262
213.881,251
213.906,240
213.931,230
213.956,221
213.981,211
214.006,198
214.031,185
214.056,170
214.081,154
214.106,135
214.131,116
214.156,98
214.181,82
214.206,67
214.231,51
214.256,40
214.281,41
214.306,61
214.331,95
214.356,131
214.381,155
214.406,170
214.431,183
214.456,204
214.481,229
214.506,249
214.531,257
214.556,255
214.581,253
214.606,257
214.631,264
214.656,270
214.681,270
214.706,268
214.731,265
214.756,259
214.781,249
214.806,236
214.831,224
214.856,216
214.881,208
214.906,196
214.931,179
214.956,160
214.981,145
215.006,133
215.031,123
215.056,109
215.081,90
215.106,71
215.131,56
215.156,51
215.181,62
215.206,86
215.231,118
215.256,148
215.281,170
215.306,186
215.331,201
215.356,220
215.381,238
215.406,250
215.431,254
215.456,253
215.481,254
215.506,259
215.531,263
215.556,263
215.581,260
215.606,257
215.631,254
215.656,248
215.681,236
215.706,223
215.731,212
215.756,205
215.781,196
215.806,181
215.831,162
215.856,145
215.881,134
215.906,125
215.931,109
215.956,86
215.981,67
216.006,65
216.031,86
216.056,121
216.081,156
216.106,181
216.131,197
216.156,209
216.181,221
216.206,232
216.231,237
216.256,235
216.281,229
216.306,225
216.331,226
216.356,229
216.381,232
216.406,231
216.431,225
216.456,216
216.481,204
216.506,191
216.531,176
216.556,161
216.581,147
216.606,134
216.631,119
216.656,100
216.681,80
216.706,69
216.731,75
216.756,100
216.781,136
216.806,169
216.831,193
216.856,207
216.881,220
216.906,235
216.931,250
216.956,259
216.981,258
217.006,252
217.031,248
217.056,248
217.081,250
217.106,248
217.131,240
217.156,227
217.181,214
217.206,202
217.231,191
217.256,177
217.281,162
217.306,146
217.331,129
217.356,108
217.381,82
217.406,60
217.431,51
217.456,63
217.481,93
217.506,129
217.531,159
217.556,180
217.581,199
217.606,221
217.631,245
217.656,262
217.681,268
217.706,266
217.731,263
217.756,265
217.781,269
217.806,270
217.831,267
217.856,261
217.881,253
217.906,242
217.931,228
217.956,212
217.981,198
218.006,186
218.031,172
218.056,155
218.081,136
218.106,119
218.131,105
218.156,88
218.181,64
218.206,37
218.231,21
218.256,29
218.281,61
218.306,105
218.331,144
218.356,170
218.381,188
218.406,207
218.431,230
218.456,251
218.481,264
218.506,267
218.531,266
218.556,268
218.581,273
218.606,277
218.631,276
218.656,270
218.681,261
218.706,253
218.731,244
218.756,233
218.781,219
218.806,204
218.831,190
218.856,178
218.881,165
218.906,148
218.931,130
218.956,114
218.981,99
219.006,83
219.031,63
219.056,44
219.081,37
219.106,55
219.131,93
219.156,136
219.181,169
219.206,186
219.231,199
219.256,217
219.281,242
219.306,262
219.331,270
219.356,268
219.381,264
219.406,265
219.431,269
219.456,271
219.481,268
219.506,262
219.531,257
219.556,251
219.581,241
219.606,227
219.631,213
219.656,202
219.681,191
219.706,177
219.731,162
219.756,147
219.781,135
219.806,119
219.831,97
219.856,69
219.881,49
219.906,49
219.931,74
219.956,113
219.981,152
220.006,181
220.031,200
220.056,214
220.081,226
220.106,235
220.131,239
220.156,238
220.181,233
220.206,227
220.231,224
220.256,224
220.281,226
220.306,226
220.331,222
220.356,211
220.381,196
220.406,182
220.431,168
220.456,156
220.481,144
220.506,129
220.531,110
220.556,89
220.581,70
220.606,60
220.631,68
220.656,94
220.681,129
220.706,163
220.731,188
220.756,205
220.781,222
220.806,240
220.831,253
220.856,257
220.881,253
220.906,249
220.931,252
220.956,258
220.981,259
221.006,251
221.031,237
221.056,223
221.081,209
221.106,196
221.131,180
221.156,166
221.181,155
221.206,144
221.231,127
221.256,104
221.281,82
221.306,78
221.331,97
221.356,132
221.381,169
221.406,195
221.431,211
221.456,223
221.481,237
221.506,251
221.531,260
221.556,263
221.581,260
221.606,255
221.631,252
221.656,251
221.681,249
221.706,243
221.731,232
221.756,217
221.781,201
221.806,186
221.831,172
221.856,157
221.881,140
221.906,122
221.931,104
221.956,85
221.981,61
222.006,37
222.031,25
222.056,35
222.081,69
222.106,116
222.131,159
222.156,187
222.181,203
222.206,217
222.231,234
222.256,253
222.281,266
222.306,270
222.331,267
222.356,264
222.381,263
222.406,264
222.431,265
222.456,264
222.481,259
222.506,250
222.531,238
222.556,225
222.581,212
222.606,202
222.631,192
222.656,180
222.681,165
222.706,146
222.731,128
222.756,112
222.781,96
222.806,78
222.831,56
222.856,36
222.881,29
222.906,45
222.931,82
222.956,128
222.981,168
223.006,192
223.031,207
223.056,222
223.081,240
223.106,258
223.131,268
223.156,266
223.181,261
223.206,262
223.231,268
223.256,274
223.281,273
223.306,266
223.331,258
223.356,253
223.381,247
223.406,236
223.431,222
223.456,209
223.481,200
223.506,192
223.531,179
223.556,159
223.581,139
223.606,124
223.631,113
223.656,98
223.681,75
223.706,51
223.731,41
223.756,56
223.781,94
223.806,138
223.831,174
223.856,197
223.881,212
223.906,224
223.931,236
223.956,242
223.981,242
224.006,238
224.031,235
224.056,236
224.081,242
224.106,245
224.131,243
224.156,233
224.181,221
224.206,210
224.231,203
224.256,196
224.281,185
224.306,170
224.331,155
224.356,142
224.381,129
224.406,112
224.431,92
224.456,79
224.481,84
224.506,112
224.531,152
224.556,187
224.581,208
224.606,219
224.631,227
224.656,239
224.681,249
224.706,249
224.731,241
224.756,232
224.781,229
224.806,230
224.831,230
224.856,225
224.881,217
224.906,209
224.931,200
224.956,186
224.981,168
225.006,150
225.031,138
225.056,130
225.081,117
225.106,94
225.131,67
225.156,52
225.181,62
225.206,94
225.231,135
225.256,171
225.281,197
225.306,217
225.331,233
225.356,247
225.381,256
225.406,257
225.431,253
225.456,248
225.481,247
225.506,248
225.531,249
225.556,248
225.581,242
225.606,232
225.631,219
225.656,205
225.681,191
225.706,176
225.731,162
225.756,148
225.781,133
225.806,113
225.831,86
225.856,59
225.881,44
225.906,54
225.931,88
225.956,133
225.981,170
226.006,193
226.031,207
226.056,221
226.081,239
226.106,255
226.131,261
226.156,258
226.181,253
226.206,252
226.231,256
226.256,258
226.281,257
226.306,252
226.331,246
226.356,238
226.381,227
226.406,214
226.431,201
226.456,189
226.481,178
226.506,162
226.531,142
226.556,122
226.581,106
226.606,92
226.631,74
226.656,51
226.681,34
226.706,39
226.731,68
226.756,113
226.781,154
226.806,182
226.831,200
226.856,217
226.881,239
226.906,257
226.931,265
226.956,262
226.981,258
227.006,259
227.031,266
227.056,271
227.081,269
227.106,263
227.131,258
227.156,256
227.181,252
227.206,241
227.231,225
227.256,209
227.281,201
227.306,195
227.331,184
227.356,166
227.381,144
227.406,128
227.431,117
227.456,104
227.481,83
227.506,59
227.531,46
227.556,56
227.581,89
227.606,129
227.631,163
227.656,184
227.681,199
227.706,212
227.731,226
227.756,237
227.781,240
227.806,239
227.831,235
227.856,233
227.881,232
227.906,232
227.931,232
227.956,231
227.981,228
228.006,221
228.031,211
228.056,200
228.081,188
228.106,176
228.131,165
228.156,153
228.181,141
228.206,126
228.231,106
228.256,87
228.281,80
228.306,92
228.331,123
228.356,160
228.381,190
228.406,207
228.431,215
228.456,222
228.481,231
228.506,238
228.531,237
228.556,231
228.581,226
228.606,227
228.631,230
228.656,230
228.681,223
228.706,214
228.731,208
228.756,204
228.781,197
228.806,183
228.831,165
228.856,150
228.881,140
228.906,131
228.931,115
228.956,92
228.981,73
229.006,70
229.031,90
229.056,126
229.081,162
229.106,188
229.131,205
229.156,218
229.181,232
229.206,244
229.231,251
229.256,251
229.281,248
229.306,246
229.331,248
229.356,252
229.381,254
229.406,252
229.431,245
229.456,234
229.481,222
229.506,210
229.531,197
229.556,183
229.581,166
229.606,150
229.631,136
229.656,126
229.681,112
229.706,93
229.731,71
229.756,59
229.781,69
229.806,99
229.831,136
229.856,165
229.881,181
229.906,192
229.931,208
229.956,228
229.981,244
230.006,250
230.031,246
230.056,242
230.081,245
230.106,251
230.131,255
230.156,253
230.181,248
230.206,243
230.231,237
230.256,226
230.281,212
230.306,197
230.331,186
230.356,178
230.381,169
230.406,156
230.431,141
230.456,127
230.481,113
230.506,94
230.531,70
230.556,49
230.581,46
230.606,67
230.631,106
230.656,146
230.681,175
230.706,192
230.731,205
230.756,219
230.781,235
230.806,248
230.831,253
230.856,252
230.881,252
230.906,255
230.931,260
230.956,265
230.981,265
231.006,260
231.031,252
231.056,242
231.081,232
231.106,221
231.131,210
231.156,200
231.181,190
231.206,179
231.231,166
231.256,151
231.281,135
231.306,120
231.331,105
231.356,86
231.381,66
231.406,54
231.431,61
231.456,88
231.481,126
231.506,161
231.531,185
231.556,200
231.581,213
231.606,231
231.631,247
231.656,255
231.681,253
231.706,248
231.731,246
231.756,250
231.781,255
231.806,256
231.831,251
231.856,240
231.881,228
231.906,217
231.931,207
231.956,197
231.981,186
232.006,174
232.031,161
232.056,148
232.081,134
232.106,117
232.131,96
232.156,77
232.181,70
232.206,83
232.231,113
232.256,149
232.281,180
232.306,200
232.331,212
232.356,223
232.381,234
232.406,240
232.431,240
232.456,235
232.481,232
232.506,235
232.531,239
232.556,239
232.581,233
232.606,223
232.631,211
232.656,200
232.681,188
232.706,173
232.731,158
232.756,146
232.781,135
232.806,120
232.831,97
232.856,70
232.881,53
232.906,59
232.931,88
232.956,128
232.981,165
233.006,191
233.031,208
233.056,224
233.081,241
233.106,256
233.131,263
233.156,264
233.181,260
233.206,256
233.231,254
233.256,254
233.281,251
233.306,246
233.331,236
233.356,223
233.381,209
233.406,196
233.431,184
233.456,171
233.481,157
233.506,142
233.531,126
233.556,107
233.581,82
233.606,55
233.631,39
233.656,47
233.681,81
233.706,127
233.731,164
233.756,184
233.781,193
233.806,206
233.831,229
233.856,252
233.881,262
233.906,257
233.931,247
233.956,243
233.981,247
234.006,253
234.031,252
234.056,246
234.081,239
234.106,234
234.131,227
234.156,215
234.181,199
234.206,184
234.231,172
234.256,159
234.281,145
234.306,130
234.331,119
234.356,112
234.381,105
234.406,91
234.431,72
234.456,62
234.481,70
234.506,99
234.531,138
234.556,171
234.581,193
234.606,206
234.631,220
234.656,237
234.681,253
234.706,262
234.731,263
234.756,262
234.781,265
234.806,273
234.831,282
234.856,285
234.881,279
234.906,267
234.931,253
234.956,240
234.981,229
235.006,219
235.031,210
235.056,201
235.081,189
235.106,174
235.131,158
235.156,143
235.181,134
235.206,128
235.231,119
235.256,102
235.281,79
235.306,61
235.331,58
235.356,76
235.381,108
235.406,143
235.431,170
235.456,187
235.481,201
235.506,216
235.531,229
235.556,236
235.581,234
235.606,228
235.631,226
235.656,230
235.681,238
235.706,240
235.731,234
235.756,223
235.781,214
235.806,209
235.831,206
235.856,197
235.881,180
235.906,162
235.931,147
235.956,137
235.981,125
236.006,106
236.031,86
236.056,73
236.081,80
236.106,105
236.131,140
236.156,171
236.181,191
236.206,204
236.231,214
236.256,223
236.281,231
236.306,234
236.331,230
236.356,225
236.381,223
236.406,226
236.431,231
236.456,232
236.481,227
236.506,217
236.531,206
236.556,197
236.581,191
236.606,183
236.631,173
236.656,160
236.681,147
236.706,134
236.731,118
236.756,98
236.781,82
236.806,80
236.831,99
236.856,134
236.881,170
236.906,194
236.931,206
236.956,216
236.981,232
237.006,251
237.031,265
237.056,266
237.081,261
237.106,257
237.131,258
237.156,261
237.181,259
237.206,252
237.231,242
237.256,234
237.281,226
237.306,216
237.331,202
237.356,188
237.381,174
237.406,161
237.431,145
237.456,128
237.481,113
237.506,99
237.531,85
237.556,67
237.581,47
237.606,38
237.631,49
237.656,80
237.681,118
237.706,152
237.731,175
237.756,193
237.781,211
237.806,231
237.831,248
237.856,256
237.881,258
237.906,259
237.931,262
237.956,269
237.981,275
238.006,279
238.031,277
238.056,271
238.081,263
238.106,254
238.131,243
238.156,233
238.181,223
238.206,213
238.231,201
238.256,187
238.281,170
238.306,152
238.331,135
238.356,122
238.381,109
238.406,90
238.431,68
238.456,50
238.481,50
238.506,72
238.531,109
238.556,146
238.581,172
238.606,187
238.631,199
238.656,213
238.681,226
238.706,234
238.731,235
238.756,232
238.781,233
238.806,239
238.831,248
238.856,253
238.881,253
238.906,246
238.931,236
238.956,224
238.981,212
239.006,201
239.031,190
239.056,179
239.081,167
239.106,156
239.131,144
239.156,127
239.181,103
239.206,77
239.231,59
239.256,61
239.281,84
239.306,120
239.331,156
239.356,182
239.381,200
239.406,212
239.431,224
239.456,235
239.481,242
239.506,244
239.531,244
239.556,243
239.581,243
239.606,245
239.631,245
239.656,243
239.681,236
239.706,226
239.731,213
239.756,199
239.781,183
239.806,166
239.831,151
239.856,139
239.881,129
239.906,115
239.931,92
239.956,65
239.981,50
240.006,58
240.031,89
240.056,131
240.081,166
240.106,190
240.131,205
240.156,221
240.181,241
240.206,258
240.231,267
240.256,268
240.281,265
240.306,264
240.331,267
240.356,271
240.381,273
240.406,271
240.431,265
240.456,255
240.481,242
240.506,227
240.531,212
240.556,199
240.581,186
240.606,171
240.631,152
240.656,134
240.681,119
240.706,107
240.731,93
240.756,73
240.781,47
240.806,25
240.831,20
240.856,39
240.881,76
240.906,118
240.931,153
240.956,178
240.981,197
241.006,215
241.031,234
241.056,250
241.081,261
241.106,265
241.131,266
241.156,269
241.181,272
241.206,276
241.231,277
241.256,274
241.281,268
241.306,260
241.331,250
241.356,238
241.381,226
241.406,214
241.431,203
241.456,191
241.481,174
241.506,155
241.531,134
241.556,117
241.581,102
241.606,87
241.631,67
241.656,43
241.681,20
241.706,11
241.731,23
241.756,55
241.781,98
241.806,137
241.831,165
241.856,184
241.881,199
241.906,216
241.931,233
241.956,244
241.981,247
242.006,244
242.031,241
242.056,244
242.081,250
242.106,257
242.131,257
242.156,252
242.181,244
242.206,237
242.231,233
242.256,229
242.281,224
242.306,215
242.331,203
242.356,190
242.381,180
242.406,174
242.431,169
242.456,161
242.481,146
242.506,131
242.531,127
242.556,145
242.581,186
242.606,242
242.631,293
242.656,323
242.681,324
242.706,295
242.731,249
242.756,208
242.781,202
242.806,249
242.831,339
242.856,433
242.881,487
242.906,477
242.931,417
242.956,343
242.981,281
243.006,233
243.031,181
243.056,111
243.081,31
243.106,-40
243.131,-91
243.156,-122
243.181,-146
243.206,-165
243.231,-174
243.256,-159
243.281,-117
243.306,-58
243.331,0
243.356,48
243.381,83
243.406,112
243.431,143
243.456,174
243.481,199
243.506,213
243.531,219
243.556,224
243.581,233
243.606,245
243.631,254
243.656,256
243.681,253
243.706,250
243.731,247
243.756,243
243.781,234
243.806,223
243.831,214
243.856,206
243.881,195
243.906,175
243.931,151
243.956,138
243.981,151
244.006,188
244.031,235
244.056,272
244.081,292
244.106,302
244.131,311
244.156,324
244.181,335
244.206,339
244.231,334
244.256,324
244.281,312
244.306,299
244.331,285
244.356,272
244.381,260
244.406,248
244.431,234
244.456,216
244.481,196
244.506,179
244.531,166
244.556,152
244.581,136
244.606,117
244.631,95
244.656,70
244.681,42
244.706,18
244.731,8
244.756,22
244.781,56
244.806,97
244.831,127
244.856,141
244.881,148
244.906,158
244.931,171
244.956,181
244.981,180
245.006,173
245.031,168
245.056,170
245.081,176
245.106,178
245.131,174
245.156,168
245.181,168
245.206,171
245.231,169
245.256,159
245.281,147
245.306,142
245.331,146
245.356,152
245.381,150
245.406,142
245.431,141
245.456,160
245.481,198
245.506,242
245.531,276
245.556,296
245.581,307
245.606,314
245.631,317
245.656,312
245.681,301
245.706,289
245.731,282
245.756,281
245.781,277
245.806,268
245.831,253
245.856,238
245.881,225
245.906,212
245.931,194
245.956,170
245.981,146
246.006,123
246.031,100
246.056,76
246.081,56
246.106,52
246.131,72
246.156,108
246.181,145
246.206,171
246.231,184
246.256,193
246.281,205
246.306,218
246.331,222
246.356,217
246.381,207
246.406,201
246.431,201
246.456,202
246.481,197
246.506,187
246.531,178
246.556,171
246.581,165
246.606,157
246.631,148
246.656,141
246.681,134
246.706,122
246.731,103
246.756,86
246.781,85
246.806,108
246.831,146
246.856,184
246.881,208
246.906,220
246.931,229
246.956,243
246.981,257
247.006,264
247.031,263
247.056,256
247.081,251
247.106,249
247.131,249
247.156,246
247.181,238
247.206,226
247.231,212
247.256,197
247.281,185
247.306,174
247.331,161
247.356,144
247.381,125
247.406,106
247.431,88
247.456,68
247.481,41
247.506,15
247.531,1
247.556,14
247.581,49
247.606,91
247.631,125
247.656,147
247.681,165
247.706,185
247.731,207
247.756,223
247.781,229
247.806,233
247.831,243
247.856,261
247.881,281
247.906,298
247.931,311
247.956,319
247.981,322
248.006,317
248.031,305
248.056,290
248.081,277
248.106,266
248.131,251
248.156,231
248.181,209
248.206,190
248.231,173
248.256,151
248.281,121
248.306,91
248.331,76
248.356,88
248.381,121
248.406,159
248.431,188
248.456,204
248.481,214
248.506,222
248.531,229
248.556,230
248.581,224
248.606,215
248.631,206
248.656,201
248.681,199
248.706,198
248.731,195
248.756,192
248.781,186
248.806,179
248.831,169
248.856,157
248.881,146
248.906,137
248.931,127
248.956,115
248.981,97
249.006,78
249.031,67
249.056,75
249.081,102
249.106,139
249.131,174
249.156,198
249.181,214
249.206,227
249.231,240
249.256,250
249.281,252
249.306,247
249.331,240
249.356,237
249.381,236
249.406,235
249.431,229
249.456,222
249.481,214
249.506,206
249.531,195
249.556,180
249.581,166
249.606,153
249.631,141
249.656,122
249.681,97
249.706,73
249.731,66
249.756,84
249.781,121
249.806,161
249.831,190
249.856,208
249.881,221
249.906,234
249.931,247
249.956,255
249.981,257
250.006,254
250.031,250
250.056,248
250.081,247
250.106,245
250.131,242
250.156,234
250.181,221
250.206,205
250.231,188
250.256,173
250.281,159
250.306,142
250.331,123
250.356,102
250.381,83
250.406,63
250.431,41
250.456,18
250.481,4
250.506,12
250.531,44
250.556,90
250.581,132
250.606,159
250.631,173
250.656,186
250.681,202
250.706,218
250.731,228
250.756,230
250.781,231
250.806,237
250.831,249
250.856,260
250.881,267
250.906,271
250.931,276
250.956,280
250.981,279
251.006,272
251.031,262
251.056,254
251.081,249
251.106,242
251.131,231
251.156,218
251.181,207
251.206,197
251.231,182
251.256,158
251.281,132
251.306,119
251.331,129
251.356,159
251.381,193
251.406,216
251.431,228
251.456,236
251.481,247
251.506,259
251.531,264
251.556,258
251.581,246
251.606,235
251.631,231
251.656,230
251.681,227
251.706,218
251.731,205
251.756,191
251.781,175
251.806,160
251.831,145
251.856,132
251.881,121
251.906,111
251.931,100
251.956,90
251.981,83
252.006,74
252.031,61
252.056,44
252.081,31
252.106,36
252.131,64
252.156,108
252.181,150
252.206,178
252.231,193
252.256,205
252.281,219
252.306,231
252.331,236
252.356,232
252.381,227
252.406,228
252.431,234
252.456,238
252.481,235
252.506,227
252.531,220
252.556,215
252.581,208
252.606,196
252.631,182
252.656,170
252.681,162
252.706,150
252.731,128
252.756,101
252.781,86
252.806,94
252.831,126
252.856,166
252.881,199
252.906,218
252.931,230
252.956,241
252.981,252
253.006,258
253.031,257
253.056,253
253.081,251
253.106,250
253.131,250
253.156,245
253.181,237
253.206,229
253.231,222
253.256,214
253.281,202
253.306,185
253.331,166
253.356,150
253.381,137
253.406,123
253.431,104
253.456,78
253.481,55
253.506,47
253.531,62
253.556,96
253.581,136
253.606,169
253.631,191
253.656,209
253.681,226
253.706,244
253.731,254
253.756,255
253.781,250
253.806,244
253.831,243
253.856,246
253.881,248
253.906,248
253.931,245
253.956,239
253.981,229
254.006,215
254.031,199
254.056,186
254.081,177
254.106,166
254.131,152
254.156,137
254.181,122
254.206,110
254.231,95
254.256,73
254.281,52
254.306,45
254.331,63
254.356,104
254.381,152
254.406,189
254.431,210
254.456,223
254.481,236
254.506,252
254.531,264
254.556,268
254.581,266
254.606,263
254.631,264
254.656,265
254.681,263
254.706,258
254.731,252
254.756,247
254.781,241
254.806,233
254.831,220
254.856,206
254.881,193
254.906,182
254.931,169
254.956,153
254.981,138
255.006,125
255.031,113
255.056,96
255.081,72
255.106,49
255.131,40
255.156,54
255.181,89
255.206,132
255.231,169
255.256,195
255.281,210
255.306,222
255.331,233
255.356,241
255.381,245
255.406,243
255.431,237
255.456,234
255.481,238
255.506,246
255.531,253
255.556,254
255.581,246
255.606,230
255.631,214
255.656,200
255.681,187
255.706,174
255.731,159
255.756,144
255.781,129
255.806,111
255.831,92
255.856,75
255.881,72
255.906,89
255.931,124
255.956,164
255.981,195
256.006,212
256.031,222
256.056,230
256.081,239
256.106,243
256.131,239
256.156,230
256.181,225
256.206,226
256.231,230
256.256,229
256.281,221
256.306,213
256.331,207
256.356,204
256.381,195
256.406,178
256.431,156
256.456,137
256.481,123
256.506,108
256.531,87
256.556,63
256.581,52
256.606,66
256.631,102
256.656,147
256.681,184
256.706,207
256.731,222
256.756,236
256.781,250
256.806,259
256.831,261
256.856,256
256.881,251
256.906,248
256.931,248
256.956,248
256.981,245
257.006,240
257.031,230
257.056,217
257.081,203
257.106,190
257.131,177
257.156,162
257.181,145
257.206,128
257.231,112
257.256,96
257.281,75
257.306,51
257.331,36
257.356,44
257.381,80
257.406,131
257.431,176
257.456,203
257.481,217
257.506,230
257.531,249
257.556,266
257.581,272
257.606,265
257.631,256
257.656,255
257.681,261
257.706,266
257.731,264
257.756,257
257.781,249
257.806,243
257.831,236
257.856,225
257.881,214
257.906,203
257.931,191
257.956,175
257.981,154
258.006,133
258.031,118
258.056,104
258.081,86
258.106,60
258.131,37
258.156,33
258.181,57
258.206,100
258.231,146
258.256,181
258.281,204
258.306,221
258.331,235
258.356,248
258.381,254
258.406,255
258.431,254
258.456,254
258.481,255
258.506,257
258.531,261
258.556,263
258.581,262
258.606,254
258.631,239
258.656,223
258.681,210
258.706,200
258.731,189
258.756,174
258.781,156
258.806,139
258.831,125
258.856,108
258.881,85
258.906,60
258.931,47
258.956,57
258.981,91
259.006,136
259.031,175
259.056,201
259.081,216
259.106,226
259.131,235
259.156,240
259.181,239
259.206,234
259.231,230
259.256,228
259.281,228
259.306,227
259.331,223
259.356,217
259.381,209
259.406,198
259.431,184
259.456,168
259.481,155
259.506,144
259.531,132
259.556,114
259.581,88
259.606,64
259.631,56
259.656,73
259.681,111
259.706,156
259.731,192
259.756,215
259.781,229
259.806,242
259.831,253
259.856,260
259.881,258
259.906,250
259.931,243
259.956,240
259.981,240
260.006,238
260.031,231
260.056,222
260.081,214
260.106,207
260.131,195
260.156,178
260.181,158
260.206,142
260.231,129
260.256,112
260.281,86
260.306,57
260.331,42
260.356,53
260.381,90
260.406,139
260.431,181
260.456,208
260.481,225
260.506,241
260.531,257
260.556,268
260.581,270
260.606,263
260.631,254
260.656,250
260.681,250
260.706,252
260.731,248
260.756,238
260.781,226
260.806,215
260.831,206
260.856,197
260.881,184
260.906,166
260.931,146
260.956,129
260.981,115
261.006,98
261.031,75
261.056,51
261.081,38
261.106,49
261.131,86
261.156,134
261.181,177
261.206,206
261.231,225
261.256,241
261.281,254
261.306,263
261.331,264
261.356,260
261.381,257
261.406,258
261.431,260
261.456,259
261.481,255
261.506,249
261.531,243
261.556,234
261.581,223
261.606,210
261.631,197
261.656,186
261.681,174
261.706,160
261.731,145
261.756,127
261.781,107
261.806,82
261.831,56
261.856,41
261.881,48
261.906,81
261.931,128
261.956,171
261.981,200
262.006,216
262.031,228
262.056,239
262.081,248
262.106,248
262.131,240
262.156,233
262.181,233
262.206,238
262.231,239
262.256,233
262.281,221
262.306,211
262.331,205
262.356,197
262.381,183
262.406,164
262.431,147
262.456,135
262.481,125
262.506,109
262.531,87
262.556,69
262.581,71
262.606,100
262.631,145
262.656,187
262.681,216
262.706,231
262.731,240
262.756,248
262.781,253
262.806,250
262.831,242
262.856,234
262.881,231
262.906,231
262.931,228
262.956,221
262.981,213
263.006,207
263.031,199
263.056,186
263.081,166
263.106,148
263.131,136
263.156,126
263.181,110
263.206,83
263.231,58
263.256,53
263.281,77
263.306,120
263.331,164
263.356,194
263.381,211
263.406,225
263.431,241
263.456,255
263.481,262
263.506,260
263.531,255
263.556,253
263.581,253
263.606,252
263.631,249
263.656,243
263.681,237
263.706,228
263.731,217
263.756,204
263.781,191
263.806,179
263.831,166
263.856,150
263.881,133
263.906,117
263.931,103
263.956,84
263.981,61
264.006,41
264.031,37
264.056,59
264.081,101
264.106,147
264.131,183
264.156,205
264.181,220
264.206,234
264.231,248
264.256,257
264.281,258
264.306,256
264.331,254
264.356,255
264.381,258
264.406,258
264.431,256
264.456,251
264.481,245
264.506,237
264.531,226
264.556,215
264.581,204
264.606,195
264.631,186
264.656,171
264.681,152
264.706,133
264.731,118
264.756,109
264.781,99
264.806,80
264.831,56
264.856,41
264.881,49
264.906,83
264.931,130
264.956,173
264.981,200
265.006,214
265.031,226
265.056,240
265.081,254
265.106,260
265.131,259
265.156,255
265.181,252
265.206,253
265.231,255
265.256,255
265.281,254
265.306,252
265.331,247
265.356,237
265.381,225
265.406,214
265.431,207
265.456,199
265.481,187
265.506,168
265.531,150
265.556,137
265.581,128
265.606,114
265.631,90
265.656,64
265.681,50
265.706,63
265.731,98
265.756,141
265.781,178
265.806,201
265.831,215
265.856,225
265.881,232
265.906,234
265.931,231
265.956,225
265.981,221
266.006,219
266.031,218
266.056,217
266.081,217
266.106,215
266.131,211
266.156,202
266.181,189
266.206,175
266.231,165
266.256,158
266.281,149
266.306,134
266.331,112
266.356,89
266.381,78
266.406,86
266.431,114
266.456,153
266.481,190
266.506,216
266.531,230
266.556,239
266.581,247
266.606,254
266.631,255
266.656,247
266.681,236
266.706,229
266.731,229
266.756,233
266.781,232
266.806,225
266.831,216
266.856,206
266.881,196
266.906,183
266.931,164
266.956,145
266.981,129
267.006,114
