df_hash,22ZHK4.AL8VFF
device,HZ2X61
project_hash,29R7
project_name,istanbul_aydin_university
person_hash,29R7.P90X
person_label,v117
date_time_start,2026-03-10_17-24-39.286000_+03
date_time_start_unix,1773149079.286
date_time_end,2026-03-10_17-26-49.331000_+03
length_difference_noticed,no

time,ppg_ir,ppg_ambient,ppg_red
4.460,228946,168,288117
4.465,228934,168,288111
4.470,228927,168,288118
4.475,228961,168,288143
4.480,228959,168,288160
4.485,228958,168,288170
4.490,228953,168,288180
4.495,228969,168,288180
4.500,228947,168,288179
4.505,228974,168,288177
4.510,228942,168,288174
4.515,228957,168,288162
4.520,228925,168,288171
4.525,228933,168,288174
4.530,228900,168,288174
4.535,228917,168,288179
4.540,228904,168,288174
4.545,228883,168,288174
4.550,228899,168,288156
4.555,228871,168,288163
4.560,228871,168,288156
4.565,228863,168,288153
4.570,228860,168,288122
4.575,228844,168,288136
4.580,228850,168,288137
4.585,228825,168,288131
4.590,228806,168,288120
4.595,228828,168,288111
4.600,228798,168,288134
4.605,228803,168,288141
4.610,228817,168,288139
4.615,228805,168,288138
4.620,228798,168,288134
4.625,228809,168,288121
4.630,228794,168,288121
4.635,228787,168,288124
4.640,228770,168,288107
4.645,228769,168,288102
4.650,228778,168,288117
4.655,228747,168,288102
4.660,228757,168,288087
4.665,228738,168,288091
4.670,228749,168,288098
4.675,228735,168,288080
4.680,228738,168,288063
4.685,228727,168,288073
4.690,228738,168,288064
4.695,228701,168,288041
4.700,228705,168,288013
4.705,228721,168,288016
4.710,228717,168,288019
4.715,228692,168,288001
4.720,228705,168,287987
4.725,228695,168,287962
4.730,228682,168,287973
4.735,228683,168,287970
4.740,228686,168,287951
4.745,228670,168,287930
4.750,228663,168,287925
4.755,228658,168,287922
4.760,228663,168,287892
4.765,228674,168,287865
4.770,228647,168,287870
4.775,228652,168,287851
4.780,228648,168,287852
4.785,228649,168,287848
4.790,228661,168,287841
4.795,228636,168,287778
4.800,228642,168,287795
4.805,228635,168,287795
4.810,228613,168,287769
4.815,228625,168,287772
4.820,228626,168,287746
4.825,228608,168,287767
4.830,228618,168,287740
4.835,228602,168,287734
4.840,228594,168,287726
4.845,228601,168,287690
4.850,228581,168,287684
4.855,228567,168,287667
4.860,228547,168,287668
4.865,228524,168,287620
4.870,228554,168,287635
4.875,228550,168,287615
4.880,228552,168,287621
4.885,228549,168,287588
4.890,228522,168,287578
4.895,228536,168,287557
4.900,228516,168,287528
4.905,228524,168,287523
4.910,228501,168,287499
4.915,228478,168,287477
4.920,228484,168,287457
4.925,228443,168,287453
4.930,228469,168,287420
4.935,228454,168,287397
4.940,228451,168,287374
4.945,228439,168,287364
4.950,228445,168,287345
4.955,228425,168,287320
4.960,228432,168,287330
4.965,228418,168,287312
4.970,228428,168,287311
4.975,228413,168,287292
4.980,228417,168,287296
4.985,228401,168,287288
4.990,228403,168,287279
4.995,228406,168,287240
5.000,228388,168,287257
5.005,228383,168,287231
5.010,228368,168,287202
5.015,228390,168,287204
5.020,228370,168,287197
5.025,228362,168,287176
5.030,228369,168,287178
5.035,228364,168,287156
5.040,228343,168,287148
5.045,228346,168,287157
5.050,228342,168,287145
5.055,228340,168,287125
5.060,228338,168,287133
5.065,228361,168,287139
5.070,228351,168,287141
5.075,228340,168,287140
5.080,228368,168,287151
5.085,228372,168,287155
5.090,228380,168,287175
5.095,228384,168,287195
5.100,228376,168,287224
5.105,228402,168,287235
5.110,228405,168,287260
5.115,228413,168,287292
5.120,228428,168,287313
5.125,228448,168,287335
5.130,228451,168,287352
5.135,228461,168,287395
5.140,228483,168,287405
5.145,228472,168,287412
5.150,228496,168,287456
5.155,228514,168,287472
5.160,228515,168,287478
5.165,228524,168,287490
5.170,228533,168,287513
5.175,228541,168,287523
5.180,228546,168,287528
5.185,228551,168,287536
5.190,228571,168,287536
5.195,228571,168,287525
5.200,228559,168,287523
5.205,228571,168,287538
5.210,228595,168,287509
5.215,228578,168,287513
5.220,228546,168,287501
5.225,228569,168,287491
5.230,228571,168,287502
5.235,228549,168,287509
5.240,228542,168,287500
5.245,228545,168,287499
5.250,228534,168,287521
5.255,228566,168,287500
5.260,228564,168,287551
5.265,228556,168,287541
5.270,228573,168,287550
5.275,228565,168,287555
5.280,228561,168,287574
5.285,228541,168,287572
5.290,228549,168,287565
5.295,228532,168,287539
5.300,228514,168,287529
5.305,228528,168,287499
5.310,228465,168,287481
5.315,228451,168,287478
5.320,228410,168,287448
5.325,228414,168,287405
5.330,228369,168,287390
5.335,228352,168,287385
5.340,228356,168,287344
5.345,228310,168,287296
5.350,228283,168,287277
5.355,228277,168,287268
5.360,228273,168,287236
5.365,228211,168,287200
5.370,228227,168,287188
5.375,228198,168,287152
5.380,228193,168,287143
5.385,228160,168,287131
5.390,228160,168,287107
5.395,228120,168,287087
5.400,228076,168,287034
5.405,228102,168,287033
5.410,228053,168,287001
5.415,228047,168,286983
5.420,228023,168,286958
5.425,228023,168,286970
5.430,228007,168,286962
5.435,227988,168,286948
5.440,227999,168,286902
5.445,227970,168,286892
5.450,227962,168,286870
5.455,227957,168,286854
5.460,227943,168,286826
5.465,227929,168,286823
5.470,227918,168,286794
5.475,227911,168,286796
5.480,227901,168,286769
5.485,227858,168,286750
5.490,227860,168,286702
5.495,227842,168,286708
5.500,227838,168,286710
5.505,227839,168,286673
5.510,227814,168,286674
5.515,227833,168,286651
5.520,227825,168,286621
5.525,227787,168,286596
5.530,227793,168,286574
5.535,227794,168,286591
5.540,227803,168,286576
5.545,227797,168,286579
5.550,227776,168,286567
5.555,227808,168,286547
5.560,227797,168,286559
5.565,227786,168,286548
5.570,227793,168,286567
5.575,227769,168,286544
5.580,227780,168,286522
5.585,227772,168,286524
5.590,227796,168,286509
5.595,227798,168,286516
5.600,227771,168,286506
5.605,227790,168,286511
5.610,227782,168,286474
5.615,227776,168,286460
5.620,227759,168,286457
5.625,227759,168,286453
5.630,227746,168,286429
5.635,227743,168,286419
5.640,227750,168,286419
5.645,227745,168,286383
5.650,227730,168,286382
5.655,227737,168,286374
5.660,227724,168,286380
5.665,227727,168,286391
5.670,227736,168,286395
5.675,227723,168,286384
5.680,227716,168,286386
5.685,227718,168,286396
5.690,227723,168,286383
5.695,227708,168,286360
5.700,227701,168,286327
5.705,227686,168,286317
5.710,227690,168,286297
5.715,227669,168,286294
5.720,227675,168,286283
5.725,227671,168,286282
5.730,227648,168,286274
5.735,227666,168,286265
5.740,227655,168,286245
5.745,227652,168,286263
5.750,227670,168,286241
5.755,227658,168,286271
5.760,227660,168,286262
5.765,227678,168,286278
5.770,227687,168,286277
5.775,227670,168,286304
5.780,227677,168,286282
5.785,227687,168,286309
5.790,227679,168,286318
5.795,227683,168,286309
5.800,227696,168,286333
5.805,227691,168,286312
5.810,227686,168,286343
5.815,227683,168,286311
5.820,227679,168,286318
5.825,227701,168,286333
5.830,227702,168,286331
5.835,227714,168,286327
5.840,227716,168,286353
5.845,227721,168,286326
5.850,227714,168,286289
5.855,227694,168,286305
5.860,227720,168,286281
5.865,227729,168,286269
5.870,227705,168,286220
5.875,227712,168,286187
5.880,227692,168,286152
5.885,227676,168,286088
5.890,227649,168,286030
5.895,227653,168,285983
5.900,227635,168,285946
5.905,227629,168,285877
5.910,227606,168,285868
5.915,227599,168,285805
5.920,227560,168,285748
5.925,227564,168,285657
5.930,227525,168,285604
5.935,227491,168,285534
5.940,227478,168,285477
5.945,227440,168,285382
5.950,227411,168,285319
5.955,227380,168,285241
5.960,227356,168,285139
5.965,227314,168,285087
5.970,227278,168,285010
5.975,227258,168,284949
5.980,227210,168,284865
5.985,227200,168,284812
5.990,227148,168,284769
5.995,227152,168,284717
6.000,227130,168,284665
6.005,227130,168,284647
6.010,227112,168,284604
6.015,227084,168,284540
6.020,227071,168,284500
6.025,227062,168,284474
6.030,227046,168,284467
6.035,227032,168,284466
6.040,227026,168,284481
6.045,227035,168,284485
6.050,227037,168,284501
6.055,227036,168,284594
6.060,227070,168,284659
6.065,227049,168,284690
6.070,227089,168,284720
6.075,227064,168,284734
6.080,227073,168,284727
6.085,227069,168,284756
6.090,227096,168,284789
6.095,227089,168,284783
6.100,227085,168,284846
6.105,227074,168,284832
6.110,227075,168,284874
6.115,227046,168,284844
6.120,227045,168,284798
6.125,226995,168,284714
6.130,226967,168,284602
6.135,226927,168,284516
6.140,226885,168,284405
6.145,226822,168,284273
6.150,226758,168,284140
6.155,226680,168,284029
6.160,226599,168,283859
6.165,226526,168,283748
6.170,226489,168,283653
6.175,226417,168,283570
6.180,226397,168,283496
6.185,226344,168,283384
6.190,226291,168,283348
6.195,226249,168,283275
6.200,226226,168,283242
6.205,226206,168,283182
6.210,226182,168,283155
6.215,226156,168,283086
6.220,226114,168,283054
6.225,226110,168,282987
6.230,226060,168,282948
6.235,226040,168,282898
6.240,226014,168,282871
6.245,226004,168,282820
6.250,225990,168,282798
6.255,225962,168,282794
6.260,225960,168,282743
6.265,225955,168,282748
6.270,225937,168,282740
6.275,225954,168,282781
6.280,225963,168,282777
6.285,225965,168,282789
6.290,225966,168,282827
6.295,225970,168,282861
6.300,225990,168,282895
6.305,225997,168,282946
6.310,226016,168,282995
6.315,226006,168,283034
6.320,226013,168,283085
6.325,226032,168,283129
6.330,226047,168,283144
6.335,226047,168,283171
6.340,226059,168,283212
6.345,226067,168,283244
6.350,226076,168,283266
6.355,226117,168,283324
6.360,226136,168,283366
6.365,226140,168,283404
6.370,226144,168,283496
6.375,226179,168,283597
6.380,226209,168,283619
6.385,226210,168,283668
6.390,226213,168,283663
6.395,226208,168,283645
6.400,226202,168,283586
6.405,226185,168,283527
6.410,226182,168,283453
6.415,226151,168,283397
6.420,226134,168,283338
6.425,226107,168,283281
6.430,226093,168,283226
6.435,226048,168,283193
6.440,226045,168,283149
6.445,226015,168,283114
6.450,226002,168,283061
6.455,225979,168,283040
6.460,225978,168,283022
6.465,225960,168,282975
6.470,225949,168,282945
6.475,225916,168,282877
6.480,225916,168,282848
6.485,225902,168,282809
6.490,225890,168,282767
6.495,225871,168,282758
6.500,225891,168,282724
6.505,225870,168,282730
6.510,225877,168,282722
6.515,225872,168,282709
6.520,225888,168,282732
6.525,225882,168,282727
6.530,225873,168,282714
6.535,225878,168,282717
6.540,225878,168,282699
6.545,225854,168,282726
6.550,225865,168,282707
6.555,225866,168,282707
6.560,225867,168,282714
6.565,225856,168,282724
6.570,225853,168,282737
6.575,225864,168,282748
6.580,225878,168,282776
6.585,225887,168,282815
6.590,225884,168,282883
6.595,225905,168,282898
6.600,225939,168,282939
6.605,225933,168,282990
6.610,225934,168,283002
6.615,225964,168,283052
6.620,225966,168,283092
6.625,225988,168,283119
6.630,226010,168,283192
6.635,226029,168,283228
6.640,226054,168,283256
6.645,226045,168,283331
6.650,226079,168,283387
6.655,226099,168,283434
6.660,226126,168,283513
6.665,226138,168,283540
6.670,226166,168,283594
6.675,226173,168,283647
6.680,226192,168,283629
6.685,226189,168,283660
6.690,226194,168,283712
6.695,226206,168,283735
6.700,226243,168,283756
6.705,226241,168,283801
6.710,226253,168,283850
6.715,226250,168,283889
6.720,226301,168,283927
6.725,226279,168,283980
6.730,226301,168,283998
6.735,226333,168,284040
6.740,226322,168,284058
6.745,226362,168,284072
6.750,226359,168,284080
6.755,226357,168,284074
6.760,226386,168,284110
6.765,226377,168,284122
6.770,226400,168,284135
6.775,226414,168,284151
6.780,226425,168,284178
6.785,226415,168,284250
6.790,226463,168,284263
6.795,226456,168,284305
6.800,226468,168,284337
6.805,226484,168,284373
6.810,226476,168,284392
6.815,226508,168,284443
6.820,226512,168,284442
6.825,226516,168,284473
6.830,226533,168,284483
6.835,226525,168,284484
6.840,226524,168,284500
6.845,226493,168,284510
6.850,226515,168,284516
6.855,226488,168,284487
6.860,226472,168,284476
6.865,226446,168,284435
6.870,226417,168,284419
6.875,226381,168,284434
6.880,226364,168,284368
6.885,226331,168,284342
6.890,226281,168,284315
6.895,226258,168,284280
6.900,226265,168,284244
6.905,226232,168,284216
6.910,226214,168,284185
6.915,226199,168,284164
6.920,226157,168,284136
6.925,226119,168,284106
6.930,226116,168,284101
6.935,226111,168,284092
6.940,226085,168,284058
6.945,226079,168,284058
6.950,226053,168,284022
6.955,226045,168,284006
6.960,226017,168,283999
6.965,226004,168,283957
6.970,226002,168,283936
6.975,225966,168,283904
6.980,225964,168,283864
6.985,225941,168,283831
6.990,225900,168,283793
6.995,225902,168,283751
7.000,225883,168,283722
7.005,225855,168,283718
7.010,225815,168,283672
7.015,225816,168,283643
7.020,225782,168,283614
7.025,225750,168,283582
7.030,225734,168,283561
7.035,225722,168,283519
7.040,225719,168,283484
7.045,225705,168,283476
7.050,225692,168,283434
7.055,225683,168,283404
7.060,225643,168,283406
7.065,225643,168,283348
7.070,225643,168,283333
7.075,225653,168,283337
7.080,225620,168,283340
7.085,225622,168,283324
7.090,225617,168,283314
7.095,225611,168,283322
7.100,225612,168,283291
7.105,225613,168,283303
7.110,225604,168,283295
7.115,225609,168,283302
7.120,225636,168,283293
7.125,225634,168,283290
7.130,225624,168,283275
7.135,225629,168,283279
7.140,225637,168,283268
7.145,225628,168,283244
7.150,225612,168,283243
7.155,225623,168,283229
7.160,225616,168,283234
7.165,225605,168,283227
7.170,225615,168,283230
7.175,225602,168,283214
7.180,225607,168,283219
7.185,225602,168,283237
7.190,225613,168,283224
7.195,225615,168,283247
7.200,225606,168,283218
7.205,225614,168,283212
7.210,225605,168,283207
7.215,225601,168,283204
7.220,225616,168,283171
7.225,225591,168,283184
7.230,225590,168,283186
7.235,225586,168,283191
7.240,225591,168,283194
7.245,225616,168,283191
7.250,225583,168,283216
7.255,225579,168,283220
7.260,225603,168,283208
7.265,225606,168,283218
7.270,225570,168,283220
7.275,225607,168,283204
7.280,225616,168,283212
7.285,225608,168,283224
7.290,225606,168,283224
7.295,225604,168,283237
7.300,225613,168,283242
7.305,225611,168,283230
7.310,225610,168,283241
7.315,225630,168,283240
7.320,225620,168,283249
7.325,225630,168,283261
7.330,225616,168,283261
7.335,225625,168,283257
7.340,225626,168,283274
7.345,225623,168,283268
7.350,225635,168,283294
7.355,225634,168,283317
7.360,225658,168,283327
7.365,225651,168,283334
7.370,225680,168,283371
7.375,225669,168,283376
7.380,225673,168,283388
7.385,225693,168,283400
7.390,225688,168,283426
7.395,225699,168,283427
7.400,225690,168,283438
7.405,225717,168,283434
7.410,225717,168,283475
7.415,225719,168,283488
7.420,225733,168,283524
7.425,225739,168,283528
7.430,225744,168,283564
7.435,225765,168,283598
7.440,225774,168,283628
7.445,225795,168,283671
7.450,225812,168,283687
7.455,225828,168,283732
7.460,225841,168,283772
7.465,225867,168,283796
7.470,225886,168,283872
7.475,225908,168,283900
7.480,225941,168,283957
7.485,225957,168,284008
7.490,225968,168,284042
7.495,225998,168,284084
7.500,226021,168,284128
7.505,226041,168,284159
7.510,226057,168,284220
7.515,226085,168,284270
7.520,226133,168,284322
7.525,226121,168,284349
7.530,226142,168,284377
7.535,226167,168,284429
7.540,226175,168,284468
7.545,226200,168,284483
7.550,226213,168,284535
7.555,226232,168,284562
7.560,226236,168,284603
7.565,226252,168,284615
7.570,226274,168,284656
7.575,226305,168,284668
7.580,226313,168,284726
7.585,226335,168,284756
7.590,226346,168,284779
7.595,226350,168,284789
7.600,226370,168,284834
7.605,226385,168,284887
7.610,226416,168,284908
7.615,226411,168,284928
7.620,226432,168,284990
7.625,226437,168,284998
7.630,226442,168,285002
7.635,226453,168,285035
7.640,226471,168,285039
7.645,226474,168,285072
7.650,226480,168,285088
7.655,226490,168,285116
7.660,226488,168,285146
7.665,226509,168,285148
7.670,226515,168,285174
7.675,226510,168,285184
7.680,226537,168,285213
7.685,226505,168,285233
7.690,226510,168,285226
7.695,226501,168,285251
7.700,226491,168,285264
7.705,226500,168,285261
7.710,226485,168,285277
7.715,226465,168,285279
7.720,226466,168,285282
7.725,226447,168,285283
7.730,226433,168,285306
7.735,226398,168,285278
7.740,226403,168,285291
7.745,226372,168,285280
7.750,226387,168,285279
7.755,226363,168,285247
7.760,226359,168,285277
7.765,226350,168,285269
7.770,226337,168,285274
7.775,226343,168,285291
7.780,226339,168,285289
7.785,226326,168,285283
7.790,226319,168,285276
7.795,226325,168,285294
7.800,226289,168,285283
7.805,226293,168,285289
7.810,226287,168,285286
7.815,226260,168,285285
7.820,226268,168,285273
7.825,226241,168,285284
7.830,226234,168,285264
7.835,226236,168,285273
7.840,226230,168,285292
7.845,226220,168,285295
7.850,226215,168,285279
7.855,226199,168,285320
7.860,226187,168,285324
7.865,226205,168,285335
7.870,226196,168,285321
7.875,226200,168,285349
7.880,226199,168,285381
7.885,226186,168,285397
7.890,226193,168,285402
7.895,226204,168,285424
7.900,226178,168,285468
7.905,226195,168,285464
7.910,226219,168,285489
7.915,226232,168,285532
7.920,226212,168,285521
7.925,226220,168,285541
7.930,226236,168,285588
7.935,226249,168,285602
7.940,226245,168,285629
7.945,226248,168,285649
7.950,226254,168,285665
7.955,226269,168,285686
7.960,226273,168,285704
7.965,226261,168,285712
7.970,226280,168,285718
7.975,226273,168,285753
7.980,226290,168,285738
7.985,226257,168,285739
7.990,226296,168,285784
7.995,226283,168,285742
8.000,226270,168,285787
8.005,226271,168,285799
8.010,226281,168,285815
8.015,226294,168,285839
8.020,226305,168,285845
8.025,226289,168,285871
8.030,226305,168,285871
8.035,226286,168,285900
8.040,226298,168,285909
8.045,226315,168,285914
8.050,226314,168,285948
8.055,226309,168,285955
8.060,226304,168,285957
8.065,226315,168,285945
8.070,226297,168,285965
8.075,226307,168,285973
8.080,226289,168,285954
8.085,226279,168,285961
8.090,226286,168,285958
8.095,226294,168,285983
8.100,226299,168,285978
8.105,226290,168,285978
8.110,226309,168,286025
8.115,226324,168,286045
8.120,226324,168,286056
8.125,226325,168,286102
8.130,226353,168,286129
8.135,226346,168,286141
8.140,226381,168,286188
8.145,226383,168,286206
8.150,226372,168,286205
8.155,226387,168,286195
8.160,226411,168,286211
8.165,226411,168,286220
8.170,226408,168,286221
8.175,226395,168,286279
8.180,226408,168,286245
8.185,226410,168,286245
8.190,226436,168,286267
8.195,226425,168,286297
8.200,226427,168,286298
8.205,226443,168,286329
8.210,226448,168,286339
8.215,226460,168,286340
8.220,226436,168,286357
8.225,226448,168,286332
8.230,226443,168,286339
8.235,226466,168,286384
8.240,226475,168,286378
8.245,226475,168,286394
8.250,226449,168,286425
8.255,226490,168,286401
8.260,226477,168,286442
8.265,226502,168,286445
8.270,226525,168,286450
8.275,226523,168,286471
8.280,226524,168,286472
8.285,226531,168,286499
8.290,226553,168,286498
8.295,226548,168,286537
8.300,226576,168,286538
8.305,226577,168,286535
8.310,226570,168,286571
8.315,226562,168,286538
8.320,226582,168,286568
8.325,226570,168,286576
8.330,226578,168,286550
8.335,226573,168,286551
8.340,226586,168,286545
8.345,226581,168,286557
8.350,226596,168,286549
8.355,226589,168,286526
8.360,226585,168,286552
8.365,226596,168,286561
8.370,226620,168,286555
8.375,226622,168,286562
8.380,226629,168,286592
8.385,226642,168,286616
8.390,226639,168,286620
8.395,226668,168,286646
8.400,226660,168,286598
8.405,226668,168,286622
8.410,226682,168,286637
8.415,226689,168,286657
8.420,226728,168,286653
8.425,226722,168,286655
8.430,226704,168,286697
8.435,226735,168,286667
8.440,226730,168,286647
8.445,226736,168,286666
8.450,226730,168,286668
8.455,226751,168,286653
8.460,226751,168,286658
8.465,226752,168,286661
8.470,226753,168,286654
8.475,226748,168,286670
8.480,226749,168,286679
8.485,226765,168,286665
8.490,226756,168,286675
8.495,226743,168,286669
8.500,226762,168,286672
8.505,226742,168,286676
8.510,226760,168,286662
8.515,226725,168,286670
8.520,226724,168,286641
8.525,226711,168,286649
8.530,226711,168,286652
8.535,226701,168,286641
8.540,226703,168,286638
8.545,226696,168,286637
8.550,226699,168,286641
8.555,226706,168,286608
8.560,226700,168,286601
8.565,226693,168,286646
8.570,226712,168,286620
8.575,226698,168,286634
8.580,226700,168,286652
8.585,226709,168,286642
8.590,226712,168,286653
8.595,226724,168,286689
8.600,226717,168,286689
8.605,226738,168,286675
8.610,226737,168,286711
8.615,226728,168,286708
8.620,226709,168,286693
8.625,226725,168,286693
8.630,226704,168,286714
8.635,226719,168,286707
8.640,226714,168,286683
8.645,226694,168,286716
8.650,226708,168,286723
8.655,226714,168,286715
8.660,226709,168,286726
8.665,226712,168,286741
8.670,226720,168,286762
8.675,226712,168,286742
8.680,226712,168,286762
8.685,226718,168,286749
8.690,226727,168,286780
8.695,226719,168,286765
8.700,226715,168,286785
8.705,226716,168,286792
8.710,226721,168,286787
8.715,226732,168,286809
8.720,226727,168,286815
8.725,226746,168,286837
8.730,226750,168,286843
8.735,226738,168,286847
8.740,226749,168,286842
8.745,226732,168,286862
8.750,226751,168,286870
8.755,226743,168,286872
8.760,226758,168,286882
8.765,226772,168,286888
8.770,226758,168,286874
8.775,226753,168,286877
8.780,226738,168,286886
8.785,226747,168,286865
8.790,226736,168,286871
8.795,226718,168,286866
8.800,226736,168,286874
8.805,226707,168,286863
8.810,226710,168,286873
8.815,226721,168,286876
8.820,226744,168,286888
8.825,226720,168,286899
8.830,226710,168,286907
8.835,226726,168,286937
8.840,226720,168,286920
8.845,226707,168,286930
8.850,226722,168,286941
8.855,226724,168,286949
8.860,226702,168,286946
8.865,226725,168,286959
8.870,226715,168,286988
8.875,226700,168,286995
8.880,226705,168,287005
8.885,226724,168,287002
8.890,226725,168,287010
8.895,226705,168,287020
8.900,226726,168,287041
8.905,226727,168,287056
8.910,226730,168,287051
8.915,226736,168,287083
8.920,226715,168,287085
8.925,226726,168,287097
8.930,226729,168,287123
8.935,226701,168,287099
8.940,226713,168,287089
8.945,226705,168,287079
8.950,226675,168,287089
8.955,226695,168,287112
8.960,226677,168,287104
8.965,226667,168,287111
8.970,226680,168,287096
8.975,226674,168,287094
8.980,226645,168,287090
8.985,226666,168,287109
8.990,226658,168,287104
8.995,226652,168,287105
9.000,226636,168,287114
9.005,226653,168,287126
9.010,226634,168,287110
9.015,226634,168,287125
9.020,226627,168,287124
9.025,226631,168,287125
9.030,226614,168,287112
9.035,226614,168,287127
9.040,226616,168,287151
9.045,226629,168,287153
9.050,226637,168,287156
9.055,226620,168,287165
9.060,226611,168,287173
9.065,226617,168,287153
9.070,226596,168,287126
9.075,226612,168,287154
9.080,226604,168,287147
9.085,226592,168,287163
9.090,226599,168,287152
9.095,226611,168,287144
9.100,226586,168,287098
9.105,226573,168,287122
9.110,226577,168,287118
9.115,226580,168,287093
9.120,226566,168,287084
9.125,226569,168,287058
9.130,226529,168,287061
9.135,226542,168,287073
9.140,226569,168,287066
9.145,226560,168,287045
9.150,226555,168,287032
9.155,226534,168,286991
9.160,226544,168,286985
9.165,226574,168,286955
9.170,226534,168,286947
9.175,226550,168,286945
9.180,226556,168,286923
9.185,226564,168,286919
9.190,226554,168,286939
9.195,226536,168,286902
9.200,226541,168,286870
9.205,226539,168,286887
9.210,226540,168,286896
9.215,226553,168,286879
9.220,226558,168,286868
9.225,226566,168,286876
9.230,226556,168,286886
9.235,226595,168,286894
9.240,226564,168,286908
9.245,226585,168,286896
9.250,226589,168,286893
9.255,226580,168,286897
9.260,226567,168,286873
9.265,226574,168,286876
9.270,226563,168,286845
9.275,226547,168,286832
9.280,226527,168,286826
9.285,226528,168,286826
9.290,226510,168,286797
9.295,226491,168,286790
9.300,226473,168,286762
9.305,226470,168,286776
9.310,226455,168,286750
9.315,226447,168,286767
9.320,226441,168,286748
9.325,226423,168,286730
9.330,226423,168,286705
9.335,226429,168,286676
9.340,226407,168,286672
9.345,226404,168,286655
9.350,226369,168,286620
9.355,226394,168,286629
9.360,226355,168,286629
9.365,226364,168,286582
9.370,226331,168,286593
9.375,226342,168,286606
9.380,226330,168,286590
9.385,226321,168,286582
9.390,226311,168,286576
9.395,226307,168,286553
9.400,226312,168,286554
9.405,226276,168,286545
9.410,226260,168,286519
9.415,226262,168,286512
9.420,226250,168,286499
9.425,226256,168,286505
9.430,226261,168,286496
9.435,226236,168,286494
9.440,226248,168,286490
9.445,226232,168,286498
9.450,226232,168,286480
9.455,226234,168,286474
9.460,226235,168,286468
9.465,226239,168,286501
9.470,226228,168,286480
9.475,226233,168,286458
9.480,226219,168,286455
9.485,226228,168,286446
9.490,226203,168,286418
9.495,226185,168,286413
9.500,226179,168,286396
9.505,226172,168,286376
9.510,226164,168,286370
9.515,226189,168,286388
9.520,226166,168,286358
9.525,226168,168,286356
9.530,226180,168,286354
9.535,226150,168,286331
9.540,226166,168,286324
9.545,226154,168,286284
9.550,226141,168,286290
9.555,226137,168,286281
9.560,226146,168,286271
9.565,226124,168,286253
9.570,226128,168,286250
9.575,226122,168,286231
9.580,226114,168,286235
9.585,226112,168,286206
9.590,226103,168,286207
9.595,226089,168,286218
9.600,226106,168,286184
9.605,226095,168,286179
9.610,226104,168,286166
9.615,226094,168,286150
9.620,226098,168,286198
9.625,226106,168,286166
9.630,226090,168,286177
9.635,226086,168,286167
9.640,226093,168,286150
9.645,226111,168,286136
9.650,226104,168,286126
9.655,226116,168,286103
9.660,226109,168,286116
9.665,226109,168,286103
9.670,226085,168,286085
9.675,226087,168,286061
9.680,226067,168,286062
9.685,226074,168,286036
9.690,226067,168,286056
9.695,226086,168,286014
9.700,226083,168,286030
9.705,226079,168,286011
9.710,226089,168,286006
9.715,226077,168,286016
9.720,226099,168,286002
9.725,226112,168,286007
9.730,226111,168,286004
9.735,226084,168,285973
9.740,226087,168,285957
9.745,226082,168,285935
9.750,226047,168,285908
9.755,226045,168,285903
9.760,226046,168,285886
9.765,226042,168,285888
9.770,226043,168,285898
9.775,226075,168,285900
9.780,226059,168,285894
9.785,226073,168,285899
9.790,226061,168,285869
9.795,226050,168,285887
9.800,226017,168,285844
9.805,226018,168,285819
9.810,226011,168,285764
9.815,225980,168,285765
9.820,225949,168,285719
9.825,225937,168,285681
9.830,225931,168,285672
9.835,225920,168,285669
9.840,225914,168,285621
9.845,225912,168,285638
9.850,225887,168,285617
9.855,225885,168,285601
9.860,225857,168,285545
9.865,225842,168,285538
9.870,225833,168,285533
9.875,225845,168,285538
9.880,225847,168,285538
9.885,225838,168,285507
9.890,225823,168,285508
9.895,225835,168,285442
9.900,225863,168,285429
9.905,225861,168,285412
9.910,225884,168,285394
9.915,225876,168,285352
9.920,225846,168,285268
9.925,225814,168,285181
9.930,225762,168,285079
9.935,225730,168,285012
9.940,225708,168,284979
9.945,225720,168,284960
9.950,225716,168,284978
9.955,225749,168,285016
9.960,225763,168,285022
9.965,225740,168,285052
9.970,225736,168,285059
9.975,225731,168,285073
9.980,225725,168,285109
9.985,225708,168,285143
9.990,225734,168,285208
9.995,225716,168,285229
10.000,225751,168,285277
10.005,225733,168,285335
10.010,225764,168,285349
10.015,225758,168,285420
10.020,225776,168,285423
10.025,225804,168,285469
10.030,225799,168,285503
10.035,225819,168,285552
10.040,225832,168,285572
10.045,225855,168,285609
10.050,225866,168,285627
10.055,225880,168,285627
10.060,225894,168,285668
10.065,225917,168,285693
10.070,225952,168,285682
10.075,225953,168,285737
10.080,225974,168,285718
10.085,225987,168,285737
10.090,226001,168,285744
10.095,225999,168,285752
10.100,226004,168,285745
10.105,226019,168,285760
10.110,226037,168,285775
10.115,226055,168,285753
10.120,226055,168,285769
10.125,226059,168,285744
10.130,226056,168,285736
10.135,226050,168,285724
10.140,226049,168,285703
10.145,226052,168,285720
10.150,226040,168,285694
10.155,226042,168,285670
10.160,226044,168,285700
10.165,226051,168,285708
10.170,226055,168,285708
10.175,226060,168,285727
10.180,226047,168,285760
10.185,226059,168,285769
10.190,226035,168,285804
10.195,226034,168,285814
10.200,226026,168,285812
10.205,226019,168,285823
10.210,226053,168,285847
10.215,226026,168,285878
10.220,226068,168,285889
10.225,226072,168,285914
10.230,226081,168,285949
10.235,226108,168,285973
10.240,226128,168,285996
10.245,226150,168,286059
10.250,226157,168,286093
10.255,226178,168,286101
10.260,226198,168,286113
10.265,226176,168,286135
10.270,226202,168,286120
10.275,226206,168,286138
10.280,226225,168,286136
10.285,226213,168,286137
10.290,226241,168,286142
10.295,226248,168,286141
10.300,226256,168,286133
10.305,226255,168,286119
10.310,226287,168,286134
10.315,226288,168,286133
10.320,226310,168,286110
10.325,226310,168,286159
10.330,226315,168,286143
10.335,226328,168,286128
10.340,226333,168,286126
10.345,226356,168,286112
10.350,226333,168,286130
10.355,226372,168,286133
10.360,226359,168,286091
10.365,226367,168,286094
10.370,226378,168,286084
10.375,226379,168,286085
10.380,226386,168,286099
10.385,226378,168,286095
10.390,226395,168,286090
10.395,226393,168,286105
10.400,226376,168,286078
10.405,226383,168,286096
10.410,226366,168,286063
10.415,226367,168,286080
10.420,226361,168,286074
10.425,226368,168,286063
10.430,226363,168,286064
10.435,226379,168,286048
10.440,226377,168,286050
10.445,226373,168,286079
10.450,226374,168,286048
10.455,226353,168,286044
10.460,226348,168,286048
10.465,226347,168,286027
10.470,226375,168,286007
10.475,226345,168,285989
10.480,226347,168,285983
10.485,226354,168,285963
10.490,226326,168,285970
10.495,226361,168,285966
10.500,226342,168,285978
10.505,226336,168,285947
10.510,226342,168,285919
10.515,226329,168,285921
10.520,226333,168,285910
10.525,226339,168,285915
10.530,226365,168,285905
10.535,226349,168,285893
10.540,226342,168,285892
10.545,226363,168,285882
10.550,226325,168,285850
10.555,226359,168,285826
10.560,226335,168,285825
10.565,226344,168,285814
10.570,226336,168,285796
10.575,226326,168,285779
10.580,226308,168,285754
10.585,226322,168,285741
10.590,226332,168,285755
10.595,226326,168,285717
10.600,226319,168,285690
10.605,226309,168,285694
10.610,226318,168,285691
10.615,226324,168,285663
10.620,226325,168,285639
10.625,226311,168,285617
10.630,226307,168,285587
10.635,226296,168,285537
10.640,226294,168,285499
10.645,226290,168,285467
10.650,226266,168,285429
10.655,226260,168,285403
10.660,226231,168,285336
10.665,226223,168,285279
10.670,226202,168,285194
10.675,226176,168,285125
10.680,226150,168,285058
10.685,226117,168,284966
10.690,226081,168,284869
10.695,226055,168,284771
10.700,226019,168,284655
10.705,225975,168,284522
10.710,225927,168,284445
10.715,225890,168,284318
10.720,225867,168,284203
10.725,225841,168,284130
10.730,225820,168,284070
10.735,225790,168,284006
10.740,225782,168,283930
10.745,225765,168,283871
10.750,225759,168,283811
10.755,225731,168,283776
10.760,225704,168,283656
10.765,225688,168,283560
10.770,225673,168,283487
10.775,225639,168,283406
10.780,225618,168,283321
10.785,225584,168,283219
10.790,225576,168,283147
10.795,225521,168,283059
10.800,225499,168,282958
10.805,225415,168,282854
10.810,225412,168,282758
10.815,225361,168,282668
10.820,225322,168,282562
10.825,225286,168,282458
10.830,225221,168,282341
10.835,225179,168,282225
10.840,225113,168,282132
10.845,225067,168,282060
10.850,225054,168,281957
10.855,225015,168,281877
10.860,224964,168,281766
10.865,224938,168,281676
10.870,224891,168,281598
10.875,224857,168,281536
10.880,224853,168,281484
10.885,224837,168,281429
10.890,224791,168,281354
10.895,224771,168,281281
10.900,224775,168,281238
10.905,224747,168,281177
10.910,224739,168,281143
10.915,224725,168,281085
10.920,224701,168,281048
10.925,224697,168,281012
10.930,224678,168,280935
10.935,224661,168,280917
10.940,224644,168,280856
10.945,224655,168,280841
10.950,224655,168,280828
10.955,224662,168,280804
10.960,224633,168,280808
10.965,224652,168,280781
10.970,224654,168,280782
10.975,224670,168,280799
10.980,224653,168,280774
10.985,224666,168,280792
10.990,224705,168,280788
10.995,224687,168,280792
11.000,224692,168,280771
11.005,224711,168,280800
11.010,224716,168,280802
11.015,224733,168,280812
11.020,224743,168,280799
11.025,224769,168,280790
11.030,224760,168,280800
11.035,224753,168,280788
11.040,224757,168,280772
11.045,224759,168,280803
11.050,224789,168,280831
11.055,224779,168,280800
11.060,224766,168,280807
11.065,224789,168,280839
11.070,224825,168,280842
11.075,224840,168,280845
11.080,224822,168,280858
11.085,224847,168,280890
11.090,224872,168,280886
11.095,224849,168,280914
11.100,224887,168,280914
11.105,224890,168,280913
11.110,224929,168,280900
11.115,224929,168,280910
11.120,224932,168,280910
11.125,224944,168,280893
11.130,224958,168,280905
11.135,224965,168,280909
11.140,224960,168,280915
11.145,224988,168,280918
11.150,224966,168,280932
11.155,225017,168,280932
11.160,225025,168,280948
11.165,225040,168,280948
11.170,225047,168,280959
11.175,225058,168,280960
11.180,225058,168,280984
11.185,225067,168,280993
11.190,225089,168,280989
11.195,225101,168,280982
11.200,225103,168,281002
11.205,225116,168,281023
11.210,225130,168,281033
11.215,225167,168,281041
11.220,225165,168,281049
11.225,225179,168,281064
11.230,225191,168,281084
11.235,225216,168,281069
11.240,225214,168,281071
11.245,225208,168,281079
11.250,225215,168,281106
11.255,225237,168,281108
11.260,225262,168,281118
11.265,225264,168,281128
11.270,225289,168,281173
11.275,225266,168,281178
11.280,225307,168,281179
11.285,225320,168,281216
11.290,225360,168,281231
11.295,225364,168,281223
11.300,225390,168,281280
11.305,225405,168,281283
11.310,225416,168,281314
11.315,225419,168,281356
11.320,225449,168,281348
11.325,225476,168,281380
11.330,225498,168,281402
11.335,225516,168,281440
11.340,225507,168,281444
11.345,225574,168,281487
11.350,225551,168,281499
11.355,225589,168,281539
11.360,225594,168,281529
11.365,225610,168,281560
11.370,225621,168,281566
11.375,225640,168,281579
11.380,225671,168,281592
11.385,225672,168,281607
11.390,225685,168,281584
11.395,225708,168,281621
11.400,225703,168,281646
11.405,225719,168,281633
11.410,225721,168,281637
11.415,225731,168,281636
11.420,225745,168,281683
11.425,225788,168,281684
11.430,225788,168,281717
11.435,225798,168,281763
11.440,225832,168,281784
11.445,225821,168,281781
11.450,225853,168,281798
11.455,225864,168,281817
11.460,225884,168,281831
11.465,225892,168,281832
11.470,225904,168,281861
11.475,225903,168,281863
11.480,225910,168,281880
11.485,225909,168,281896
11.490,225928,168,281905
11.495,225931,168,281911
11.500,225937,168,281942
11.505,225968,168,281967
11.510,225967,168,282002
11.515,225967,168,282006
11.520,226000,168,282039
11.525,226015,168,282060
11.530,226003,168,282058
11.535,226040,168,282089
11.540,226060,168,282111
11.545,226075,168,282106
11.550,226063,168,282130
11.555,226091,168,282134
11.560,226116,168,282156
11.565,226124,168,282182
11.570,226121,168,282172
11.575,226144,168,282201
11.580,226170,168,282221
11.585,226179,168,282224
11.590,226164,168,282237
11.595,226187,168,282254
11.600,226167,168,282252
11.605,226177,168,282257
11.610,226181,168,282247
11.615,226164,168,282234
11.620,226183,168,282242
11.625,226144,168,282253
11.630,226162,168,282272
11.635,226134,168,282232
11.640,226156,168,282261
11.645,226138,168,282273
11.650,226122,168,282252
11.655,226146,168,282245
11.660,226103,168,282248
11.665,226115,168,282244
11.670,226125,168,282250
11.675,226111,168,282236
11.680,226101,168,282245
11.685,226100,168,282233
11.690,226089,168,282229
11.695,226083,168,282222
11.700,226096,168,282255
11.705,226098,168,282252
11.710,226083,168,282256
11.715,226103,168,282265
11.720,226084,168,282263
11.725,226105,168,282255
11.730,226105,168,282249
11.735,226077,168,282281
11.740,226083,168,282273
11.745,226087,168,282261
11.750,226071,168,282303
11.755,226091,168,282311
11.760,226095,168,282316
11.765,226111,168,282320
11.770,226089,168,282325
11.775,226091,168,282317
11.780,226111,168,282320
11.785,226092,168,282317
11.790,226087,168,282304
11.795,226097,168,282323
11.800,226112,168,282324
11.805,226082,168,282319
11.810,226085,168,282317
11.815,226063,168,282316
11.820,226062,168,282307
11.825,226075,168,282332
11.830,226064,168,282334
11.835,226079,168,282308
11.840,226054,168,282321
11.845,226097,168,282328
11.850,226092,168,282345
11.855,226084,168,282335
11.860,226089,168,282334
11.865,226109,168,282345
11.870,226087,168,282346
11.875,226100,168,282352
11.880,226097,168,282347
11.885,226086,168,282336
11.890,226089,168,282350
11.895,226111,168,282332
11.900,226087,168,282346
11.905,226098,168,282335
11.910,226092,168,282330
11.915,226112,168,282342
11.920,226094,168,282333
11.925,226096,168,282339
11.930,226104,168,282354
11.935,226094,168,282338
11.940,226099,168,282348
11.945,226116,168,282363
11.950,226126,168,282373
11.955,226121,168,282365
11.960,226086,168,282349
11.965,226099,168,282364
11.970,226100,168,282356
11.975,226114,168,282365
11.980,226117,168,282364
11.985,226123,168,282355
11.990,226112,168,282358
11.995,226118,168,282358
12.000,226128,168,282365
12.005,226120,168,282381
12.010,226145,168,282354
12.015,226134,168,282373
12.020,226142,168,282388
12.025,226130,168,282362
12.030,226135,168,282352
12.035,226137,168,282371
12.040,226155,168,282369
12.045,226139,168,282362
12.050,226142,168,282342
12.055,226139,168,282358
12.060,226140,168,282325
12.065,226130,168,282337
12.070,226141,168,282295
12.075,226133,168,282325
12.080,226152,168,282314
12.085,226146,168,282330
12.090,226150,168,282307
12.095,226145,168,282317
12.100,226158,168,282343
12.105,226166,168,282336
12.110,226177,168,282321
12.115,226179,168,282364
12.120,226195,168,282371
12.125,226201,168,282369
12.130,226196,168,282359
12.135,226195,168,282396
12.140,226229,168,282399
12.145,226239,168,282416
12.150,226232,168,282438
12.155,226254,168,282457
12.160,226260,168,282437
12.165,226280,168,282463
12.170,226278,168,282472
12.175,226284,168,282466
12.180,226324,168,282484
12.185,226316,168,282495
12.190,226336,168,282501
12.195,226319,168,282514
12.200,226371,168,282538
12.205,226351,168,282540
12.210,226374,168,282571
12.215,226375,168,282577
12.220,226401,168,282595
12.225,226413,168,282590
12.230,226425,168,282609
12.235,226394,168,282619
12.240,226435,168,282621
12.245,226452,168,282610
12.250,226459,168,282632
12.255,226465,168,282625
12.260,226479,168,282663
12.265,226468,168,282623
12.270,226481,168,282674
12.275,226476,168,282677
12.280,226483,168,282659
12.285,226499,168,282647
12.290,226515,168,282690
12.295,226542,168,282666
12.300,226546,168,282680
12.305,226544,168,282702
12.310,226570,168,282708
12.315,226539,168,282735
12.320,226593,168,282743
12.325,226587,168,282765
12.330,226611,168,282813
12.335,226665,168,282865
12.340,226735,168,282970
12.345,226806,168,283096
12.350,226875,168,283217
12.355,227008,168,283384
12.360,227137,168,283557
12.365,227271,168,283727
12.370,227382,168,283933
12.375,227534,168,284112
12.380,227660,168,284319
12.385,227794,168,284553
12.390,227915,168,284717
12.395,228008,168,284850
12.400,228083,168,284952
12.405,228145,168,285061
12.410,228218,168,285135
12.415,228251,168,285190
12.420,228277,168,285233
12.425,228291,168,285241
12.430,228287,168,285254
12.435,228297,168,285252
12.440,228292,168,285247
12.445,228274,168,285254
12.450,228256,168,285224
12.455,228272,168,285217
12.460,228235,168,285178
12.465,228228,168,285150
12.470,228200,168,285086
12.475,228176,168,285053
12.480,228129,168,284999
12.485,228081,168,284934
12.490,228071,168,284892
12.495,228015,168,284828
12.500,227996,168,284755
12.505,227978,168,284706
12.510,227927,168,284664
12.515,227914,168,284634
12.520,227885,168,284556
12.525,227827,168,284510
12.530,227809,168,284455
12.535,227774,168,284403
12.540,227744,168,284332
12.545,227712,168,284309
12.550,227667,168,284216
12.555,227637,168,284175
12.560,227621,168,284115
12.565,227586,168,284121
12.570,227569,168,284122
12.575,227555,168,284115
12.580,227543,168,284108
12.585,227567,168,284155
12.590,227568,168,284181
12.595,227576,168,284233
12.600,227592,168,284269
12.605,227588,168,284305
12.610,227591,168,284331
12.615,227601,168,284356
12.620,227576,168,284367
12.625,227576,168,284391
12.630,227555,168,284396
12.635,227532,168,284395
12.640,227533,168,284409
12.645,227504,168,284349
12.650,227463,168,284341
12.655,227438,168,284319
12.660,227436,168,284258
12.665,227413,168,284221
12.670,227389,168,284164
12.675,227341,168,284099
12.680,227325,168,284048
12.685,227286,168,283996
12.690,227275,168,283962
12.695,227255,168,283912
12.700,227252,168,283874
12.705,227216,168,283857
12.710,227196,168,283798
12.715,227168,168,283790
12.720,227171,168,283774
12.725,227164,168,283716
12.730,227161,168,283723
12.735,227179,168,283732
12.740,227185,168,283736
12.745,227168,168,283713
12.750,227149,168,283719
12.755,227148,168,283681
12.760,227156,168,283702
12.765,227161,168,283671
12.770,227158,168,283687
12.775,227162,168,283686
12.780,227152,168,283680
12.785,227174,168,283721
12.790,227175,168,283742
12.795,227181,168,283760
12.800,227200,168,283773
12.805,227217,168,283786
12.810,227209,168,283816
12.815,227197,168,283825
12.820,227231,168,283823
12.825,227199,168,283794
12.830,227187,168,283802
12.835,227170,168,283776
12.840,227163,168,283756
12.845,227170,168,283761
12.850,227167,168,283740
12.855,227155,168,283735
12.860,227139,168,283727
12.865,227113,168,283718
12.870,227126,168,283713
12.875,227125,168,283727
12.880,227102,168,283707
12.885,227117,168,283691
12.890,227092,168,283658
12.895,227074,168,283642
12.900,227075,168,283640
12.905,227081,168,283632
12.910,227038,168,283601
12.915,227046,168,283595
12.920,227035,168,283604
12.925,227027,168,283586
12.930,227044,168,283562
12.935,227042,168,283563
12.940,227020,168,283570
12.945,227014,168,283568
12.950,227029,168,283563
12.955,227037,168,283555
12.960,227054,168,283578
12.965,227063,168,283564
12.970,227064,168,283601
12.975,227075,168,283631
12.980,227108,168,283623
12.985,227105,168,283660
12.990,227132,168,283689
12.995,227156,168,283726
13.000,227174,168,283750
13.005,227192,168,283784
13.010,227194,168,283795
13.015,227201,168,283804
13.020,227218,168,283819
13.025,227237,168,283846
13.030,227255,168,283825
13.035,227259,168,283845
13.040,227263,168,283851
13.045,227276,168,283887
13.050,227278,168,283917
13.055,227315,168,283926
13.060,227318,168,283942
13.065,227357,168,283945
13.070,227344,168,283980
13.075,227346,168,284020
13.080,227370,168,284045
13.085,227385,168,284109
13.090,227397,168,284113
13.095,227442,168,284190
13.100,227442,168,284198
13.105,227466,168,284254
13.110,227473,168,284330
13.115,227508,168,284327
13.120,227513,168,284372
13.125,227530,168,284400
13.130,227527,168,284430
13.135,227540,168,284476
13.140,227572,168,284514
13.145,227585,168,284604
13.150,227639,168,284648
13.155,227655,168,284712
13.160,227663,168,284800
13.165,227726,168,284844
13.170,227746,168,284927
13.175,227768,168,284994
13.180,227783,168,285020
13.185,227792,168,285034
13.190,227798,168,285083
13.195,227816,168,285090
13.200,227809,168,285133
13.205,227826,168,285176
13.210,227842,168,285191
13.215,227830,168,285199
13.220,227837,168,285238
13.225,227832,168,285214
13.230,227838,168,285249
13.235,227802,168,285229
13.240,227818,168,285266
13.245,227794,168,285243
13.250,227752,168,285248
13.255,227748,168,285244
13.260,227691,168,285229
13.265,227661,168,285188
13.270,227667,168,285203
13.275,227633,168,285192
13.280,227607,168,285166
13.285,227612,168,285204
13.290,227590,168,285196
13.295,227597,168,285214
13.300,227576,168,285231
13.305,227567,168,285275
13.310,227565,168,285275
13.315,227556,168,285318
13.320,227551,168,285337
13.325,227535,168,285339
13.330,227535,168,285374
13.335,227511,168,285364
13.340,227506,168,285372
13.345,227498,168,285394
13.350,227471,168,285388
13.355,227454,168,285418
13.360,227457,168,285387
13.365,227412,168,285363
13.370,227397,168,285357
13.375,227375,168,285355
13.380,227373,168,285358
13.385,227355,168,285369
13.390,227335,168,285368
13.395,227337,168,285402
13.400,227350,168,285388
13.405,227343,168,285381
13.410,227340,168,285417
13.415,227323,168,285423
13.420,227323,168,285411
13.425,227320,168,285433
13.430,227335,168,285465
13.435,227326,168,285475
13.440,227325,168,285466
13.445,227299,168,285483
13.450,227302,168,285482
13.455,227318,168,285487
13.460,227288,168,285487
13.465,227298,168,285519
13.470,227317,168,285480
13.475,227294,168,285511
13.480,227306,168,285510
13.485,227300,168,285510
13.490,227303,168,285511
13.495,227304,168,285529
13.500,227298,168,285515
13.505,227325,168,285509
13.510,227302,168,285525
13.515,227316,168,285531
13.520,227297,168,285496
13.525,227298,168,285519
13.530,227295,168,285494
13.535,227290,168,285498
13.540,227284,168,285487
13.545,227275,168,285449
13.550,227266,168,285424
13.555,227251,168,285426
13.560,227242,168,285397
13.565,227233,168,285386
13.570,227240,168,285385
13.575,227202,168,285349
13.580,227200,168,285325
13.585,227216,168,285302
13.590,227201,168,285306
13.595,227199,168,285277
13.600,227179,168,285275
13.605,227204,168,285250
13.610,227208,168,285241
13.615,227200,168,285243
13.620,227204,168,285244
13.625,227202,168,285238
13.630,227206,168,285241
13.635,227201,168,285205
13.640,227190,168,285193
13.645,227174,168,285163
13.650,227165,168,285153
13.655,227172,168,285130
13.660,227154,168,285105
13.665,227158,168,285079
13.670,227147,168,285045
13.675,227158,168,285049
13.680,227171,168,285013
13.685,227153,168,285001
13.690,227137,168,284957
13.695,227124,168,284924
13.700,227154,168,284909
13.705,227145,168,284873
13.710,227130,168,284850
13.715,227117,168,284834
13.720,227118,168,284817
13.725,227115,168,284803
13.730,227105,168,284749
13.735,227082,168,284735
13.740,227076,168,284658
13.745,227063,168,284629
13.750,227033,168,284577
13.755,227026,168,284526
13.760,227004,168,284479
13.765,226982,168,284415
13.770,226977,168,284375
13.775,226952,168,284338
13.780,226933,168,284293
13.785,226934,168,284237
13.790,226913,168,284192
13.795,226920,168,284143
13.800,226878,168,284120
13.805,226888,168,284058
13.810,226850,168,284006
13.815,226852,168,283932
13.820,226815,168,283905
13.825,226799,168,283873
13.830,226779,168,283838
13.835,226742,168,283786
13.840,226756,168,283758
13.845,226749,168,283707
13.850,226746,168,283653
13.855,226721,168,283609
13.860,226682,168,283581
13.865,226698,168,283537
13.870,226688,168,283506
13.875,226655,168,283459
13.880,226660,168,283427
13.885,226645,168,283411
13.890,226647,168,283374
13.895,226635,168,283391
13.900,226677,168,283359
13.905,226659,168,283359
13.910,226674,168,283363
13.915,226685,168,283335
13.920,226679,168,283328
13.925,226687,168,283341
13.930,226698,168,283336
13.935,226701,168,283341
13.940,226695,168,283337
13.945,226709,168,283310
13.950,226694,168,283317
13.955,226724,168,283301
13.960,226731,168,283261
13.965,226727,168,283293
13.970,226721,168,283273
13.975,226754,168,283294
13.980,226754,168,283282
13.985,226736,168,283285
13.990,226754,168,283263
13.995,226772,168,283297
14.000,226779,168,283299
14.005,226794,168,283306
14.010,226793,168,283293
14.015,226801,168,283297
14.020,226803,168,283288
14.025,226814,168,283278
14.030,226819,168,283273
14.035,226838,168,283267
14.040,226841,168,283261
14.045,226858,168,283227
14.050,226848,168,283246
14.055,226851,168,283241
14.060,226857,168,283222
14.065,226863,168,283232
14.070,226856,168,283206
14.075,226846,168,283202
14.080,226858,168,283142
14.085,226806,168,283156
14.090,226817,168,283128
14.095,226808,168,283090
14.100,226774,168,283096
14.105,226767,168,283074
14.110,226735,168,283044
14.115,226727,168,283018
14.120,226706,168,282990
14.125,226691,168,282948
14.130,226689,168,282930
14.135,226643,168,282904
14.140,226636,168,282871
14.145,226610,168,282854
14.150,226610,168,282821
14.155,226601,168,282793
14.160,226564,168,282774
14.165,226549,168,282742
14.170,226538,168,282721
14.175,226516,168,282690
14.180,226497,168,282656
14.185,226466,168,282601
14.190,226470,168,282606
14.195,226445,168,282576
14.200,226430,168,282537
14.205,226423,168,282496
14.210,226402,168,282481
14.215,226372,168,282445
14.220,226369,168,282406
14.225,226341,168,282378
14.230,226336,168,282389
14.235,226349,168,282362
14.240,226314,168,282339
14.245,226304,168,282314
14.250,226291,168,282291
14.255,226275,168,282253
14.260,226239,168,282218
14.265,226230,168,282192
14.270,226221,168,282161
14.275,226207,168,282136
14.280,226197,168,282139
14.285,226170,168,282120
14.290,226169,168,282072
14.295,226174,168,282087
14.300,226163,168,282083
14.305,226156,168,282062
14.310,226131,168,282041
14.315,226128,168,282041
14.320,226147,168,282022
14.325,226146,168,282030
14.330,226099,168,282021
14.335,226122,168,282025
14.340,226124,168,282013
14.345,226135,168,281999
14.350,226126,168,282011
14.355,226122,168,282001
14.360,226120,168,281983
14.365,226131,168,281993
14.370,226117,168,281969
14.375,226116,168,281982
14.380,226130,168,281986
14.385,226114,168,281996
14.390,226099,168,281990
14.395,226098,168,281966
14.400,226101,168,281965
14.405,226109,168,281959
14.410,226096,168,281962
14.415,226104,168,281961
14.420,226101,168,281961
14.425,226130,168,281967
14.430,226116,168,281977
14.435,226113,168,281972
14.440,226128,168,281995
14.445,226117,168,281969
14.450,226127,168,282023
14.455,226130,168,282010
14.460,226141,168,282011
14.465,226112,168,282009
14.470,226132,168,282020
14.475,226125,168,281980
14.480,226140,168,282000
14.485,226131,168,282006
14.490,226151,168,282041
14.495,226146,168,282019
14.500,226149,168,282033
14.505,226149,168,282027
14.510,226143,168,282060
14.515,226160,168,282064
14.520,226154,168,282033
14.525,226164,168,282031
14.530,226164,168,282040
14.535,226137,168,282048
14.540,226153,168,282021
14.545,226158,168,282034
14.550,226160,168,282048
14.555,226165,168,282041
14.560,226179,168,282037
14.565,226178,168,282055
14.570,226198,168,282066
14.575,226168,168,282069
14.580,226194,168,282077
14.585,226189,168,282067
14.590,226224,168,282098
14.595,226222,168,282119
14.600,226221,168,282093
14.605,226227,168,282109
14.610,226233,168,282156
14.615,226250,168,282174
14.620,226255,168,282173
14.625,226261,168,282178
14.630,226264,168,282178
14.635,226293,168,282188
14.640,226269,168,282198
14.645,226276,168,282194
14.650,226271,168,282182
14.655,226286,168,282201
14.660,226304,168,282216
14.665,226301,168,282210
14.670,226285,168,282232
14.675,226306,168,282225
14.680,226318,168,282243
14.685,226323,168,282298
14.690,226330,168,282265
14.695,226341,168,282240
14.700,226363,168,282261
14.705,226367,168,282289
14.710,226373,168,282277
14.715,226379,168,282297
14.720,226379,168,282315
14.725,226383,168,282315
14.730,226403,168,282339
14.735,226431,168,282337
14.740,226419,168,282324
14.745,226439,168,282348
14.750,226449,168,282364
14.755,226431,168,282374
14.760,226450,168,282371
14.765,226472,168,282378
14.770,226478,168,282389
14.775,226488,168,282398
14.780,226480,168,282414
14.785,226478,168,282398
14.790,226518,168,282434
14.795,226528,168,282432
14.800,226552,168,282429
14.805,226567,168,282467
14.810,226537,168,282481
14.815,226580,168,282526
14.820,226583,168,282507
14.825,226594,168,282526
14.830,226616,168,282524
14.835,226611,168,282556
14.840,226631,168,282544
14.845,226632,168,282550
14.850,226644,168,282580
14.855,226644,168,282569
14.860,226660,168,282601
14.865,226647,168,282616
14.870,226663,168,282601
14.875,226659,168,282600
14.880,226631,168,282638
14.885,226643,168,282620
14.890,226652,168,282618
14.895,226618,168,282613
14.900,226599,168,282619
14.905,226613,168,282604
14.910,226604,168,282605
14.915,226574,168,282596
14.920,226573,168,282578
14.925,226562,168,282583
14.930,226555,168,282570
14.935,226550,168,282573
14.940,226540,168,282582
14.945,226540,168,282586
14.950,226541,168,282558
14.955,226523,168,282587
14.960,226539,168,282579
14.965,226524,168,282573
14.970,226522,168,282552
14.975,226518,168,282553
14.980,226525,168,282586
14.985,226528,168,282574
14.990,226522,168,282574
14.995,226523,168,282577
15.000,226507,168,282581
15.005,226513,168,282584
15.010,226512,168,282586
15.015,226490,168,282594
15.020,226510,168,282596
15.025,226513,168,282578
15.030,226512,168,282603
15.035,226505,168,282583
15.040,226487,168,282614
15.045,226516,168,282642
15.050,226505,168,282619
15.055,226511,168,282632
15.060,226508,168,282649
15.065,226525,168,282649
15.070,226511,168,282636
15.075,226523,168,282662
15.080,226526,168,282670
15.085,226526,168,282666
15.090,226537,168,282670
15.095,226540,168,282676
15.100,226528,168,282665
15.105,226549,168,282689
15.110,226539,168,282682
15.115,226547,168,282704
15.120,226553,168,282702
15.125,226563,168,282719
15.130,226589,168,282728
15.135,226590,168,282730
15.140,226592,168,282758
15.145,226610,168,282742
15.150,226598,168,282753
15.155,226598,168,282742
15.160,226599,168,282759
15.165,226610,168,282794
15.170,226615,168,282780
15.175,226618,168,282772
15.180,226615,168,282818
15.185,226627,168,282839
15.190,226655,168,282831
15.195,226650,168,282857
15.200,226655,168,282816
15.205,226671,168,282859
15.210,226678,168,282866
15.215,226665,168,282878
15.220,226698,168,282869
15.225,226675,168,282867
15.230,226680,168,282899
15.235,226695,168,282914
15.240,226688,168,282905
15.245,226695,168,282885
15.250,226700,168,282925
15.255,226733,168,282919
15.260,226719,168,282954
15.265,226737,168,282975
15.270,226749,168,282991
15.275,226750,168,282971
15.280,226766,168,282996
15.285,226771,168,283021
15.290,226788,168,283016
15.295,226789,168,283046
15.300,226806,168,283055
15.305,226802,168,283048
15.310,226812,168,283059
15.315,226806,168,283039
15.320,226797,168,283058
15.325,226827,168,283062
15.330,226833,168,283070
15.335,226836,168,283078
15.340,226847,168,283070
15.345,226830,168,283089
15.350,226843,168,283070
15.355,226826,168,283080
15.360,226841,168,283080
15.365,226856,168,283091
15.370,226861,168,283097
15.375,226869,168,283095
15.380,226862,168,283096
15.385,226878,168,283120
15.390,226878,168,283098
15.395,226886,168,283105
15.400,226894,168,283120
15.405,226877,168,283101
15.410,226873,168,283106
15.415,226897,168,283121
15.420,226912,168,283144
15.425,226909,168,283144
15.430,226917,168,283132
15.435,226914,168,283144
15.440,226930,168,283147
15.445,226925,168,283164
15.450,226940,168,283164
15.455,226950,168,283152
15.460,226956,168,283151
15.465,226943,168,283170
15.470,226980,168,283172
15.475,226961,168,283163
15.480,226961,168,283164
15.485,226982,168,283165
15.490,226991,168,283176
15.495,226979,168,283193
15.500,226999,168,283190
15.505,227017,168,283194
15.510,227002,168,283193
15.515,226989,168,283198
15.520,227002,168,283212
15.525,227007,168,283204
15.530,227006,168,283209
15.535,227033,168,283217
15.540,227045,168,283208
15.545,227037,168,283198
15.550,227039,168,283222
15.555,227047,168,283229
15.560,227065,168,283229
15.565,227076,168,283269
15.570,227067,168,283247
15.575,227101,168,283263
15.580,227135,168,283268
15.585,227116,168,283272
15.590,227110,168,283259
15.595,227127,168,283269
15.600,227127,168,283265
15.605,227127,168,283294
15.610,227147,168,283284
15.615,227163,168,283288
15.620,227180,168,283285
15.625,227169,168,283284
15.630,227159,168,283311
15.635,227186,168,283308
15.640,227181,168,283298
15.645,227197,168,283342
15.650,227229,168,283355
15.655,227214,168,283379
15.660,227231,168,283398
15.665,227245,168,283426
15.670,227291,168,283452
15.675,227274,168,283449
15.680,227283,168,283449
15.685,227283,168,283471
15.690,227275,168,283481
15.695,227260,168,283480
15.700,227265,168,283509
15.705,227272,168,283522
15.710,227280,168,283512
15.715,227268,168,283533
15.720,227287,168,283555
15.725,227279,168,283563
15.730,227267,168,283573
15.735,227298,168,283582
15.740,227283,168,283591
15.745,227292,168,283600
15.750,227291,168,283631
15.755,227292,168,283600
15.760,227277,168,283627
15.765,227284,168,283625
15.770,227285,168,283633
15.775,227274,168,283652
15.780,227283,168,283651
15.785,227275,168,283668
15.790,227308,168,283662
15.795,227308,168,283690
15.800,227317,168,283714
15.805,227320,168,283728
15.810,227342,168,283762
15.815,227357,168,283826
15.820,227367,168,283812
15.825,227371,168,283824
15.830,227373,168,283823
15.835,227346,168,283831
15.840,227342,168,283813
15.845,227316,168,283792
15.850,227302,168,283789
15.855,227295,168,283792
15.860,227295,168,283806
15.865,227335,168,283826
15.870,227309,168,283893
15.875,227329,168,283975
15.880,227410,168,284058
15.885,227443,168,284158
15.890,227493,168,284247
15.895,227482,168,284283
15.900,227504,168,284248
15.905,227477,168,284207
15.910,227462,168,284146
15.915,227466,168,284142
15.920,227482,168,284128
15.925,227525,168,284172
15.930,227569,168,284265
15.935,227626,168,284356
15.940,227702,168,284484
15.945,227793,168,284687
15.950,227896,168,284889
15.955,227999,168,285074
15.960,228076,168,285262
15.965,228173,168,285423
15.970,228258,168,285605
15.975,228317,168,285785
15.980,228414,168,285852
15.985,228512,168,286002
15.990,228580,168,286139
15.995,228640,168,286180
16.000,228666,168,286211
16.005,228692,168,286240
16.010,228703,168,286269
16.015,228703,168,286268
16.020,228676,168,286253
16.025,228684,168,286263
16.030,228719,168,286277
16.035,228712,168,286264
16.040,228711,168,286268
16.045,228708,168,286240
16.050,228713,168,286250
16.055,228705,168,286256
16.060,228698,168,286247
16.065,228709,168,286257
16.070,228701,168,286257
16.075,228702,168,286290
16.080,228709,168,286272
16.085,228709,168,286285
16.090,228709,168,286286
16.095,228713,168,286278
16.100,228713,168,286259
16.105,228710,168,286279
16.110,228722,168,286295
16.115,228704,168,286279
16.120,228728,168,286300
16.125,228707,168,286295
16.130,228708,168,286279
16.135,228696,168,286268
16.140,228689,168,286238
16.145,228682,168,286174
16.150,228672,168,286175
16.155,228656,168,286174
16.160,228651,168,286156
16.165,228625,168,286090
16.170,228636,168,286096
16.175,228611,168,286078
16.180,228612,168,286072
16.185,228587,168,286060
16.190,228573,168,286035
16.195,228575,168,286024
16.200,228550,168,286008
16.205,228538,168,285997
16.210,228550,168,285986
16.215,228544,168,285993
16.220,228547,168,286003
16.225,228538,168,285971
16.230,228539,168,285954
16.235,228507,168,285950
16.240,228506,168,285981
16.245,228503,168,285924
16.250,228518,168,285937
16.255,228502,168,285925
16.260,228492,168,285909
16.265,228479,168,285897
16.270,228499,168,285902
16.275,228482,168,285874
16.280,228463,168,285877
16.285,228466,168,285870
16.290,228435,168,285828
16.295,228430,168,285829
16.300,228415,168,285790
16.305,228426,168,285790
16.310,228396,168,285748
16.315,228400,168,285742
16.320,228369,168,285725
16.325,228344,168,285691
16.330,228344,168,285653
16.335,228322,168,285628
16.340,228302,168,285603
16.345,228300,168,285596
16.350,228270,168,285550
16.355,228242,168,285547
16.360,228243,168,285524
16.365,228225,168,285513
16.370,228220,168,285477
16.375,228190,168,285447
16.380,228162,168,285411
16.385,228151,168,285389
16.390,228121,168,285379
16.395,228101,168,285343
16.400,228103,168,285322
16.405,228116,168,285301
16.410,228080,168,285274
16.415,228065,168,285265
16.420,228067,168,285251
16.425,228056,168,285222
16.430,228034,168,285217
16.435,228016,168,285181
16.440,228030,168,285185
16.445,228003,168,285175
16.450,228008,168,285176
16.455,228004,168,285180
16.460,227997,168,285152
16.465,227995,168,285158
16.470,227961,168,285131
16.475,227971,168,285145
16.480,227966,168,285137
16.485,227976,168,285141
16.490,227972,168,285179
16.495,227974,168,285167
16.500,227969,168,285194
16.505,227964,168,285209
16.510,227967,168,285204
16.515,227948,168,285199
16.520,227949,168,285217
16.525,227925,168,285183
16.530,227918,168,285178
16.535,227872,168,285173
16.540,227870,168,285142
16.545,227848,168,285130
16.550,227841,168,285152
16.555,227833,168,285151
16.560,227812,168,285140
16.565,227799,168,285135
16.570,227799,168,285142
16.575,227807,168,285128
16.580,227795,168,285145
16.585,227775,168,285165
16.590,227774,168,285143
16.595,227782,168,285166
16.600,227760,168,285126
16.605,227755,168,285144
16.610,227745,168,285133
16.615,227741,168,285157
16.620,227744,168,285133
16.625,227733,168,285155
16.630,227718,168,285151
16.635,227718,168,285132
16.640,227731,168,285149
16.645,227702,168,285131
16.650,227683,168,285120
16.655,227682,168,285114
16.660,227682,168,285155
16.665,227685,168,285133
16.670,227680,168,285162
16.675,227664,168,285155
16.680,227666,168,285158
16.685,227671,168,285184
16.690,227676,168,285194
16.695,227660,168,285196
16.700,227701,168,285219
16.705,227677,168,285210
16.710,227691,168,285248
16.715,227693,168,285255
16.720,227682,168,285259
16.725,227682,168,285269
16.730,227686,168,285276
16.735,227695,168,285309
16.740,227681,168,285288
16.745,227693,168,285306
16.750,227707,168,285325
16.755,227702,168,285320
16.760,227720,168,285356
16.765,227700,168,285369
16.770,227711,168,285379
16.775,227746,168,285394
16.780,227724,168,285429
16.785,227741,168,285412
16.790,227740,168,285425
16.795,227757,168,285454
16.800,227730,168,285444
16.805,227726,168,285458
16.810,227722,168,285453
16.815,227727,168,285457
16.820,227725,168,285464
16.825,227711,168,285479
16.830,227723,168,285446
16.835,227710,168,285484
16.840,227735,168,285483
16.845,227707,168,285468
16.850,227694,168,285480
16.855,227688,168,285511
16.860,227693,168,285487
16.865,227681,168,285486
16.870,227675,168,285497
16.875,227672,168,285476
16.880,227616,168,285499
16.885,227635,168,285489
16.890,227657,168,285483
16.895,227640,168,285484
16.900,227634,168,285475
16.905,227619,168,285496
16.910,227607,168,285482
16.915,227617,168,285466
16.920,227596,168,285467
16.925,227579,168,285459
16.930,227581,168,285461
16.935,227586,168,285475
16.940,227579,168,285459
16.945,227584,168,285462
16.950,227566,168,285454
16.955,227575,168,285474
16.960,227561,168,285466
16.965,227575,168,285451
16.970,227574,168,285454
16.975,227549,168,285453
16.980,227553,168,285434
16.985,227549,168,285428
16.990,227545,168,285438
16.995,227561,168,285459
17.000,227562,168,285441
17.005,227578,168,285464
17.010,227550,168,285470
17.015,227545,168,285454
17.020,227556,168,285434
17.025,227545,168,285422
17.030,227532,168,285416
17.035,227526,168,285394
17.040,227529,168,285393
17.045,227519,168,285377
17.050,227495,168,285367
17.055,227495,168,285353
17.060,227481,168,285343
17.065,227472,168,285320
17.070,227474,168,285310
17.075,227453,168,285307
17.080,227442,168,285280
17.085,227452,168,285251
17.090,227448,168,285243
17.095,227432,168,285237
17.100,227418,168,285201
17.105,227414,168,285198
17.110,227394,168,285169
17.115,227390,168,285156
17.120,227364,168,285143
17.125,227384,168,285121
17.130,227363,168,285113
17.135,227357,168,285111
17.140,227362,168,285091
17.145,227379,168,285096
17.150,227395,168,285100
17.155,227387,168,285115
17.160,227394,168,285090
17.165,227405,168,285090
17.170,227425,168,285090
17.175,227439,168,285097
17.180,227432,168,285089
17.185,227460,168,285135
17.190,227483,168,285147
17.195,227521,168,285228
17.200,227593,168,285299
17.205,227667,168,285407
17.210,227724,168,285551
17.215,227846,168,285673
17.220,227932,168,285884
17.225,228062,168,286089
17.230,228184,168,286291
17.235,228292,168,286468
17.240,228412,168,286646
17.245,228521,168,286819
17.250,228592,168,286921
17.255,228688,168,287039
17.260,228729,168,287139
17.265,228755,168,287206
17.270,228798,168,287270
17.275,228819,168,287292
17.280,228821,168,287309
17.285,228839,168,287321
17.290,228855,168,287344
17.295,228850,168,287348
17.300,228850,168,287330
17.305,228868,168,287324
17.310,228843,168,287306
17.315,228842,168,287302
17.320,228827,168,287253
17.325,228814,168,287223
17.330,228802,168,287180
17.335,228787,168,287163
17.340,228769,168,287147
17.345,228733,168,287077
17.350,228707,168,287035
17.355,228692,168,286987
17.360,228646,168,286948
17.365,228636,168,286899
17.370,228604,168,286846
17.375,228583,168,286830
17.380,228579,168,286790
17.385,228538,168,286737
17.390,228487,168,286676
17.395,228469,168,286655
17.400,228461,168,286621
17.405,228428,168,286550
17.410,228417,168,286508
17.415,228377,168,286503
17.420,228377,168,286464
17.425,228354,168,286435
17.430,228334,168,286397
17.435,228295,168,286365
17.440,228285,168,286327
17.445,228305,168,286332
17.450,228279,168,286283
17.455,228257,168,286272
17.460,228269,168,286241
17.465,228245,168,286210
17.470,228253,168,286218
17.475,228260,168,286247
17.480,228270,168,286209
17.485,228277,168,286221
17.490,228315,168,286266
17.495,228310,168,286279
17.500,228305,168,286314
17.505,228336,168,286331
17.510,228366,168,286342
17.515,228387,168,286371
17.520,228408,168,286429
17.525,228432,168,286417
17.530,228439,168,286408
17.535,228483,168,286416
17.540,228469,168,286393
17.545,228467,168,286391
17.550,228466,168,286370
17.555,228453,168,286375
17.560,228476,168,286326
17.565,228485,168,286332
17.570,228474,168,286303
17.575,228471,168,286287
17.580,228465,168,286263
17.585,228460,168,286249
17.590,228445,168,286212
17.595,228455,168,286215
17.600,228461,168,286181
17.605,228458,168,286151
17.610,228448,168,286144
17.615,228415,168,286120
17.620,228411,168,286074
17.625,228402,168,286067
17.630,228403,168,286015
17.635,228372,168,285985
17.640,228355,168,285962
17.645,228354,168,285977
17.650,228327,168,285936
17.655,228336,168,285931
17.660,228360,168,285925
17.665,228350,168,285959
17.670,228369,168,285949
17.675,228352,168,285964
17.680,228380,168,286016
17.685,228370,168,285991
17.690,228380,168,285980
17.695,228342,168,285995
17.700,228360,168,285997
17.705,228383,168,286011
17.710,228386,168,286027
17.715,228392,168,286042
17.720,228378,168,286052
17.725,228394,168,286063
17.730,228382,168,286049
17.735,228373,168,286066
17.740,228368,168,286059
17.745,228381,168,286019
17.750,228363,168,286005
17.755,228335,168,285991
17.760,228327,168,285919
17.765,228296,168,285885
17.770,228271,168,285827
17.775,228265,168,285768
17.780,228230,168,285748
17.785,228200,168,285688
17.790,228207,168,285633
17.795,228187,168,285601
17.800,228172,168,285593
17.805,228151,168,285553
17.810,228159,168,285524
17.815,228153,168,285474
17.820,228109,168,285463
17.825,228109,168,285435
17.830,228095,168,285391
17.835,228079,168,285356
17.840,228067,168,285335
17.845,228035,168,285300
17.850,227997,168,285303
17.855,227998,168,285287
17.860,227988,168,285224
17.865,227968,168,285226
17.870,227983,168,285202
17.875,227965,168,285175
17.880,227954,168,285146
17.885,227931,168,285147
17.890,227917,168,285102
17.895,227893,168,285081
17.900,227907,168,285032
17.905,227874,168,285049
17.910,227883,168,285019
17.915,227873,168,285003
17.920,227854,168,284987
17.925,227827,168,284951
17.930,227817,168,284919
17.935,227779,168,284889
17.940,227785,168,284867
17.945,227788,168,284864
17.950,227745,168,284833
17.955,227733,168,284788
17.960,227704,168,284757
17.965,227705,168,284726
17.970,227704,168,284720
17.975,227675,168,284690
17.980,227663,168,284654
17.985,227604,168,284607
17.990,227589,168,284614
17.995,227563,168,284612
18.000,227563,168,284556
18.005,227538,168,284542
18.010,227517,168,284535
18.015,227495,168,284532
18.020,227488,168,284514
18.025,227474,168,284513
18.030,227460,168,284512
18.035,227452,168,284498
18.040,227439,168,284492
18.045,227426,168,284489
18.050,227411,168,284480
18.055,227425,168,284469
18.060,227431,168,284483
18.065,227397,168,284488
18.070,227404,168,284484
18.075,227400,168,284459
18.080,227376,168,284442
18.085,227371,168,284451
18.090,227372,168,284442
18.095,227353,168,284415
18.100,227337,168,284423
18.105,227342,168,284436
18.110,227327,168,284442
18.115,227323,168,284416
18.120,227322,168,284436
18.125,227288,168,284421
18.130,227288,168,284416
18.135,227278,168,284409
18.140,227273,168,284397
18.145,227266,168,284405
18.150,227277,168,284416
18.155,227263,168,284431
18.160,227259,168,284412
18.165,227238,168,284391
18.170,227247,168,284384
18.175,227240,168,284419
18.180,227214,168,284392
18.185,227239,168,284399
18.190,227216,168,284414
18.195,227215,168,284408
18.200,227204,168,284406
18.205,227223,168,284414
18.210,227227,168,284416
18.215,227208,168,284419
18.220,227199,168,284433
18.225,227210,168,284429
18.230,227202,168,284437
18.235,227193,168,284440
18.240,227195,168,284453
18.245,227207,168,284457
18.250,227189,168,284446
18.255,227200,168,284444
18.260,227211,168,284463
18.265,227190,168,284471
18.270,227220,168,284503
18.275,227205,168,284492
18.280,227216,168,284502
18.285,227211,168,284517
18.290,227218,168,284519
18.295,227228,168,284518
18.300,227227,168,284529
18.305,227209,168,284526
18.310,227223,168,284534
18.315,227201,168,284538
18.320,227190,168,284497
18.325,227170,168,284552
18.330,227178,168,284551
18.335,227201,168,284565
18.340,227215,168,284581
18.345,227211,168,284571
18.350,227240,168,284601
18.355,227238,168,284596
18.360,227246,168,284639
18.365,227243,168,284625
18.370,227260,168,284641
18.375,227270,168,284660
18.380,227255,168,284681
18.385,227273,168,284688
18.390,227279,168,284663
18.395,227290,168,284703
18.400,227271,168,284709
18.405,227286,168,284672
18.410,227285,168,284699
18.415,227303,168,284724
18.420,227281,168,284718
18.425,227291,168,284709
18.430,227293,168,284728
18.435,227281,168,284724
18.440,227276,168,284719
18.445,227285,168,284696
18.450,227272,168,284713
18.455,227280,168,284714
18.460,227282,168,284728
18.465,227262,168,284715
18.470,227286,168,284716
18.475,227286,168,284705
18.480,227277,168,284713
18.485,227284,168,284713
18.490,227296,168,284743
18.495,227295,168,284739
18.500,227310,168,284744
18.505,227315,168,284758
18.510,227325,168,284772
18.515,227325,168,284774
18.520,227313,168,284741
18.525,227324,168,284766
18.530,227315,168,284761
18.535,227302,168,284764
18.540,227310,168,284738
18.545,227308,168,284713
18.550,227294,168,284734
18.555,227306,168,284713
18.560,227298,168,284745
18.565,227315,168,284743
18.570,227295,168,284717
18.575,227299,168,284719
18.580,227292,168,284706
18.585,227290,168,284708
18.590,227285,168,284696
18.595,227250,168,284658
18.600,227245,168,284651
18.605,227216,168,284633
18.610,227211,168,284619
18.615,227200,168,284574
18.620,227178,168,284565
18.625,227168,168,284528
18.630,227153,168,284533
18.635,227147,168,284520
18.640,227143,168,284516
18.645,227133,168,284505
18.650,227114,168,284473
18.655,227111,168,284468
18.660,227097,168,284431
18.665,227093,168,284418
18.670,227081,168,284398
18.675,227076,168,284383
18.680,227068,168,284360
18.685,227064,168,284341
18.690,227041,168,284323
18.695,227045,168,284317
18.700,227037,168,284313
18.705,227050,168,284294
18.710,227016,168,284307
18.715,227033,168,284290
18.720,227030,168,284275
18.725,227010,168,284263
18.730,227043,168,284268
18.735,227035,168,284266
18.740,227029,168,284251
18.745,227047,168,284285
18.750,227040,168,284280
18.755,227052,168,284316
18.760,227064,168,284320
18.765,227079,168,284343
18.770,227097,168,284340
18.775,227093,168,284354
18.780,227086,168,284347
18.785,227092,168,284362
18.790,227071,168,284364
18.795,227066,168,284329
18.800,227052,168,284364
18.805,227033,168,284342
18.810,227021,168,284333
18.815,227027,168,284341
18.820,227014,168,284332
18.825,227006,168,284302
18.830,227001,168,284333
18.835,226993,168,284341
18.840,227008,168,284346
18.845,226998,168,284338
18.850,226982,168,284358
18.855,226994,168,284340
18.860,226988,168,284361
18.865,227004,168,284408
18.870,227005,168,284418
18.875,227001,168,284416
18.880,227007,168,284449
18.885,227001,168,284438
18.890,227007,168,284426
18.895,226981,168,284433
18.900,226975,168,284431
18.905,226953,168,284403
18.910,226947,168,284427
18.915,226962,168,284433
18.920,226950,168,284429
18.925,226949,168,284406
18.930,226933,168,284425
18.935,226937,168,284408
18.940,226952,168,284432
18.945,226922,168,284419
18.950,226931,168,284416
18.955,226930,168,284421
18.960,226906,168,284397
18.965,226902,168,284410
18.970,226902,168,284410
18.975,226901,168,284412
18.980,226910,168,284436
18.985,226899,168,284402
18.990,226897,168,284409
18.995,226878,168,284416
19.000,226889,168,284409
19.005,226899,168,284417
19.010,226883,168,284420
19.015,226884,168,284402
19.020,226864,168,284414
19.025,226909,168,284407
19.030,226867,168,284406
19.035,226863,168,284419
19.040,226890,168,284420
19.045,226906,168,284416
19.050,226915,168,284435
19.055,226895,168,284426
19.060,226909,168,284427
19.065,226930,168,284433
19.070,226910,168,284445
19.075,226907,168,284435
19.080,226926,168,284456
19.085,226914,168,284441
19.090,226926,168,284444
19.095,226925,168,284455
19.100,226927,168,284459
19.105,226923,168,284470
19.110,226921,168,284482
19.115,226938,168,284502
19.120,226936,168,284504
19.125,226936,168,284486
19.130,226933,168,284495
19.135,226947,168,284501
19.140,226920,168,284501
19.145,226940,168,284514
19.150,226935,168,284526
19.155,226968,168,284571
19.160,226966,168,284521
19.165,226951,168,284554
19.170,226968,168,284557
19.175,226973,168,284514
19.180,226971,168,284508
19.185,226978,168,284536
19.190,226972,168,284523
19.195,226977,168,284520
19.200,226964,168,284527
19.205,226954,168,284527
19.210,226977,168,284537
19.215,226976,168,284528
19.220,226972,168,284515
19.225,226974,168,284527
19.230,226977,168,284543
19.235,226961,168,284517
19.240,226975,168,284529
19.245,226962,168,284538
19.250,226984,168,284534
19.255,227012,168,284543
19.260,227000,168,284547
19.265,226984,168,284543
19.270,227008,168,284541
19.275,227009,168,284523
19.280,226987,168,284520
19.285,226989,168,284543
19.290,227010,168,284543
19.295,226990,168,284519
19.300,227009,168,284507
19.305,226992,168,284537
19.310,226985,168,284511
19.315,226988,168,284510
19.320,226992,168,284538
19.325,227000,168,284523
19.330,227003,168,284507
19.335,227000,168,284528
19.340,227015,168,284509
19.345,227012,168,284516
19.350,227012,168,284524
19.355,227037,168,284515
19.360,227022,168,284487
19.365,227030,168,284527
19.370,227043,168,284510
19.375,227035,168,284490
19.380,227051,168,284547
19.385,227053,168,284523
19.390,227039,168,284544
19.395,227039,168,284503
19.400,227074,168,284534
19.405,227075,168,284555
19.410,227069,168,284528
19.415,227088,168,284535
19.420,227087,168,284531
19.425,227090,168,284528
19.430,227076,168,284514
19.435,227084,168,284507
19.440,227085,168,284499
19.445,227095,168,284490
19.450,227087,168,284497
19.455,227100,168,284487
19.460,227111,168,284471
19.465,227100,168,284486
19.470,227111,168,284497
19.475,227120,168,284512
19.480,227128,168,284499
19.485,227140,168,284537
19.490,227147,168,284523
19.495,227125,168,284506
19.500,227149,168,284522
19.505,227129,168,284491
19.510,227136,168,284498
19.515,227148,168,284491
19.520,227149,168,284498
19.525,227162,168,284499
19.530,227166,168,284495
19.535,227161,168,284492
19.540,227172,168,284492
19.545,227175,168,284486
19.550,227178,168,284506
19.555,227184,168,284499
19.560,227197,168,284521
19.565,227200,168,284526
19.570,227192,168,284538
19.575,227177,168,284535
19.580,227197,168,284515
19.585,227211,168,284530
19.590,227224,168,284561
19.595,227211,168,284547
19.600,227221,168,284566
19.605,227206,168,284542
19.610,227201,168,284515
19.615,227187,168,284494
19.620,227173,168,284527
19.625,227157,168,284498
19.630,227147,168,284495
19.635,227137,168,284492
19.640,227142,168,284497
19.645,227137,168,284480
19.650,227131,168,284502
19.655,227126,168,284486
19.660,227125,168,284499
19.665,227129,168,284526
19.670,227115,168,284505
19.675,227116,168,284512
19.680,227108,168,284523
19.685,227126,168,284546
19.690,227129,168,284548
19.695,227122,168,284533
19.700,227139,168,284593
19.705,227164,168,284595
19.710,227170,168,284644
19.715,227213,168,284703
19.720,227251,168,284770
19.725,227265,168,284836
19.730,227292,168,284874
19.735,227301,168,284941
19.740,227332,168,285007
19.745,227332,168,285017
19.750,227328,168,285027
19.755,227361,168,285093
19.760,227364,168,285125
19.765,227382,168,285167
19.770,227408,168,285206
19.775,227475,168,285270
19.780,227499,168,285325
19.785,227546,168,285413
19.790,227586,168,285454
19.795,227625,168,285503
19.800,227659,168,285542
19.805,227686,168,285572
19.810,227728,168,285617
19.815,227699,168,285612
19.820,227731,168,285599
19.825,227727,168,285633
19.830,227706,168,285642
19.835,227729,168,285650
19.840,227720,168,285663
19.845,227701,168,285679
19.850,227716,168,285685
19.855,227723,168,285650
19.860,227698,168,285664
19.865,227729,168,285664
19.870,227684,168,285632
19.875,227692,168,285652
19.880,227673,168,285646
19.885,227656,168,285627
19.890,227686,168,285617
19.895,227673,168,285602
19.900,227663,168,285585
19.905,227648,168,285561
19.910,227648,168,285551
19.915,227650,168,285536
19.920,227627,168,285529
19.925,227629,168,285514
19.930,227620,168,285516
19.935,227619,168,285499
19.940,227609,168,285490
19.945,227604,168,285470
19.950,227578,168,285451
19.955,227558,168,285427
19.960,227563,168,285389
19.965,227533,168,285353
19.970,227521,168,285332
19.975,227519,168,285341
19.980,227511,168,285315
19.985,227494,168,285308
19.990,227487,168,285294
19.995,227507,168,285299
20.000,227511,168,285290
20.005,227511,168,285275
20.010,227503,168,285283
20.015,227512,168,285326
20.020,227515,168,285303
20.025,227516,168,285307
20.030,227526,168,285331
20.035,227537,168,285348
20.040,227560,168,285362
20.045,227559,168,285355
20.050,227544,168,285389
20.055,227569,168,285379
20.060,227579,168,285390
20.065,227568,168,285401
20.070,227581,168,285423
20.075,227578,168,285419
20.080,227584,168,285427
20.085,227578,168,285439
20.090,227611,168,285458
20.095,227599,168,285432
20.100,227615,168,285461
20.105,227625,168,285452
20.110,227609,168,285441
20.115,227638,168,285476
20.120,227645,168,285440
20.125,227636,168,285461
20.130,227628,168,285454
20.135,227637,168,285463
20.140,227615,168,285449
20.145,227644,168,285465
20.150,227633,168,285462
20.155,227643,168,285482
20.160,227667,168,285484
20.165,227671,168,285481
20.170,227689,168,285502
20.175,227673,168,285489
20.180,227693,168,285517
20.185,227690,168,285515
20.190,227697,168,285502
20.195,227706,168,285538
20.200,227711,168,285539
20.205,227733,168,285552
20.210,227733,168,285565
20.215,227742,168,285558
20.220,227749,168,285563
20.225,227783,168,285586
20.230,227770,168,285616
20.235,227807,168,285635
20.240,227808,168,285676
20.245,227838,168,285675
20.250,227832,168,285709
20.255,227860,168,285728
20.260,227899,168,285726
20.265,227896,168,285756
20.270,227916,168,285765
20.275,227916,168,285804
20.280,227942,168,285826
20.285,227944,168,285850
20.290,227990,168,285871
20.295,228004,168,285886
20.300,228024,168,285936
20.305,228070,168,285961
20.310,228084,168,285984
20.315,228096,168,286045
20.320,228154,168,286131
20.325,228181,168,286181
20.330,228232,168,286240
20.335,228303,168,286279
20.340,228312,168,286354
20.345,228332,168,286407
20.350,228390,168,286451
20.355,228422,168,286507
20.360,228452,168,286566
20.365,228489,168,286601
20.370,228514,168,286644
20.375,228526,168,286678
20.380,228550,168,286733
20.385,228578,168,286766
20.390,228612,168,286775
20.395,228629,168,286845
20.400,228668,168,286897
20.405,228702,168,286917
20.410,228711,168,286979
20.415,228751,168,287018
20.420,228755,168,287046
20.425,228784,168,287116
20.430,228840,168,287150
20.435,228830,168,287185
20.440,228856,168,287206
20.445,228847,168,287251
20.450,228874,168,287264
20.455,228884,168,287320
20.460,228886,168,287338
20.465,228902,168,287359
20.470,228904,168,287388
20.475,228912,168,287402
20.480,228910,168,287418
20.485,228917,168,287445
20.490,228898,168,287429
20.495,228909,168,287447
20.500,228895,168,287450
20.505,228923,168,287455
20.510,228899,168,287490
20.515,228898,168,287469
20.520,228888,168,287495
20.525,228913,168,287495
20.530,228917,168,287504
20.535,228910,168,287507
20.540,228895,168,287490
20.545,228880,168,287488
20.550,228876,168,287502
20.555,228880,168,287491
20.560,228865,168,287479
20.565,228851,168,287460
20.570,228864,168,287458
20.575,228835,168,287459
20.580,228816,168,287419
20.585,228808,168,287422
20.590,228802,168,287391
20.595,228789,168,287373
20.600,228766,168,287368
20.605,228762,168,287368
20.610,228760,168,287362
20.615,228756,168,287313
20.620,228727,168,287343
20.625,228740,168,287322
20.630,228708,168,287321
20.635,228706,168,287304
20.640,228729,168,287310
20.645,228712,168,287324
20.650,228709,168,287303
20.655,228698,168,287311
20.660,228678,168,287279
20.665,228675,168,287274
20.670,228665,168,287252
20.675,228646,168,287234
20.680,228667,168,287243
20.685,228656,168,287230
20.690,228651,168,287229
20.695,228662,168,287259
20.700,228669,168,287238
20.705,228662,168,287231
20.710,228654,168,287228
20.715,228660,168,287211
20.720,228659,168,287223
20.725,228665,168,287198
20.730,228670,168,287202
20.735,228644,168,287186
20.740,228653,168,287180
20.745,228632,168,287191
20.750,228635,168,287165
20.755,228626,168,287141
20.760,228634,168,287154
20.765,228645,168,287144
20.770,228632,168,287180
20.775,228630,168,287145
20.780,228639,168,287143
20.785,228635,168,287163
20.790,228637,168,287163
20.795,228646,168,287156
20.800,228631,168,287178
20.805,228662,168,287154
20.810,228662,168,287136
20.815,228647,168,287161
20.820,228640,168,287148
20.825,228673,168,287161
20.830,228646,168,287169
20.835,228611,168,287176
20.840,228644,168,287162
20.845,228643,168,287155
20.850,228622,168,287157
20.855,228640,168,287147
20.860,228648,168,287166
20.865,228635,168,287179
20.870,228652,168,287183
20.875,228676,168,287185
20.880,228665,168,287175
20.885,228673,168,287183
20.890,228677,168,287176
20.895,228693,168,287207
20.900,228675,168,287193
20.905,228697,168,287190
20.910,228662,168,287197
20.915,228683,168,287190
20.920,228687,168,287209
20.925,228685,168,287192
20.930,228693,168,287172
20.935,228694,168,287173
20.940,228688,168,287171
20.945,228692,168,287185
20.950,228676,168,287155
20.955,228668,168,287132
20.960,228671,168,287129
20.965,228664,168,287124
20.970,228660,168,287112
20.975,228659,168,287103
20.980,228672,168,287095
20.985,228664,168,287102
20.990,228643,168,287064
20.995,228663,168,287062
21.000,228660,168,287051
21.005,228655,168,287033
21.010,228655,168,287041
21.015,228641,168,287032
21.020,228674,168,287024
21.025,228642,168,287021
21.030,228632,168,287003
21.035,228630,168,287005
21.040,228643,168,286962
21.045,228627,168,286989
21.050,228623,168,286960
21.055,228636,168,286975
21.060,228627,168,286972
21.065,228643,168,286966
21.070,228652,168,286926
21.075,228649,168,286941
21.080,228639,168,286948
21.085,228618,168,286922
21.090,228657,168,286965
21.095,228668,168,286956
21.100,228656,168,286960
21.105,228681,168,286947
21.110,228665,168,286966
21.115,228687,168,286979
21.120,228702,168,286970
21.125,228714,168,286961
21.130,228727,168,286978
21.135,228718,168,287004
21.140,228734,168,287019
21.145,228765,168,287053
21.150,228755,168,287039
21.155,228777,168,287051
21.160,228784,168,287083
21.165,228794,168,287108
21.170,228817,168,287136
21.175,228831,168,287141
21.180,228838,168,287164
21.185,228868,168,287166
21.190,228867,168,287210
21.195,228862,168,287220
21.200,228888,168,287221
21.205,228887,168,287243
21.210,228866,168,287201
21.215,228866,168,287235
21.220,228860,168,287230
21.225,228848,168,287207
21.230,228832,168,287219
21.235,228819,168,287214
21.240,228811,168,287188
21.245,228818,168,287189
21.250,228800,168,287193
21.255,228787,168,287162
21.260,228787,168,287170
21.265,228763,168,287165
21.270,228753,168,287159
21.275,228773,168,287155
21.280,228767,168,287153
21.285,228739,168,287160
21.290,228752,168,287151
21.295,228741,168,287145
21.300,228731,168,287126
21.305,228707,168,287160
21.310,228731,168,287130
21.315,228689,168,287144
21.320,228706,168,287104
21.325,228695,168,287105
21.330,228690,168,287092
21.335,228693,168,287092
21.340,228681,168,287077
21.345,228660,168,287064
21.350,228663,168,287069
21.355,228667,168,287058
21.360,228652,168,287080
21.365,228634,168,287070
21.370,228631,168,287051
21.375,228629,168,287037
21.380,228629,168,287073
21.385,228636,168,287054
21.390,228617,168,287036
21.395,228610,168,287043
21.400,228611,168,287041
21.405,228615,168,287058
21.410,228603,168,287060
21.415,228618,168,287026
21.420,228599,168,287031
21.425,228585,168,287021
21.430,228604,168,286994
21.435,228601,168,287011
21.440,228586,168,286998
21.445,228594,168,286989
21.450,228583,168,286992
21.455,228564,168,286947
21.460,228566,168,286907
21.465,228577,168,286907
21.470,228540,168,286868
21.475,228514,168,286819
21.480,228501,168,286782
21.485,228474,168,286744
21.490,228449,168,286699
21.495,228443,168,286679
21.500,228415,168,286607
21.505,228398,168,286590
21.510,228367,168,286563
21.515,228359,168,286524
21.520,228335,168,286479
21.525,228325,168,286441
21.530,228286,168,286386
21.535,228273,168,286356
21.540,228272,168,286333
21.545,228256,168,286308
21.550,228254,168,286265
21.555,228231,168,286267
21.560,228241,168,286259
21.565,228244,168,286225
21.570,228233,168,286205
21.575,228216,168,286171
21.580,228205,168,286151
21.585,228204,168,286118
21.590,228176,168,286095
21.595,228167,168,286086
21.600,228177,168,286079
21.605,228145,168,286034
21.610,228114,168,286013
21.615,228133,168,285983
21.620,228105,168,285950
21.625,228088,168,285931
21.630,228076,168,285872
21.635,228055,168,285831
21.640,228031,168,285794
21.645,228020,168,285783
21.650,228006,168,285763
21.655,227997,168,285723
21.660,227995,168,285729
21.665,227990,168,285702
21.670,227995,168,285680
21.675,227957,168,285660
21.680,227931,168,285648
21.685,227930,168,285611
21.690,227910,168,285597
21.695,227911,168,285579
21.700,227913,168,285568
21.705,227917,168,285546
21.710,227896,168,285535
21.715,227875,168,285487
21.720,227853,168,285458
21.725,227851,168,285429
21.730,227815,168,285399
21.735,227811,168,285363
21.740,227799,168,285353
21.745,227786,168,285294
21.750,227767,168,285281
21.755,227747,168,285261
21.760,227739,168,285189
21.765,227706,168,285158
21.770,227682,168,285142
21.775,227666,168,285107
21.780,227636,168,285078
21.785,227645,168,285058
21.790,227615,168,285036
21.795,227599,168,285027
21.800,227614,168,284990
21.805,227602,168,284939
21.810,227557,168,284894
21.815,227542,168,284897
21.820,227556,168,284882
21.825,227574,168,284844
21.830,227525,168,284832
21.835,227523,168,284829
21.840,227500,168,284824
21.845,227528,168,284789
21.850,227509,168,284790
21.855,227520,168,284800
21.860,227509,168,284822
21.865,227545,168,284806
21.870,227531,168,284813
21.875,227532,168,284800
21.880,227543,168,284819
21.885,227556,168,284818
21.890,227546,168,284829
21.895,227559,168,284833
21.900,227551,168,284812
21.905,227545,168,284825
21.910,227542,168,284794
21.915,227554,168,284815
21.920,227562,168,284815
21.925,227550,168,284811
21.930,227546,168,284811
21.935,227567,168,284809
21.940,227566,168,284795
21.945,227570,168,284814
21.950,227568,168,284800
21.955,227622,168,284800
21.960,227582,168,284797
21.965,227572,168,284815
21.970,227565,168,284821
21.975,227589,168,284803
21.980,227584,168,284813
21.985,227593,168,284839
21.990,227611,168,284855
21.995,227593,168,284842
22.000,227612,168,284852
22.005,227587,168,284831
22.010,227582,168,284845
22.015,227551,168,284826
22.020,227557,168,284827
22.025,227540,168,284815
22.030,227546,168,284790
22.035,227540,168,284807
22.040,227504,168,284797
22.045,227501,168,284777
22.050,227485,168,284757
22.055,227462,168,284721
22.060,227429,168,284713
22.065,227409,168,284687
22.070,227401,168,284712
22.075,227414,168,284689
22.080,227395,168,284675
22.085,227368,168,284679
22.090,227367,168,284652
22.095,227379,168,284634
22.100,227353,168,284638
22.105,227335,168,284625
22.110,227338,168,284611
22.115,227309,168,284607
22.120,227315,168,284603
22.125,227284,168,284585
22.130,227280,168,284587
22.135,227294,168,284561
22.140,227266,168,284559
22.145,227263,168,284529
22.150,227260,168,284544
22.155,227250,168,284538
22.160,227219,168,284510
22.165,227223,168,284508
22.170,227220,168,284511
22.175,227193,168,284473
22.180,227188,168,284475
22.185,227169,168,284455
22.190,227168,168,284479
22.195,227167,168,284461
22.200,227139,168,284454
22.205,227119,168,284418
22.210,227120,168,284390
22.215,227102,168,284403
22.220,227093,168,284386
22.225,227091,168,284365
22.230,227078,168,284327
22.235,227077,168,284302
22.240,227064,168,284302
22.245,227034,168,284288
22.250,227019,168,284281
22.255,227039,168,284268
22.260,227024,168,284251
22.265,227029,168,284246
22.270,226994,168,284253
22.275,227009,168,284213
22.280,226973,168,284189
22.285,226987,168,284212
22.290,226966,168,284151
22.295,226972,168,284162
22.300,226963,168,284116
22.305,226940,168,284133
22.310,226964,168,284109
22.315,226930,168,284093
22.320,226943,168,284099
22.325,226920,168,284066
22.330,226904,168,284094
22.335,226904,168,284030
22.340,226878,168,284030
22.345,226861,168,283995
22.350,226837,168,283982
22.355,226841,168,283966
22.360,226827,168,283944
22.365,226813,168,283950
22.370,226824,168,283937
22.375,226804,168,283935
22.380,226809,168,283957
22.385,226797,168,283919
22.390,226812,168,283916
22.395,226812,168,283914
22.400,226818,168,283897
22.405,226805,168,283915
22.410,226807,168,283904
22.415,226798,168,283913
22.420,226777,168,283905
22.425,226790,168,283906
22.430,226806,168,283922
22.435,226818,168,283909
22.440,226805,168,283939
22.445,226808,168,283947
22.450,226813,168,283918
22.455,226825,168,283953
22.460,226831,168,283962
22.465,226840,168,283988
22.470,226846,168,283984
22.475,226862,168,283998
22.480,226888,168,284034
22.485,226910,168,284063
22.490,226919,168,284087
22.495,226958,168,284077
22.500,226942,168,284118
22.505,226967,168,284099
22.510,226970,168,284091
22.515,226963,168,284099
22.520,226977,168,284072
22.525,226958,168,284077
22.530,226970,168,284101
22.535,226990,168,284132
22.540,227005,168,284125
22.545,227013,168,284159
22.550,227034,168,284157
22.555,227054,168,284193
22.560,227062,168,284236
22.565,227112,168,284268
22.570,227121,168,284298
22.575,227160,168,284327
22.580,227195,168,284349
22.585,227211,168,284384
22.590,227238,168,284411
22.595,227265,168,284426
22.600,227269,168,284427
22.605,227278,168,284480
22.610,227303,168,284491
22.615,227288,168,284517
22.620,227308,168,284524
22.625,227333,168,284532
22.630,227312,168,284532
22.635,227317,168,284545
22.640,227321,168,284565
22.645,227338,168,284602
22.650,227331,168,284602
22.655,227334,168,284623
22.660,227345,168,284632
22.665,227347,168,284651
22.670,227378,168,284640
22.675,227386,168,284672
22.680,227401,168,284667
22.685,227419,168,284702
22.690,227388,168,284705
22.695,227416,168,284742
22.700,227425,168,284707
22.705,227396,168,284706
22.710,227398,168,284648
22.715,227361,168,284608
22.720,227325,168,284564
22.725,227305,168,284525
22.730,227274,168,284475
22.735,227266,168,284448
22.740,227251,168,284434
22.745,227250,168,284413
22.750,227241,168,284386
22.755,227272,168,284385
22.760,227269,168,284413
22.765,227307,168,284423
22.770,227345,168,284453
22.775,227381,168,284521
22.780,227442,168,284615
22.785,227517,168,284703
22.790,227606,168,284816
22.795,227707,168,284943
22.800,227798,168,285069
22.805,227888,168,285179
22.810,227989,168,285304
22.815,228083,168,285427
22.820,228177,168,285592
22.825,228252,168,285721
22.830,228355,168,285883
22.835,228491,168,286052
22.840,228624,168,286270
22.845,228750,168,286465
22.850,228861,168,286648
22.855,228968,168,286835
22.860,229124,168,287016
22.865,229271,168,287230
22.870,229397,168,287418
22.875,229522,168,287625
22.880,229694,168,287804
22.885,229812,168,287968
22.890,229959,168,288115
22.895,230034,168,288215
22.900,230122,168,288276
22.905,230147,168,288295
22.910,230153,168,288265
22.915,230156,168,288248
22.920,230145,168,288174
22.925,230085,168,288067
22.930,230056,168,287972
22.935,229990,168,287904
22.940,229979,168,287828
22.945,229919,168,287762
22.950,229904,168,287735
22.955,229837,168,287713
22.960,229839,168,287677
22.965,229827,168,287663
22.970,229831,168,287674
22.975,229806,168,287688
22.980,229792,168,287661
22.985,229789,168,287687
22.990,229760,168,287637
22.995,229738,168,287626
23.000,229721,168,287627
23.005,229707,168,287607
23.010,229686,168,287598
23.015,229642,168,287520
23.020,229575,168,287472
23.025,229549,168,287429
23.030,229504,168,287379
23.035,229459,168,287356
23.040,229399,168,287267
23.045,229352,168,287201
23.050,229312,168,287165
23.055,229266,168,287068
23.060,229221,168,287072
23.065,229192,168,287034
23.070,229143,168,286991
23.075,229081,168,286944
23.080,229042,168,286915
23.085,228982,168,286848
23.090,228961,168,286810
23.095,228932,168,286792
23.100,228890,168,286770
23.105,228870,168,286720
23.110,228823,168,286656
23.115,228774,168,286639
23.120,228760,168,286620
23.125,228707,168,286579
23.130,228676,168,286597
23.135,228669,168,286585
23.140,228656,168,286625
23.145,228639,168,286656
23.150,228619,168,286683
23.155,228628,168,286739
23.160,228626,168,286752
23.165,228608,168,286775
23.170,228607,168,286810
23.175,228609,168,286807
23.180,228604,168,286846
23.185,228604,168,286848
23.190,228593,168,286880
23.195,228579,168,286856
23.200,228576,168,286842
23.205,228543,168,286853
23.210,228543,168,286799
23.215,228511,168,286821
23.220,228500,168,286751
23.225,228462,168,286758
23.230,228455,168,286757
23.235,228434,168,286724
23.240,228403,168,286718
23.245,228406,168,286690
23.250,228395,168,286685
23.255,228378,168,286652
23.260,228365,168,286644
23.265,228352,168,286648
23.270,228306,168,286596
23.275,228296,168,286598
23.280,228309,168,286570
23.285,228276,168,286581
23.290,228285,168,286563
23.295,228275,168,286539
23.300,228261,168,286535
23.305,228242,168,286526
23.310,228214,168,286470
23.315,228174,168,286463
23.320,228157,168,286404
23.325,228152,168,286398
23.330,228121,168,286340
23.335,228100,168,286316
23.340,228085,168,286277
23.345,228062,168,286237
23.350,228050,168,286212
23.355,228045,168,286205
23.360,228024,168,286197
23.365,227985,168,286169
23.370,227972,168,286159
23.375,227952,168,286153
23.380,227956,168,286120
23.385,227936,168,286106
23.390,227925,168,286074
23.395,227923,168,286044
23.400,227923,168,286034
23.405,227885,168,286023
23.410,227859,168,285987
23.415,227846,168,285959
23.420,227833,168,285894
23.425,227813,168,285882
23.430,227778,168,285846
23.435,227777,168,285812
23.440,227757,168,285799
23.445,227747,168,285778
23.450,227729,168,285756
23.455,227721,168,285746
23.460,227718,168,285735
23.465,227686,168,285728
23.470,227689,168,285683
23.475,227694,168,285704
23.480,227677,168,285685
23.485,227672,168,285657
23.490,227638,168,285616
23.495,227644,168,285616
23.500,227611,168,285582
23.505,227607,168,285568
23.510,227582,168,285558
23.515,227599,168,285531
23.520,227574,168,285534
23.525,227578,168,285511
23.530,227569,168,285517
23.535,227586,168,285503
23.540,227559,168,285490
23.545,227533,168,285471
23.550,227542,168,285444
23.555,227528,168,285418
23.560,227519,168,285396
23.565,227491,168,285388
23.570,227489,168,285384
23.575,227472,168,285366
23.580,227441,168,285322
23.585,227458,168,285310
23.590,227433,168,285297
23.595,227436,168,285253
23.600,227425,168,285249
23.605,227433,168,285254
23.610,227444,168,285264
23.615,227426,168,285253
23.620,227408,168,285264
23.625,227426,168,285249
23.630,227404,168,285227
23.635,227399,168,285230
23.640,227376,168,285213
23.645,227381,168,285205
23.650,227349,168,285196
23.655,227322,168,285169
23.660,227325,168,285144
23.665,227305,168,285140
23.670,227286,168,285145
23.675,227280,168,285117
23.680,227268,168,285146
23.685,227247,168,285134
23.690,227237,168,285125
23.695,227206,168,285105
23.700,227202,168,285089
23.705,227168,168,285102
23.710,227178,168,285074
23.715,227166,168,285089
23.720,227163,168,285078
23.725,227147,168,285108
23.730,227142,168,285077
23.735,227132,168,285094
23.740,227119,168,285073
23.745,227100,168,285065
23.750,227100,168,285081
23.755,227108,168,285090
23.760,227097,168,285102
23.765,227100,168,285095
23.770,227083,168,285108
23.775,227089,168,285102
23.780,227097,168,285137
23.785,227081,168,285114
23.790,227061,168,285134
23.795,227073,168,285139
23.800,227088,168,285137
23.805,227071,168,285157
23.810,227054,168,285137
23.815,227051,168,285121
23.820,227032,168,285092
23.825,227026,168,285072
23.830,227025,168,285045
23.835,226983,168,285019
23.840,226980,168,285019
23.845,226962,168,284982
23.850,226969,168,284990
23.855,226957,168,284973
23.860,226942,168,284940
23.865,226952,168,284932
23.870,226944,168,284953
23.875,226922,168,284892
23.880,226893,168,284891
23.885,226922,168,284867
23.890,226905,168,284856
23.895,226899,168,284852
23.900,226901,168,284858
23.905,226917,168,284848
23.910,226907,168,284859
23.915,226934,168,284851
23.920,226951,168,284851
23.925,226917,168,284845
23.930,226926,168,284837
23.935,226893,168,284809
23.940,226900,168,284788
23.945,226904,168,284794
23.950,226891,168,284762
23.955,226875,168,284726
23.960,226861,168,284736
23.965,226856,168,284682
23.970,226856,168,284663
23.975,226859,168,284629
23.980,226821,168,284621
23.985,226815,168,284619
23.990,226814,168,284588
23.995,226808,168,284564
24.000,226800,168,284533
24.005,226817,168,284519
24.010,226784,168,284505
24.015,226765,168,284489
24.020,226809,168,284494
24.025,226779,168,284444
24.030,226795,168,284435
24.035,226777,168,284440
24.040,226789,168,284437
24.045,226802,168,284436
24.050,226819,168,284434
24.055,226839,168,284419
24.060,226831,168,284400
24.065,226841,168,284392
24.070,226849,168,284380
24.075,226846,168,284325
24.080,226831,168,284300
24.085,226843,168,284252
24.090,226839,168,284244
24.095,226824,168,284234
24.100,226804,168,284173
24.105,226798,168,284160
24.110,226790,168,284099
24.115,226801,168,284081
24.120,226772,168,284068
24.125,226783,168,284044
24.130,226777,168,284023
24.135,226793,168,284000
24.140,226781,168,283987
24.145,226788,168,283958
24.150,226794,168,283961
24.155,226815,168,283950
24.160,226807,168,283963
24.165,226823,168,283931
24.170,226828,168,283939
24.175,226833,168,283937
24.180,226835,168,283892
24.185,226829,168,283909
24.190,226841,168,283890
24.195,226837,168,283882
24.200,226841,168,283890
24.205,226848,168,283845
24.210,226829,168,283824
24.215,226845,168,283797
24.220,226812,168,283734
24.225,226806,168,283713
24.230,226781,168,283679
24.235,226794,168,283690
24.240,226769,168,283620
24.245,226769,168,283624
24.250,226776,168,283591
24.255,226788,168,283579
24.260,226783,168,283592
24.265,226810,168,283586
24.270,226782,168,283548
24.275,226771,168,283527
24.280,226743,168,283473
24.285,226733,168,283428
24.290,226733,168,283399
24.295,226697,168,283356
24.300,226664,168,283300
24.305,226661,168,283231
24.310,226633,168,283220
24.315,226626,168,283171
24.320,226596,168,283119
24.325,226629,168,283115
24.330,226606,168,283125
24.335,226623,168,283133
24.340,226640,168,283136
24.345,226657,168,283171
24.350,226700,168,283253
24.355,226752,168,283323
24.360,226799,168,283447
24.365,226874,168,283539
24.370,226927,168,283625
24.375,226989,168,283691
24.380,227045,168,283776
24.385,227097,168,283799
24.390,227147,168,283820
24.395,227173,168,283841
24.400,227197,168,283859
24.405,227220,168,283841
24.410,227226,168,283890
24.415,227264,168,283912
24.420,227301,168,283930
24.425,227297,168,283963
24.430,227323,168,283971
24.435,227322,168,284004
24.440,227316,168,283980
24.445,227326,168,283985
24.450,227313,168,283973
24.455,227301,168,283941
24.460,227266,168,283908
24.465,227235,168,283834
24.470,227231,168,283775
24.475,227180,168,283732
24.480,227174,168,283693
24.485,227144,168,283653
24.490,227130,168,283629
24.495,227121,168,283603
24.500,227091,168,283583
24.505,227086,168,283591
24.510,227076,168,283560
24.515,227063,168,283564
24.520,227053,168,283582
24.525,227066,168,283533
24.530,227063,168,283539
24.535,227050,168,283536
24.540,227024,168,283504
24.545,227004,168,283483
24.550,226993,168,283471
24.555,226991,168,283427
24.560,226980,168,283419
24.565,226951,168,283385
24.570,226956,168,283371
24.575,226947,168,283369
24.580,226928,168,283355
24.585,226912,168,283321
24.590,226902,168,283318
24.595,226880,168,283322
24.600,226902,168,283311
24.605,226874,168,283311
24.610,226876,168,283279
24.615,226868,168,283239
24.620,226856,168,283229
24.625,226825,168,283209
24.630,226803,168,283148
24.635,226781,168,283124
24.640,226753,168,283060
24.645,226709,168,283012
24.650,226695,168,282962
24.655,226670,168,282931
24.660,226646,168,282885
24.665,226619,168,282885
24.670,226605,168,282860
24.675,226568,168,282854
24.680,226558,168,282846
24.685,226532,168,282856
24.690,226529,168,282843
24.695,226524,168,282874
24.700,226518,168,282874
24.705,226485,168,282880
24.710,226451,168,282875
24.715,226442,168,282836
24.720,226409,168,282830
24.725,226386,168,282785
24.730,226337,168,282768
24.735,226313,168,282749
24.740,226256,168,282727
24.745,226264,168,282678
24.750,226230,168,282702
24.755,226226,168,282697
24.760,226197,168,282725
24.765,226188,168,282732
24.770,226215,168,282801
24.775,226209,168,282850
24.780,226224,168,282895
24.785,226238,168,282943
24.790,226251,168,282986
24.795,226257,168,283031
24.800,226277,168,283046
24.805,226301,168,283115
24.810,226303,168,283142
24.815,226332,168,283171
24.820,226347,168,283235
24.825,226367,168,283298
24.830,226360,168,283330
24.835,226379,168,283382
24.840,226419,168,283448
24.845,226435,168,283490
24.850,226456,168,283539
24.855,226486,168,283583
24.860,226520,168,283655
24.865,226536,168,283674
24.870,226585,168,283719
24.875,226607,168,283742
24.880,226638,168,283783
24.885,226674,168,283807
24.890,226692,168,283830
24.895,226677,168,283801
24.900,226689,168,283801
24.905,226701,168,283805
24.910,226695,168,283799
24.915,226700,168,283776
24.920,226686,168,283755
24.925,226668,168,283731
24.930,226651,168,283662
24.935,226626,168,283613
24.940,226608,168,283539
24.945,226585,168,283526
24.950,226557,168,283485
24.955,226544,168,283435
24.960,226518,168,283416
24.965,226531,168,283396
24.970,226501,168,283369
24.975,226495,168,283364
24.980,226492,168,283355
24.985,226490,168,283360
24.990,226498,168,283352
24.995,226489,168,283338
25.000,226494,168,283324
25.005,226460,168,283319
25.010,226470,168,283316
25.015,226477,168,283265
25.020,226471,168,283306
25.025,226454,168,283308
25.030,226457,168,283308
25.035,226447,168,283305
25.040,226450,168,283288
25.045,226434,168,283308
25.050,226430,168,283283
25.055,226425,168,283270
25.060,226410,168,283254
25.065,226369,168,283244
25.070,226359,168,283204
25.075,226361,168,283178
25.080,226326,168,283162
25.085,226326,168,283122
25.090,226301,168,283126
25.095,226296,168,283116
25.100,226301,168,283125
25.105,226310,168,283114
25.110,226291,168,283122
25.115,226302,168,283122
25.120,226285,168,283104
25.125,226274,168,283081
25.130,226291,168,283126
25.135,226268,168,283094
25.140,226263,168,283075
25.145,226268,168,283078
25.150,226283,168,283066
25.155,226266,168,283061
25.160,226293,168,283084
25.165,226281,168,283083
25.170,226255,168,283081
25.175,226261,168,283103
25.180,226285,168,283117
25.185,226300,168,283119
25.190,226284,168,283122
25.195,226297,168,283117
25.200,226291,168,283123
25.205,226261,168,283130
25.210,226277,168,283118
25.215,226275,168,283115
25.220,226257,168,283094
25.225,226242,168,283083
25.230,226220,168,283062
25.235,226192,168,283053
25.240,226187,168,283051
25.245,226177,168,283055
25.250,226163,168,283047
25.255,226132,168,283022
25.260,226123,168,283009
25.265,226106,168,282984
25.270,226098,168,282975
25.275,226071,168,282966
25.280,226067,168,282968
25.285,226050,168,282933
25.290,226044,168,282946
25.295,226061,168,282932
25.300,226014,168,282913
25.305,225986,168,282919
25.310,225967,168,282908
25.315,225959,168,282904
25.320,225966,168,282882
25.325,225956,168,282897
25.330,225945,168,282885
25.335,225957,168,282926
25.340,225970,168,282963
25.345,225968,168,282991
25.350,225977,168,283023
25.355,226012,168,283078
25.360,226034,168,283117
25.365,226056,168,283180
25.370,226060,168,283210
25.375,226095,168,283284
25.380,226116,168,283340
25.385,226155,168,283397
25.390,226190,168,283496
25.395,226229,168,283575
25.400,226253,168,283646
25.405,226283,168,283731
25.410,226318,168,283817
25.415,226352,168,283902
25.420,226400,168,283961
25.425,226417,168,284044
25.430,226478,168,284102
25.435,226516,168,284166
25.440,226537,168,284215
25.445,226560,168,284270
25.450,226589,168,284299
25.455,226623,168,284352
25.460,226625,168,284374
25.465,226652,168,284435
25.470,226688,168,284458
25.475,226688,168,284468
25.480,226716,168,284483
25.485,226708,168,284475
25.490,226681,168,284473
25.495,226681,168,284427
25.500,226664,168,284424
25.505,226662,168,284392
25.510,226644,168,284383
25.515,226624,168,284334
25.520,226620,168,284323
25.525,226595,168,284304
25.530,226568,168,284271
25.535,226559,168,284253
25.540,226548,168,284238
25.545,226529,168,284234
25.550,226551,168,284197
25.555,226536,168,284221
25.560,226517,168,284203
25.565,226530,168,284200
25.570,226525,168,284197
25.575,226510,168,284186
25.580,226529,168,284214
25.585,226540,168,284237
25.590,226562,168,284216
25.595,226580,168,284235
25.600,226566,168,284281
25.605,226574,168,284292
25.610,226606,168,284317
25.615,226621,168,284339
25.620,226636,168,284374
25.625,226670,168,284392
25.630,226678,168,284422
25.635,226706,168,284445
25.640,226698,168,284447
25.645,226728,168,284488
25.650,226724,168,284463
25.655,226731,168,284452
25.660,226737,168,284445
25.665,226765,168,284453
25.670,226738,168,284438
25.675,226756,168,284432
25.680,226757,168,284439
25.685,226769,168,284451
25.690,226774,168,284440
25.695,226783,168,284465
25.700,226810,168,284474
25.705,226810,168,284516
25.710,226824,168,284501
25.715,226829,168,284514
25.720,226846,168,284526
25.725,226848,168,284519
25.730,226855,168,284528
25.735,226878,168,284535
25.740,226852,168,284522
25.745,226874,168,284543
25.750,226883,168,284518
25.755,226902,168,284528
25.760,226895,168,284504
25.765,226901,168,284524
25.770,226899,168,284533
25.775,226940,168,284519
25.780,226929,168,284516
25.785,226919,168,284553
25.790,226949,168,284553
25.795,226947,168,284560
25.800,226984,168,284557
25.805,226963,168,284583
25.810,226977,168,284598
25.815,227000,168,284571
25.820,226999,168,284601
25.825,227018,168,284606
25.830,227013,168,284610
25.835,227024,168,284622
25.840,227056,168,284645
25.845,227065,168,284615
25.850,227063,168,284612
25.855,227066,168,284615
25.860,227041,168,284618
25.865,227063,168,284593
25.870,227049,168,284586
25.875,227052,168,284588
25.880,227052,168,284584
25.885,227057,168,284566
25.890,227038,168,284573
25.895,227051,168,284535
25.900,227063,168,284536
25.905,227064,168,284525
25.910,227032,168,284489
25.915,227056,168,284466
25.920,227048,168,284446
25.925,227059,168,284470
25.930,227034,168,284437
25.935,227028,168,284428
25.940,227053,168,284435
25.945,227030,168,284406
25.950,227035,168,284398
25.955,227038,168,284395
25.960,227036,168,284378
25.965,227044,168,284388
25.970,227063,168,284410
25.975,227067,168,284367
25.980,227062,168,284423
25.985,227050,168,284398
25.990,227055,168,284381
25.995,227071,168,284394
26.000,227066,168,284365
26.005,227043,168,284386
26.010,227037,168,284359
26.015,227041,168,284377
26.020,227037,168,284373
26.025,227034,168,284363
26.030,227037,168,284325
26.035,227024,168,284330
26.040,227007,168,284335
26.045,226989,168,284294
26.050,226971,168,284297
26.055,226948,168,284268
26.060,226935,168,284253
26.065,226931,168,284248
26.070,226914,168,284221
26.075,226908,168,284241
26.080,226931,168,284238
26.085,226895,168,284226
26.090,226917,168,284247
26.095,226916,168,284225
26.100,226918,168,284246
26.105,226911,168,284256
26.110,226906,168,284223
26.115,226881,168,284235
26.120,226896,168,284238
26.125,226904,168,284229
26.130,226901,168,284230
26.135,226907,168,284224
26.140,226915,168,284264
26.145,226912,168,284251
26.150,226887,168,284227
26.155,226924,168,284252
26.160,226910,168,284270
26.165,226894,168,284276
26.170,226897,168,284276
26.175,226891,168,284291
26.180,226913,168,284293
26.185,226895,168,284283
26.190,226920,168,284296
26.195,226938,168,284291
26.200,226922,168,284331
26.205,226915,168,284330
26.210,226926,168,284345
26.215,226945,168,284328
26.220,226923,168,284315
26.225,226913,168,284318
26.230,226933,168,284284
26.235,226927,168,284332
26.240,226928,168,284318
26.245,226929,168,284347
26.250,226936,168,284324
26.255,226958,168,284351
26.260,226954,168,284368
26.265,226968,168,284376
26.270,227008,168,284413
26.275,227018,168,284427
26.280,227019,168,284437
26.285,227013,168,284451
26.290,227021,168,284458
26.295,227071,168,284488
26.300,227050,168,284500
26.305,227070,168,284540
26.310,227072,168,284558
26.315,227097,168,284573
26.320,227099,168,284571
26.325,227090,168,284622
26.330,227112,168,284616
26.335,227101,168,284630
26.340,227128,168,284656
26.345,227131,168,284676
26.350,227139,168,284661
26.355,227130,168,284685
26.360,227157,168,284692
26.365,227154,168,284704
26.370,227166,168,284722
26.375,227152,168,284701
26.380,227161,168,284693
26.385,227156,168,284724
26.390,227160,168,284728
26.395,227185,168,284722
26.400,227190,168,284733
26.405,227181,168,284729
26.410,227203,168,284734
26.415,227211,168,284775
26.420,227223,168,284771
26.425,227227,168,284776
26.430,227239,168,284753
26.435,227245,168,284776
26.440,227239,168,284817
26.445,227263,168,284820
26.450,227271,168,284801
26.455,227287,168,284831
26.460,227308,168,284866
26.465,227309,168,284858
26.470,227331,168,284888
26.475,227332,168,284871
26.480,227361,168,284934
26.485,227343,168,284933
26.490,227355,168,284943
26.495,227380,168,284930
26.500,227392,168,284968
26.505,227383,168,284967
26.510,227396,168,284985
26.515,227417,168,284999
26.520,227433,168,285021
26.525,227415,168,285069
26.530,227462,168,285073
26.535,227464,168,285088
26.540,227485,168,285108
26.545,227501,168,285110
26.550,227511,168,285140
26.555,227527,168,285155
26.560,227531,168,285168
26.565,227556,168,285179
26.570,227555,168,285191
26.575,227583,168,285215
26.580,227592,168,285235
26.585,227603,168,285257
26.590,227620,168,285267
26.595,227646,168,285286
26.600,227645,168,285312
26.605,227666,168,285336
26.610,227668,168,285337
26.615,227694,168,285379
26.620,227716,168,285411
26.625,227732,168,285424
26.630,227753,168,285454
26.635,227781,168,285488
26.640,227795,168,285506
26.645,227815,168,285529
26.650,227812,168,285545
26.655,227857,168,285568
26.660,227847,168,285590
26.665,227875,168,285624
26.670,227893,168,285656
26.675,227938,168,285685
26.680,227955,168,285720
26.685,227996,168,285788
26.690,228031,168,285829
26.695,228054,168,285891
26.700,228090,168,285937
26.705,228124,168,286002
26.710,228159,168,286068
26.715,228174,168,286111
26.720,228227,168,286133
26.725,228241,168,286161
26.730,228270,168,286203
26.735,228272,168,286229
26.740,228273,168,286235
26.745,228291,168,286263
26.750,228301,168,286285
26.755,228285,168,286283
26.760,228318,168,286316
26.765,228320,168,286326
26.770,228312,168,286383
26.775,228339,168,286407
26.780,228333,168,286440
26.785,228371,168,286449
26.790,228385,168,286453
26.795,228386,168,286519
26.800,228411,168,286512
26.805,228402,168,286537
26.810,228411,168,286546
26.815,228414,168,286573
26.820,228432,168,286575
26.825,228421,168,286574
26.830,228434,168,286583
26.835,228414,168,286599
26.840,228429,168,286582
26.845,228445,168,286570
26.850,228426,168,286603
26.855,228430,168,286593
26.860,228436,168,286607
26.865,228430,168,286578
26.870,228420,168,286602
26.875,228407,168,286584
26.880,228424,168,286586
26.885,228436,168,286593
26.890,228417,168,286598
26.895,228404,168,286592
26.900,228405,168,286592
26.905,228411,168,286600
26.910,228413,168,286606
26.915,228430,168,286627
26.920,228436,168,286607
26.925,228425,168,286636
26.930,228408,168,286618
26.935,228429,168,286623
26.940,228409,168,286637
26.945,228423,168,286610
26.950,228422,168,286618
26.955,228417,168,286632
26.960,228427,168,286616
26.965,228414,168,286642
26.970,228426,168,286634
26.975,228457,168,286644
26.980,228455,168,286665
26.985,228457,168,286663
26.990,228475,168,286655
26.995,228480,168,286688
27.000,228477,168,286699
27.005,228484,168,286704
27.010,228482,168,286697
27.015,228491,168,286723
27.020,228485,168,286704
27.025,228493,168,286736
27.030,228488,168,286725
27.035,228483,168,286711
27.040,228486,168,286714
27.045,228491,168,286714
27.050,228479,168,286714
27.055,228495,168,286698
27.060,228497,168,286684
27.065,228484,168,286694
27.070,228492,168,286682
27.075,228473,168,286655
27.080,228482,168,286668
27.085,228461,168,286638
27.090,228445,168,286638
27.095,228460,168,286624
27.100,228467,168,286613
27.105,228446,168,286601
27.110,228450,168,286615
27.115,228448,168,286600
27.120,228451,168,286581
27.125,228443,168,286595
27.130,228455,168,286552
27.135,228425,168,286526
27.140,228411,168,286522
27.145,228400,168,286505
27.150,228410,168,286465
27.155,228393,168,286470
27.160,228370,168,286428
27.165,228356,168,286426
27.170,228325,168,286364
27.175,228313,168,286327
27.180,228288,168,286309
27.185,228279,168,286279
27.190,228252,168,286231
27.195,228232,168,286192
27.200,228205,168,286165
27.205,228219,168,286122
27.210,228211,168,286080
27.215,228175,168,286067
27.220,228145,168,286023
27.225,228144,168,285990
27.230,228140,168,285972
27.235,228086,168,285933
27.240,228098,168,285912
27.245,228092,168,285903
27.250,228071,168,285893
27.255,228078,168,285865
27.260,228049,168,285867
27.265,228053,168,285849
27.270,228073,168,285823
27.275,228058,168,285815
27.280,228031,168,285814
27.285,228023,168,285767
27.290,228006,168,285744
27.295,228007,168,285737
27.300,227992,168,285703
27.305,227975,168,285699
27.310,227988,168,285677
27.315,227983,168,285668
27.320,227963,168,285634
27.325,227976,168,285642
27.330,227977,168,285646
27.335,227966,168,285633
27.340,227944,168,285614
27.345,227935,168,285623
27.350,227940,168,285584
27.355,227941,168,285603
27.360,227934,168,285563
27.365,227927,168,285544
27.370,227936,168,285549
27.375,227941,168,285545
27.380,227947,168,285547
27.385,227951,168,285537
27.390,227952,168,285539
27.395,227951,168,285569
27.400,227947,168,285555
27.405,227973,168,285571
27.410,227973,168,285586
27.415,227959,168,285575
27.420,227980,168,285589
27.425,227984,168,285576
27.430,227979,168,285581
27.435,228025,168,285606
27.440,228012,168,285605
27.445,228030,168,285605
27.450,228052,168,285610
27.455,228061,168,285640
27.460,228078,168,285657
27.465,228070,168,285692
27.470,228085,168,285701
27.475,228089,168,285708
27.480,228070,168,285738
27.485,228086,168,285708
27.490,228102,168,285726
27.495,228100,168,285753
27.500,228108,168,285773
27.505,228130,168,285789
27.510,228134,168,285812
27.515,228138,168,285851
27.520,228161,168,285871
27.525,228142,168,285919
27.530,228173,168,285926
27.535,228196,168,285951
27.540,228200,168,285994
27.545,228221,168,286038
27.550,228218,168,286031
27.555,228234,168,286061
27.560,228239,168,286074
27.565,228238,168,286085
27.570,228252,168,286089
27.575,228245,168,286088
27.580,228248,168,286115
27.585,228271,168,286114
27.590,228255,168,286103
27.595,228251,168,286123
27.600,228244,168,286115
27.605,228242,168,286133
27.610,228269,168,286120
27.615,228247,168,286128
27.620,228250,168,286136
27.625,228249,168,286131
27.630,228247,168,286140
27.635,228252,168,286119
27.640,228238,168,286125
27.645,228224,168,286111
27.650,228215,168,286117
27.655,228199,168,286110
27.660,228198,168,286076
27.665,228197,168,286079
27.670,228180,168,286056
27.675,228187,168,286062
27.680,228188,168,286111
27.685,228207,168,286102
27.690,228196,168,286112
27.695,228192,168,286111
27.700,228215,168,286091
27.705,228219,168,286126
27.710,228213,168,286136
27.715,228223,168,286141
27.720,228239,168,286162
27.725,228241,168,286157
27.730,228247,168,286186
27.735,228232,168,286173
27.740,228259,168,286188
27.745,228261,168,286188
27.750,228279,168,286225
27.755,228294,168,286215
27.760,228274,168,286224
27.765,228286,168,286244
27.770,228313,168,286231
27.775,228315,168,286262
27.780,228321,168,286267
27.785,228292,168,286281
27.790,228316,168,286294
27.795,228342,168,286266
27.800,228328,168,286270
27.805,228335,168,286273
27.810,228335,168,286276
27.815,228345,168,286289
27.820,228349,168,286292
27.825,228347,168,286268
27.830,228323,168,286303
27.835,228342,168,286280
27.840,228362,168,286299
27.845,228359,168,286264
27.850,228372,168,286292
27.855,228352,168,286283
27.860,228338,168,286269
27.865,228345,168,286278
27.870,228334,168,286265
27.875,228333,168,286261
27.880,228341,168,286262
27.885,228334,168,286260
27.890,228340,168,286228
27.895,228336,168,286231
27.900,228314,168,286223
27.905,228321,168,286217
27.910,228318,168,286183
27.915,228328,168,286223
27.920,228295,168,286199
27.925,228331,168,286224
27.930,228329,168,286193
27.935,228327,168,286218
27.940,228309,168,286180
27.945,228288,168,286186
27.950,228292,168,286149
27.955,228299,168,286141
27.960,228277,168,286109
27.965,228249,168,286107
27.970,228261,168,286057
27.975,228232,168,286024
27.980,228221,168,286008
27.985,228211,168,285967
27.990,228179,168,285930
27.995,228203,168,285945
28.000,228172,168,285906
28.005,228146,168,285884
28.010,228126,168,285856
28.015,228130,168,285831
28.020,228118,168,285807
28.025,228120,168,285783
28.030,228098,168,285794
28.035,228097,168,285756
28.040,228081,168,285756
28.045,228087,168,285746
28.050,228075,168,285717
28.055,228067,168,285705
28.060,228053,168,285680
28.065,228049,168,285678
28.070,228062,168,285679
28.075,228067,168,285679
28.080,228047,168,285647
28.085,228036,168,285640
28.090,228040,168,285637
28.095,228031,168,285604
28.100,228033,168,285609
28.105,228034,168,285604
28.110,228029,168,285598
28.115,228020,168,285585
28.120,228029,168,285581
28.125,228017,168,285595
28.130,228010,168,285593
28.135,228015,168,285556
28.140,228028,168,285582
28.145,228004,168,285557
28.150,228019,168,285566
28.155,228031,168,285563
28.160,228035,168,285547
28.165,228026,168,285559
28.170,228027,168,285545
28.175,228037,168,285556
28.180,228034,168,285540
28.185,228052,168,285552
28.190,228045,168,285586
28.195,228056,168,285575
28.200,228053,168,285544
28.205,228059,168,285541
28.210,228055,168,285556
28.215,228082,168,285579
28.220,228080,168,285556
28.225,228065,168,285595
28.230,228082,168,285568
28.235,228082,168,285609
28.240,228098,168,285600
28.245,228106,168,285621
28.250,228102,168,285612
28.255,228095,168,285641
28.260,228089,168,285632
28.265,228097,168,285651
28.270,228098,168,285628
28.275,228082,168,285625
28.280,228082,168,285630
28.285,228086,168,285641
28.290,228060,168,285649
28.295,228080,168,285632
28.300,228077,168,285648
28.305,228083,168,285633
28.310,228063,168,285606
28.315,228048,168,285644
28.320,228042,168,285622
28.325,228044,168,285625
28.330,228028,168,285608
28.335,228030,168,285622
28.340,228019,168,285601
28.345,228024,168,285632
28.350,228011,168,285617
28.355,228018,168,285585
28.360,227992,168,285592
28.365,227960,168,285597
28.370,227990,168,285615
28.375,227980,168,285579
28.380,227980,168,285620
28.385,227989,168,285613
28.390,227964,168,285585
28.395,227983,168,285606
28.400,227975,168,285589
28.405,227969,168,285605
28.410,227962,168,285587
28.415,227937,168,285592
28.420,227948,168,285558
28.425,227940,168,285558
28.430,227931,168,285575
28.435,227929,168,285563
28.440,227939,168,285546
28.445,227922,168,285578
28.450,227915,168,285540
28.455,227904,168,285548
28.460,227900,168,285542
28.465,227920,168,285559
28.470,227904,168,285513
28.475,227885,168,285526
28.480,227888,168,285518
28.485,227885,168,285501
28.490,227885,168,285487
28.495,227896,168,285505
28.500,227879,168,285501
28.505,227889,168,285478
28.510,227892,168,285484
28.515,227879,168,285502
28.520,227879,168,285509
28.525,227909,168,285507
28.530,227891,168,285512
28.535,227911,168,285503
28.540,227893,168,285493
28.545,227881,168,285477
28.550,227853,168,285423
28.555,227886,168,285453
28.560,227873,168,285457
28.565,227844,168,285422
28.570,227851,168,285447
28.575,227846,168,285431
28.580,227863,168,285426
28.585,227842,168,285408
28.590,227842,168,285414
28.595,227837,168,285402
28.600,227853,168,285370
28.605,227832,168,285380
28.610,227826,168,285367
