df_hash,22ZHK4.YPQ43H
device,HZ2X61
project_hash,29R7
project_name,istanbul_aydin_university
person_hash,29R7.8438
person_label,V24
date_time_start,2025-08-05_11-36-03.957000_+03
date_time_start_unix,1754375763.957
date_time_end,2025-08-05_11-44-20.112000_+03
length_difference_noticed,no

time,ppg_ir,ppg_ambient,ppg_red
5.012,142841,176,132171
5.017,142871,185,132195
5.022,142882,178,132216
5.027,142884,185,132211
5.032,142895,176,132252
5.037,142922,187,132255
5.042,142952,176,132314
5.047,143005,187,132359
5.052,143044,178,132422
5.057,143102,183,132476
5.062,143153,180,132525
5.066,143205,183,132588
5.071,143249,182,132633
5.076,143301,184,132676
5.081,143374,180,132736
5.086,143396,182,132800
5.091,143438,183,132836
5.096,143457,182,132890
5.101,143497,180,132926
5.106,143528,184,132979
5.111,143560,182,133032
5.116,143599,180,133070
5.121,143640,184,133129
5.126,143680,181,133187
5.131,143712,183,133235
5.136,143748,179,133274
5.141,143761,186,133322
5.146,143797,180,133351
5.151,143828,182,133393
5.156,143873,181,133440
5.161,143909,184,133479
5.166,143957,176,133517
5.171,143990,186,133550
5.176,144003,177,133579
5.181,144026,185,133609
5.186,144044,176,133628
5.191,144070,187,133648
5.195,144071,177,133663
5.200,144116,184,133706
5.205,144116,178,133719
5.210,144157,186,133746
5.215,144160,174,133772
5.220,144194,187,133799
5.225,144213,175,133810
5.230,144231,184,133825
5.235,144237,176,133852
5.240,144248,185,133864
5.245,144269,176,133884
5.250,144254,187,133878
5.255,144274,176,133888
5.260,144280,187,133888
5.265,144279,177,133914
5.270,144302,189,133939
5.275,144332,172,133938
5.280,144340,188,133964
5.285,144355,176,133982
5.290,144377,189,133999
5.295,144396,172,134002
5.300,144416,191,134046
5.305,144441,172,134055
5.310,144444,192,134059
5.315,144459,173,134092
5.320,144479,188,134102
5.324,144478,175,134111
5.329,144483,191,134124
5.334,144500,172,134127
5.339,144492,188,134115
5.344,144511,173,134139
5.349,144484,190,134115
5.354,144481,174,134117
5.359,144509,191,134106
5.364,144481,171,134113
5.369,144475,193,134123
5.374,144516,174,134128
5.379,144499,192,134118
5.384,144503,172,134123
5.389,144498,193,134126
5.394,144500,173,134130
5.399,144507,190,134134
5.404,144496,175,134126
5.409,144507,192,134132
5.414,144488,171,134131
5.419,144493,193,134114
5.424,144495,171,134108
5.429,144492,192,134109
5.434,144501,171,134122
5.439,144491,193,134134
5.444,144510,172,134118
5.449,144513,188,134132
5.454,144523,174,134130
5.458,144509,190,134133
5.463,144525,171,134137
5.468,144515,192,134128
5.473,144532,172,134133
5.478,144506,189,134124
5.483,144504,171,134132
5.488,144517,191,134128
5.493,144507,173,134115
5.498,144510,187,134120
5.503,144511,175,134120
5.508,144511,189,134119
5.513,144527,172,134128
5.518,144523,190,134127
5.523,144538,172,134134
5.528,144548,190,134122
5.533,144537,174,134127
5.538,144545,185,134122
5.543,144548,176,134125
5.548,144554,187,134134
5.553,144551,178,134120
5.558,144554,187,134135
5.563,144554,174,134142
5.568,144573,188,134138
5.573,144550,174,134136
5.578,144564,187,134130
5.583,144563,175,134144
5.587,144559,188,134131
5.592,144562,178,134130
5.597,144567,184,134128
5.602,144553,181,134135
5.607,144567,185,134120
5.612,144575,177,134125
5.617,144551,187,134097
5.622,144564,181,134120
5.627,144544,183,134109
5.632,144562,178,134124
5.637,144550,185,134116
5.642,144541,179,134126
5.647,144525,180,134115
5.652,144523,181,134106
5.657,144514,181,134098
5.662,144490,183,134077
5.667,144476,182,134069
5.672,144458,182,134067
5.677,144446,180,134064
5.682,144428,179,134060
5.687,144437,180,134048
5.692,144426,181,134044
5.697,144401,182,134046
5.702,144407,183,134036
5.707,144427,177,134046
5.712,144409,185,134028
5.716,144426,181,134050
5.721,144411,184,134044
5.726,144417,176,134040
5.731,144412,186,134051
5.736,144403,177,134034
5.741,144396,183,134031
5.746,144402,178,134034
5.751,144416,184,134038
5.756,144404,179,134040
5.761,144418,186,134021
5.766,144395,177,134020
5.771,144390,184,134011
5.776,144372,177,134006
5.781,144368,186,134023
5.786,144366,173,134000
5.791,144382,188,134012
5.796,144372,173,134005
5.801,144383,185,134006
5.806,144382,175,134002
5.811,144384,186,134000
5.816,144392,171,134009
5.821,144398,188,134024
5.826,144394,172,134037
5.831,144414,189,134041
5.836,144422,173,134038
5.841,144422,191,134043
5.845,144423,173,134035
5.850,144432,191,134043
5.855,144421,173,134033
5.860,144410,187,134025
5.865,144412,174,134028
5.870,144399,189,134017
5.875,144407,171,134012
5.880,144394,190,134017
5.885,144387,171,133996
5.890,144392,190,134006
5.895,144379,171,134004
5.900,144385,190,134011
5.905,144392,171,134015
5.910,144403,192,134020
5.915,144416,174,134024
5.920,144416,189,134024
5.925,144418,174,134036
5.930,144411,190,134033
5.935,144400,175,134024
5.940,144406,191,134021
5.945,144401,171,134019
5.950,144395,192,133999
5.955,144395,171,134006
5.960,144399,187,134006
5.965,144417,175,134013
5.970,144412,191,134005
5.974,144415,171,134017
5.979,144423,193,134030
5.984,144434,173,134016
5.989,144431,190,134018
5.994,144434,175,134023
5.999,144430,192,134027
6.004,144441,173,134024
6.009,144428,191,134017
6.014,144413,172,134034
6.019,144400,193,134004
6.024,144421,173,133990
6.029,144405,189,133996
6.034,144403,176,134007
6.039,144414,191,134008
6.044,144429,174,134028
6.049,144433,188,134017
6.054,144443,176,134036
6.059,144439,187,134024
6.064,144459,176,134020
6.069,144462,189,134035
6.074,144442,173,134033
6.079,144453,186,134031
6.084,144459,176,134019
6.089,144461,187,134021
6.094,144474,173,134030
6.099,144462,189,134011
6.103,144458,175,134015
6.108,144456,188,134026
6.113,144465,175,134013
6.118,144460,184,134022
6.123,144469,178,134025
6.128,144468,185,134025
6.133,144467,175,134020
6.138,144464,188,134017
6.143,144464,179,134001
6.148,144463,185,133998
6.153,144436,176,134001
6.158,144450,187,133986
6.163,144446,179,133986
6.168,144442,183,133984
6.173,144432,177,133988
6.178,144420,184,133977
6.183,144409,179,133975
6.188,144402,181,133962
6.193,144364,181,133954
6.198,144351,182,133926
6.203,144348,179,133902
6.208,144302,181,133895
6.213,144294,178,133882
6.218,144289,182,133868
6.223,144269,180,133859
6.228,144261,179,133852
6.232,144264,184,133862
6.237,144250,180,133857
6.242,144260,181,133872
6.247,144276,182,133871
6.252,144245,183,133862
6.257,144272,181,133862
6.262,144257,183,133861
6.267,144267,177,133857
6.272,144243,185,133861
6.277,144241,178,133843
6.282,144223,182,133835
6.287,144237,179,133833
6.292,144218,184,133833
6.297,144222,175,133818
6.302,144207,184,133813
6.307,144219,174,133802
6.312,144207,186,133809
6.317,144203,175,133817
6.322,144207,188,133807
6.327,144201,175,133815
6.332,144198,184,133795
6.337,144190,176,133812
6.342,144194,185,133810
6.347,144200,176,133805
6.352,144212,189,133817
6.357,144211,174,133818
6.361,144216,185,133817
6.366,144196,176,133813
6.371,144221,187,133816
6.376,144224,172,133816
6.381,144231,189,133820
6.386,144236,172,133810
6.391,144233,190,133818
6.396,144246,173,133811
6.401,144233,189,133819
6.406,144226,172,133826
6.411,144217,191,133814
6.416,144222,173,133806
6.421,144207,187,133813
6.426,144216,175,133810
6.431,144221,189,133820
6.436,144215,171,133803
6.441,144240,192,133822
6.446,144217,173,133816
6.451,144218,192,133820
6.456,144230,173,133823
6.461,144221,189,133801
6.466,144208,171,133802
6.471,144206,192,133787
6.476,144193,173,133792
6.481,144189,189,133772
6.486,144186,175,133781
6.490,144189,191,133761
6.495,144194,172,133778
6.500,144190,191,133765
6.505,144199,171,133780
6.510,144201,193,133778
6.515,144214,173,133770
6.520,144208,190,133779
6.525,144188,175,133779
6.530,144211,191,133770
6.535,144212,172,133776
6.540,144209,189,133782
6.545,144192,171,133801
6.550,144221,189,133786
6.555,144229,174,133799
6.560,144239,191,133799
6.565,144223,171,133808
6.570,144245,188,133800
6.575,144241,174,133804
6.580,144252,191,133780
6.585,144243,172,133803
6.590,144243,188,133810
6.595,144253,173,133811
6.600,144273,191,133811
6.605,144283,173,133828
6.610,144289,189,133826
6.615,144281,176,133829
6.619,144303,190,133828
6.624,144290,173,133832
6.629,144295,188,133830
6.634,144293,172,133843
6.639,144299,190,133830
6.644,144296,172,133833
6.649,144296,190,133834
6.654,144305,174,133832
6.659,144310,186,133838
6.664,144313,177,133842
6.669,144318,188,133854
6.674,144333,174,133844
6.679,144322,185,133847
6.684,144325,177,133821
6.689,144324,186,133833
6.694,144311,177,133830
6.699,144322,186,133824
6.704,144323,174,133823
6.709,144327,188,133818
6.714,144328,178,133836
6.719,144312,185,133817
6.724,144294,176,133802
6.729,144281,182,133790
6.734,144268,179,133803
6.739,144277,184,133806
6.744,144255,177,133779
6.748,144240,181,133777
6.753,144224,180,133773
6.758,144209,183,133760
6.763,144151,177,133752
6.768,144181,185,133746
6.773,144169,180,133739
6.778,144167,180,133736
6.783,144156,183,133730
6.788,144160,182,133750
6.793,144160,182,133747
6.798,144174,180,133747
6.803,144172,179,133739
6.808,144170,182,133749
6.813,144164,181,133743
6.818,144154,177,133745
6.823,144162,183,133721
6.828,144149,179,133725
6.833,144136,180,133721
6.838,144169,176,133726
6.843,144140,186,133717
6.848,144128,179,133721
6.853,144134,182,133720
6.858,144135,181,133709
6.863,144112,184,133717
6.868,144121,176,133696
6.873,144113,187,133694
6.877,144120,177,133695
6.882,144117,183,133705
6.887,144120,176,133713
6.892,144118,183,133710
6.897,144119,177,133705
6.902,144131,185,133708
6.907,144117,174,133703
6.912,144112,188,133696
6.917,144126,176,133709
6.922,144131,185,133709
6.927,144143,172,133713
6.932,144145,188,133702
6.937,144146,177,133720
6.942,144155,187,133712
6.947,144153,173,133736
6.952,144166,185,133725
6.957,144154,175,133731
6.962,144151,188,133717
6.967,144152,172,133723
6.972,144137,191,133722
6.977,144146,174,133723
6.982,144140,188,133725
6.987,144160,172,133714
6.992,144148,187,133719
6.997,144163,175,133720
7.002,144133,189,133714
7.006,144138,172,133693
7.011,144115,187,133688
7.016,144116,175,133671
7.021,144101,189,133675
7.026,144110,172,133693
7.031,144117,192,133682
7.036,144117,171,133693
7.041,144126,191,133680
7.046,144129,172,133691
7.051,144121,188,133676
7.056,144101,173,133670
7.061,144096,189,133653
7.066,144077,174,133650
7.071,144088,190,133632
7.076,144066,171,133627
7.081,144058,190,133659
7.086,144068,170,133619
7.091,144075,191,133631
7.096,144085,171,133644
7.101,144104,193,133634
7.106,144098,172,133643
7.111,144094,189,133647
7.116,144101,174,133629
7.121,144096,191,133635
7.126,144094,171,133633
7.131,144122,189,133641
7.135,144114,171,133647
7.140,144111,192,133669
7.145,144125,173,133669
7.150,144128,189,133663
7.155,144116,170,133665
7.160,144112,192,133647
7.165,144109,173,133652
7.170,144117,188,133645
7.175,144121,175,133664
7.180,144128,188,133667
7.185,144147,175,133674
7.190,144155,189,133681
7.195,144160,171,133680
7.200,144160,190,133664
7.205,144162,174,133654
7.210,144136,187,133645
7.215,144115,176,133645
7.220,144120,188,133623
7.225,144131,173,133630
7.230,144142,187,133655
7.235,144148,172,133660
7.240,144167,189,133669
7.245,144183,174,133674
7.250,144176,185,133672
7.255,144183,176,133673
7.260,144188,186,133659
7.264,144174,173,133656
7.269,144151,187,133648
7.274,144150,175,133637
7.279,144146,184,133621
7.284,144150,178,133628
7.289,144130,184,133619
7.294,144116,180,133632
7.299,144132,185,133629
7.304,144130,176,133639
7.309,144124,187,133632
7.314,144109,179,133627
7.319,144120,182,133624
7.324,144108,176,133616
7.329,144065,185,133604
7.334,144051,178,133585
7.339,144025,180,133573
7.344,143995,181,133563
7.349,143991,182,133552
7.354,143972,178,133530
7.359,143968,183,133544
7.364,143989,181,133542
7.369,143979,180,133549
7.374,143998,185,133581
7.379,143978,178,133545
7.384,143992,182,133541
7.389,143998,179,133559
7.393,143990,184,133555
7.398,144006,180,133545
7.403,143978,181,133544
7.408,143978,176,133527
7.413,143964,185,133524
7.418,143967,179,133515
7.423,143981,185,133508
7.428,143941,179,133493
7.433,143931,183,133516
7.438,143933,176,133495
7.443,143930,181,133497
7.448,143921,178,133481
7.453,143916,185,133467
7.458,143896,176,133462
7.463,143904,184,133472
7.468,143906,174,133472
7.473,143909,185,133471
7.478,143914,174,133481
7.483,143908,188,133475
7.488,143927,175,133483
7.493,143921,184,133480
7.498,143925,177,133467
7.503,143921,186,133478
7.508,143928,173,133474
7.513,143930,188,133470
7.518,143938,173,133482
7.522,143943,187,133483
7.527,143939,173,133482
7.532,143918,185,133485
7.537,143926,174,133480
7.542,143926,187,133459
7.547,143913,172,133468
7.552,143922,190,133469
7.557,143918,174,133471
7.562,143917,187,133472
7.567,143934,175,133467
7.572,143937,186,133478
7.577,143930,173,133476
7.582,143936,188,133472
7.587,143931,175,133486
7.592,143935,190,133488
7.597,143940,171,133480
7.602,143934,192,133460
7.607,143923,173,133459
7.612,143913,189,133453
7.617,143936,171,133465
7.622,143928,189,133465
7.627,143938,174,133476
7.632,143944,190,133485
7.637,143945,171,133489
7.642,143958,192,133490
7.647,143954,172,133479
7.651,143950,188,133478
7.656,143940,173,133455
7.661,143932,190,133464
7.666,143949,172,133501
7.671,143935,193,133477
7.676,143951,173,133475
7.681,143956,190,133468
7.686,143967,175,133482
7.691,143973,191,133488
7.696,143980,171,133491
7.701,143974,192,133482
7.706,143971,171,133500
7.711,143987,194,133501
7.716,143966,175,133502
7.721,143983,191,133502
7.726,143984,172,133498
7.731,143978,193,133485
7.736,143986,173,133485
7.741,143978,188,133487
7.746,143983,174,133487
7.751,143991,190,133501
7.756,144001,172,133501
7.761,144027,191,133504
7.766,144008,175,133511
7.771,144018,189,133504
7.776,144010,172,133521
7.780,144035,192,133510
7.785,144024,174,133517
7.790,144016,187,133505
7.795,144018,176,133517
7.800,144025,188,133502
7.805,144023,174,133500
7.810,144043,191,133511
7.815,144045,173,133531
7.820,144045,189,133522
7.825,144055,175,133522
7.830,144050,184,133526
7.835,144048,178,133531
7.840,144041,186,133532
7.845,144070,175,133527
7.850,144058,188,133523
7.855,144057,178,133509
7.860,144053,184,133513
7.865,144045,178,133515
7.870,144054,184,133517
7.875,144049,181,133517
7.880,144042,184,133522
7.885,144044,177,133505
7.890,144045,185,133510
7.895,144039,179,133501
7.900,144006,181,133509
7.905,143997,181,133494
7.909,143962,182,133461
7.914,143956,182,133455
7.919,143939,182,133430
7.924,143923,179,133422
7.929,143922,184,133432
7.934,143903,181,133417
7.939,143917,180,133437
7.944,143907,179,133433
7.949,143905,182,133438
7.954,143919,182,133438
7.959,143904,181,133459
7.964,143920,183,133432
7.969,143914,178,133446
7.974,143915,180,133442
7.979,143905,180,133430
7.984,143902,182,133418
7.989,143907,176,133426
7.994,143894,185,133424
7.999,143886,177,133398
8.004,143874,182,133391
8.009,143873,176,133396
8.014,143869,187,133405
8.019,143875,178,133406
8.024,143873,184,133402
8.029,143879,174,133413
8.034,143885,187,133411
8.038,143881,175,133400
8.043,143884,184,133416
8.048,143874,177,133408
8.053,143874,186,133406
8.058,143873,176,133411
8.063,143865,186,133412
8.068,143887,177,133404
8.073,143865,187,133419
8.078,143889,173,133407
8.083,143884,189,133416
8.088,143892,174,133425
8.093,143897,186,133414
8.098,143897,176,133416
8.103,143897,189,133416
8.108,143921,170,133415
8.113,143887,186,133420
8.118,143907,174,133403
8.123,143897,188,133416
8.128,143887,171,133415
8.133,143892,190,133403
8.138,143884,172,133410
8.143,143907,192,133419
8.148,143897,173,133424
8.153,143896,188,133429
8.158,143901,172,133421
8.163,143924,188,133434
8.167,143914,173,133418
8.172,143893,189,133414
8.177,143899,173,133426
8.182,143909,190,133420
8.187,143905,170,133422
8.192,143912,191,133430
8.197,143923,171,133438
8.202,143920,188,133424
8.207,143929,174,133427
8.212,143913,190,133447
8.217,143939,171,133424
8.222,143927,193,133435
8.227,143930,173,133444
8.232,143922,190,133434
8.237,143925,175,133441
8.242,143933,191,133436
8.247,143937,171,133437
8.252,143938,191,133414
8.257,143934,171,133428
8.262,143941,193,133440
8.267,143932,173,133435
8.272,143942,189,133425
8.277,143929,175,133424
8.282,143935,191,133427
8.287,143948,172,133441
8.292,143950,189,133457
8.296,143968,174,133457
8.301,143973,192,133472
8.306,143990,173,133468
8.311,143990,189,133464
8.316,143985,171,133477
8.321,143987,191,133475
8.326,143997,174,133464
8.331,144005,188,133460
8.336,143978,176,133465
8.341,143996,189,133470
8.346,144011,173,133478
8.351,144015,188,133476
8.356,144018,172,133483
8.361,144024,189,133498
8.366,144026,174,133485
8.371,144033,185,133497
8.376,144020,177,133493
8.381,144031,187,133487
8.386,144036,174,133501
8.391,144048,189,133508
8.396,144050,176,133512
8.401,144054,185,133497
8.406,144049,174,133487
8.411,144035,188,133510
8.416,144048,177,133504
8.421,144068,184,133508
8.425,144069,174,133508
8.430,144055,186,133510
8.435,144066,177,133516
8.440,144057,182,133524
8.445,144045,179,133513
8.450,144044,186,133497
8.455,144036,179,133492
8.460,144005,182,133491
8.465,144013,177,133484
8.470,143999,185,133487
8.475,143973,180,133459
8.480,143970,180,133469
8.485,143962,183,133451
8.490,143975,181,133465
8.495,143952,180,133443
8.500,143948,182,133442
8.505,143946,180,133444
8.510,143933,178,133451
8.515,143923,183,133429
8.520,143927,179,133432
8.525,143929,179,133449
8.530,143924,180,133440
8.535,143934,182,133453
8.540,143940,181,133455
8.545,143935,186,133410
8.550,143936,180,133447
8.554,143937,183,133448
8.559,143937,176,133452
8.564,143927,186,133456
8.569,143931,177,133451
8.574,143924,183,133446
8.579,143932,175,133452
8.584,143931,186,133443
8.589,143908,176,133433
8.594,143901,186,133437
8.599,143916,176,133422
8.604,143910,184,133429
8.609,143935,178,133418
8.614,143919,187,133438
8.619,143931,174,133438
8.624,143933,185,133440
8.629,143946,176,133452
8.634,143953,187,133451
8.639,143938,172,133434
8.644,143947,186,133443
8.649,143944,172,133461
8.654,143949,189,133454
8.659,143941,173,133453
8.664,143965,191,133455
8.669,143953,174,133469
8.674,143956,187,133472
8.679,143959,174,133467
8.683,143969,188,133468
8.688,143972,171,133473
8.693,143973,187,133474
8.698,143967,175,133482
8.703,143986,189,133472
8.708,143982,171,133484
8.713,143978,191,133470
8.718,143958,172,133476
8.723,143972,188,133461
8.728,143973,174,133470
8.733,143974,190,133461
8.738,143984,171,133460
8.743,143954,189,133458
8.748,143971,174,133467
8.753,143964,191,133467
8.758,143977,171,133484
8.763,143985,192,133476
8.768,143990,171,133485
8.773,143987,189,133479
8.778,144011,173,133490
8.783,144005,190,133484
8.788,144012,170,133496
8.793,143999,192,133487
8.798,143996,172,133497
8.803,143994,189,133469
8.808,143982,174,133471
8.812,143990,191,133464
8.817,143986,172,133471
8.822,144009,189,133480
8.827,143992,173,133478
8.832,144003,191,133493
8.837,144014,173,133479
8.842,144035,193,133475
8.847,144021,173,133493
8.852,144018,190,133488
8.857,144022,175,133491
8.862,144028,191,133497
8.867,144040,173,133499
8.872,144043,188,133501
8.877,144066,176,133506
8.882,144072,190,133535
8.887,144070,174,133539
8.892,144062,190,133527
8.897,144086,172,133523
8.902,144078,191,133531
8.907,144083,173,133540
8.912,144083,187,133525
8.917,144068,176,133536
8.922,144086,189,133533
8.927,144098,174,133542
8.932,144098,186,133544
8.937,144115,173,133556
8.941,144113,190,133554
8.946,144104,177,133539
8.951,144103,187,133538
8.956,144102,174,133545
8.961,144109,188,133539
8.966,144122,176,133555
8.971,144121,184,133552
8.976,144137,179,133564
8.981,144135,185,133553
8.986,144135,179,133563
8.991,144135,185,133560
8.996,144150,176,133564
9.001,144148,187,133554
9.006,144144,178,133552
9.011,144125,182,133539
9.016,144123,181,133536
9.021,144113,184,133545
9.026,144122,178,133544
9.031,144108,183,133535
9.036,144097,178,133543
9.041,144076,185,133517
9.046,144071,180,133520
9.051,144050,180,133511
9.056,144044,184,133504
9.061,144039,181,133506
9.066,144028,180,133506
9.070,144016,183,133511
9.075,144020,182,133495
9.080,144002,178,133490
9.085,144016,182,133495
9.090,144007,177,133487
9.095,144001,185,133496
9.100,143997,179,133495
9.105,144002,182,133491
9.110,144016,176,133509
9.115,144007,185,133507
9.120,144005,177,133487
9.125,144015,182,133503
9.130,144011,178,133492
9.135,143993,182,133478
9.140,143996,178,133496
9.145,143981,184,133476
9.150,143980,175,133468
9.155,143956,187,133460
9.160,143958,176,133459
9.165,143964,184,133457
9.170,143954,173,133442
9.175,143956,187,133447
9.180,143963,177,133463
9.185,143963,186,133473
9.190,143981,174,133466
9.195,143972,185,133477
9.199,143967,176,133482
9.204,143973,187,133466
9.209,143973,172,133467
9.214,143970,189,133469
9.219,143962,173,133465
9.224,143983,186,133470
9.229,143986,172,133497
9.234,143987,190,133476
9.239,143986,173,133493
9.244,143988,187,133479
9.249,143989,176,133469
9.254,144000,190,133484
9.259,143989,172,133481
9.264,143997,192,133495
9.269,143996,173,133483
9.274,143995,188,133492
9.279,144017,172,133490
9.284,144000,187,133486
9.289,144008,174,133492
9.294,144009,189,133490
9.299,144008,175,133489
9.304,143987,190,133477
9.309,143998,171,133478
9.314,143988,192,133468
9.319,144011,172,133488
9.324,144004,189,133493
9.328,144008,171,133488
9.333,144006,192,133495
9.338,144013,172,133499
9.343,144017,188,133503
9.348,144019,173,133496
9.353,144009,190,133493
9.358,144014,170,133501
9.363,144023,192,133502
9.368,144038,172,133510
9.373,144042,189,133508
9.378,144049,171,133523
9.383,144054,189,133517
9.388,144043,173,133526
9.393,144039,191,133521
9.398,144059,171,133530
9.403,144050,193,133520
9.408,144064,173,133534
9.413,144057,189,133536
9.418,144058,175,133540
9.423,144061,195,133527
9.428,144055,174,133523
9.433,144062,190,133528
9.438,144079,172,133551
9.443,144086,192,133564
9.448,144123,173,133560
9.453,144110,188,133579
9.457,144126,176,133568
9.462,144129,189,133593
9.467,144121,173,133572
9.472,144135,189,133580
9.477,144138,176,133566
9.482,144144,188,133575
9.487,144148,173,133580
9.492,144165,190,133607
9.497,144158,176,133607
9.502,144178,187,133615
9.507,144173,173,133622
9.512,144175,188,133617
9.517,144189,175,133620
9.522,144184,188,133611
9.527,144184,176,133602
9.532,144184,185,133612
9.537,144184,179,133612
9.542,144189,187,133612
9.547,144214,176,133630
9.552,144203,183,133634
9.557,144226,179,133652
9.562,144224,184,133633
9.567,144229,176,133626
9.572,144233,183,133639
9.577,144247,181,133651
9.582,144248,184,133651
9.586,144237,178,133656
9.591,144260,185,133648
9.596,144240,179,133636
9.601,144237,180,133639
9.606,144221,182,133633
9.611,144219,180,133620
9.616,144200,184,133627
9.621,144190,179,133609
9.626,144170,183,133623
9.631,144188,180,133610
9.636,144168,180,133609
9.641,144170,182,133596
9.646,144147,182,133591
9.651,144140,177,133596
9.656,144141,185,133595
9.661,144133,179,133589
9.666,144134,182,133595
9.671,144137,178,133593
9.676,144136,182,133599
9.681,144138,180,133596
9.686,144129,184,133597
9.691,144121,176,133602
9.696,144132,186,133593
9.701,144128,177,133599
9.706,144120,183,133589
9.711,144126,178,133584
9.715,144097,188,133586
9.720,144130,175,133588
9.725,144105,183,133585
9.730,144108,176,133575
9.735,144121,186,133583
9.740,144130,172,133596
9.745,144111,188,133579
9.750,144094,174,133591
9.755,144099,185,133588
9.760,144103,177,133580
9.765,144056,185,133565
9.770,144094,175,133579
9.775,144089,187,133582
9.780,144101,172,133567
9.785,144114,189,133580
9.790,144110,173,133585
9.795,144122,186,133594
9.800,144121,175,133604
9.805,144130,188,133604
9.810,144148,171,133616
9.815,144153,188,133617
9.820,144153,175,133620
9.825,144167,190,133631
9.830,144155,172,133639
9.835,144186,186,133640
9.840,144166,174,133634
9.844,144165,190,133630
9.849,144155,171,133630
9.854,144155,187,133611
9.859,144155,174,133621
9.864,144167,188,133640
9.869,144161,174,133618
9.874,144187,190,133636
9.879,144181,170,133641
9.884,144179,193,133650
9.889,144184,173,133646
9.894,144190,190,133639
9.899,144171,170,133625
9.904,144168,192,133630
9.909,144159,170,133638
9.914,144192,185,133633
9.919,144172,175,133635
9.924,144163,191,133629
9.929,144169,171,133620
9.934,144177,193,133637
9.939,144179,172,133644
9.944,144180,189,133635
9.949,144187,174,133644
9.954,144189,190,133634
9.959,144185,171,133645
9.964,144183,190,133643
9.969,144182,170,133638
9.973,144193,192,133638
9.978,144200,172,133637
9.983,144189,188,133640
9.988,144193,174,133636
9.993,144181,189,133639
9.998,144200,171,133649
10.003,144220,191,133642
10.008,144214,173,133647
10.013,144241,190,133648
10.018,144236,172,133672
10.023,144236,187,133671
10.028,144227,175,133665
10.033,144225,187,133659
10.038,144233,177,133664
10.043,144237,189,133665
10.048,144243,174,133673
10.053,144239,190,133671
10.058,144241,173,133670
10.063,144240,188,133671
10.068,144239,175,133668
10.073,144242,185,133672
10.078,144259,178,133681
10.083,144263,187,133693
10.088,144268,175,133682
10.093,144289,188,133696
10.098,144280,177,133699
10.102,144289,183,133696
10.107,144300,176,133700
10.112,144299,182,133696
10.117,144294,179,133705
10.122,144288,183,133691
10.127,144292,175,133691
10.132,144277,184,133678
10.137,144302,177,133685
10.142,144306,185,133688
10.147,144305,180,133690
10.152,144314,180,133697
10.157,144331,178,133721
10.162,144317,185,133701
10.167,144314,180,133689
10.172,144310,180,133680
10.177,144312,184,133679
10.182,144307,181,133686
10.187,144307,179,133685
10.192,144297,182,133702
10.197,144305,181,133685
10.202,144300,175,133689
10.207,144292,184,133669
10.212,144252,180,133679
10.217,144244,182,133654
10.222,144219,181,133641
10.227,144204,183,133624
10.231,144182,177,133623
10.236,144178,186,133614
10.241,144196,177,133618
10.246,144183,182,133622
10.251,144184,179,133632
10.256,144189,182,133635
10.261,144180,177,133639
10.266,144198,183,133627
10.271,144176,174,133621
10.276,144175,187,133619
10.281,144159,175,133621
10.286,144156,183,133610
10.291,144155,176,133606
10.296,144163,185,133612
10.301,144176,171,133626
10.306,144175,189,133636
10.311,144171,175,133630
10.316,144170,185,133627
10.321,144184,175,133628
10.326,144181,186,133634
10.331,144178,172,133629
10.336,144166,189,133623
10.341,144157,173,133623
10.346,144156,190,133612
10.351,144149,172,133617
10.356,144156,189,133608
10.360,144144,173,133612
10.365,144150,187,133596
10.370,144153,174,133612
10.375,144151,188,133605
10.380,144157,175,133621
10.385,144185,189,133624
10.390,144178,171,133614
10.395,144186,191,133635
10.400,144198,171,133646
10.405,144203,190,133656
10.410,144208,171,133645
10.415,144217,192,133633
10.420,144206,173,133659
10.425,144214,189,133671
10.430,144222,175,133660
10.435,144213,190,133661
10.440,144228,171,133661
10.445,144218,192,133672
10.450,144236,171,133685
10.455,144236,192,133679
10.460,144258,171,133704
10.465,144258,188,133721
10.470,144288,173,133751
10.475,144289,189,133744
10.480,144301,174,133746
10.485,144309,191,133758
10.489,144319,171,133782
10.494,144330,190,133805
10.499,144349,170,133807
10.504,144361,191,133817
10.509,144388,171,133861
10.514,144402,192,133866
10.519,144414,172,133892
10.524,144442,188,133919
10.529,144449,174,133920
10.534,144465,189,133926
10.539,144497,175,133952
10.544,144503,189,133972
10.549,144519,173,133988
10.554,144528,187,133997
10.559,144556,175,134012
10.564,144578,188,134039
10.569,144593,176,134056
10.574,144610,188,134079
10.579,144637,172,134100
10.584,144665,190,134126
10.589,144675,174,134145
10.594,144706,186,134172
10.599,144725,172,134179
10.604,144743,189,134205
10.609,144760,174,134223
10.614,144786,185,134242
10.618,144806,177,134264
10.623,144823,186,134292
10.628,144846,174,134292
10.633,144846,187,134310
10.638,144884,175,134313
10.643,144886,185,134354
10.648,144911,174,134361
10.653,144928,186,134363
10.658,144937,176,134378
10.663,144960,182,134395
10.668,144985,178,134417
10.673,145009,183,134444
10.678,145013,175,134453
10.683,145045,184,134495
10.688,145063,176,134487
10.693,145085,182,134528
10.698,145094,176,134545
10.703,145138,184,134558
10.708,145149,178,134591
10.713,145178,178,134606
10.718,145193,181,134625
10.723,145203,180,134635
10.728,145214,178,134650
10.733,145220,182,134656
10.738,145243,181,134679
10.743,145266,181,134697
10.747,145284,180,134733
10.752,145325,177,134758
10.757,145334,184,134764
10.762,145337,178,134785
10.767,145352,180,134807
10.772,145366,180,134836
10.777,145376,182,134862
10.782,145395,175,134885
10.787,145417,182,134898
10.792,145421,179,134916
10.797,145422,182,134940
10.802,145439,174,134955
10.807,145464,185,134965
10.812,145465,176,134996
10.817,145493,181,135021
10.822,145514,177,135046
10.827,145537,183,135085
10.832,145553,173,135109
10.837,145577,185,135110
10.842,145586,176,135132
10.847,145601,184,135166
10.852,145616,171,135186
10.857,145648,186,135191
10.862,145673,172,135241
10.867,145702,187,135274
10.872,145747,172,135316
10.876,145773,183,135341
10.881,145810,174,135383
10.886,145815,186,135403
10.891,145842,173,135418
10.896,145848,184,135441
10.901,145886,174,135452
10.906,145897,187,135483
10.911,145929,171,135508
10.916,145942,189,135538
10.921,145972,171,135570
10.926,145987,185,135584
10.931,146015,173,135613
10.936,146038,189,135620
10.941,146040,172,135631
10.946,146041,186,135630
10.951,146043,173,135654
10.956,146069,188,135673
10.961,146094,170,135678
10.966,146092,190,135699
10.971,146129,171,135725
10.976,146143,187,135743
10.981,146160,173,135757
10.986,146176,186,135776
10.991,146192,172,135792
10.996,146222,188,135828
11.001,146255,170,135840
11.005,146264,190,135864
11.010,146264,171,135878
11.015,146273,187,135866
11.020,146273,173,135866
11.025,146269,188,135884
11.030,146280,170,135880
11.035,146279,189,135890
11.040,146282,171,135892
11.045,146280,186,135903
11.050,146312,172,135918
11.055,146316,188,135936
11.060,146329,170,135940
11.065,146315,190,135943
11.070,146339,171,135964
11.075,146353,186,135965
11.080,146356,173,135982
11.085,146348,190,135986
11.090,146354,172,135962
11.095,146343,186,135963
11.100,146339,174,135964
11.105,146361,188,135965
11.110,146366,171,135985
11.115,146361,189,135982
11.120,146355,173,135973
11.125,146348,185,135977
11.130,146351,175,135969
11.134,146341,185,135951
11.139,146338,174,135936
11.144,146331,185,135960
11.149,146352,175,135952
11.154,146356,186,135956
11.159,146360,172,135973
11.164,146351,187,135975
11.169,146376,174,135971
11.174,146369,183,135976
11.179,146368,173,135970
11.184,146360,186,135967
11.189,146366,174,135966
11.194,146363,187,135955
11.199,146363,175,135948
11.204,146360,182,135951
11.209,146351,177,135941
11.214,146349,183,135938
11.219,146343,174,135925
11.224,146324,184,135909
11.229,146322,178,135895
11.234,146307,182,135888
11.239,146299,176,135851
11.244,146261,184,135815
11.249,146235,178,135806
11.254,146227,180,135776
11.259,146215,181,135771
11.263,146201,181,135758
11.268,146177,178,135721
11.273,146173,183,135705
11.278,146164,178,135689
11.283,146137,180,135666
11.288,146136,177,135658
11.293,146102,181,135630
11.298,146084,180,135616
11.303,146054,177,135575
11.308,146035,182,135553
11.313,146020,178,135536
11.318,146017,179,135533
11.323,146005,179,135527
11.328,146001,184,135517
11.333,145984,177,135505
11.338,145971,179,135483
11.343,145947,178,135471
11.348,145919,181,135455
11.353,145884,174,135446
11.358,145864,184,135420
11.363,145841,175,135406
11.368,145824,186,135389
11.373,145813,174,135371
11.378,145808,184,135356
11.383,145802,174,135350
11.388,145778,181,135343
11.392,145779,175,135327
11.397,145761,183,135320
11.402,145765,176,135305
11.407,145742,184,135296
11.412,145737,172,135274
11.417,145734,187,135277
11.422,145722,173,135254
11.427,145706,185,135248
11.432,145700,172,135239
11.437,145690,189,135221
11.442,145685,174,135226
11.447,145684,184,135201
11.452,145659,174,135213
11.457,145669,186,135205
11.462,145660,170,135196
11.467,145656,188,135165
11.472,145630,173,135180
11.477,145621,187,135154
11.482,145616,171,135149
11.487,145622,189,135145
11.492,145602,172,135142
11.497,145623,186,135139
11.502,145629,174,135133
11.507,145622,188,135132
11.512,145614,170,135128
11.517,145621,189,135108
11.521,145608,173,135117
11.526,145611,188,135091
11.531,145592,170,135096
11.536,145590,190,135082
11.541,145573,171,135079
11.546,145566,191,135074
11.551,145567,172,135067
11.556,145546,187,135063
11.561,145556,173,135069
11.566,145555,188,135064
11.571,145572,171,135073
11.576,145567,187,135069
11.581,145574,172,135085
11.586,145580,188,135073
11.591,145571,173,135079
11.596,145561,189,135079
11.601,145555,170,135076
11.606,145569,191,135074
11.611,145571,172,135071
11.616,145566,188,135062
11.621,145555,171,135074
11.626,145566,191,135077
11.631,145568,171,135064
11.636,145552,187,135061
11.641,145579,173,135074
11.646,145572,188,135088
11.650,145580,174,135094
11.655,145585,188,135099
11.660,145588,171,135097
11.665,145581,192,135098
11.670,145574,175,135091
11.675,145575,188,135091
11.680,145583,171,135094
11.685,145588,189,135106
11.690,145615,173,135113
11.695,145624,185,135108
11.700,145605,174,135108
11.705,145622,186,135108
11.710,145622,172,135138
11.715,145627,188,135116
11.720,145643,176,135127
11.725,145626,185,135111
11.730,145632,173,135124
11.735,145631,187,135131
11.740,145640,175,135140
11.745,145646,183,135138
11.750,145671,177,135147
11.755,145673,184,135149
11.760,145662,175,135162
11.765,145681,184,135182
11.770,145670,175,135160
11.775,145663,181,135148
11.779,145671,179,135144
11.784,145662,183,135143
11.789,145666,176,135135
11.794,145643,180,135127
11.799,145639,180,135103
11.804,145624,182,135084
11.809,145587,177,135069
11.814,145596,180,135080
11.819,145572,179,135053
11.824,145597,179,135070
11.829,145599,182,135060
11.834,145596,180,135074
11.839,145605,178,135077
11.844,145600,181,135063
11.849,145581,179,135058
11.854,145561,176,135047
11.859,145546,182,135023
11.864,145524,181,135020
11.869,145505,181,135003
11.874,145474,177,134998
11.879,145474,184,134985
11.884,145447,178,134962
11.889,145432,180,134960
11.894,145433,179,134963
11.899,145419,182,134953
11.904,145441,174,134941
11.908,145424,184,134940
11.913,145418,178,134944
11.918,145402,183,134957
11.923,145421,174,134948
11.928,145430,185,134946
11.933,145406,174,134931
11.938,145400,182,134932
11.943,145380,176,134910
11.948,145374,184,134906
11.953,145359,172,134897
11.958,145347,187,134888
11.963,145350,175,134888
11.968,145329,185,134876
11.973,145303,172,134848
11.978,145314,187,134867
11.983,145323,173,134861
11.988,145322,185,134864
11.993,145314,174,134860
11.998,145306,187,134859
12.003,145301,171,134855
12.008,145310,188,134846
12.013,145313,175,134851
12.018,145305,188,134846
12.023,145301,172,134838
12.028,145305,190,134825
12.033,145291,173,134839
12.037,145302,187,134830
12.042,145298,174,134832
12.047,145293,189,134827
12.052,145311,171,134828
12.057,145317,188,134846
12.062,145302,170,134843
12.067,145303,190,134816
12.072,145291,171,134815
12.077,145307,187,134827
12.082,145298,173,134838
12.087,145286,188,134817
12.092,145292,174,134794
12.097,145263,189,134797
12.102,145269,170,134802
12.107,145288,188,134785
12.112,145255,174,134780
12.117,145260,190,134774
12.122,145253,170,134769
12.127,145277,191,134789
12.132,145282,172,134815
12.137,145286,188,134806
12.142,145280,173,134809
12.147,145282,190,134781
12.152,145260,170,134781
12.157,145263,189,134763
12.162,145253,172,134754
12.166,145247,187,134768
12.171,145253,173,134753
12.176,145247,189,134751
12.181,145252,170,134759
12.186,145256,190,134742
12.191,145250,171,134752
12.196,145252,187,134754
12.201,145253,173,134761
12.206,145264,191,134766
12.211,145266,173,134763
12.216,145265,188,134773
12.221,145268,170,134762
12.226,145267,189,134772
12.231,145275,173,134766
12.236,145263,186,134756
12.241,145267,175,134759
12.246,145252,187,134744
12.251,145251,172,134747
12.256,145242,187,134736
12.261,145251,172,134741
12.266,145262,190,134742
12.271,145259,175,134741
12.276,145262,186,134739
12.281,145271,173,134759
12.286,145266,188,134745
12.291,145278,176,134766
12.295,145286,185,134751
12.300,145275,174,134752
12.305,145264,184,134745
12.310,145260,174,134734
12.315,145268,187,134744
12.320,145273,176,134737
12.325,145260,182,134724
12.330,145252,179,134716
12.335,145267,184,134715
12.340,145261,176,134722
12.345,145254,180,134711
12.350,145265,182,134727
12.355,145240,180,134704
12.360,145248,179,134709
12.365,145234,181,134698
12.370,145238,176,134691
12.375,145223,183,134697
12.380,145205,179,134688
12.385,145185,180,134666
12.390,145173,177,134650
12.395,145138,181,134642
12.400,145130,182,134627
12.405,145100,178,134608
12.410,145089,182,134601
12.415,145112,179,134605
12.420,145081,179,134603
12.424,145087,176,134596
12.429,145087,183,134595
12.434,145083,178,134607
12.439,145071,180,134604
12.444,145071,179,134598
12.449,145083,180,134587
12.454,145070,179,134573
12.459,145067,182,134575
12.464,145050,175,134563
12.469,145025,185,134538
12.474,145022,176,134542
12.479,145006,182,134541
12.484,145009,173,134526
12.489,145007,185,134511
12.494,144995,175,134502
12.499,144992,185,134511
12.504,144991,174,134505
12.509,144996,182,134503
12.514,144989,176,134496
12.519,145001,185,134517
12.524,144980,173,134507
12.529,144997,183,134510
12.534,145002,175,134503
12.539,144997,186,134499
12.544,144995,171,134499
12.549,144997,186,134498
12.553,144995,172,134491
12.558,144992,188,134486
12.563,144982,173,134476
12.568,144977,185,134481
12.573,144975,174,134476
12.578,144987,186,134493
12.583,144986,175,134499
12.588,144996,188,134493
12.593,145000,171,134500
12.598,145021,187,134514
12.603,145007,170,134518
12.608,145024,189,134506
12.613,144998,171,134501
12.618,144991,186,134500
12.623,144987,173,134505
12.628,144976,187,134485
12.633,144973,174,134497
12.638,144988,189,134494
12.643,144979,171,134488
12.648,144974,188,134481
12.653,144981,170,134484
12.658,144991,190,134479
12.663,144978,171,134489
12.668,144973,187,134478
12.673,144978,173,134469
12.678,144961,190,134464
12.682,144980,170,134465
12.687,144980,192,134484
12.692,144990,174,134473
12.697,144987,189,134466
12.702,144981,170,134474
12.707,144982,190,134474
12.712,144986,171,134468
12.717,144969,188,134472
12.722,144968,173,134451
12.727,144971,189,134463
12.732,144974,170,134456
12.737,144978,191,134454
12.742,144978,170,134463
12.747,144986,190,134460
12.752,145004,171,134465
12.757,145003,187,134479
12.762,144990,174,134467
12.767,145000,189,134460
12.772,144971,171,134462
12.777,144978,191,134452
12.782,144974,173,134445
12.787,144999,187,134447
12.792,144990,173,134464
12.797,144998,186,134467
12.802,145003,175,134458
12.807,145007,187,134462
12.811,144994,172,134450
12.816,144983,190,134452
12.821,144978,174,134428
12.826,144967,186,134419
12.831,144965,177,134421
12.836,144968,185,134411
12.841,144969,175,134411
12.846,144962,185,134411
12.851,144986,172,134395
12.856,144969,187,134411
12.861,144974,175,134412
12.866,144972,183,134398
12.871,144965,177,134412
12.876,144949,185,134397
12.881,144930,175,134372
12.886,144903,187,134353
12.891,144889,175,134356
12.896,144884,186,134337
12.901,144862,176,134336
12.906,144867,181,134314
12.911,144838,180,134318
12.916,144819,183,134301
12.921,144806,176,134299
12.926,144782,184,134270
12.931,144768,179,134261
12.936,144756,179,134245
12.940,144745,179,134244
12.945,144758,180,134258
12.950,144760,177,134256
12.955,144769,183,134270
12.960,144761,181,134259
12.965,144745,179,134247
12.970,144738,183,134247
12.975,144733,180,134227
12.980,144727,180,134234
12.985,144722,178,134230
12.990,144725,180,134237
12.995,144732,181,134222
13.000,144701,182,134217
13.005,144684,176,134204
13.010,144688,185,134191
13.015,144690,177,134192
13.020,144678,181,134194
13.025,144708,180,134200
13.030,144695,184,134210
13.035,144696,179,134201
13.040,144682,184,134199
13.045,144682,175,134186
13.050,144676,181,134193
13.055,144678,176,134180
13.060,144678,184,134179
13.065,144658,173,134160
13.069,144656,187,134160
13.074,144646,174,134147
13.079,144648,183,134153
13.084,144686,172,134148
13.089,144665,188,134156
13.094,144671,174,134163
13.099,144677,184,134176
13.104,144675,176,134169
13.109,144667,187,134173
13.114,144670,173,134155
13.119,144657,184,134140
13.124,144662,176,134141
13.129,144639,188,134139
13.134,144642,172,134142
13.139,144638,185,134146
13.144,144636,174,134137
13.149,144629,187,134133
13.154,144625,171,134114
13.159,144617,190,134105
13.164,144615,173,134105
13.169,144609,186,134092
13.174,144610,175,134097
13.179,144602,189,134093
13.184,144597,174,134101
13.189,144614,188,134107
13.194,144626,171,134106
13.198,144637,188,134134
13.203,144652,171,134136
13.208,144660,190,134146
13.213,144653,171,134134
13.218,144645,189,134148
13.223,144649,174,134133
13.228,144633,195,134133
13.233,144618,172,134110
13.238,144639,188,134128
13.243,144646,173,134122
13.248,144644,189,134117
13.253,144636,172,134092
13.258,144604,192,134102
13.263,144620,173,134090
13.268,144635,191,134095
13.273,144632,174,134117
13.278,144645,188,134111
13.283,144674,171,134123
13.288,144674,188,134138
13.293,144678,173,134136
13.298,144674,190,134132
13.303,144686,172,134139
13.308,144672,192,134112
13.313,144666,173,134116
13.318,144676,189,134116
13.323,144668,170,134118
13.327,144683,189,134121
13.332,144677,170,134140
13.337,144689,191,134137
13.342,144695,172,134142
13.347,144688,188,134127
13.352,144668,171,134124
13.357,144688,190,134120
13.362,144676,172,134132
13.367,144689,187,134128
13.372,144706,175,134137
13.377,144726,188,134133
13.382,144714,171,134137
13.387,144710,190,134131
13.392,144693,173,134127
13.397,144693,186,134100
13.402,144683,176,134105
13.407,144654,187,134101
13.412,144636,173,134089
13.417,144644,189,134091
13.422,144637,174,134078
13.427,144608,186,134078
13.432,144597,174,134070
13.437,144589,183,134051
13.442,144575,177,134039
13.447,144559,185,134045
13.452,144536,174,134036
13.456,144562,186,134038
13.461,144539,176,134042
13.466,144550,182,134037
13.471,144560,179,134045
13.476,144541,182,134037
13.481,144541,179,134030
13.486,144541,183,134031
13.491,144538,176,134036
13.496,144520,181,134024
13.501,144530,180,134025
13.506,144521,182,134032
13.511,144545,177,134026
13.516,144550,184,134030
13.521,144567,182,134028
13.526,144544,181,134031
13.531,144548,182,134033
13.536,144539,181,134032
13.541,144541,179,134024
13.546,144543,178,134020
13.551,144545,182,134027
13.556,144529,179,134036
13.561,144530,179,134028
13.566,144522,180,134023
13.571,144535,184,134022
13.576,144529,178,134018
13.581,144539,181,134019
13.586,144549,180,134020
13.590,144547,182,134040
13.595,144557,175,134028
13.600,144550,184,134038
13.605,144564,176,134043
13.610,144561,181,134038
13.615,144564,178,134052
13.620,144565,186,134061
13.625,144588,177,134061
13.630,144575,184,134068
13.635,144565,175,134031
13.640,144565,183,134064
13.645,144577,173,134051
13.650,144562,186,134055
13.655,144556,174,134048
13.660,144558,183,134059
13.665,144572,176,134068
13.670,144566,184,134045
13.675,144565,176,134053
13.680,144577,188,134065
13.685,144571,173,134059
13.690,144574,185,134049
13.695,144570,176,134058
13.700,144588,187,134048
13.705,144578,172,134056
13.710,144566,190,134052
13.715,144557,174,134060
13.719,144566,189,134051
13.724,144575,173,134051
13.729,144568,187,134047
13.734,144581,170,134065
13.739,144588,190,134052
13.744,144590,173,134051
13.749,144605,187,134074
13.754,144596,174,134070
13.759,144600,189,134060
13.764,144592,171,134067
13.769,144603,187,134070
13.774,144590,170,134063
13.779,144599,190,134058
13.784,144607,171,134071
13.789,144608,187,134074
13.794,144605,173,134076
13.799,144601,189,134078
13.804,144610,175,134076
13.809,144611,191,134076
13.814,144623,172,134086
13.819,144628,190,134099
13.824,144615,171,134083
13.829,144633,191,134097
13.834,144639,172,134092
13.839,144646,188,134101
13.844,144653,173,134095
13.848,144655,190,134104
13.853,144653,171,134097
13.858,144662,192,134094
13.863,144661,170,134099
13.868,144657,191,134104
13.873,144673,171,134101
13.878,144662,193,134098
13.883,144679,173,134107
13.888,144660,189,134098
13.893,144668,170,134116
13.898,144677,190,134092
13.903,144688,171,134092
13.908,144675,192,134092
13.913,144672,171,134105
13.918,144682,191,134086
13.923,144664,174,134101
13.928,144666,188,134091
13.933,144660,171,134082
13.938,144664,189,134093
13.943,144651,172,134091
13.948,144641,190,134075
13.953,144642,174,134086
13.958,144616,186,134080
13.963,144593,176,134057
13.968,144588,187,134048
13.973,144574,173,134033
13.977,144545,185,134045
13.982,144550,176,134033
13.987,144539,185,134028
13.992,144533,174,134020
13.997,144522,188,134013
14.002,144518,175,134024
14.007,144520,184,134004
14.012,144517,175,134013
14.017,144522,183,134026
14.022,144511,178,134032
14.027,144517,183,134026
14.032,144508,174,134023
14.037,144525,185,134013
14.042,144517,177,134017
14.047,144505,181,134000
14.052,144495,180,133991
14.057,144493,184,134003
14.062,144488,181,133988
14.067,144497,182,133991
14.072,144490,178,133986
14.077,144504,184,133982
14.082,144477,180,133981
14.087,144491,180,133982
14.092,144476,177,133983
14.097,144485,182,133987
14.102,144465,180,133961
14.106,144486,177,133980
14.111,144491,179,133973
14.116,144494,181,133991
14.121,144487,181,133976
14.126,144478,177,133981
14.131,144495,183,133986
14.136,144482,177,133959
14.141,144474,185,133966
14.146,144472,178,133967
14.151,144478,181,133957
14.156,144495,177,133980
14.161,144493,184,133974
14.166,144489,176,133980
14.171,144495,186,133969
14.176,144491,177,133986
14.181,144481,183,133978
14.186,144492,173,133987
14.191,144510,185,133974
14.196,144496,174,133978
14.201,144486,188,133980
14.206,144501,173,133970
14.211,144473,187,133963
14.216,144468,175,133956
14.221,144469,184,133943
14.226,144452,176,133939
14.231,144462,186,133944
14.235,144460,172,133931
14.240,144470,188,133950
14.245,144459,174,133950
14.250,144481,185,133946
14.255,144472,172,133939
14.260,144474,189,133930
14.265,144478,174,133938
14.270,144453,186,133933
14.275,144452,175,133916
14.280,144448,188,133928
14.285,144452,171,133927
14.290,144454,190,133921
14.295,144452,172,133928
14.300,144446,187,133920
14.305,144438,171,133913
14.310,144452,192,133905
14.315,144447,173,133923
14.320,144461,187,133930
14.325,144475,173,133943
14.330,144469,189,133931
14.335,144481,170,133933
14.340,144474,190,133946
14.345,144489,171,133943
14.350,144477,192,133962
14.355,144479,173,133945
14.360,144485,188,133922
14.364,144477,174,133934
14.369,144469,190,133929
14.374,144481,171,133944
14.379,144475,188,133929
14.384,144490,172,133932
14.389,144488,189,133938
14.394,144505,170,133932
14.399,144486,185,133948
14.404,144498,174,133939
14.409,144509,191,133952
14.414,144520,171,133941
14.419,144522,192,133941
14.424,144510,172,133940
14.429,144516,188,133934
14.434,144512,173,133944
14.439,144506,189,133947
14.444,144506,171,133947
14.449,144517,189,133946
14.454,144528,170,133948
14.459,144533,190,133961
14.464,144544,172,133964
14.469,144554,191,133959
14.474,144534,173,133952
14.479,144528,186,133956
14.484,144528,174,133946
14.489,144515,188,133940
14.493,144506,171,133949
14.498,144508,187,133930
14.503,144494,176,133934
14.508,144474,187,133913
14.513,144464,172,133892
14.518,144429,188,133887
14.523,144423,174,133893
14.528,144410,184,133871
14.533,144413,177,133886
14.538,144403,186,133871
14.543,144407,174,133879
14.548,144398,184,133877
14.553,144391,173,133885
14.558,144403,185,133870
14.563,144382,174,133873
14.568,144399,186,133869
14.573,144371,176,133871
14.578,144373,182,133868
14.583,144385,179,133874
14.588,144405,183,133877
14.593,144393,175,133880
14.598,144400,182,133884
14.603,144400,175,133885
14.608,144396,182,133881
14.613,144389,177,133889
14.618,144394,184,133871
14.622,144382,179,133881
14.627,144386,179,133876
14.632,144400,182,133867
14.637,144395,180,133877
14.642,144389,178,133887
14.647,144375,177,133868
14.652,144379,181,133854
14.657,144381,178,133869
14.662,144374,183,133858
14.667,144400,179,133864
14.672,144388,179,133869
14.677,144405,180,133879
14.682,144411,182,133883
14.687,144408,175,133877
14.692,144409,179,133883
14.697,144413,177,133887
14.702,144396,181,133885
14.707,144405,178,133889
14.712,144402,182,133885
14.717,144401,174,133889
14.722,144410,184,133884
14.727,144402,175,133884
14.732,144404,181,133870
14.737,144406,176,133867
14.742,144412,186,133884
14.747,144416,175,133878
14.751,144412,182,133869
14.756,144399,176,133872
14.761,144384,184,133882
14.766,144400,172,133864
14.771,144387,186,133865
14.776,144397,173,133861
14.781,144391,183,133869
14.786,144402,175,133882
14.791,144423,184,133891
14.796,144414,172,133890
14.801,144423,188,133890
14.806,144421,173,133891
14.811,144420,185,133885
14.816,144401,174,133883
14.821,144411,187,133872
14.826,144419,171,133880
14.831,144421,188,133880
14.836,144420,172,133883
14.841,144411,188,133886
14.846,144428,171,133886
14.851,144425,190,133882
14.856,144437,172,133898
14.861,144429,186,133894
14.866,144446,173,133892
14.871,144433,187,133901
14.876,144456,175,133891
14.880,144448,190,133905
14.885,144434,171,133888
14.890,144454,189,133899
14.895,144451,170,133898
14.900,144444,190,133901
14.905,144463,171,133890
14.910,144472,187,133915
14.915,144469,173,133906
14.920,144480,189,133926
14.925,144500,170,133945
14.930,144481,191,133925
14.935,144488,172,133968
14.940,144491,190,133937
14.945,144495,170,133937
14.950,144504,191,133948
14.955,144508,172,133948
14.960,144522,187,133939
14.965,144526,174,133961
14.970,144527,189,133962
14.975,144522,170,133950
14.980,144521,190,133946
14.985,144540,170,133951
14.990,144529,189,133931
14.995,144529,170,133939
15.000,144532,190,133924
15.005,144535,172,133925
15.009,144527,186,133949
15.014,144545,173,133938
15.019,144545,187,133948
15.024,144533,176,133948
15.029,144534,188,133937
15.034,144538,175,133945
15.039,144519,191,133929
15.044,144488,173,133912
15.049,144483,186,133900
15.054,144465,175,133884
15.059,144440,191,133870
15.064,144442,181,133874
15.069,144436,187,133871
15.074,144431,177,133880
15.079,144401,192,133874
15.084,144405,176,133864
15.089,144402,186,133878
15.094,144403,179,133862
15.099,144406,187,133864
15.104,144402,176,133867
15.109,144423,189,133870
15.114,144406,185,133880
15.119,144427,185,133877
15.124,144419,176,133893
15.129,144424,182,133894
15.134,144429,176,133893
15.138,144405,181,133899
15.143,144420,179,133888
15.148,144421,181,133885
15.153,144419,176,133892
15.158,144411,183,133897
15.163,144410,178,133898
15.168,144425,179,133894
15.173,144430,180,133890
15.178,144420,180,133883
15.183,144407,180,133870
15.188,144398,180,133876
15.193,144394,178,133869
15.198,144383,181,133857
15.203,144385,180,133865
15.208,144392,177,133876
15.213,144405,182,133882
15.218,144415,179,133878
15.223,144425,180,133889
15.228,144431,181,133918
15.233,144456,180,133912
15.238,144460,180,133923
15.243,144466,183,133927
15.248,144476,176,133934
15.253,144483,185,133936
15.258,144472,177,133930
15.263,144472,183,133931
15.267,144481,175,133923
15.272,144462,186,133919
15.277,144463,175,133923
15.282,144452,185,133924
15.287,144470,175,133931
15.292,144485,187,133951
15.297,144480,180,133950
15.302,144485,189,133935
15.307,144484,173,133950
15.312,144490,192,133934
15.317,144489,179,133940
15.322,144477,185,133933
15.327,144482,176,133946
15.332,144483,194,133946
15.337,144504,180,133944
15.342,144486,186,133941
15.347,144495,176,133948
15.352,144496,193,133957
15.357,144503,173,133947
15.362,144516,185,133973
15.367,144510,174,133966
15.372,144507,188,133965
15.377,144497,174,133959
15.382,144502,187,133959
15.387,144503,172,133952
15.392,144508,190,133963
15.396,144519,172,133969
15.401,144518,187,133975
15.406,144525,173,133971
15.411,144527,188,133960
15.416,144525,171,133968
15.421,144528,191,133964
15.426,144530,174,133973
15.431,144532,190,133980
15.436,144554,171,133986
15.441,144562,192,133999
15.446,144567,172,134002
15.451,144559,189,133997
15.456,144587,170,134002
15.461,144592,191,134019
15.466,144604,172,134019
15.471,144572,187,134012
15.476,144594,171,134015
15.481,144581,193,134013
15.486,144598,172,134029
15.491,144605,189,134026
15.496,144608,175,134026
15.501,144601,191,134030
15.506,144611,171,134026
15.511,144613,193,134036
15.516,144623,172,134040
15.521,144615,189,134042
15.525,144628,171,134049
15.530,144646,188,134047
15.535,144638,174,134057
15.540,144648,190,134046
15.545,144645,171,134040
15.550,144642,192,134044
15.555,144636,173,134052
15.560,144638,187,134039
15.565,144655,174,134056
15.570,144639,189,134036
15.575,144638,174,134052
15.580,144645,189,134053
15.585,144632,171,134040
15.590,144622,190,134037
15.595,144611,173,134017
15.600,144582,191,134015
15.605,144564,174,134009
15.610,144570,187,134002
15.615,144572,172,134001
15.620,144543,186,133992
15.625,144548,177,133996
15.630,144539,188,133987
15.635,144550,174,133993
15.640,144554,184,133995
15.645,144543,177,134017
15.650,144551,186,134001
15.654,144557,174,134013
15.659,144562,188,134006
15.664,144546,177,134001
15.669,144553,188,134006
15.674,144539,174,134002
15.679,144543,189,134007
15.684,144543,177,133994
15.689,144538,183,134003
15.694,144539,174,133993
15.699,144528,184,133998
15.704,144525,177,133993
15.709,144513,180,133987
15.714,144537,181,134007
15.719,144544,184,133986
15.724,144532,179,133989
15.729,144524,180,134002
15.734,144528,181,133991
15.739,144531,182,133994
15.744,144530,179,133992
15.749,144527,179,133996
15.754,144538,182,134004
15.759,144550,180,133996
15.764,144535,181,133996
15.769,144513,177,134003
15.774,144564,182,134004
15.779,144564,182,134012
15.783,144570,179,134016
15.788,144576,179,134020
15.793,144570,186,134027
15.798,144575,185,134027
15.803,144578,183,134035
15.808,144586,181,134038
15.813,144573,186,134003
15.818,144586,175,134038
15.823,144586,185,134032
15.828,144573,181,134031
15.833,144590,182,134025
15.838,144574,177,134033
15.843,144581,183,134022
15.848,144571,178,134011
15.853,144586,184,134037
15.858,144578,173,134026
15.863,144554,181,134030
15.868,144577,176,134036
15.873,144589,186,134020
15.878,144590,173,134029
15.883,144593,187,134033
15.888,144584,173,134038
15.893,144604,184,134042
15.898,144602,174,134060
15.903,144602,186,134033
15.908,144606,176,134045
15.912,144600,185,134045
15.917,144618,175,134060
15.922,144619,187,134041
15.927,144607,171,134050
15.932,144617,189,134031
15.937,144610,172,134060
15.942,144621,186,134031
15.947,144613,174,134039
15.952,144619,188,134038
15.957,144608,171,134041
15.962,144617,188,134044
15.967,144635,171,134046
15.972,144615,190,134038
15.977,144612,172,134041
15.982,144625,188,134044
15.987,144630,174,134047
15.992,144630,189,134066
15.997,144638,171,134071
16.002,144651,192,134075
16.007,144659,172,134061
16.012,144666,191,134083
16.017,144651,171,134075
16.022,144646,188,134053
16.027,144658,173,134076
16.032,144651,189,134080
16.037,144668,174,134066
16.041,144673,191,134084
16.046,144675,170,134079
16.051,144694,191,134086
16.056,144673,171,134090
16.061,144693,190,134083
16.066,144705,170,134086
16.071,144697,191,134074
16.076,144680,171,134073
16.081,144701,192,134085
16.086,144709,172,134089
16.091,144704,189,134087
16.096,144724,175,134092
16.101,144710,190,134091
16.106,144719,172,134090
16.111,144724,189,134078
16.116,144700,170,134076
16.121,144690,190,134068
16.126,144703,172,134079
16.131,144702,191,134075
16.136,144716,173,134078
16.141,144700,186,134068
16.146,144689,174,134066
16.151,144675,186,134063
16.156,144661,172,134061
16.161,144660,188,134059
16.166,144639,176,134059
16.170,144626,192,134039
16.175,144627,173,134025
16.180,144604,193,134028
16.185,144592,179,134020
16.190,144599,185,134027
16.195,144590,176,134017
16.200,144599,189,134020
16.205,144599,180,134040
16.210,144601,182,134037
16.215,144597,183,134037
16.220,144597,190,134032
16.225,144589,174,134032
16.230,144577,185,134022
16.235,144570,176,134016
16.240,144582,181,134011
16.245,144578,179,134010
16.250,144568,182,134028
16.255,144544,178,134021
16.260,144573,183,134034
16.265,144580,177,134019
16.270,144582,185,134024
16.275,144583,179,134020
16.280,144570,180,134012
16.285,144559,182,134013
16.290,144552,181,134016
16.295,144562,178,133997
16.299,144573,182,134016
16.304,144564,183,134004
16.309,144568,179,133996
16.314,144550,178,133995
16.319,144567,180,134000
16.324,144556,180,133999
16.329,144580,181,134013
16.334,144577,181,134018
16.339,144575,176,134022
16.344,144578,183,134017
16.349,144572,176,134018
16.354,144607,182,134024
16.359,144596,179,134036
16.364,144617,183,134030
16.369,144607,174,134030
16.374,144602,185,134030
16.379,144598,175,134036
16.384,144600,187,134019
16.389,144588,175,134009
16.394,144584,182,134004
16.399,144570,177,134009
16.404,144578,187,133992
16.409,144574,174,133993
16.414,144553,188,134003
16.419,144559,175,134002
16.424,144576,184,133988
16.428,144564,175,134004
16.433,144570,185,133982
16.438,144565,176,133992
16.443,144578,187,133990
16.448,144588,173,133987
16.453,144567,189,134002
16.458,144573,173,133997
16.463,144566,185,134004
16.468,144577,174,133993
16.473,144569,186,133992
16.478,144574,175,134000
16.483,144571,188,133992
16.488,144587,171,134003
16.493,144584,189,133985
16.498,144591,174,133999
16.503,144601,188,133997
16.508,144606,170,134002
16.513,144598,190,134000
16.518,144591,171,133998
16.523,144613,191,134005
16.528,144609,172,134012
16.533,144607,187,134007
16.538,144609,173,134018
16.543,144608,189,134011
16.548,144626,173,134021
16.553,144623,189,134023
16.557,144637,174,134025
16.562,144635,191,134028
16.567,144638,172,134046
16.572,144636,193,134038
16.577,144638,179,134029
16.582,144642,190,134036
16.587,144661,175,134031
16.592,144642,197,134051
16.597,144654,170,134028
16.602,144644,191,134027
16.607,144668,175,134033
16.612,144674,196,134028
16.617,144667,173,134046
16.622,144670,189,134006
16.627,144666,174,134024
16.632,144637,190,134011
16.637,144632,171,133982
16.642,144637,191,133979
16.647,144628,175,133984
16.652,144645,190,133978
16.657,144647,171,133985
16.662,144637,190,133991
16.667,144641,172,133984
16.672,144652,191,133993
16.677,144645,173,133988
16.682,144648,188,133989
16.686,144651,176,133973
16.691,144630,189,133973
16.696,144616,175,133959
16.701,144618,187,133933
16.706,144591,172,133914
16.711,144574,188,133907
16.716,144541,174,133905
16.721,144538,184,133892
16.726,144536,177,133886
16.731,144532,187,133884
16.736,144512,174,133889
16.741,144525,181,133875
16.746,144509,173,133883
16.751,144500,187,133867
16.756,144477,176,133858
16.761,144465,183,133843
16.766,144473,177,133846
16.771,144462,183,133840
16.776,144447,180,133833
16.781,144451,183,133813
16.786,144427,176,133815
16.791,144424,182,133811
16.796,144423,180,133808
16.801,144424,182,133801
16.806,144418,176,133808
16.811,144436,183,133825
16.815,144447,179,133813
16.820,144433,179,133821
16.825,144442,181,133831
16.830,144420,180,133788
16.835,144392,178,133792
16.840,144373,180,133755
16.845,144346,180,133733
16.850,144334,177,133733
16.855,144341,182,133737
16.860,144350,178,133748
16.865,144370,179,133778
16.870,144380,179,133778
16.875,144399,181,133795
16.880,144413,176,133791
16.885,144414,184,133816
16.890,144438,180,133810
16.895,144436,183,133825
16.900,144419,175,133805
16.905,144419,185,133800
16.910,144423,175,133806
16.915,144428,187,133808
16.920,144436,176,133815
16.925,144433,183,133818
16.930,144446,177,133824
16.935,144450,185,133822
16.940,144439,176,133817
16.944,144444,189,133821
16.949,144455,182,133817
16.954,144435,187,133820
16.959,144464,177,133846
16.964,144464,187,133843
16.969,144455,175,133844
16.974,144459,185,133840
16.979,144456,175,133827
16.984,144453,192,133821
16.989,144443,175,133830
16.994,144447,190,133821
16.999,144450,174,133828
17.004,144439,188,133814
17.009,144440,172,133812
17.014,144439,191,133794
17.019,144435,174,133798
17.024,144437,187,133804
17.029,144432,176,133819
17.034,144452,190,133825
17.039,144456,174,133818
17.044,144469,188,133821
17.049,144467,175,133830
17.054,144459,189,133836
17.059,144480,171,133837
17.064,144480,191,133824
17.069,144476,172,133823
17.073,144488,187,133843
17.078,144499,173,133851
17.083,144499,191,133838
17.088,144486,172,133829
17.093,144490,188,133830
17.098,144480,174,133836
17.103,144488,189,133826
17.108,144490,171,133840
17.113,144486,188,133829
17.118,144487,173,133824
17.123,144484,190,133833
17.128,144491,170,133836
17.133,144524,191,133843
17.138,144524,173,133859
17.143,144531,190,133866
17.148,144546,170,133880
17.153,144557,191,133880
17.158,144562,172,133900
17.163,144568,188,133883
17.168,144552,173,133890
17.173,144571,189,133882
17.178,144549,170,133883
17.183,144552,188,133882
17.188,144565,174,133889
17.193,144576,190,133892
17.198,144575,171,133893
17.202,144585,192,133895
17.207,144586,173,133895
17.212,144601,187,133912
17.217,144606,174,133919
17.222,144609,187,133905
17.227,144630,176,133908
17.232,144598,186,133913
17.237,144605,174,133919
17.242,144613,186,133924
17.247,144621,176,133922
17.252,144633,187,133926
17.257,144654,173,133932
17.262,144627,188,133925
17.267,144629,174,133913
17.272,144629,184,133916
17.277,144624,177,133901
17.282,144623,186,133904
17.287,144603,174,133907
17.292,144593,186,133900
17.297,144570,174,133888
17.302,144580,187,133889
17.307,144557,176,133878
17.312,144543,187,133876
17.317,144546,177,133868
17.322,144510,182,133862
17.327,144508,172,133849
17.331,144492,185,133838
17.336,144500,178,133834
17.341,144489,180,133832
17.346,144485,180,133842
17.351,144485,181,133842
17.356,144480,181,133853
17.361,144496,182,133839
17.366,144493,178,133840
17.371,144491,182,133836
17.376,144492,182,133849
17.381,144495,180,133842
17.386,144485,179,133838
17.391,144488,182,133837
17.396,144476,180,133828
17.401,144480,177,133822
17.406,144465,182,133828
17.411,144465,178,133825
17.416,144477,185,133815
17.421,144460,178,133821
17.426,144480,183,133826
17.431,144469,177,133822
17.436,144460,181,133812
17.441,144457,179,133813
17.446,144451,182,133804
17.451,144460,179,133810
17.456,144449,185,133813
17.460,144453,176,133813
17.465,144466,182,133810
17.470,144458,177,133801
17.475,144472,188,133828
17.480,144484,176,133823
17.485,144482,184,133829
17.490,144483,177,133852
17.495,144485,185,133839
17.500,144493,173,133840
17.505,144501,187,133832
17.510,144485,173,133830
17.515,144489,189,133832
17.520,144492,174,133831
17.525,144481,188,133829
17.530,144493,173,133823
17.535,144483,184,133826
17.540,144492,174,133810
17.545,144473,187,133830
17.550,144486,171,133822
17.555,144475,188,133826
17.560,144483,172,133821
17.565,144485,191,133808
17.570,144480,173,133824
17.575,144479,188,133816
17.580,144481,171,133813
17.585,144479,189,133809
17.589,144476,172,133805
17.594,144475,191,133809
17.599,144480,172,133805
17.604,144475,187,133809
17.609,144481,172,133813
17.614,144479,187,133827
17.619,144492,173,133816
17.624,144487,192,133824
17.629,144516,172,133815
17.634,144493,188,133821
17.639,144500,173,133821
17.644,144494,188,133815
17.649,144504,173,133809
17.654,144502,189,133819
17.659,144509,169,133812
17.664,144483,191,133807
17.669,144508,173,133815
17.674,144501,189,133806
17.679,144503,170,133815
17.684,144518,190,133825
17.689,144497,171,133817
17.694,144524,192,133825
17.699,144515,172,133814
17.704,144516,193,133804
17.709,144525,173,133824
17.714,144521,189,133827
17.718,144536,171,133835
17.723,144521,192,133821
17.728,144538,173,133831
17.733,144537,187,133809
17.738,144508,173,133829
17.743,144529,188,133821
17.748,144538,175,133825
17.753,144533,188,133832
17.758,144533,176,133826
17.763,144540,189,133815
17.768,144551,172,133826
17.773,144552,187,133828
17.778,144560,176,133834
17.783,144554,188,133833
17.788,144560,173,133820
17.793,144557,189,133820
17.798,144556,175,133823
17.803,144556,185,133823
17.808,144553,177,133827
17.813,144555,185,133808
17.818,144539,176,133816
17.823,144540,184,133810
17.828,144548,177,133818
17.833,144550,184,133812
17.838,144543,179,133804
17.843,144555,185,133813
17.847,144565,180,133800
17.852,144539,184,133797
17.857,144541,176,133808
17.862,144528,185,133790
17.867,144534,181,133796
17.872,144522,183,133783
17.877,144508,176,133772
17.882,144476,184,133758
17.887,144461,179,133747
17.892,144457,185,133744
17.897,144426,181,133717
17.902,144416,180,133729
17.907,144412,183,133714
17.912,144421,179,133691
17.917,144407,182,133720
17.922,144407,179,133703
17.927,144403,178,133718
17.932,144415,180,133725
17.937,144421,180,133717
17.942,144408,180,133730
17.947,144411,182,133716
17.952,144402,176,133720
17.957,144390,183,133715
17.962,144372,183,133740
17.967,144390,182,133707
17.972,144383,180,133695
17.976,144374,184,133693
17.981,144366,176,133691
17.986,144363,187,133691
17.991,144365,177,133673
17.996,144361,183,133663
18.001,144368,178,133677
18.006,144371,184,133674
18.011,144357,178,133692
18.016,144370,185,133677
18.021,144371,173,133683
18.026,144373,186,133686
18.031,144379,174,133688
18.036,144377,188,133684
18.041,144392,175,133694
18.046,144383,184,133689
18.051,144382,176,133692
18.056,144386,186,133681
18.061,144392,174,133682
18.066,144386,185,133683
18.071,144387,175,133677
18.076,144369,186,133676
18.081,144386,176,133688
18.086,144388,188,133668
18.091,144386,171,133675
18.096,144376,189,133675
18.101,144367,173,133663
18.105,144375,186,133670
18.110,144380,172,133668
18.115,144374,192,133684
18.120,144383,173,133685
18.125,144395,188,133675
18.130,144382,175,133686
18.135,144381,190,133661
18.140,144362,171,133659
18.145,144367,188,133652
18.150,144371,173,133656
18.155,144352,188,133639
18.160,144375,172,133660
18.165,144387,192,133662
18.170,144369,173,133663
18.175,144376,189,133663
18.180,144365,175,133674
18.185,144367,191,133660
18.190,144378,171,133660
18.195,144371,192,133651
18.200,144371,172,133650
18.205,144373,187,133649
18.210,144387,171,133652
18.215,144384,192,133661
18.220,144365,173,133640
18.225,144383,189,133646
18.230,144378,175,133661
18.234,144378,191,133636
18.239,144373,171,133651
18.244,144391,192,133647
18.249,144381,173,133643
18.254,144368,190,133654
18.259,144372,172,133654
18.264,144386,187,133648
18.269,144392,174,133655
18.274,144400,188,133660
18.279,144408,171,133669
18.284,144419,190,133677
18.289,144422,172,133665
18.294,144435,191,133681
18.299,144439,174,133690
18.304,144435,190,133680
18.309,144442,173,133676
18.314,144462,186,133687
18.319,144440,175,133698
18.324,144448,187,133700
18.329,144455,172,133690
18.334,144450,187,133694
18.339,144459,173,133713
18.344,144472,188,133709
18.349,144466,175,133703
18.354,144465,187,133684
18.359,144460,174,133701
18.363,144452,187,133702
18.368,144454,175,133703
18.373,144469,188,133706
18.378,144472,177,133696
18.383,144468,183,133698
18.388,144465,180,133703
18.393,144484,184,133694
18.398,144479,174,133709
18.403,144483,181,133705
18.408,144489,175,133695
18.413,144475,184,133704
18.418,144478,179,133700
18.423,144462,181,133686
18.428,144451,181,133683
18.433,144437,182,133677
18.438,144426,177,133658
18.443,144419,183,133666
18.448,144410,180,133655
18.453,144397,182,133644
18.458,144374,179,133638
18.463,144378,183,133642
18.468,144364,181,133642
18.473,144359,178,133637
18.478,144372,183,133636
18.483,144365,179,133625
18.488,144348,180,133622
18.492,144358,180,133638
18.497,144351,180,133622
18.502,144349,179,133644
18.507,144363,183,133647
18.512,144371,175,133644
18.517,144365,184,133639
18.522,144362,176,133651
18.527,144367,182,133631
18.532,144360,179,133634
18.537,144360,185,133628
18.542,144349,176,133630
18.547,144347,184,133630
18.552,144347,174,133628
18.557,144360,187,133647
18.562,144356,176,133647
18.567,144359,184,133635
18.572,144375,177,133629
18.577,144364,186,133647
18.582,144379,173,133647
18.587,144378,189,133652
18.592,144388,175,133658
18.597,144393,189,133650
18.602,144393,174,133664
18.607,144403,186,133659
18.612,144412,177,133664
18.617,144402,188,133683
18.621,144408,172,133660
18.626,144410,191,133674
18.631,144411,174,133676
18.636,144414,187,133686
18.641,144423,171,133687
18.646,144425,192,133697
18.651,144439,172,133710
18.656,144443,190,133711
18.661,144443,173,133699
18.666,144436,187,133698
18.671,144428,174,133689
18.676,144435,188,133695
18.681,144425,171,133690
18.686,144441,191,133690
18.691,144441,172,133696
18.696,144442,190,133708
18.701,144429,172,133700
18.706,144433,188,133701
18.711,144427,174,133696
18.716,144439,190,133686
18.721,144438,171,133693
18.726,144419,192,133693
18.731,144443,172,133697
18.736,144441,189,133691
18.741,144444,174,133710
18.746,144459,188,133700
18.750,144434,174,133704
18.755,144449,190,133709
18.760,144449,171,133705
18.765,144442,188,133695
18.770,144450,173,133710
18.775,144465,190,133689
18.780,144464,171,133704
18.785,144462,192,133712
18.790,144447,172,133723
18.795,144473,192,133722
18.800,144480,172,133724
18.805,144491,188,133728
18.810,144485,174,133723
18.815,144500,190,133748
18.820,144508,171,133732
18.825,144510,192,133740
18.830,144500,173,133732
18.835,144517,188,133738
18.840,144517,173,133740
18.845,144518,188,133733
18.850,144527,176,133743
18.855,144521,189,133761
18.860,144544,172,133764
18.865,144536,190,133764
18.870,144539,174,133772
18.875,144554,187,133767
18.879,144556,177,133770
18.884,144550,187,133775
18.889,144566,176,133764
18.894,144549,187,133759
18.899,144564,173,133769
18.904,144558,189,133774
18.909,144561,175,133771
18.914,144571,184,133778
18.919,144560,176,133768
18.924,144591,184,133774
18.929,144583,178,133787
18.934,144588,185,133786
18.939,144595,180,133783
18.944,144585,183,133787
18.949,144577,179,133778
18.954,144583,183,133776
18.959,144567,175,133775
18.964,144559,184,133771
18.969,144552,177,133757
18.974,144518,182,133762
18.979,144521,180,133743
18.984,144514,182,133733
18.989,144496,180,133738
18.994,144481,180,133738
18.999,144488,182,133714
19.004,144472,182,133707
19.008,144445,179,133711
19.013,144453,183,133703
19.018,144471,181,133716
19.023,144467,183,133720
19.028,144479,179,133724
19.033,144481,180,133744
19.038,144468,184,133730
19.043,144466,179,133726
19.048,144486,181,133721
19.053,144465,181,133725
19.058,144475,184,133741
19.063,144471,176,133726
19.068,144458,185,133730
19.073,144480,178,133730
19.078,144463,182,133722
19.083,144465,173,133724
19.088,144458,185,133733
19.093,144465,176,133738
19.098,144468,182,133724
19.103,144467,177,133719
19.108,144465,184,133725
19.113,144460,174,133731
19.118,144473,187,133727
19.123,144460,175,133728
19.128,144470,184,133718
19.133,144482,174,133721
19.137,144482,184,133732
19.142,144475,176,133736
19.147,144499,186,133740
19.152,144502,172,133746
19.157,144504,188,133762
19.162,144498,174,133766
19.167,144508,185,133748
19.172,144508,176,133765
19.177,144515,187,133762
19.182,144500,175,133755
19.187,144515,187,133767
19.192,144516,172,133760
19.197,144515,190,133761
19.202,144527,173,133779
19.207,144516,188,133761
19.212,144526,176,133772
19.217,144530,189,133765
19.222,144517,172,133776
19.227,144539,191,133763
19.232,144523,173,133766
19.237,144528,188,133766
19.242,144539,174,133773
19.247,144538,190,133781
19.252,144524,171,133776
19.257,144521,194,133765
19.262,144515,173,133766
19.266,144520,189,133760
19.271,144519,170,133760
19.276,144515,190,133755
19.281,144532,174,133759
19.286,144531,189,133779
19.291,144524,170,133780
19.296,144538,191,133774
19.301,144548,171,133784
19.306,144539,188,133778
19.311,144525,173,133772
19.316,144536,190,133777
19.321,144540,170,133776
19.326,144540,192,133765
19.331,144540,174,133763
19.336,144556,190,133780
19.341,144546,171,133791
19.346,144552,193,133778
19.351,144567,173,133790
19.356,144567,189,133786
19.361,144574,175,133803
19.366,144580,190,133798
19.371,144586,172,133807
19.376,144584,188,133809
19.381,144585,171,133793
19.386,144578,191,133793
19.391,144576,172,133775
19.395,144555,187,133773
19.400,144578,174,133795
19.405,144591,187,133804
19.410,144591,176,133800
19.415,144595,190,133796
19.420,144601,173,133797
19.425,144596,189,133802
19.430,144609,174,133813
19.435,144617,186,133814
19.440,144605,176,133807
19.445,144617,187,133812
19.450,144618,173,133804
19.455,144614,188,133802
19.460,144612,174,133804
19.465,144606,184,133794
19.470,144624,177,133806
19.475,144612,184,133798
19.480,144618,175,133790
19.485,144608,184,133802
19.490,144590,179,133774
19.495,144580,185,133780
19.500,144557,176,133779
19.505,144561,183,133771
19.510,144543,179,133771
19.515,144541,185,133752
19.520,144532,177,133739
19.524,144518,185,133746
19.529,144502,179,133735
19.534,144469,182,133713
19.539,144473,177,133723
19.544,144483,180,133719
19.549,144466,181,133716
19.554,144459,182,133720
19.559,144456,178,133708
19.564,144449,179,133704
19.569,144448,181,133708
19.574,144434,183,133695
19.579,144433,180,133691
19.584,144421,179,133689
19.589,144424,184,133682
19.594,144418,180,133681
19.599,144408,181,133682
19.604,144413,178,133681
19.609,144418,184,133692
19.614,144431,179,133713
19.619,144432,181,133698
19.624,144428,179,133703
19.629,144433,182,133708
19.634,144435,176,133696
19.639,144410,184,133689
19.644,144426,177,133673
19.649,144402,182,133669
19.653,144398,179,133672
19.658,144413,184,133671
19.663,144400,175,133668
19.668,144403,184,133675
19.673,144422,179,133683
19.678,144428,185,133695
19.683,144427,174,133701
19.688,144445,187,133708
19.693,144444,175,133698
19.698,144444,184,133708
19.703,144440,177,133697
19.708,144443,186,133708
19.713,144466,173,133716
19.718,144465,185,133712
19.723,144464,177,133726
19.728,144478,188,133724
19.733,144468,173,133719
19.738,144474,185,133728
19.743,144477,174,133736
19.748,144476,188,133740
19.753,144483,171,133747
19.758,144474,189,133722
19.763,144478,172,133737
19.768,144508,185,133706
19.773,144469,172,133729
19.778,144467,186,133716
19.782,144479,174,133731
19.787,144481,188,133731
19.792,144485,171,133723
19.797,144472,190,133727
19.802,144484,172,133727
19.807,144478,187,133727
19.812,144475,173,133721
19.817,144494,192,133740
19.822,144488,172,133736
19.827,144496,188,133725
19.832,144482,173,133730
19.837,144490,189,133728
19.842,144480,174,133730
19.847,144488,191,133726
19.852,144483,171,133703
19.857,144473,192,133721
19.862,144480,173,133731
19.867,144501,192,133742
19.872,144497,172,133739
19.877,144520,189,133738
19.882,144516,173,133749
19.887,144505,191,133745
19.892,144506,171,133740
19.897,144513,193,133729
19.902,144504,172,133749
19.907,144503,189,133728
19.911,144509,170,133751
19.916,144532,190,133742
19.921,144520,171,133770
19.926,144536,192,133763
19.931,144544,172,133771
19.936,144554,188,133770
19.941,144542,174,133789
19.946,144566,190,133786
19.951,144566,171,133790
19.956,144580,192,133786
19.961,144573,177,133796
19.966,144583,192,133805
19.971,144595,173,133809
19.976,144608,188,133814
19.981,144607,176,133814
19.986,144626,189,133811
19.991,144609,173,133815
19.996,144606,190,133811
20.001,144600,174,133822
20.006,144598,186,133807
20.011,144601,174,133803
20.016,144599,185,133803
20.021,144626,175,133804
20.026,144615,187,133804
20.031,144620,178,133812
20.036,144611,187,133808
20.040,144606,174,133798
20.045,144600,187,133802
20.050,144584,176,133785
20.055,144591,188,133790
20.060,144566,175,133783
20.065,144544,186,133780
20.070,144514,176,133776
20.075,144508,187,133759
20.080,144497,177,133747
20.085,144494,187,133742
20.090,144502,179,133741
20.095,144494,182,133745
20.100,144489,181,133757
20.105,144494,183,133752
20.110,144513,174,133762
20.115,144501,181,133773
20.120,144504,182,133749
20.125,144485,182,133748
20.130,144478,178,133751
20.135,144484,183,133741
20.140,144484,181,133753
20.145,144483,179,133750
20.150,144473,184,133752
20.155,144480,180,133745
20.160,144475,183,133746
20.165,144471,179,133746
20.169,144472,185,133743
20.174,144476,180,133740
20.179,144467,182,133742
20.184,144478,177,133752
20.189,144473,184,133737
20.194,144471,177,133738
20.199,144470,182,133739
20.204,144477,179,133764
20.209,144473,184,133763
20.214,144488,175,133765
20.219,144488,186,133757
20.224,144484,176,133763
20.229,144490,188,133771
20.234,144501,176,133757
20.239,144490,184,133768
20.244,144489,178,133761
20.249,144496,187,133769
20.254,144504,178,133775
20.259,144507,186,133760
20.264,144503,178,133773
20.269,144516,188,133785
20.274,144519,174,133793
20.279,144514,186,133780
20.284,144504,175,133779
20.289,144502,187,133774
20.294,144507,177,133779
20.298,144501,188,133776
20.303,144504,175,133775
20.308,144517,188,133771
20.313,144506,176,133774
20.318,144498,189,133790
20.323,144521,171,133783
20.328,144505,191,133783
20.333,144499,172,133773
20.338,144499,187,133774
20.343,144509,175,133765
20.348,144512,190,133764
20.353,144500,174,133781
20.358,144501,190,133768
20.363,144508,171,133773
20.368,144501,192,133765
20.373,144504,173,133777
20.378,144490,188,133776
20.383,144506,174,133776
20.388,144517,190,133775
20.393,144511,170,133768
20.398,144504,192,133763
20.403,144501,174,133772
20.408,144517,192,133765
20.413,144508,171,133776
20.418,144523,194,133773
20.423,144517,173,133775
20.427,144525,190,133789
20.432,144538,174,133781
20.437,144543,191,133794
20.442,144535,170,133790
20.447,144543,192,133777
20.452,144554,171,133792
20.457,144542,190,133789
20.462,144557,171,133799
20.467,144559,192,133798
20.472,144557,172,133797
20.477,144571,189,133812
20.482,144573,173,133798
20.487,144560,190,133796
20.492,144568,171,133800
20.497,144575,192,133806
20.502,144590,175,133803
20.507,144602,191,133814
20.512,144590,172,133814
20.517,144598,188,133821
20.522,144594,174,133829
20.527,144613,189,133822
20.532,144616,172,133828
20.537,144604,191,133831
20.542,144613,173,133828
20.547,144623,195,133820
20.552,144608,173,133833
20.556,144625,190,133830
20.561,144618,175,133808
20.566,144613,187,133812
20.571,144615,177,133825
20.576,144614,187,133818
20.581,144610,174,133805
20.586,144602,189,133812
20.591,144599,176,133799
20.596,144588,188,133794
20.601,144563,175,133799
20.606,144560,189,133792
20.611,144564,177,133774
20.616,144532,185,133774
20.621,144525,175,133770
20.626,144523,186,133768
20.631,144499,177,133774
20.636,144497,183,133755
20.641,144491,179,133754
20.646,144475,186,133757
20.651,144497,179,133757
20.656,144479,182,133765
20.661,144490,182,133754
20.666,144479,184,133763
20.671,144477,178,133749
20.676,144465,185,133738
20.681,144465,181,133745
20.685,144456,181,133735
20.690,144457,184,133731
20.695,144470,179,133750
20.700,144450,183,133733
20.705,144460,180,133750
20.710,144478,180,133752
20.715,144476,182,133756
20.720,144474,183,133748
20.725,144474,178,133739
20.730,144467,185,133742
20.735,144450,179,133732
20.740,144445,183,133728
20.745,144445,177,133722
20.750,144428,186,133723
20.755,144438,179,133713
20.760,144455,183,133726
20.765,144438,180,133715
20.770,144445,185,133718
20.775,144451,176,133724
20.780,144465,187,133743
20.785,144478,177,133748
20.790,144469,184,133739
20.795,144475,176,133745
20.800,144484,184,133741
20.805,144472,177,133743
20.810,144479,187,133757
20.814,144465,174,133752
20.819,144488,184,133749
20.824,144467,176,133753
20.829,144477,187,133749
20.834,144474,173,133739
20.839,144471,186,133746
20.844,144477,173,133746
20.849,144478,190,133746
20.854,144478,175,133762
20.859,144495,188,133750
20.864,144497,172,133746
20.869,144492,190,133757
20.874,144492,173,133759
20.879,144484,187,133749
20.884,144483,175,133733
20.889,144474,192,133741
20.894,144484,174,133739
20.899,144473,189,133726
20.904,144455,171,133745
20.909,144466,192,133729
20.914,144464,173,133727
20.919,144450,189,133711
20.924,144441,175,133706
20.929,144449,191,133702
20.934,144462,171,133714
20.939,144476,192,133743
20.943,144479,174,133718
20.948,144464,190,133713
20.953,144471,171,133722
20.958,144473,192,133712
20.963,144472,172,133718
20.968,144481,193,133733
20.973,144482,173,133734
20.978,144485,190,133724
20.983,144479,175,133728
20.988,144481,189,133721
20.993,144483,174,133732
20.998,144477,191,133717
21.003,144487,171,133728
21.008,144487,194,133719
21.013,144487,173,133721
21.018,144476,190,133703
21.023,144467,174,133711
21.028,144470,191,133725
21.033,144498,171,133744
21.038,144509,191,133734
21.043,144516,171,133734
21.048,144518,193,133739
21.053,144521,173,133749
21.058,144529,189,133749
21.063,144527,175,133749
21.068,144537,191,133754
21.072,144531,172,133744
21.077,144526,192,133734
21.082,144522,173,133728
21.087,144530,191,133745
21.092,144552,173,133747
21.097,144535,192,133736
21.102,144545,174,133757
21.107,144563,189,133751
21.112,144550,177,133758
21.117,144548,189,133756
21.122,144562,173,133752
21.127,144567,190,133756
21.132,144556,173,133746
21.137,144551,188,133748
21.142,144553,173,133747
21.147,144526,188,133736
21.152,144511,174,133712
21.157,144477,189,133719
21.162,144464,176,133705
21.167,144464,185,133684
21.172,144449,179,133692
21.177,144450,187,133684
21.182,144449,179,133690
21.187,144418,185,133675
21.192,144433,175,133683
21.197,144412,185,133675
21.201,144416,176,133677
21.206,144406,186,133678
21.211,144418,178,133680
21.216,144404,182,133665
21.221,144400,181,133670
21.226,144401,183,133659
21.231,144405,180,133679
21.236,144386,181,133658
21.241,144389,183,133662
21.246,144390,182,133663
21.251,144397,179,133654
21.256,144393,184,133644
21.261,144378,182,133639
21.266,144389,179,133638
21.271,144387,184,133650
21.276,144366,181,133642
21.281,144381,180,133625
21.286,144361,182,133633
21.291,144374,183,133642
21.296,144370,177,133630
21.301,144376,185,133641
21.306,144368,178,133653
21.311,144366,187,133647
21.316,144383,179,133648
21.321,144372,183,133649
21.326,144380,181,133634
21.330,144379,184,133644
21.335,144369,175,133647
21.340,144379,186,133644
21.345,144389,176,133652
21.350,144391,188,133643
21.355,144388,176,133645
21.360,144390,184,133666
21.365,144395,177,133655
21.370,144393,186,133662
21.375,144387,174,133664
21.380,144405,185,133667
21.385,144408,176,133658
21.390,144411,186,133656
21.395,144402,176,133660
21.400,144396,188,133668
21.405,144406,173,133672
21.410,144399,189,133671
21.415,144409,173,133658
21.420,144393,186,133663
21.425,144396,172,133647
21.430,144387,191,133645
21.435,144380,174,133640
21.440,144369,188,133630
21.445,144356,176,133614
21.450,144345,190,133618
21.455,144358,172,133628
21.459,144361,193,133610
21.464,144362,174,133615
21.469,144373,189,133640
21.474,144385,173,133633
21.479,144388,188,133632
21.484,144396,174,133641
21.489,144388,190,133638
21.494,144395,175,133645
21.499,144400,191,133643
21.504,144390,171,133640
21.509,144402,192,133631
21.514,144391,172,133631
21.519,144390,189,133623
21.524,144378,171,133627
21.529,144378,192,133630
21.534,144380,172,133623
21.539,144384,189,133627
21.544,144392,173,133637
21.549,144402,190,133642
21.554,144412,175,133647
21.559,144423,192,133653
21.564,144418,171,133650
21.569,144433,193,133659
21.574,144429,172,133679
21.579,144430,191,133665
21.584,144436,174,133664
21.589,144433,192,133656
21.593,144426,171,133650
21.598,144413,193,133633
21.603,144430,172,133632
21.608,144444,189,133647
21.613,144435,174,133660
21.618,144445,190,133659
21.623,144446,171,133667
21.628,144469,192,133663
21.633,144456,172,133668
21.638,144457,192,133660
21.643,144455,173,133661
21.648,144449,188,133667
21.653,144453,175,133646
21.658,144439,189,133641
21.663,144427,172,133634
21.668,144451,190,133633
21.673,144446,176,133642
21.678,144457,188,133660
21.683,144456,173,133650
21.688,144459,190,133646
21.693,144437,175,133629
21.698,144425,186,133621
21.703,144422,178,133633
21.708,144410,187,133619
21.713,144389,174,133601
21.718,144360,196,133575
21.722,144354,178,133559
21.727,144317,185,133559
21.732,144326,175,133562
21.737,144316,187,133556
21.742,144302,177,133537
21.747,144292,183,133535
21.752,144290,179,133549
21.757,144293,183,133540
21.762,144295,176,133544
21.767,144294,183,133551
21.772,144293,182,133513
21.777,144290,184,133536
21.782,144302,179,133536
21.787,144288,186,133539
21.792,144295,181,133544
21.797,144291,181,133552
21.802,144278,184,133528
21.807,144280,182,133545
21.812,144275,180,133533
21.817,144269,181,133524
21.822,144267,180,133526
21.827,144243,182,133511
21.832,144240,182,133497
21.837,144248,178,133511
21.842,144264,184,133500
21.847,144263,179,133518
21.851,144265,181,133536
21.856,144267,179,133541
21.861,144282,183,133534
21.866,144281,179,133553
21.871,144290,183,133537
21.876,144292,180,133545
21.881,144269,184,133524
21.886,144278,175,133522
21.891,144278,186,133536
21.896,144278,176,133534
21.901,144277,188,133538
21.906,144287,177,133536
21.911,144295,185,133546
21.916,144316,176,133538
21.921,144293,185,133550
21.926,144301,177,133546
21.931,144284,186,133533
21.936,144289,177,133533
21.941,144279,187,133543
21.946,144281,173,133541
21.951,144304,190,133544
21.956,144300,174,133547
21.961,144282,186,133544
21.966,144307,172,133527
21.971,144287,190,133520
21.976,144290,173,133535
21.980,144301,191,133540
21.985,144304,174,133536
21.990,144283,187,133537
21.995,144298,174,133536
22.000,144292,189,133546
22.005,144308,176,133548
22.010,144300,189,133550
22.015,144299,173,133537
22.020,144307,189,133530
22.025,144302,175,133535
22.030,144295,190,133522
22.035,144292,171,133521
22.040,144301,192,133524
22.045,144288,172,133525
22.050,144297,189,133529
22.055,144297,174,133542
22.060,144314,189,133535
22.065,144299,174,133544
22.070,144308,191,133531
22.075,144312,171,133555
22.080,144319,193,133547
22.085,144312,172,133549
22.090,144321,189,133552
22.095,144315,174,133558
22.100,144335,191,133544
22.105,144328,170,133559
22.109,144334,190,133545
22.114,144329,174,133547
22.119,144329,191,133556
22.124,144336,175,133544
22.129,144332,192,133558
22.134,144346,171,133571
22.139,144351,193,133578
22.144,144352,172,133565
22.149,144372,194,133569
22.154,144373,173,133578
22.159,144362,194,133577
22.164,144378,174,133581
22.169,144365,191,133574
22.174,144358,171,133577
22.179,144367,192,133561
22.184,144374,173,133570
22.189,144356,188,133570
22.194,144382,175,133563
22.199,144392,189,133564
22.204,144381,176,133586
22.209,144392,190,133596
22.214,144417,173,133601
22.219,144404,191,133584
22.224,144404,175,133598
22.229,144406,188,133583
22.234,144387,177,133566
22.238,144360,188,133549
22.243,144341,173,133542
22.248,144322,189,133516
22.253,144308,175,133537
22.258,144306,188,133522
22.263,144307,174,133528
22.268,144301,189,133518
22.273,144286,176,133513
22.278,144287,189,133515
22.283,144271,178,133512
22.288,144276,185,133511
22.293,144265,180,133506
22.298,144259,185,133497
22.303,144265,176,133508
22.308,144261,185,133509
22.313,144276,177,133524
22.318,144277,185,133516
22.323,144261,179,133524
22.328,144285,181,133523
22.333,144269,182,133509
22.338,144266,183,133519
22.343,144264,178,133517
22.348,144254,184,133505
22.353,144254,183,133501
22.358,144251,183,133498
22.363,144256,180,133493
22.367,144238,184,133492
22.372,144251,183,133485
22.377,144244,180,133499
22.382,144247,180,133501
22.387,144236,180,133504
22.392,144256,182,133515
22.397,144257,182,133515
22.402,144264,183,133503
22.407,144261,178,133510
22.412,144263,182,133510
22.417,144256,180,133501
22.422,144260,185,133502
22.427,144259,177,133500
22.432,144269,187,133507
22.437,144278,178,133507
22.442,144279,184,133524
22.447,144293,180,133525
22.452,144278,184,133527
22.457,144287,178,133529
22.462,144287,186,133537
22.467,144297,175,133530
22.472,144292,189,133532
22.477,144286,176,133527
22.482,144290,186,133528
22.487,144293,173,133535
22.492,144300,188,133533
22.496,144310,175,133543
22.501,144308,190,133540
22.506,144304,175,133553
22.511,144304,187,133543
22.516,144308,173,133536
22.521,144304,190,133531
22.526,144287,174,133520
22.531,144283,187,133536
22.536,144279,176,133520
22.541,144289,190,133534
22.546,144282,173,133529
22.551,144291,190,133529
22.556,144292,173,133531
22.561,144295,192,133533
22.566,144303,174,133537
22.571,144302,189,133540
22.576,144306,176,133546
22.581,144308,191,133541
22.586,144300,172,133537
22.591,144305,188,133526
22.596,144314,177,133535
22.601,144311,192,133518
22.606,144315,173,133527
22.611,144297,189,133536
22.616,144311,175,133534
22.621,144311,192,133547
22.625,144334,172,133544
22.630,144338,189,133539
22.635,144347,174,133570
22.640,144350,192,133566
22.645,144366,174,133577
22.650,144347,191,133577
22.655,144361,175,133589
22.660,144363,192,133583
22.665,144365,172,133574
22.670,144349,190,133566
22.675,144364,174,133571
22.680,144368,192,133568
22.685,144371,171,133571
22.690,144369,195,133577
22.695,144350,176,133586
22.700,144392,193,133586
22.705,144395,173,133589
22.710,144385,190,133578
22.715,144368,175,133581
22.720,144376,192,133574
22.725,144375,173,133574
22.730,144373,191,133574
22.735,144392,171,133583
22.740,144389,193,133585
22.745,144385,172,133585
22.750,144401,193,133586
22.754,144394,174,133586
22.759,144391,190,133586
22.764,144370,172,133557
22.769,144345,191,133557
22.774,144330,174,133546
22.779,144331,188,133542
22.784,144313,176,133540
22.789,144324,189,133536
22.794,144308,175,133536
22.799,144295,186,133533
22.804,144315,176,133535
22.809,144301,188,133528
22.814,144286,173,133515
22.819,144291,189,133527
22.824,144285,175,133530
22.829,144283,190,133529
22.834,144284,177,133537
22.839,144265,185,133521
22.844,144298,176,133533
22.849,144278,189,133535
22.854,144291,177,133537
22.859,144293,184,133543
22.864,144272,180,133534
22.869,144280,185,133535
22.874,144300,176,133537
22.879,144273,199,133535
22.883,144277,179,133524
22.888,144273,191,133523
22.893,144257,179,133519
22.898,144268,182,133527
22.903,144250,181,133520
22.908,144264,183,133519
22.913,144247,179,133507
22.918,144247,185,133502
22.923,144247,182,133509
22.928,144252,181,133508
22.933,144258,180,133509
22.938,144278,180,133523
22.943,144270,179,133519
22.948,144294,182,133532
22.953,144294,182,133537
22.958,144296,178,133541
22.963,144317,185,133548
22.968,144294,179,133551
22.973,144312,182,133552
22.978,144313,181,133557
22.983,144315,183,133570
22.988,144324,179,133566
22.993,144324,183,133572
22.998,144311,180,133571
23.003,144310,185,133566
23.008,144311,176,133570
23.012,144304,187,133563
23.017,144306,177,133571
23.022,144320,184,133568
23.027,144327,178,133577
23.032,144326,186,133563
23.037,144324,177,133566
23.042,144324,186,133560
23.047,144324,174,133559
23.052,144310,188,133550
23.057,144295,175,133555
23.062,144317,186,133555
23.067,144305,176,133551
23.072,144321,188,133562
23.077,144319,172,133562
23.082,144305,189,133570
23.087,144335,174,133574
23.092,144332,187,133584
23.097,144343,176,133587
23.102,144361,189,133588
23.107,144354,172,133591
23.112,144346,192,133591
23.117,144359,174,133587
23.122,144320,189,133570
23.127,144334,176,133584
23.132,144337,191,133576
23.137,144351,173,133590
23.141,144352,189,133597
23.146,144363,175,133592
23.151,144367,191,133593
23.156,144364,172,133592
23.161,144372,193,133604
23.166,144383,173,133609
23.171,144377,190,133593
23.176,144374,175,133604
23.181,144393,192,133605
23.186,144381,174,133609
23.191,144386,191,133605
23.196,144384,172,133620
23.201,144381,194,133611
23.206,144392,173,133605
23.211,144407,190,133612
23.216,144415,174,133630
23.221,144424,192,133643
23.226,144430,171,133643
23.231,144444,191,133636
23.236,144449,175,133649
23.241,144453,193,133645
23.246,144433,172,133631
23.251,144428,190,133626
23.256,144430,174,133620
23.261,144413,192,133598
23.266,144404,171,133620
23.270,144416,193,133622
23.275,144417,172,133623
23.280,144425,192,133632
23.285,144434,172,133645
23.290,144431,193,133622
23.295,144432,173,133638
23.300,144413,190,133626
23.305,144387,175,133612
23.310,144385,191,133593
23.315,144358,172,133596
23.320,144334,191,133583
23.325,144332,173,133581
23.330,144325,190,133565
23.335,144319,172,133582
23.340,144329,191,133571
23.345,144315,174,133587
23.350,144330,187,133583
23.355,144330,176,133578
23.360,144309,188,133568
23.365,144328,173,133570
23.370,144319,189,133578
23.375,144324,175,133573
23.380,144319,189,133574
23.385,144324,175,133588
23.390,144306,190,133574
23.395,144307,177,133578
23.399,144297,186,133572
23.404,144306,180,133571
23.409,144300,188,133568
23.414,144300,177,133565
23.419,144289,189,133558
23.424,144275,179,133558
23.429,144288,183,133555
23.434,144277,179,133560
23.439,144284,184,133557
23.444,144289,176,133552
23.449,144276,185,133553
23.454,144276,178,133567
23.459,144287,186,133553
23.464,144276,181,133548
23.469,144289,182,133568
23.474,144295,177,133561
23.479,144297,181,133572
23.484,144301,183,133571
23.489,144298,182,133579
23.494,144306,179,133571
23.499,144309,183,133577
23.504,144282,182,133568
23.509,144301,179,133573
23.514,144300,184,133562
23.519,144315,180,133578
23.524,144332,185,133593
23.528,144333,182,133593
23.533,144328,184,133595
23.538,144322,178,133596
23.543,144325,182,133583
23.548,144315,180,133585
23.553,144309,185,133577
23.558,144327,176,133578
23.563,144314,186,133580
23.568,144319,177,133588
23.573,144333,188,133592
23.578,144337,179,133586
23.583,144336,187,133591
23.588,144341,176,133587
23.593,144334,184,133597
23.598,144328,177,133600
23.603,144314,186,133602
23.608,144326,174,133590
23.613,144309,189,133577
23.618,144326,174,133602
23.623,144313,188,133583
23.628,144320,174,133583
23.633,144331,190,133592
23.638,144337,175,133576
23.643,144333,187,133588
23.648,144333,177,133603
23.653,144337,190,133605
23.657,144354,174,133607
23.662,144359,188,133613
23.667,144367,176,133606
23.672,144378,188,133615
23.677,144356,175,133612
23.682,144360,189,133614
23.687,144353,172,133613
23.692,144334,192,133596
23.697,144331,175,133593
23.702,144332,191,133574
23.707,144329,172,133572
23.712,144334,193,133574
23.717,144331,174,133584
23.722,144333,190,133586
23.727,144344,172,133597
23.732,144371,193,133616
23.737,144384,174,133629
23.742,144401,190,133625
23.747,144409,171,133630
23.752,144391,192,133626
23.757,144386,172,133624
23.762,144382,189,133611
23.767,144406,169,133615
23.772,144396,195,133614
23.777,144400,173,133631
23.782,144381,191,133605
23.786,144402,175,133613
23.791,144399,192,133612
23.796,144393,171,133617
23.801,144413,194,133612
23.806,144413,173,133614
23.811,144414,190,133643
23.816,144408,172,133650
23.821,144426,195,133628
23.826,144435,173,133640
23.831,144430,191,133640
23.836,144433,175,133652
23.841,144432,192,133654
23.846,144445,172,133658
23.851,144441,194,133643
23.856,144417,174,133642
23.861,144410,191,133638
23.866,144383,175,133619
23.871,144358,192,133599
23.876,144352,174,133591
23.881,144340,191,133590
23.886,144333,172,133583
23.891,144315,193,133587
23.896,144322,175,133582
23.901,144317,191,133585
23.906,144323,173,133591
23.911,144332,187,133603
23.915,144305,174,133587
23.920,144310,188,133589
23.925,144320,177,133590
23.930,144311,190,133586
23.935,144310,174,133606
23.940,144305,187,133591
23.945,144304,173,133588
23.950,144309,190,133587
23.955,144305,177,133571
23.960,144261,187,133573
23.965,144265,177,133549
23.970,144247,186,133546
23.975,144258,179,133532
23.980,144253,187,133539
23.985,144261,176,133555
23.990,144256,188,133556
23.995,144261,178,133559
24.000,144272,185,133570
24.005,144278,181,133565
24.010,144267,187,133571
24.015,144281,181,133570
24.020,144273,185,133567
24.025,144266,178,133564
24.030,144249,182,133567
24.035,144270,182,133559
24.040,144249,183,133542
24.044,144253,179,133545
24.049,144262,185,133548
24.054,144258,182,133521
24.059,144235,181,133540
24.064,144257,182,133551
24.069,144272,180,133554
24.074,144290,184,133587
24.079,144288,182,133581
24.084,144302,181,133577
24.089,144297,183,133587
24.094,144303,183,133599
24.099,144293,178,133600
24.104,144296,185,133578
24.109,144283,182,133577
24.114,144277,184,133572
24.119,144274,178,133551
24.124,144265,187,133553
24.129,144276,180,133559
24.134,144274,184,133568
24.139,144280,181,133585
24.144,144280,186,133582
24.149,144288,177,133601
24.154,144299,183,133588
24.159,144296,176,133597
24.164,144321,184,133600
24.169,144325,179,133599
24.173,144309,187,133609
24.178,144317,175,133608
24.183,144333,190,133600
24.188,144325,176,133609
24.193,144326,187,133620
24.198,144335,174,133617
24.203,144346,190,133600
24.208,144342,176,133613
24.213,144353,188,133615
24.218,144335,173,133610
24.223,144321,190,133604
24.228,144325,175,133595
24.233,144334,188,133597
24.238,144340,172,133616
24.243,144346,191,133624
24.248,144359,174,133625
24.253,144372,188,133641
24.258,144388,174,133656
24.263,144396,189,133659
24.268,144402,172,133668
24.273,144406,191,133665
24.278,144394,174,133673
24.283,144403,189,133672
24.288,144405,172,133664
24.293,144417,193,133668
24.298,144421,174,133686
24.302,144422,191,133644
24.307,144428,175,133680
24.312,144425,192,133680
24.317,144444,172,133682
24.322,144434,189,133703
24.327,144447,174,133696
24.332,144441,192,133685
24.337,144447,172,133695
24.342,144436,190,133685
24.347,144453,175,133700
24.352,144494,190,133707
24.357,144464,175,133711
24.362,144476,192,133711
24.367,144494,172,133729
24.372,144477,190,133725
24.377,144502,174,133734
24.382,144493,192,133718
24.387,144493,171,133730
24.392,144493,195,133722
24.397,144493,174,133731
24.402,144502,195,133731
24.407,144504,174,133733
24.412,144524,192,133737
24.417,144523,171,133742
24.422,144531,194,133741
24.427,144523,173,133750
24.431,144532,191,133748
24.436,144537,172,133751
24.441,144543,194,133739
24.446,144532,174,133758
24.451,144533,194,133749
24.456,144533,174,133757
24.461,144545,190,133753
24.466,144542,172,133760
24.471,144541,193,133738
24.476,144521,174,133741
24.481,144503,189,133744
24.486,144497,177,133720
24.491,144474,191,133726
24.496,144469,173,133714
24.501,144455,190,133710
24.506,144449,173,133707
24.511,144448,192,133709
24.516,144426,176,133698
24.521,144443,187,133703
24.526,144429,178,133707
24.531,144443,189,133709
24.536,144441,175,133701
24.541,144450,190,133720
24.546,144427,176,133707
24.551,144436,188,133700
24.556,144418,176,133712
24.560,144421,189,133700
24.565,144427,178,133699
24.570,144409,185,133698
24.575,144405,180,133700
24.580,144415,186,133685
24.585,144410,177,133692
24.590,144408,187,133692
24.595,144411,181,133714
24.600,144407,183,133696
24.605,144417,176,133701
24.610,144404,185,133687
24.615,144405,179,133688
24.620,144383,181,133687
24.625,144397,182,133676
24.630,144378,182,133690
24.635,144388,183,133685
24.640,144379,182,133679
24.645,144400,181,133684
24.650,144375,184,133684
24.655,144383,182,133690
24.660,144393,179,133689
24.665,144395,185,133689
24.670,144408,181,133692
24.675,144402,181,133703
24.680,144409,183,133695
24.685,144422,184,133705
24.689,144427,178,133709
24.694,144412,184,133716
24.699,144421,177,133714
24.704,144424,185,133710
24.709,144412,178,133712
24.714,144429,182,133719
24.719,144418,179,133700
24.724,144415,185,133709
24.729,144408,175,133705
24.734,144420,187,133711
24.739,144415,176,133698
24.744,144416,186,133720
24.749,144435,175,133718
24.754,144436,188,133724
24.759,144426,176,133721
24.764,144425,184,133717
24.769,144435,176,133712
24.774,144428,186,133737
24.779,144429,176,133714
24.784,144412,187,133711
24.789,144417,173,133720
24.794,144414,187,133706
24.799,144430,177,133714
24.804,144443,189,133713
24.809,144430,173,133709
24.814,144428,191,133717
24.818,144419,174,133720
24.823,144422,187,133719
24.828,144424,176,133723
24.833,144457,189,133721
24.838,144453,171,133721
24.843,144444,189,133733
24.848,144442,172,133745
24.853,144466,193,133730
24.858,144465,173,133751
24.863,144489,189,133735
24.868,144478,175,133751
24.873,144471,190,133730
24.878,144470,171,133750
24.883,144483,192,133745
24.888,144485,173,133774
24.893,144481,192,133758
24.898,144496,172,133764
24.903,144492,194,133767
24.908,144499,174,133761
24.913,144496,191,133761
24.918,144503,171,133765
24.923,144497,193,133758
24.928,144504,172,133763
24.933,144505,190,133770
24.938,144543,172,133776
24.943,144513,192,133786
24.947,144520,172,133775
24.952,144529,190,133777
24.957,144532,174,133775
24.962,144536,191,133785
24.967,144531,171,133787
24.972,144544,193,133777
24.977,144541,172,133771
24.982,144532,190,133778
24.987,144543,171,133792
24.992,144549,194,133785
24.997,144556,173,133803
25.002,144560,190,133790
25.007,144566,176,133807
25.012,144568,192,133811
25.017,144585,173,133815
25.022,144572,189,133792
25.027,144579,175,133809
25.032,144592,190,133809
25.037,144583,175,133814
25.042,144591,189,133817
25.047,144612,172,133823
25.052,144596,191,133818
25.057,144591,174,133808
25.062,144586,187,133816
25.067,144608,177,133822
25.072,144605,189,133829
25.076,144620,173,133832
25.081,144610,191,133830
25.086,144611,173,133832
25.091,144625,190,133824
25.096,144622,176,133827
25.101,144621,186,133834
25.106,144633,179,133838
25.111,144617,187,133846
25.116,144620,175,133823
25.121,144626,187,133833
25.126,144633,176,133826
25.131,144625,189,133827
25.136,144643,176,133834
25.141,144648,188,133831
25.146,144645,178,133836
25.151,144646,183,133843
25.156,144623,181,133836
25.161,144633,184,133843
25.166,144603,177,133816
25.171,144620,185,133815
25.176,144597,179,133813
25.181,144582,184,133827
25.186,144555,182,133777
25.191,144548,182,133776
25.196,144543,178,133768
25.201,144519,183,133748
25.205,144502,180,133749
25.210,144495,179,133749
25.215,144506,182,133752
25.220,144503,180,133753
25.225,144485,185,133765
25.230,144519,183,133757
25.235,144502,184,133752
25.240,144489,179,133758
25.245,144493,186,133736
25.250,144494,179,133742
25.255,144487,182,133742
25.260,144479,181,133737
25.265,144470,184,133722
25.270,144455,177,133718
25.275,144471,186,133714
25.280,144453,175,133726
25.285,144457,186,133719
25.290,144462,176,133725
25.295,144454,187,133715
25.300,144434,176,133717
25.305,144457,185,133719
25.310,144455,179,133701
25.315,144431,187,133699
25.320,144435,175,133693
25.325,144448,189,133700
25.330,144455,172,133721
25.334,144457,186,133713
25.339,144465,177,133717
25.344,144464,188,133722
25.349,144474,174,133735
25.354,144470,190,133727
25.359,144458,175,133723
25.364,144464,187,133719
25.369,144452,172,133712
25.374,144458,190,133712
25.379,144447,175,133707
25.384,144448,189,133703
25.389,144464,172,133717
25.394,144458,191,133705
25.399,144465,173,133722
25.404,144472,188,133728
25.409,144460,174,133725
25.414,144457,189,133723
25.419,144457,171,133717
25.424,144460,191,133716
25.429,144472,175,133717
25.434,144460,189,133715
25.439,144458,175,133714
25.444,144460,191,133705
25.449,144458,172,133717
25.454,144466,193,133695
25.459,144451,173,133692
25.463,144458,190,133695
25.468,144450,174,133695
25.473,144448,194,133712
25.478,144443,175,133689
25.483,144442,192,133704
25.488,144451,171,133696
25.493,144453,193,133688
25.498,144449,171,133710
25.503,144468,190,133693
25.508,144460,173,133704
25.513,144452,190,133705
25.518,144462,174,133696
25.523,144485,192,133688
25.528,144461,174,133683
25.533,144452,191,133684
25.538,144451,175,133697
25.543,144446,192,133684
25.548,144461,172,133684
25.553,144464,194,133680
25.558,144458,173,133685
25.563,144462,190,133692
25.568,144463,176,133703
25.573,144486,189,133710
25.578,144468,175,133717
25.583,144493,191,133701
25.588,144487,173,133707
25.592,144484,189,133710
25.597,144477,176,133703
25.602,144484,191,133702
25.607,144477,173,133691
25.612,144486,188,133696
25.617,144497,176,133700
25.622,144501,190,133699
25.627,144498,175,133710
25.632,144486,188,133704
25.637,144485,173,133704
25.642,144492,190,133688
25.647,144484,175,133698
25.652,144497,187,133677
25.657,144489,178,133692
25.662,144496,188,133691
25.667,144471,174,133692
25.672,144507,187,133691
25.677,144497,179,133711
25.682,144514,187,133703
25.687,144519,176,133722
25.692,144518,188,133705
25.697,144521,177,133724
25.702,144519,184,133701
25.707,144522,180,133713
25.712,144525,185,133717
25.717,144526,177,133725
25.721,144530,183,133714
25.726,144516,181,133706
25.731,144524,184,133699
25.736,144529,179,133722
25.741,144549,186,133724
25.746,144554,181,133730
25.751,144543,182,133727
25.756,144562,184,133728
25.761,144560,182,133718
25.766,144571,182,133768
25.771,144556,181,133722
25.776,144549,185,133725
25.781,144551,181,133715
25.786,144565,180,133722
25.791,144561,182,133711
25.796,144567,182,133717
25.801,144566,183,133722
25.806,144575,184,133734
25.811,144575,178,133725
25.816,144598,183,133724
25.821,144573,182,133724
25.826,144582,185,133735
25.831,144585,177,133731
25.836,144593,187,133732
25.841,144591,178,133753
25.846,144601,184,133740
25.850,144583,179,133734
25.855,144564,185,133719
25.860,144578,175,133694
25.865,144560,185,133707
25.870,144549,179,133693
25.875,144538,187,133705
25.880,144539,174,133689
25.885,144520,189,133672
25.890,144507,176,133672
25.895,144476,186,133663
25.900,144484,177,133656
25.905,144477,187,133651
25.910,144475,173,133650
25.915,144471,187,133645
25.920,144457,172,133638
25.925,144446,190,133638
25.930,144439,174,133635
25.935,144466,191,133636
25.940,144452,174,133638
25.945,144454,188,133622
25.950,144450,176,133638
25.955,144439,190,133633
25.960,144438,173,133631
25.965,144428,190,133617
25.970,144418,172,133617
25.975,144439,192,133612
25.979,144439,173,133624
25.984,144449,189,133625
25.989,144444,174,133612
25.994,144421,189,133627
25.999,144422,175,133616
26.004,144390,191,133595
26.009,144404,171,133592
26.014,144392,189,133595
26.019,144401,174,133600
26.024,144393,190,133591
26.029,144397,175,133601
26.034,144395,191,133593
26.039,144400,171,133600
26.044,144405,193,133598
26.049,144420,172,133612
26.054,144421,190,133604
26.059,144425,175,133626
26.064,144422,192,133606
26.069,144423,171,133610
26.074,144434,193,133602
26.079,144426,173,133597
26.084,144420,190,133598
26.089,144419,174,133605
26.094,144402,192,133596
26.099,144390,171,133584
26.104,144402,194,133575
26.108,144433,171,133593
26.113,144390,193,133579
26.118,144404,172,133582
26.123,144398,189,133577
26.128,144407,174,133580
26.133,144399,191,133581
26.138,144388,171,133574
26.143,144397,193,133568
26.148,144379,173,133569
26.153,144392,190,133562
26.158,144394,174,133571
26.163,144393,189,133566
26.168,144376,176,133565
26.173,144381,190,133578
26.178,144378,173,133562
26.183,144385,192,133556
26.188,144379,175,133566
26.193,144377,189,133550
26.198,144383,174,133556
26.203,144376,190,133552
26.208,144392,173,133552
26.213,144375,191,133560
26.218,144395,175,133559
26.223,144391,187,133550
26.228,144380,173,133561
26.233,144391,189,133559
26.237,144397,176,133546
26.242,144397,185,133554
26.247,144393,179,133545
26.252,144396,187,133563
26.257,144396,179,133566
26.262,144397,185,133569
26.267,144427,177,133570
26.272,144419,182,133572
26.277,144413,179,133564
26.282,144410,184,133579
26.287,144435,177,133575
26.292,144426,185,133581
26.297,144416,179,133577
26.302,144400,182,133546
26.307,144382,180,133531
26.312,144366,181,133529
26.317,144375,182,133519
26.322,144390,182,133549
26.327,144407,184,133546
26.332,144419,182,133562
26.337,144424,180,133580
26.342,144440,184,133577
26.347,144468,182,133604
26.352,144465,182,133636
26.357,144472,182,133585
26.362,144450,178,133595
26.366,144443,184,133571
26.371,144428,179,133558
26.376,144436,181,133554
26.381,144431,181,133555
26.386,144423,184,133560
26.391,144419,177,133549
26.396,144425,186,133547
26.401,144467,181,133565
26.406,144452,188,133562
26.411,144463,178,133586
26.416,144486,185,133574
26.421,144494,175,133611
26.426,144496,188,133615
26.431,144500,177,133608
26.436,144502,185,133601
26.441,144508,179,133597
26.446,144499,187,133603
26.451,144519,179,133611
26.456,144504,185,133600
26.461,144500,177,133594
26.466,144500,188,133592
26.471,144495,175,133608
26.476,144507,187,133596
26.481,144509,173,133609
26.486,144519,186,133625
26.491,144538,172,133624
26.495,144523,190,133620
26.500,144526,173,133626
26.505,144529,186,133620
26.510,144515,176,133615
26.515,144503,190,133619
26.520,144489,174,133609
26.525,144484,189,133593
26.530,144478,173,133593
26.535,144463,188,133602
26.540,144456,172,133599
26.545,144472,191,133596
26.550,144466,172,133589
26.555,144453,189,133578
26.560,144454,172,133590
26.565,144446,188,133587
26.570,144452,175,133583
26.575,144455,192,133590
26.580,144448,175,133594
26.585,144462,191,133593
26.590,144444,173,133591
26.595,144447,190,133587
26.600,144426,174,133584
26.605,144435,191,133588
26.610,144433,172,133587
26.615,144436,190,133587
26.620,144449,171,133602
26.624,144441,194,133601
26.629,144457,173,133598
26.634,144444,191,133598
26.639,144469,171,133611
26.644,144452,189,133606
26.649,144460,172,133609
26.654,144461,189,133615
26.659,144441,175,133610
26.664,144454,193,133612
26.669,144465,173,133618
26.674,144448,191,133638
26.679,144467,171,133625
26.684,144480,190,133637
26.689,144476,175,133653
26.694,144502,190,133650
26.699,144490,173,133638
26.704,144492,191,133649
26.709,144493,172,133647
26.714,144502,190,133649
26.719,144506,171,133655
26.724,144509,194,133655
26.729,144519,174,133656
26.734,144513,191,133666
26.739,144538,173,133680
26.744,144552,190,133669
26.749,144545,172,133701
26.753,144541,190,133697
26.758,144543,171,133684
26.763,144537,193,133683
26.768,144557,175,133709
26.773,144561,191,133709
26.778,144555,174,133714
26.783,144566,190,133719
26.788,144558,173,133703
26.793,144562,191,133705
26.798,144538,175,133710
26.803,144561,190,133698
26.808,144544,174,133693
26.813,144548,188,133682
26.818,144544,173,133700
26.823,144555,187,133694
26.828,144559,177,133714
26.833,144565,190,133703
26.838,144586,177,133727
26.843,144572,191,133724
26.848,144596,178,133734
26.853,144593,189,133738
26.858,144604,177,133743
26.863,144603,187,133740
26.868,144594,177,133725
26.873,144607,186,133735
26.878,144584,176,133735
26.882,144588,185,133723
26.887,144587,176,133740
26.892,144601,186,133732
26.897,144603,178,133738
26.902,144620,185,133746
26.907,144635,177,133755
26.912,144640,184,133773
26.917,144646,177,133782
26.922,144666,183,133798
26.927,144677,177,133793
26.932,144655,181,133798
26.937,144640,176,133789
26.942,144655,183,133793
26.947,144679,178,133791
26.952,144677,181,133794
26.957,144685,183,133788
26.962,144674,185,133816
26.967,144689,182,133803
26.972,144676,183,133810
26.977,144691,182,133809
26.982,144700,182,133819
26.987,144718,184,133817
26.992,144721,183,133822
26.997,144722,183,133840
27.002,144735,181,133846
27.007,144735,182,133847
27.011,144746,179,133844
27.016,144748,182,133857
27.021,144754,178,133854
27.026,144748,181,133844
27.031,144753,177,133842
27.036,144741,183,133852
27.041,144749,178,133851
27.046,144764,183,133852
27.051,144758,181,133866
27.056,144768,186,133860
27.061,144771,179,133861
27.066,144779,185,133873
27.071,144787,178,133874
27.076,144790,185,133883
27.081,144791,176,133881
27.086,144811,187,133895
27.091,144824,177,133908
27.096,144814,186,133888
27.101,144831,175,133893
27.106,144809,184,133891
27.111,144806,179,133894
27.116,144799,189,133886
27.121,144791,176,133884
27.126,144792,187,133888
27.131,144782,174,133879
27.136,144760,191,133871
27.140,144752,176,133859
27.145,144742,188,133855
27.150,144732,174,133832
27.155,144725,186,133847
27.160,144712,177,133840
27.165,144712,190,133847
27.170,144705,174,133837
27.175,144693,188,133842
27.180,144699,176,133826
27.185,144710,187,133837
27.190,144700,172,133844
27.195,144706,192,133824
27.200,144683,175,133824
27.205,144686,191,133826
27.210,144676,173,133828
27.215,144680,188,133800
27.220,144680,171,133815
27.225,144680,192,133812
27.230,144706,171,133827
27.235,144691,192,133806
27.240,144681,174,133826
27.245,144694,191,133824
27.250,144679,173,133825
27.255,144677,190,133820
27.260,144678,171,133823
27.265,144685,189,133810
27.269,144661,175,133805
27.274,144660,192,133813
27.279,144674,172,133812
27.284,144673,189,133813
27.289,144674,170,133824
27.294,144674,193,133811
27.299,144684,174,133816
27.304,144685,192,133816
27.309,144675,173,133820
27.314,144686,191,133818
27.319,144675,172,133826
27.324,144697,191,133830
27.329,144694,174,133833
27.334,144695,193,133825
27.339,144700,173,133835
27.344,144711,192,133840
27.349,144725,173,133849
27.354,144702,191,133851
27.359,144716,172,133846
27.364,144727,191,133860
27.369,144702,172,133855
27.374,144703,191,133849
27.379,144713,175,133849
27.384,144712,193,133858
27.389,144724,174,133849
27.394,144716,194,133860
27.398,144708,174,133846
27.403,144721,192,133847
27.408,144713,174,133850
27.413,144705,190,133842
27.418,144708,172,133851
27.423,144704,189,133835
27.428,144701,173,133841
27.433,144722,190,133853
27.438,144709,173,133845
27.443,144719,188,133842
27.448,144713,172,133854
27.453,144704,192,133844
27.458,144718,176,133836
27.463,144708,190,133829
27.468,144723,174,133841
27.473,144736,185,133838
27.478,144710,176,133838
27.483,144708,189,133838
27.488,144713,175,133839
27.493,144730,188,133844
27.498,144723,174,133818
27.503,144726,186,133841
27.508,144742,178,133839
27.513,144759,189,133852
27.518,144746,177,133855
27.523,144748,190,133857
27.527,144750,178,133859
27.532,144756,188,133876
27.537,144751,177,133856
27.542,144761,185,133872
27.547,144770,176,133873
27.552,144770,184,133875
27.557,144784,180,133880
27.562,144782,186,133887
27.567,144772,178,133870
27.572,144791,184,133874
27.577,144777,175,133879
27.582,144749,187,133880
27.587,144776,181,133886
27.592,144780,187,133877
27.597,144789,181,133889
27.602,144801,185,133889
27.607,144794,180,133900
27.612,144803,183,133901
27.617,144819,179,133906
27.622,144820,183,133907
27.627,144824,180,133905
27.632,144832,182,133914
27.637,144821,179,133914
27.642,144837,180,133915
27.647,144835,179,133910
27.652,144822,183,133908
27.656,144812,183,133895
27.661,144825,182,133893
27.666,144816,183,133889
27.671,144812,183,133891
27.676,144809,185,133885
27.681,144816,181,133890
27.686,144819,184,133891
27.691,144828,180,133889
27.696,144814,184,133887
27.701,144818,179,133885
27.706,144809,183,133885
27.711,144811,178,133867
27.716,144796,185,133875
27.721,144788,179,133894
27.726,144788,185,133873
27.731,144780,177,133858
27.736,144758,184,133847
27.741,144733,175,133844
27.746,144741,188,133842
27.751,144729,179,133838
27.756,144727,187,133839
27.761,144730,177,133823
27.766,144700,189,133821
27.771,144701,178,133831
27.776,144705,187,133822
27.781,144698,176,133830
27.785,144689,187,133813
27.790,144696,175,133805
27.795,144679,186,133798
27.800,144674,173,133806
27.805,144660,185,133784
27.810,144658,178,133785
27.815,144677,187,133786
27.820,144652,176,133789
27.825,144650,190,133784
27.830,144652,176,133781
27.835,144652,190,133788
27.840,144646,174,133792
27.845,144643,188,133786
27.850,144633,173,133782
27.855,144634,187,133784
27.860,144636,172,133786
27.865,144637,188,133783
27.870,144629,172,133770
27.875,144627,187,133780
27.880,144606,175,133760
27.885,144619,192,133756
27.890,144606,175,133770
27.895,144632,191,133767
27.900,144635,173,133771
27.905,144628,190,133768
27.910,144643,171,133788
27.914,144649,191,133778
27.919,144637,173,133802
27.924,144643,190,133786
27.929,144635,172,133780
27.934,144653,189,133790
27.939,144652,170,133790
27.944,144637,189,133766
27.949,144643,175,133795
27.954,144651,193,133790
27.959,144628,174,133796
27.964,144631,189,133783
27.969,144618,171,133778
27.974,144646,194,133763
27.979,144622,175,133775
27.984,144633,194,133774
27.989,144635,175,133767
27.994,144633,193,133777
27.999,144641,174,133774
28.004,144640,192,133776
28.009,144647,179,133780
28.014,144640,190,133774
28.019,144637,175,133778
28.024,144632,194,133782
28.029,144627,174,133764
28.034,144628,193,133766
28.039,144634,174,133766
28.043,144625,192,133760
28.048,144607,173,133766
28.053,144630,192,133770
28.058,144627,175,133759
28.063,144631,193,133766
28.068,144626,174,133772
28.073,144630,192,133766
28.078,144644,173,133789
28.083,144640,191,133778
28.088,144644,172,133783
28.093,144647,189,133770
28.098,144650,172,133772
28.103,144640,189,133766
28.108,144626,173,133767
28.113,144637,190,133768
28.118,144659,173,133773
28.123,144633,189,133746
28.128,144635,173,133760
28.133,144629,188,133757
28.138,144626,172,133749
28.143,144619,187,133742
28.148,144615,177,133732
28.153,144612,191,133722
28.158,144610,176,133735
28.163,144629,189,133741
28.168,144641,175,133756
28.172,144636,188,133757
28.177,144639,175,133763
28.182,144650,187,133763
28.187,144654,174,133763
28.192,144646,186,133754
28.197,144646,174,133757
28.202,144640,190,133742
28.207,144635,175,133745
28.212,144636,186,133750
28.217,144644,175,133739
28.222,144651,185,133753
28.227,144660,180,133756
28.232,144670,189,133764
28.237,144672,180,133764
28.242,144673,188,133773
28.247,144680,180,133775
28.252,144676,190,133803
28.257,144678,180,133765
28.262,144683,186,133771
28.267,144693,180,133762
28.272,144688,186,133756
28.277,144668,180,133763
28.282,144673,185,133758
28.287,144680,180,133754
28.292,144682,183,133747
28.297,144674,179,133751
28.301,144670,184,133755
28.306,144674,181,133747
28.311,144671,183,133745
28.316,144688,182,133740
28.321,144672,183,133746
28.326,144660,182,133740
28.331,144644,183,133744
28.336,144648,182,133744
28.341,144629,181,133737
28.346,144616,182,133733
28.351,144604,182,133691
28.356,144598,183,133707
28.361,144584,181,133699
28.366,144575,183,133692
28.371,144568,179,133693
28.376,144564,183,133693
28.381,144564,179,133699
28.386,144551,184,133680
28.391,144550,178,133694
28.396,144549,183,133680
28.401,144534,178,133672
28.406,144514,184,133665
28.411,144493,177,133656
28.416,144514,184,133650
28.421,144502,175,133650
28.426,144505,188,133660
28.430,144504,179,133649
28.435,144497,187,133642
28.440,144513,179,133644
28.445,144503,187,133654
28.450,144502,176,133656
28.455,144501,185,133658
28.460,144479,175,133652
28.465,144475,185,133636
28.470,144459,179,133621
28.475,144448,189,133613
28.480,144445,177,133620
28.485,144433,188,133614
28.490,144447,175,133616
28.495,144448,187,133623
28.500,144457,177,133624
28.505,144454,189,133631
28.510,144463,176,133627
28.515,144469,189,133631
28.520,144470,175,133625
28.525,144447,188,133621
28.530,144467,174,133614
28.535,144446,187,133609
28.540,144444,172,133613
28.545,144449,183,133611
28.550,144449,173,133614
28.555,144454,188,133611
28.559,144444,172,133611
28.564,144458,192,133604
28.569,144455,175,133618
28.574,144446,191,133623
28.579,144459,174,133616
28.584,144456,189,133632
28.589,144461,172,133618
28.594,144462,191,133618
28.599,144450,173,133626
28.604,144448,191,133627
28.609,144445,173,133619
28.614,144461,190,133619
28.619,144449,171,133612
28.624,144448,189,133626
28.629,144457,175,133618
28.634,144441,193,133621
28.639,144437,175,133608
28.644,144434,191,133616
28.649,144444,173,133610
28.654,144424,192,133611
28.659,144448,173,133603
28.664,144446,191,133615
28.669,144437,172,133602
28.674,144459,191,133629
28.679,144451,172,133624
28.684,144451,190,133627
28.688,144468,172,133640
28.693,144472,193,133636
28.698,144472,174,133632
28.703,144485,193,133649
28.708,144478,174,133644
28.713,144471,194,133646
28.718,144476,174,133639
28.723,144468,193,133634
28.728,144481,173,133641
28.733,144484,192,133646
28.738,144483,172,133645
28.743,144489,194,133634
28.748,144492,174,133653
28.753,144496,192,133655
28.758,144493,173,133646
28.763,144497,191,133646
28.768,144491,173,133639
28.773,144504,190,133665
28.778,144510,173,133670
28.783,144518,190,133662
28.788,144527,174,133691
28.793,144520,191,133652
28.798,144530,173,133680
28.803,144508,189,133667
28.808,144521,172,133666
28.813,144512,188,133657
28.817,144518,172,133664
28.822,144539,188,133647
28.827,144529,176,133664
28.832,144532,191,133655
28.837,144520,173,133677
28.842,144540,187,133669
28.847,144540,177,133677
28.852,144551,190,133681
28.857,144556,176,133691
28.862,144561,189,133688
28.867,144562,175,133686
28.872,144555,188,133680
28.877,144557,175,133682
28.882,144556,186,133685
28.887,144562,176,133681
28.892,144569,187,133696
28.897,144579,176,133693
28.902,144571,186,133690
28.907,144563,176,133687
28.912,144570,185,133681
28.917,144563,176,133689
28.922,144567,184,133688
28.927,144567,175,133689
28.932,144567,183,133675
28.937,144570,179,133671
28.942,144552,187,133680
28.946,144551,178,133674
28.951,144540,185,133677
28.956,144531,178,133678
