df_hash,22ZHK4.724P3P
device,HZ2X61
project_hash,29R7
project_name,istanbul_aydin_university
person_hash,29R7.YWVP
person_label,V66
date_time_start,2025-10-31_17-05-59.075000_+03
date_time_start_unix,1761915959.075
date_time_end,2025-10-31_17-14-45.320000_+03
length_difference_noticed,no

time,ppg_ir,ppg_ambient,ppg_red
5.618,145021,1028,177629
5.623,145041,1030,177618
5.628,145030,1028,177612
5.633,145045,1027,177640
5.638,145036,1026,177619
5.643,145036,1027,177616
5.647,145052,1029,177618
5.652,145040,1023,177628
5.657,145038,1021,177627
5.662,145049,1023,177633
5.667,145065,1020,177629
5.672,145052,1019,177624
5.677,145061,1017,177625
5.682,145058,1019,177626
5.687,145043,1017,177633
5.692,145063,1016,177640
5.697,145063,1017,177647
5.702,145062,1018,177644
5.707,145065,1016,177621
5.712,145062,1016,177625
5.717,145068,1013,177649
5.722,145060,1015,177642
5.727,145077,1015,177646
5.732,145068,1014,177652
5.737,145078,1011,177648
5.742,145082,1022,177620
5.747,145076,1007,177624
5.752,145087,1008,177634
5.757,145090,1005,177647
5.762,145078,1006,177625
5.767,145085,1005,177631
5.772,145086,1004,177628
5.777,145080,1002,177629
5.782,145113,1003,177645
5.787,145101,1003,177639
5.792,145109,1003,177627
5.797,145101,1002,177642
5.802,145114,1006,177636
5.807,145106,1005,177631
5.811,145118,999,177628
5.816,145087,997,177651
5.821,145128,998,177634
5.826,145121,996,177646
5.831,145131,997,177652
5.836,145127,992,177645
5.841,145134,1006,177661
5.846,145130,998,177647
5.851,145128,996,177330
5.856,145108,396,177651
5.861,145105,449,177662
5.866,145101,482,177659
5.871,145108,512,177651
5.876,145083,533,177647
5.881,145074,556,177647
5.886,145078,573,177646
5.891,145067,584,177637
5.896,145049,595,177629
5.901,145050,610,177621
5.906,145042,622,177625
5.911,145034,634,177596
5.916,145032,641,177617
5.921,145009,654,177609
5.926,145011,661,177605
5.931,145006,671,177594
5.936,145003,677,177600
5.941,145002,682,177573
5.946,144987,688,177594
5.951,144990,696,177560
5.956,144983,701,177575
5.961,144971,1411,177574
5.966,145009,1333,177577
5.971,144991,1285,177560
5.976,144988,1247,177579
5.980,144986,1219,177566
5.985,144984,1195,177552
5.990,144984,1181,177575
5.995,144991,1161,177565
6.000,144975,1150,177560
6.005,144971,1137,177580
6.010,144968,1126,177551
6.015,144972,1114,177548
6.020,144965,1107,177563
6.025,144957,1099,177560
6.030,144964,1093,177552
6.035,144956,1082,177560
6.040,144962,1075,177551
6.045,144973,1069,177561
6.050,144968,1065,177550
6.055,144963,1058,177560
6.060,144969,1055,177551
6.065,144952,1050,177556
6.070,144961,1049,177554
6.075,144947,1042,177534
6.080,144952,1040,177553
6.085,144950,1039,177553
6.090,144957,1034,177547
6.095,144956,1030,177553
6.100,144955,1027,177553
6.105,144962,1024,177556
6.110,144960,1023,177527
6.115,144953,1017,177550
6.120,144969,1015,177545
6.125,144952,1015,177541
6.130,144968,1014,177554
6.135,144976,1013,177563
6.140,144954,1005,177543
6.145,144967,1003,177547
6.149,144962,1002,177550
6.154,144962,1004,177559
6.159,144950,1003,177547
6.164,144956,1002,177553
6.169,144956,999,177538
6.174,144953,997,177553
6.179,144959,996,177543
6.184,144957,992,177545
6.189,144963,993,177514
6.194,144953,989,177557
6.199,144962,988,177545
6.204,144968,987,177553
6.209,144960,986,177558
6.214,144967,984,177550
6.219,144955,983,177555
6.224,144963,983,177560
6.229,144969,982,177542
6.234,144962,982,177557
6.239,144961,982,177558
6.244,144968,982,177548
6.249,144972,980,177554
6.254,144972,981,177551
6.259,144969,974,177556
6.264,144963,976,177554
6.269,144977,974,177550
6.274,144974,974,177549
6.279,144984,973,177551
6.284,144978,971,177563
6.289,144972,970,177571
6.294,144978,969,177554
6.299,144983,968,177551
6.304,144977,971,177550
6.309,144967,970,177551
6.313,144961,967,177551
6.318,144968,968,177560
6.323,144973,969,177556
6.328,144985,969,177577
6.333,144963,964,177556
6.338,144978,963,177551
6.343,144960,962,177556
6.348,144974,962,177541
6.353,144980,961,177560
6.358,144990,960,177555
6.363,144973,962,177561
6.368,144982,961,177563
6.373,144992,960,177562
6.378,144988,958,177553
6.383,145002,963,177553
6.388,144993,961,177542
6.393,145003,962,177554
6.398,145001,953,177550
6.403,144998,955,177568
6.408,144998,955,177565
6.413,145016,953,177578
6.418,145012,952,177565
6.423,145006,955,177563
6.428,145028,957,177565
6.433,145022,957,177565
6.438,145023,949,177567
6.443,145009,952,177559
6.448,145011,950,177566
6.453,145020,951,177577
6.458,145030,949,177609
6.463,145033,954,177579
6.468,145048,952,177580
6.473,145043,953,177582
6.478,145045,963,177575
6.482,145030,948,177576
6.487,145039,947,177579
6.492,145042,947,177594
6.497,145042,946,177582
6.502,145049,949,177594
6.507,145066,950,177581
6.512,145051,952,177585
6.517,145053,949,177592
6.522,145054,942,177598
6.527,145043,945,177589
6.532,145050,945,177599
6.537,145055,944,177597
6.542,145054,947,177597
6.547,145033,946,177591
6.552,145029,947,177594
6.557,145038,939,177578
6.562,145031,940,177573
6.567,145015,939,177573
6.572,145011,941,177563
6.577,144996,940,177563
6.582,145008,942,177558
6.587,144994,943,177558
6.592,144976,942,177557
6.597,144960,941,177541
6.602,144969,938,177536
6.607,144956,936,177519
6.612,144943,937,177541
6.617,144946,935,177540
6.622,144949,916,177522
6.627,144953,939,177513
6.632,144927,939,177523
6.637,144937,937,177521
6.642,144921,939,177517
6.647,144929,937,177523
6.651,144927,939,177524
6.656,144930,937,177508
6.661,144913,939,177504
6.666,144911,939,177513
6.671,144917,935,177503
6.676,144928,933,177507
6.681,144914,938,177494
6.686,144916,935,177494
6.691,144923,938,177503
6.696,144906,935,177501
6.701,144910,937,177514
6.706,144903,930,177512
6.711,144912,932,177481
6.716,144919,929,177495
6.721,144895,933,177501
6.726,144899,934,177501
6.731,144907,934,177489
6.736,144892,931,177492
6.741,144910,934,177489
6.746,144904,934,177481
6.751,144910,933,177483
6.756,144902,932,177492
6.761,144900,928,177481
6.766,144925,926,177508
6.771,144900,935,177491
6.776,144913,924,177493
6.781,144923,927,177485
6.786,144910,926,177502
6.791,144919,928,177495
6.796,144914,926,177499
6.801,144923,927,177499
6.806,144903,927,177488
6.811,144922,927,177509
6.815,144923,924,177506
6.820,144911,930,177492
6.825,144907,923,177511
6.830,144913,924,177482
6.835,144915,921,177491
6.840,144906,922,177506
6.845,144893,923,177490
6.850,144898,923,177492
6.855,144894,335,177490
6.860,144887,385,177496
6.865,144876,424,177468
6.870,144887,445,177481
6.875,144896,468,177469
6.880,144896,490,177476
6.885,144891,510,177461
6.890,144896,526,177482
6.895,144880,540,177473
6.900,144877,554,177467
6.905,144891,566,177470
6.910,144884,580,177474
6.915,144897,581,177478
6.920,144876,594,177486
6.925,144887,604,177477
6.930,144886,615,177469
6.935,144894,621,177463
6.940,144895,630,177462
6.945,144893,629,177476
6.950,144902,637,177472
6.955,144887,643,177485
6.960,144917,1375,177483
6.965,144907,1286,177483
6.970,144936,1234,177480
6.975,144917,1195,177477
6.980,144920,1163,177467
6.984,144940,1140,177486
6.989,144918,1122,177473
6.994,144926,1104,177494
6.999,144930,1092,177482
7.004,144920,1082,177479
7.009,144924,1071,177472
7.014,144928,1057,177482
7.019,144931,1048,177463
7.024,144939,1042,177475
7.029,144927,1033,177471
7.034,144934,1027,177485
7.039,144932,1021,177483
7.044,144929,1018,177478
7.049,144944,1013,177496
7.054,144941,1002,177483
7.059,144931,996,177481
7.064,144942,996,177491
7.069,144951,992,177483
7.074,144952,988,177486
7.079,144942,984,177480
7.084,144942,985,177491
7.089,144958,981,177488
7.094,144949,979,177486
7.099,144956,970,177493
7.104,144958,971,177502
7.109,144971,970,177489
7.114,144967,970,177507
7.119,144969,961,177506
7.124,144976,963,177518
7.129,144972,961,177507
7.134,144961,958,177494
7.139,144982,957,177500
7.144,144976,957,177501
7.149,144980,955,177499
7.153,144970,955,177506
7.158,144985,947,177492
7.163,144987,948,177496
7.168,144989,946,177484
7.173,144978,946,177468
7.178,144979,944,177484
7.183,144985,945,177473
7.188,144983,945,177487
7.193,144987,942,177499
7.198,144987,941,177481
7.203,144978,941,177482
7.208,144983,938,177484
7.213,144980,938,177477
7.218,144964,937,177478
7.223,144953,938,177471
7.228,144959,935,177478
7.233,144955,935,177475
7.238,144922,934,177464
7.243,144929,937,177457
7.248,144916,934,177450
7.253,144909,928,177442
7.258,144891,931,177445
7.263,144901,928,177441
7.268,144877,926,177435
7.273,144882,926,177419
7.278,144865,926,177418
7.283,144868,926,177423
7.288,144855,925,177414
7.293,144872,926,177422
7.298,144854,921,177403
7.303,144856,925,177410
7.308,144847,921,177396
7.313,144848,923,177406
7.317,144847,919,177408
7.322,144851,922,177409
7.327,144835,921,177403
7.332,144850,920,177402
7.337,144832,917,177412
7.342,144837,919,177379
7.347,144836,918,177395
7.352,144827,920,177365
7.357,144815,918,177375
7.362,144808,921,177381
7.367,144809,920,177380
7.372,144807,921,177377
7.377,144810,913,177368
7.382,144788,913,177382
7.387,144799,913,177370
7.392,144805,914,177361
7.397,144799,911,177372
7.402,144846,917,177374
7.407,144807,911,177369
7.412,144799,912,177369
7.417,144798,910,177363
7.422,144802,912,177365
7.427,144800,912,177381
7.432,144806,913,177369
7.437,144796,911,177361
7.442,144811,914,177351
7.447,144809,912,177371
7.452,144807,923,177363
7.457,144821,908,177364
7.462,144810,908,177369
7.467,144825,911,177361
7.472,144808,910,177367
7.477,144812,908,177383
7.482,144831,909,177371
7.486,144820,908,177385
7.491,144814,909,177373
7.496,144820,907,177367
7.501,144818,908,177369
7.506,144814,907,177369
7.511,144807,907,177358
7.516,144807,905,177382
7.521,144803,907,177363
7.526,144801,908,177374
7.531,144804,908,177371
7.536,144811,905,177357
7.541,144806,908,177374
7.546,144808,906,177373
7.551,144802,905,177369
7.556,144809,903,177386
7.561,144811,905,177361
7.566,144816,903,177365
7.571,144811,905,177379
7.576,144812,902,177360
7.581,144812,906,177357
7.586,144819,904,177382
7.591,144817,905,177389
7.596,144836,903,177367
7.601,144821,907,177380
7.606,144824,905,177377
7.611,144813,907,177388
7.616,144839,906,177401
7.621,144831,900,177384
7.626,144829,899,177386
7.631,144829,901,177400
7.636,144824,899,177369
7.641,144825,901,177376
7.646,144857,891,177399
7.651,144822,902,177379
7.655,144820,901,177403
7.660,144823,903,177395
7.665,144835,902,177386
7.670,144840,904,177381
7.675,144825,901,177383
7.680,144843,903,177375
7.685,144836,904,177379
7.690,144822,905,177383
7.695,144843,898,177388
7.700,144843,899,177382
7.705,144834,899,177398
7.710,144841,900,177383
7.715,144843,898,177380
7.720,144844,902,177373
7.725,144847,903,177387
7.730,144847,898,177375
7.735,144838,896,177386
7.740,144850,898,177387
7.745,144853,902,177390
7.750,144853,896,177394
7.755,144859,894,177408
7.760,144866,895,177395
7.765,144859,896,177395
7.770,144872,898,177392
7.775,144881,897,177397
7.780,144871,899,177402
7.785,144886,900,177395
7.790,144878,896,177408
7.795,144887,895,177402
7.800,144888,898,177413
7.805,144893,900,177424
7.810,144890,895,177399
7.815,144894,894,177407
7.819,144896,895,177412
7.824,144909,897,177417
7.829,144889,898,177443
7.834,144901,895,177416
7.839,144899,897,177424
7.844,144897,894,177415
7.849,144881,895,177441
7.854,144875,308,177427
7.859,144869,363,177416
7.864,144849,398,177414
7.869,144844,427,177421
7.874,144852,451,177405
7.879,144826,471,177404
7.884,144817,491,177394
7.889,144822,489,177342
7.894,144798,509,177395
7.899,144806,523,177395
7.904,144795,537,177380
7.909,144785,549,177401
7.914,144776,558,177389
7.919,144788,571,177369
7.924,144774,579,177372
7.929,144753,586,177363
7.934,144752,594,177344
7.939,144763,601,177347
7.944,144745,608,177343
7.949,144749,616,177344
7.954,144737,623,177349
7.959,144745,1375,177333
7.964,144735,1270,177338
7.969,144754,1212,177353
7.974,144762,1173,177356
7.979,144729,1144,177339
7.984,144752,1122,177353
7.988,144736,1097,177336
7.993,144752,1080,177343
7.998,144725,1065,177332
8.003,144729,1054,177338
8.008,144713,1043,177327
8.013,144708,1032,177320
8.018,144713,1023,177329
8.023,144714,1017,177326
8.028,144698,1009,177313
8.033,144714,1002,177320
8.038,144711,992,177315
8.043,144699,989,177327
8.048,144714,984,177316
8.053,144693,980,177323
8.058,144690,976,177326
8.063,144703,974,177302
8.068,144691,961,177318
8.073,144688,960,177309
8.078,144700,956,177311
8.083,144709,956,177313
8.088,144708,956,177313
8.093,144705,954,177313
8.098,144694,942,177306
8.103,144702,944,177310
8.108,144706,941,177313
8.113,144702,940,177321
8.118,144708,936,177318
8.123,144700,938,177317
8.128,144709,935,177319
8.133,144715,945,177281
8.138,144706,928,177329
8.143,144700,930,177329
8.148,144710,927,177305
8.153,144698,927,177331
8.157,144703,923,177312
8.162,144687,925,177308
8.167,144699,924,177331
8.172,144702,924,177317
8.177,144705,915,177313
8.182,144697,919,177325
8.187,144697,917,177313
8.192,144699,917,177306
8.197,144697,916,177316
8.202,144703,912,177301
8.207,144686,911,177313
8.212,144699,912,177313
8.217,144711,910,177323
8.222,144704,912,177335
8.227,144703,911,177314
8.232,144703,908,177323
8.237,144698,906,177324
8.242,144701,906,177322
8.247,144711,905,177329
8.252,144711,907,177324
8.257,144715,905,177343
8.262,144715,908,177319
8.267,144723,906,177328
8.272,144711,901,177341
8.277,144711,899,177319
8.282,144713,904,177337
8.287,144706,904,177335
8.292,144721,906,177339
8.297,144715,902,177333
8.302,144723,899,177327
8.307,144726,897,177333
8.312,144720,899,177338
8.317,144725,896,177330
8.321,144723,901,177332
8.326,144713,899,177341
8.331,144717,898,177334
8.336,144724,898,177339
8.341,144743,902,177342
8.346,144719,894,177352
8.351,144743,896,177352
8.356,144732,892,177343
8.361,144741,897,177362
8.366,144739,895,177355
8.371,144755,896,177342
8.376,144748,897,177414
8.381,144745,893,177344
8.386,144762,890,177356
8.391,144755,890,177355
8.396,144753,888,177364
8.401,144761,892,177355
8.406,144754,890,177359
8.411,144768,892,177377
8.416,144774,887,177374
8.421,144779,892,177356
8.426,144747,893,177369
8.431,144764,889,177369
8.436,144782,892,177367
8.441,144784,895,177374
8.446,144793,894,177377
8.451,144795,887,177376
8.456,144795,886,177390
8.461,144794,887,177386
8.466,144791,886,177387
8.471,144791,889,177391
8.476,144798,891,177393
8.481,144792,892,177393
8.486,144820,892,177407
8.490,144790,886,177387
8.495,144801,885,177392
8.500,144783,885,177389
8.505,144788,885,177391
8.510,144791,887,177377
8.515,144789,886,177384
8.520,144755,886,177370
8.525,144772,887,177370
8.530,144750,890,177367
8.535,144736,882,177363
8.540,144714,884,177346
8.545,144706,883,177334
8.550,144708,885,177336
8.555,144684,881,177355
8.560,144691,884,177330
8.565,144673,885,177329
8.570,144650,886,177326
8.575,144659,882,177298
8.580,144660,885,177309
8.585,144658,885,177299
8.590,144646,886,177279
8.595,144642,885,177292
8.600,144628,881,177278
8.605,144630,881,177285
8.610,144626,883,177281
8.615,144613,881,177290
8.620,144629,881,177301
8.625,144615,880,177268
8.630,144612,881,177280
8.635,144595,880,177273
8.640,144602,881,177271
8.645,144588,882,177276
8.650,144593,884,177270
8.655,144592,882,177274
8.659,144587,883,177256
8.664,144600,884,177261
8.669,144542,873,177251
8.674,144571,879,177247
8.679,144569,880,177251
8.684,144578,881,177250
8.689,144577,882,177251
8.694,144572,880,177263
8.699,144569,882,177265
8.704,144570,884,177252
8.709,144568,884,177244
8.714,144569,875,177246
8.719,144563,878,177261
8.724,144557,881,177237
8.729,144562,880,177244
8.734,144564,879,177240
8.739,144555,880,177248
8.744,144581,882,177253
8.749,144567,881,177255
8.754,144572,882,177258
8.759,144567,881,177276
8.764,144565,877,177265
8.769,144582,879,177273
8.774,144567,878,177257
8.779,144568,878,177249
8.784,144578,881,177283
8.789,144565,881,177267
8.794,144575,879,177262
8.799,144560,877,177257
8.804,144573,881,177267
8.809,144579,881,177259
8.814,144580,875,177267
8.819,144574,875,177258
8.823,144578,879,177277
8.828,144566,879,177294
8.833,144566,876,177277
8.838,144556,873,177249
8.843,144559,877,177268
8.848,144563,877,177285
8.853,144572,284,177267
8.858,144553,345,177272
8.863,144549,374,177267
8.868,144555,407,177276
8.873,144549,433,177270
8.878,144554,456,177271
8.883,144548,465,177265
8.888,144561,482,177277
8.893,144553,497,177286
8.898,144558,510,177276
8.903,144550,526,177282
8.908,144575,537,177291
8.913,144578,544,177280
8.918,144563,554,177283
8.923,144576,566,177278
8.928,144571,575,177277
8.933,144566,585,177298
8.938,144569,583,177290
8.943,144569,591,177283
8.948,144581,598,177295
8.953,144582,607,177293
8.958,144598,1400,177297
8.963,144626,1265,177315
8.968,144613,1204,177300
8.973,144615,1161,177314
8.978,144616,1132,177314
8.983,144595,1109,177320
8.988,144616,1087,177310
8.992,144611,1072,177319
8.997,144615,1049,177310
9.002,144617,1039,177314
9.007,144622,1026,177322
9.012,144639,1015,177380
9.017,144628,1009,177331
9.022,144644,997,177342
9.027,144626,990,177340
9.032,144634,984,177328
9.037,144652,976,177333
9.042,144631,975,177336
9.047,144640,968,177331
9.052,144657,964,177344
9.057,144649,958,177341
9.062,144639,953,177359
9.067,144659,948,177361
9.072,144657,945,177350
9.077,144670,942,177344
9.082,144664,941,177343
9.087,144657,938,177364
9.092,144672,936,177353
9.097,144674,932,177373
9.102,144668,933,177345
9.107,144682,930,177356
9.112,144704,927,177340
9.117,144686,923,177352
9.122,144687,924,177363
9.127,144686,922,177352
9.132,144693,922,177351
9.137,144691,911,177381
9.142,144694,913,177366
9.147,144698,911,177372
9.152,144703,911,177362
9.157,144698,903,177378
9.161,144692,913,177377
9.166,144706,905,177390
9.171,144713,905,177368
9.176,144705,903,177390
9.181,144712,903,177376
9.186,144725,903,177378
9.191,144717,904,177377
9.196,144730,901,177380
9.201,144737,904,177388
9.206,144721,898,177396
9.211,144727,901,177392
9.216,144734,896,177395
9.221,144754,899,177392
9.226,144740,898,177396
9.231,144746,901,177419
9.236,144750,890,177411
9.241,144749,893,177395
9.246,144760,892,177406
9.251,144760,891,177429
9.256,144765,892,177417
9.261,144765,895,177392
9.266,144752,887,177434
9.271,144778,889,177423
9.276,144780,886,177422
9.281,144764,887,177426
9.286,144756,888,177427
9.291,144753,889,177420
9.296,144760,887,177440
9.301,144735,889,177413
9.306,144745,886,177406
9.311,144708,887,177389
9.316,144716,884,177380
9.321,144694,886,177368
9.325,144681,888,177358
9.330,144679,881,177380
9.335,144666,879,177344
9.340,144650,880,177356
9.345,144653,880,177344
9.350,144648,882,177333
9.355,144624,877,177327
9.360,144620,879,177328
9.365,144621,879,177325
9.370,144612,881,177317
9.375,144606,881,177310
9.380,144597,877,177307
9.385,144584,878,177292
9.390,144578,879,177332
9.395,144598,880,177318
9.400,144586,881,177312
9.405,144577,880,177298
9.410,144595,877,177291
9.415,144579,873,177303
9.420,144566,877,177289
9.425,144576,880,177303
9.430,144567,874,177292
9.435,144551,874,177284
9.440,144558,877,177281
9.445,144549,878,177290
9.450,144561,877,177284
9.455,144543,878,177272
9.460,144550,874,177280
9.465,144547,875,177263
9.470,144535,879,177278
9.475,144541,872,177270
9.480,144523,876,177265
9.485,144532,872,177268
9.490,144521,874,177274
9.494,144527,875,177276
9.499,144520,874,177273
9.504,144541,877,177259
9.509,144521,872,177261
9.514,144517,871,177262
9.519,144526,874,177266
9.524,144526,877,177260
9.529,144520,870,177276
9.534,144525,872,177240
9.539,144536,873,177272
9.544,144526,876,177266
9.549,144535,872,177272
9.554,144532,873,177272
9.559,144525,867,177287
9.564,144542,871,177279
9.569,144532,872,177276
9.574,144549,874,177276
9.579,144538,867,177274
9.584,144542,871,177288
9.589,144535,873,177283
9.594,144533,867,177281
9.599,144538,870,177270
9.604,144539,874,177268
9.609,144521,869,177281
9.614,144527,870,177277
9.619,144531,873,177261
9.624,144533,868,177280
9.629,144546,871,177267
9.634,144527,872,177276
9.639,144532,866,177275
9.644,144533,866,177266
9.649,144520,873,177279
9.654,144522,866,177273
9.659,144527,868,177281
9.663,144531,872,177294
9.668,144539,865,177284
9.673,144539,866,177287
9.678,144540,866,177277
9.683,144532,871,177295
9.688,144544,865,177300
9.693,144555,870,177311
9.698,144549,863,177311
9.703,144546,869,177299
9.708,144562,871,177296
9.713,144554,870,177298
9.718,144545,864,177300
9.723,144573,868,177304
9.728,144566,869,177279
9.733,144575,865,177294
9.738,144566,864,177309
9.743,144553,865,177317
9.748,144587,866,177309
9.753,144571,866,177312
9.758,144572,866,177312
9.763,144577,870,177299
9.768,144580,864,177312
9.773,144587,866,177334
9.778,144595,865,177333
9.783,144596,863,177327
9.788,144584,865,177340
9.793,144585,861,177328
9.798,144588,862,177328
9.803,144612,865,177328
9.808,144611,866,177331
9.813,144604,862,177329
9.818,144617,864,177332
9.823,144604,867,177344
9.827,144618,862,177338
9.832,144609,863,177341
9.837,144630,865,177327
9.842,144625,863,177342
9.847,144623,865,177336
9.852,144627,274,177345
9.857,144610,325,177350
9.862,144615,366,177333
9.867,144633,396,177356
9.872,144629,423,177341
9.877,144617,436,177365
9.882,144645,458,177357
9.887,144649,473,177345
9.892,144634,488,177368
9.897,144649,504,177365
9.902,144643,511,177360
9.907,144657,525,177379
9.912,144659,540,177379
9.917,144663,541,177365
9.922,144671,554,177387
9.927,144659,567,177371
9.932,144676,567,177376
9.937,144674,577,177372
9.942,144674,590,177397
9.947,144688,587,177407
9.952,144694,598,177366
9.957,144689,605,177381
9.962,144706,1284,177396
9.967,144711,1209,177397
9.972,144704,1166,177395
9.977,144717,1129,177401
9.982,144714,1107,177400
9.987,144719,1082,177399
9.992,144707,1066,177401
9.996,144725,1042,177410
10.001,144711,1034,177409
10.006,144737,1023,177393
10.011,144736,1014,177411
10.016,144734,996,177415
10.021,144750,993,177400
10.026,144745,986,177411
10.031,144749,976,177401
10.036,144750,971,177425
10.041,144745,962,177411
10.046,144754,957,177416
10.051,144763,955,177436
10.056,144770,948,177425
10.061,144759,948,177434
10.066,144765,940,177430
10.071,144759,938,177445
10.076,144775,934,177436
10.081,144778,935,177444
10.086,144776,927,177437
10.091,144794,926,177446
10.096,144785,924,177438
10.101,144782,917,177428
10.106,144799,915,177430
10.111,144799,915,177447
10.116,144805,911,177446
10.121,144818,915,177463
10.126,144803,906,177451
10.131,144821,902,177453
10.136,144816,902,177450
10.141,144822,905,177456
10.146,144812,903,177468
10.151,144820,904,177466
10.156,144823,893,177467
10.161,144817,896,177469
10.165,144808,893,177481
10.170,144801,895,177435
10.175,144775,892,177438
10.180,144774,890,177435
10.185,144759,888,177424
10.190,144753,889,177415
10.195,144745,887,177423
10.200,144732,890,177393
10.205,144720,888,177404
10.210,144711,889,177400
10.215,144689,879,177382
10.220,144696,884,177379
10.225,144699,882,177383
10.230,144688,886,177347
10.235,144687,877,177369
10.240,144661,881,177364
10.245,144660,881,177348
10.250,144670,881,177351
10.255,144658,880,177351
10.260,144662,882,177343
10.265,144634,876,177354
10.270,144645,877,177322
10.275,144654,875,177346
10.280,144634,879,177340
10.285,144646,874,177331
10.290,144636,876,177324
10.295,144641,874,177318
10.300,144620,877,177330
10.305,144625,880,177318
10.310,144635,872,177316
10.315,144622,870,177320
10.320,144627,872,177321
10.325,144619,873,177320
10.329,144621,874,177319
10.334,144611,873,177320
10.339,144606,877,177315
10.344,144614,869,177325
10.349,144617,871,177325
10.354,144614,868,177316
10.359,144615,873,177305
10.364,144616,866,177326
10.369,144607,868,177324
10.374,144614,864,177301
10.379,144599,868,177299
10.384,144609,869,177300
10.389,144613,873,177310
10.394,144605,864,177303
10.399,144604,867,177296
10.404,144627,871,177300
10.409,144604,866,177299
10.414,144612,864,177304
10.419,144619,869,177299
10.424,144632,865,177314
10.429,144619,867,177306
10.434,144616,869,177295
10.439,144602,864,177306
10.444,144624,865,177300
10.449,144607,867,177304
10.454,144615,867,177289
10.459,144621,864,177305
10.464,144614,865,177304
10.469,144621,869,177313
10.474,144618,863,177299
10.479,144608,866,177298
10.484,144625,868,177302
10.489,144607,862,177298
10.494,144599,861,177292
10.498,144614,864,177294
10.503,144629,864,177322
10.508,144616,860,177296
10.513,144619,860,177299
10.518,144617,863,177312
10.523,144630,861,177314
10.528,144623,862,177317
10.533,144624,861,177310
10.538,144626,864,177316
10.543,144623,866,177307
10.548,144634,860,177312
10.553,144633,860,177311
10.558,144619,862,177305
10.563,144636,865,177321
10.568,144623,859,177314
10.573,144642,861,177308
10.578,144641,864,177315
10.583,144627,860,177323
10.588,144652,860,177317
10.593,144635,860,177318
10.598,144641,862,177316
10.603,144645,859,177334
10.608,144643,859,177318
10.613,144651,857,177336
10.618,144658,854,177315
10.623,144652,858,177321
10.628,144652,861,177312
10.633,144656,859,177327
10.638,144657,862,177327
10.643,144657,855,177336
10.648,144664,857,177345
10.653,144659,859,177333
10.658,144678,859,177322
10.663,144678,863,177336
10.667,144736,850,177322
10.672,144687,858,177334
10.677,144681,860,177317
10.682,144685,856,177331
10.687,144690,857,177341
10.692,144687,858,177338
10.697,144695,860,177329
10.702,144707,857,177349
10.707,144711,857,177343
10.712,144708,860,177339
10.717,144715,856,177351
10.722,144708,859,177338
10.727,144721,861,177355
10.732,144716,862,177335
10.737,144724,854,177358
10.742,144712,858,177346
10.747,144715,858,177348
10.752,144739,860,177361
10.757,144721,855,177356
10.762,144722,857,177366
10.767,144732,860,177362
10.772,144741,853,177360
10.777,144731,854,177359
10.782,144755,856,177378
10.787,144745,860,177366
10.792,144752,853,177364
10.797,144746,853,177341
10.802,144752,857,177372
10.807,144763,858,177362
10.812,144759,852,177373
10.817,144751,858,177362
10.822,144757,855,177386
10.827,144764,855,177364
10.831,144784,857,177367
10.836,144776,856,177377
10.841,144782,855,177373
10.846,144790,854,177366
10.851,144773,265,177380
10.856,144762,326,177384
10.861,144774,356,177361
10.866,144775,388,177368
10.871,144791,414,177373
10.876,144792,435,177382
10.881,144785,448,177373
10.886,144804,464,177377
10.891,144794,479,177369
10.896,144799,494,177383
10.901,144823,513,177382
10.906,144811,522,177381
10.911,144810,531,177403
10.916,144820,541,177391
10.921,144818,543,177406
10.926,144819,554,177353
10.931,144818,561,177376
10.936,144822,570,177395
10.941,144821,580,177397
10.946,144844,578,177398
10.951,144856,589,177400
10.956,144849,1396,177398
10.961,144847,1249,177407
10.966,144874,1188,177408
10.971,144877,1147,177416
10.976,144887,1110,177410
10.981,144882,1087,177415
10.986,144891,1067,177417
10.991,144901,1046,177429
10.996,144892,1031,177419
11.000,144875,1022,177429
11.005,144888,1005,177428
11.010,144896,998,177427
11.015,144886,988,177427
11.020,144881,977,177429
11.025,144874,969,177424
11.030,144884,964,177409
11.035,144857,956,177401
11.040,144848,955,177398
11.045,144834,943,177408
11.050,144823,940,177383
11.055,144825,936,177397
11.060,144798,940,177375
11.065,144815,928,177378
11.070,144799,926,177370
11.075,144787,922,177367
11.080,144774,921,177349
11.085,144776,918,177355
11.090,144769,912,177344
11.095,144765,907,177312
11.100,144732,909,177322
11.105,144745,903,177325
11.110,144739,902,177317
11.115,144726,898,177305
11.120,144725,899,177315
11.125,144734,897,177315
11.130,144735,899,177319
11.135,144721,896,177306
11.140,144734,891,177312
11.145,144714,890,177312
11.150,144727,890,177295
11.155,144724,890,177306
11.160,144722,887,177310
11.165,144725,884,177316
11.169,144721,885,177284
11.174,144723,884,177307
11.179,144721,885,177299
11.184,144718,879,177310
11.189,144713,879,177289
11.194,144710,878,177289
11.199,144739,878,177294
11.204,144716,880,177283
11.209,144721,876,177297
11.214,144712,874,177300
11.219,144716,877,177290
11.224,144716,876,177302
11.229,144721,878,177291
11.234,144712,876,177276
11.239,144689,872,177286
11.244,144710,871,177277
11.249,144704,873,177274
11.254,144716,867,177267
11.259,144709,870,177274
11.264,144719,869,177278
11.269,144732,872,177294
11.274,144717,869,177285
11.279,144721,873,177282
11.284,144724,866,177290
11.289,144720,868,177290
11.294,144730,867,177281
11.299,144727,870,177284
11.304,144740,867,177281
11.309,144732,864,177292
11.314,144737,862,177282
11.319,144735,865,177307
11.324,144737,864,177299
11.329,144741,864,177295
11.333,144739,861,177300
11.338,144737,860,177304
11.343,144739,862,177276
11.348,144730,873,177298
11.353,144743,863,177293
11.358,144743,865,177297
11.363,144740,865,177284
11.368,144729,863,177284
11.373,144739,862,177291
11.378,144737,862,177291
11.383,144740,861,177295
11.388,144741,860,177282
11.393,144750,858,177287
11.398,144754,862,177285
11.403,144753,862,177287
11.408,144762,862,177303
11.413,144743,860,177293
11.418,144759,859,177297
11.423,144755,860,177310
11.428,144760,861,177295
11.433,144758,859,177317
11.438,144755,860,177303
11.443,144765,860,177286
11.448,144762,856,177279
11.453,144764,855,177306
11.458,144765,856,177309
11.463,144768,858,177287
11.468,144766,857,177311
11.473,144782,856,177291
11.478,144759,857,177293
11.483,144775,858,177299
11.488,144766,857,177299
11.493,144768,856,177272
11.498,144793,857,177308
11.502,144772,856,177301
11.507,144782,857,177292
11.512,144790,856,177293
11.517,144790,857,177305
11.522,144796,857,177299
11.527,144789,857,177299
11.532,144789,855,177303
11.537,144794,856,177294
11.542,144800,856,177297
11.547,144798,853,177287
11.552,144803,852,177296
11.557,144809,850,177285
11.562,144808,852,177297
11.567,144811,852,177287
11.572,144819,851,177289
11.577,144825,850,177305
11.582,144812,852,177294
11.587,144823,852,177293
11.592,144820,852,177255
11.597,144830,853,177299
11.602,144833,854,177302
11.607,144828,854,177298
11.612,144839,854,177287
11.617,144839,850,177294
11.622,144837,855,177275
11.627,144867,854,177297
11.632,144853,853,177286
11.637,144862,852,177298
11.642,144906,856,177296
11.647,144867,849,177301
11.652,144865,849,177303
11.657,144866,848,177301
11.662,144860,850,177310
11.667,144877,850,177301
11.671,144879,850,177311
11.676,144885,850,177307
11.681,144884,850,177310
11.686,144885,849,177306
11.691,144883,851,177314
11.696,144889,850,177311
11.701,144896,852,177315
11.706,144883,851,177327
11.711,144899,851,177297
11.716,144910,849,177318
11.721,144904,853,177326
11.726,144912,853,177319
11.731,144915,852,177323
11.736,144922,851,177313
11.741,144912,849,177334
11.746,144930,848,177321
11.751,144932,848,177322
11.756,144935,846,177341
11.761,144935,849,177309
11.766,144941,848,177339
11.771,144934,847,177330
11.776,144951,846,177335
11.781,144953,851,177349
11.786,144970,847,177327
11.791,144969,854,177342
11.796,144978,854,177346
11.801,144964,854,177351
11.806,144965,847,177346
11.811,144974,847,177343
11.816,144985,844,177338
11.821,144983,846,177344
11.826,144988,845,177345
11.831,144989,847,177340
11.835,144991,844,177333
11.840,144981,852,177338
11.845,144976,851,177332
11.850,144975,250,177316
11.855,144963,306,177304
11.860,144947,347,177312
11.865,144930,375,177309
11.870,144931,400,177304
11.875,144925,420,177275
11.880,144924,443,177266
11.885,144914,458,177256
11.890,144905,477,177268
11.895,144910,486,177257
11.900,144886,502,177264
11.905,144882,511,177226
11.910,144876,521,177214
11.915,144862,529,177231
11.920,144855,541,177217
11.925,144857,550,177190
11.930,144846,558,177191
11.935,144839,564,177167
11.940,144829,572,177165
11.945,144832,578,177158
11.950,144832,585,177129
11.955,144826,591,177095
11.960,144823,1262,177133
11.965,144840,1191,177126
11.970,144845,1146,177123
11.975,144823,1110,177109
11.980,144815,1088,177119
11.985,144827,1062,177122
11.990,144813,1043,177108
11.995,144823,1026,177107
12.000,144824,1014,177092
12.004,144815,1001,177109
12.009,144804,991,177094
12.014,144826,980,177100
12.019,144811,973,177086
12.024,144819,965,177108
12.029,144813,960,177098
12.034,144814,950,177097
12.039,144811,949,177107
12.044,144810,943,177102
12.049,144833,938,177104
12.054,144826,932,177118
12.059,144839,930,177114
12.064,144835,924,177097
12.069,144832,924,177109
12.074,144838,917,177095
12.079,144834,917,177113
12.084,144842,909,177108
12.089,144836,907,177109
12.094,144841,903,177115
12.099,144827,903,177119
12.104,144841,900,177112
12.109,144833,899,177103
12.114,144839,894,177110
12.119,144846,895,177119
12.124,144842,893,177122
12.129,144833,907,177114
12.134,144843,887,177114
12.139,144837,886,177109
12.144,144844,884,177095
12.149,144836,884,177114
12.154,144836,879,177086
12.159,144842,881,177095
12.164,144846,880,177101
12.169,144844,880,177099
12.173,144820,877,177083
12.178,144791,906,177111
12.183,144841,874,177095
12.188,144847,874,177096
12.193,144832,871,177089
12.198,144851,872,177093
12.203,144857,871,177097
12.208,144831,872,177112
12.213,144854,870,177095
12.218,144857,871,177094
12.223,144844,870,177110
12.228,144858,867,177084
12.233,144857,867,177114
12.238,144858,868,177106
12.243,144870,867,177119
12.248,144865,869,177121
12.253,144875,867,177113
12.258,144871,868,177131
12.263,144886,867,177126
12.268,144876,868,177133
12.273,144878,860,177143
12.278,144883,863,177125
12.283,144878,863,177135
12.288,144889,863,177143
12.293,144897,861,177150
12.298,144895,861,177127
12.303,144891,861,177134
12.308,144889,861,177122
12.313,144896,857,177142
12.318,144873,859,177137
12.323,144876,860,177132
12.328,144891,862,177132
12.333,144906,862,177146
12.337,144909,861,177119
12.342,144906,856,177145
12.347,144904,855,177146
12.352,144904,854,177122
12.357,144918,854,177123
12.362,144908,861,177134
12.367,144916,861,177136
12.372,144906,852,177109
12.377,144914,855,177145
12.382,144938,854,177140
12.387,144924,854,177144
12.392,144941,854,177126
12.397,144925,853,177160
12.402,144934,852,177147
12.407,144928,853,177157
12.412,144944,854,177144
12.417,144935,852,177144
12.422,144995,859,177148
12.427,144963,851,177146
12.432,144956,850,177159
12.437,144959,851,177174
12.442,144959,854,177154
12.447,144972,852,177165
12.452,144966,847,177170
12.457,144966,850,177155
12.462,144964,851,177146
12.467,144981,850,177164
12.472,144970,855,177160
12.477,144981,854,177149
12.482,144982,855,177166
12.487,144991,854,177176
12.492,144986,853,177177
12.497,144986,853,177163
12.502,145000,856,177182
12.506,145007,846,177185
12.511,145001,847,177191
12.516,145004,845,177193
12.521,145015,851,177194
12.526,145026,848,177203
12.531,145017,850,177199
12.536,145014,850,177183
12.541,145020,851,177195
12.546,145012,851,177187
12.551,145020,850,177169
12.556,145028,850,177177
12.561,145031,851,177179
12.566,145021,848,177191
12.571,145040,846,177189
12.576,145022,845,177176
12.581,145039,847,177191
12.586,145049,844,177185
12.591,145043,842,177193
12.596,145035,843,177196
12.601,145036,845,177192
12.606,145043,844,177187
12.611,145039,844,177181
12.616,145028,842,177183
12.621,145023,846,177186
12.626,145011,850,177180
12.631,145032,851,177168
12.636,144996,849,177168
12.641,145001,850,177164
12.646,144989,849,177168
12.651,144992,849,177158
12.656,144976,848,177148
12.661,144968,849,177155
12.666,144977,827,177165
12.671,144967,845,177149
12.675,144948,842,177152
12.680,144946,845,177145
12.685,144940,844,177130
12.690,144958,844,177137
12.695,144939,841,177137
12.700,144938,844,177139
12.705,144944,842,177133
12.710,144926,843,177134
12.715,144932,844,177120
12.720,144930,846,177121
12.725,144942,846,177123
12.730,144934,845,177134
12.735,144926,843,177092
12.740,144921,848,177108
12.745,144921,846,177125
12.750,144919,848,177110
12.755,144909,845,177103
12.760,144920,846,177114
12.765,144938,849,177096
12.770,144908,847,177101
12.775,144911,843,177110
12.780,144903,845,177081
12.785,144912,844,177099
12.790,144902,845,177099
12.795,144918,841,177104
12.800,144902,845,177087
12.805,144918,844,177086
12.810,144913,844,177103
12.815,144907,843,177106
12.820,144911,847,177106
12.825,144911,846,177095
12.830,144921,847,177094
12.835,144920,843,177098
12.839,144909,847,177096
12.844,144928,846,177112
12.849,144927,846,177567
12.854,144908,300,177110
12.859,144912,344,177095
12.864,144910,367,177128
12.869,144918,394,177105
12.874,144919,415,177117
12.879,144920,436,177101
12.884,144921,453,177108
12.889,144924,469,177110
12.894,144913,481,177111
12.899,144921,494,177103
12.904,144926,506,177106
12.909,144925,532,177104
12.914,144945,520,177096
12.919,144917,531,177108
12.924,144928,540,177112
12.929,144934,548,177104
12.934,144938,553,177107
12.939,144940,562,177097
12.944,144939,569,177095
12.949,144932,576,177101
12.954,144938,580,177100
12.959,144928,1283,177098
12.964,144945,1201,177097
12.969,144955,1153,177107
12.974,144946,1114,177105
12.979,144951,1088,177092
12.984,144952,1066,177099
12.989,144963,1048,177119
12.994,144967,1029,177097
12.999,144953,1011,177101
13.004,144959,998,177101
13.008,144964,993,177109
13.013,144959,982,177107
13.018,144954,975,177117
13.023,144961,969,177106
13.028,144960,961,177098
13.033,144960,946,177105
13.038,144952,943,177106
13.043,144974,936,177123
13.048,144967,933,177101
13.053,144978,925,177121
13.058,144972,921,177099
13.063,144980,918,177113
13.068,144985,915,177105
13.073,144992,910,177106
13.078,144979,910,177102
13.083,144991,906,177114
13.088,144988,905,177109
13.093,144989,900,177117
13.098,144974,900,177121
13.103,144988,897,177125
13.108,144985,893,177119
13.113,145000,891,177115
13.118,144995,889,177117
13.123,144993,890,177118
13.128,145007,888,177112
13.133,144990,885,177124
13.138,144997,884,177119
13.143,145007,885,177118
13.148,145008,882,177129
13.153,145014,880,177126
13.158,145007,877,177142
13.163,145028,878,177140
13.168,145015,875,177137
13.173,145011,873,177132
13.177,145028,872,177151
13.182,145034,875,177142
13.187,145028,872,177141
13.192,145019,871,177140
13.197,145024,868,177132
13.202,145003,871,177140
13.207,145038,869,177147
13.212,145049,868,177140
13.217,145040,866,177136
13.222,145054,867,177142
13.227,145062,865,177150
13.232,145061,865,177150
13.237,145064,863,177154
13.242,145062,865,177147
13.247,145062,863,177168
13.252,145070,864,177148
13.257,145068,864,177151
13.262,145077,866,177143
13.267,145065,865,177168
13.272,145075,857,177161
13.277,145092,855,177159
13.282,145081,856,177164
13.287,145095,855,177170
13.292,145088,855,177173
13.297,145093,853,177165
13.302,145122,852,177172
13.307,145107,855,177155
13.312,145111,856,177168
13.317,145087,854,177164
13.322,145095,855,177179
13.327,145106,854,177146
13.332,145098,854,177171
13.337,145086,854,177160
13.341,145085,854,177163
13.346,145069,852,177164
13.351,145062,854,177153
13.356,145064,853,177152
13.361,145052,855,177151
13.366,145040,853,177143
13.371,145023,852,177150
13.376,145025,851,177141
13.381,145016,853,177125
13.386,145021,852,177120
13.391,144996,851,177132
13.396,145003,850,177108
13.401,145002,847,177123
13.406,144993,852,177115
13.411,144994,852,177102
13.416,144983,851,177101
13.421,144985,852,177099
13.426,144976,850,177118
13.431,144985,852,177092
13.436,144973,848,177083
13.441,144970,852,177090
13.446,144992,836,177096
13.451,144955,847,177075
13.456,144969,845,177091
13.461,144962,847,177081
13.466,144961,846,177075
13.471,144954,848,177066
13.476,144942,844,177079
13.481,144953,847,177067
13.486,144952,844,177058
13.491,144953,847,177057
13.496,144946,847,177048
13.501,144942,850,177058
13.506,144929,849,177057
13.510,144952,844,177068
13.515,144933,841,177057
13.520,144955,844,177061
13.525,144940,844,177053
13.530,144946,845,177047
13.535,144938,841,177043
13.540,144931,844,177042
13.545,144929,845,177055
13.550,144947,846,177030
13.555,144946,845,177060
13.560,144936,847,177053
13.565,144952,845,177060
13.570,144946,848,177064
13.575,144942,843,177044
13.580,144952,846,177054
13.585,144954,846,177065
13.590,144954,846,177062
13.595,144952,840,177059
13.600,144951,842,177049
13.605,144960,841,177050
13.610,144954,842,177049
13.615,144965,840,177053
13.620,144966,844,177063
13.625,144954,842,177054
13.630,144953,844,177062
13.635,144956,843,177069
13.640,144962,845,177063
13.645,144956,840,177059
13.650,144958,841,177049
13.655,144950,840,177045
13.660,144962,843,177037
13.665,144964,843,177069
13.670,144959,844,177051
13.675,144947,842,177058
13.679,144949,844,177059
13.684,144962,844,177047
13.689,144962,845,177072
13.694,144962,838,177059
13.699,144955,840,177053
13.704,144971,839,177061
13.709,144966,841,177065
13.714,144968,838,177047
13.719,144972,840,177047
13.724,144961,839,177056
13.729,144956,841,177045
13.734,144962,837,177057
13.739,144972,844,177056
13.744,144965,838,177037
13.749,144963,839,177057
13.754,144960,837,177059
13.759,144972,839,177061
13.764,144973,838,177064
13.769,144968,839,177073
13.774,144994,836,177064
13.779,144975,839,177057
13.784,144980,837,177068
13.789,144990,842,177051
13.794,144976,841,177072
13.799,144979,843,177066
13.804,144986,843,177042
13.809,144968,844,177037
13.814,144987,840,177067
13.819,144984,843,177076
13.824,144985,842,177065
13.829,144988,844,177044
13.834,144982,841,177063
13.839,144986,837,177053
13.843,144996,839,177053
13.848,144997,838,177073
13.853,144983,278,177063
13.858,144972,326,177043
13.863,144977,359,177050
13.868,144989,384,177080
13.873,144992,405,177056
13.878,145002,425,177045
13.883,144991,445,177070
13.888,144995,463,177064
13.893,144999,476,177067
13.898,145010,489,177061
13.903,145015,501,177074
13.908,145026,511,177066
13.913,145019,519,177075
13.918,145020,527,177064
13.923,145012,540,177072
13.928,145038,547,177069
13.933,145031,555,177027
13.938,145026,559,177083
13.943,145046,569,177066
13.948,145044,575,177082
13.953,145032,581,177082
13.958,145069,1316,177095
13.963,145068,1219,177081
13.968,145068,1164,177084
13.973,145067,1123,177094
13.978,145068,1088,177085
13.983,145074,1067,177082
13.988,145061,1045,177092
13.993,145048,1028,177078
13.998,145055,1014,177090
14.003,145046,1003,177108
14.008,145036,990,177089
14.012,145029,980,177076
14.017,145024,972,177063
14.022,145006,964,177079
14.027,145006,956,177061
14.032,145039,950,177073
14.037,144983,942,177053
14.042,144979,938,177045
14.047,144968,934,177043
14.052,144960,927,177038
14.057,144945,924,177047
14.062,144945,916,177036
14.067,144940,911,177032
14.072,144934,907,177039
14.077,144930,905,177042
14.082,144929,906,177020
14.087,144911,904,177018
14.092,144914,902,177013
14.097,144920,892,177010
14.102,144909,891,177005
14.107,144903,890,177006
14.112,144904,885,177011
14.117,144897,883,176995
14.122,144899,883,177008
14.127,144887,880,177007
14.132,144894,882,177004
14.137,144886,879,177012
14.142,144894,880,176998
14.147,144894,879,177004
14.152,144887,876,176989
14.157,144875,873,177009
14.162,144883,874,176995
14.167,144880,872,176986
14.172,144889,870,176984
14.177,144864,867,176990
14.181,144879,872,176998
14.186,144871,869,176997
14.191,144871,870,176988
14.196,144863,868,176983
14.201,144855,862,176993
14.206,144867,861,176978
14.211,144876,860,176989
14.216,144864,859,176993
14.221,144864,861,176992
14.226,144883,861,176995
14.231,144860,861,176999
14.236,144873,859,177001
14.241,144884,861,176978
14.246,144876,859,177002
14.251,144868,860,176999
14.256,144873,858,176988
14.261,144880,859,176999
14.266,144878,858,176992
14.271,144890,858,176999
14.276,144882,852,176999
14.281,144874,854,177002
14.286,144876,853,176996
14.291,144873,853,176995
14.296,144881,849,177000
14.301,144873,851,177001
14.306,144875,849,176999
14.311,144868,850,176998
14.316,144874,847,177001
14.321,144881,850,176988
14.326,144879,850,176991
14.331,144867,851,176985
14.336,144867,847,176986
14.341,144872,850,176996
14.345,144864,849,176993
14.350,144867,850,177008
14.355,144882,847,177013
14.360,144873,848,177009
14.365,144895,847,176987
14.370,144864,855,177007
14.375,144881,843,177011
14.380,144875,844,176999
14.385,144875,843,176997
14.390,144886,844,177002
14.395,144884,842,177024
14.400,144888,842,177019
14.405,144885,843,177013
14.410,144900,843,177010
14.415,144880,846,177009
14.420,144895,850,177009
14.425,144883,846,177010
14.430,144901,848,177018
14.435,144896,843,177012
14.440,144895,847,177006
14.445,144902,844,177026
14.450,144894,848,177017
14.455,144889,842,177025
14.460,144901,846,177021
14.465,144898,845,177012
14.470,144904,846,177017
14.475,144920,838,177012
14.480,144910,841,177019
14.485,144905,841,177020
14.490,144921,842,177018
14.495,144910,839,177028
14.500,144925,842,177030
14.505,144920,841,177033
14.510,144921,842,177036
14.514,144919,841,177033
14.519,144931,839,177029
14.524,144938,837,177034
14.529,144922,839,177024
14.534,144932,836,177036
14.539,144943,838,177030
14.544,144939,837,177041
14.549,144935,839,177045
14.554,144931,835,177050
14.559,144943,838,177052
14.564,144943,836,177050
14.569,144953,840,177057
14.574,144955,839,177058
14.579,144957,839,177045
14.584,144954,840,177051
14.589,144958,839,177047
14.594,144966,838,177070
14.599,144968,839,177054
14.604,144972,838,177059
14.609,144965,839,177068
14.614,144990,837,177068
14.619,144993,842,177065
14.624,144979,842,177079
14.629,144988,843,177068
14.634,144994,842,177073
14.639,144995,842,177087
14.644,144991,843,177085
14.649,144993,837,177092
14.654,145003,835,177086
14.659,144981,836,177071
14.664,144962,836,177086
14.669,144986,841,177076
14.674,144965,839,177054
14.679,144965,839,177076
14.683,144949,835,177063
14.688,144938,834,177065
14.693,144929,834,177051
14.698,144912,834,177055
14.703,144904,835,177031
14.708,144895,836,177027
14.713,144904,836,177049
14.718,144885,836,177024
14.723,144865,838,177014
14.728,144859,839,177009
14.733,144847,837,177000
14.738,144845,839,176987
14.743,144843,840,177000
14.748,144833,841,176977
14.753,144823,832,176987
14.758,144817,832,176978
14.763,144786,836,176954
14.768,144824,836,176971
14.773,144794,837,176962
14.778,144791,836,176961
14.783,144793,837,176950
14.788,144787,837,176962
14.793,144784,836,176962
14.798,144791,836,176953
14.803,144773,839,176948
14.808,144779,838,176940
14.813,144784,834,176941
14.818,144772,835,176941
14.823,144775,839,176945
14.828,144769,837,176924
14.833,144774,837,176922
14.838,144767,837,176931
14.843,144758,840,176920
14.847,144758,833,176929
14.852,144743,258,176924
14.857,144728,309,176905
14.862,144736,356,176905
14.867,144729,382,176917
14.872,144720,404,176913
14.877,144727,426,176910
14.882,144727,444,176915
14.887,144723,461,176908
14.892,144712,473,176903
14.897,144725,485,176917
14.902,144727,499,176903
14.907,144730,509,176913
14.912,144731,513,176896
14.917,144735,524,176919
14.922,144730,533,176911
14.927,144736,544,176920
14.932,144730,550,176902
14.937,144733,558,176923
14.942,144742,567,176889
14.947,144743,572,176899
14.952,144721,580,176906
14.957,144737,1363,176922
14.962,144755,1230,176915
14.967,144734,1168,176924
14.972,144740,1126,176919
14.977,144752,1092,176910
14.982,144734,1067,176924
14.987,144742,1048,176905
14.992,144746,1028,176913
14.997,144728,1012,176909
15.002,144747,1001,176912
15.007,144728,987,176916
15.012,144736,975,176917
15.016,144725,965,176913
15.021,144742,959,176916
15.026,144743,952,176917
15.031,144740,945,176922
15.036,144736,939,176917
15.041,144730,936,176913
15.046,144739,931,176925
15.051,144739,929,176915
15.056,144735,916,176915
15.061,144749,914,176914
15.066,144740,910,176930
15.071,144747,906,176932
15.076,144759,902,176936
15.081,144744,900,176929
15.086,144751,896,176937
15.091,144758,894,176930
15.096,144757,887,176948
15.101,144765,889,176956
15.106,144719,890,176939
15.111,144762,885,176942
15.116,144767,881,176938
15.121,144768,882,176966
15.126,144775,880,176952
15.131,144770,879,176939
15.136,144771,875,176957
15.141,144769,876,176942
15.146,144774,875,176946
15.151,144783,881,176958
15.156,144784,867,176968
15.161,144783,868,176972
15.166,144782,866,176962
15.171,144796,865,176959
15.176,144789,863,176958
15.181,144782,864,176969
15.185,144790,863,176977
15.190,144793,862,176963
15.195,144800,859,176986
15.200,144803,861,176968
15.205,144802,863,176988
15.210,144797,863,176984
15.215,144824,855,176976
15.220,144804,856,176994
15.225,144803,855,176989
15.230,144822,858,176980
15.235,144822,852,176987
15.240,144832,857,176971
15.245,144822,855,176997
15.250,144835,853,177007
15.255,144824,849,177001
15.260,144832,853,177004
15.265,144822,852,177005
15.270,144840,852,177003
15.275,144835,850,177005
15.280,144834,853,177001
15.285,144848,851,177000
15.290,144850,853,177001
15.295,144853,849,177021
15.300,144871,846,177012
15.305,144862,846,177026
15.310,144864,847,177020
15.315,144866,843,177017
15.320,144880,846,177023
15.325,144867,846,177028
15.330,144876,847,177010
15.335,144872,844,177008
15.340,144881,846,177013
15.345,144880,846,177015
15.349,144885,844,177012
15.354,144885,840,177015
15.359,144885,844,177020
15.364,144886,843,177015
15.369,144883,844,177033
15.374,144901,841,177023
15.379,144893,843,177011
15.384,144904,844,177027
15.389,144895,845,177026
15.394,144890,842,177009
15.399,144885,841,177019
15.404,144868,844,177003
15.409,144871,845,177005
15.414,144852,843,176987
15.419,144837,839,176990
15.424,144827,838,176985
15.429,144815,839,176987
15.434,144809,838,176967
15.439,144802,840,176965
15.444,144804,841,176963
15.449,144781,843,176946
15.454,144781,842,176961
15.459,144760,837,176952
15.464,144758,838,176947
15.469,144758,838,176941
15.474,144756,838,176948
15.479,144744,837,176928
15.484,144739,839,176935
15.489,144731,839,176946
15.494,144724,849,176892
15.499,144732,835,176935
15.504,144722,836,176935
15.509,144719,835,176920
15.514,144731,833,176940
15.518,144717,835,176922
15.523,144715,835,176910
15.528,144705,836,176925
15.533,144693,835,176924
15.538,144695,834,176909
15.543,144699,839,176905
15.548,144693,841,176916
15.553,144690,840,176912
15.558,144675,834,176904
15.563,144689,834,176908
15.568,144691,833,176911
15.573,144672,833,176909
15.578,144681,833,176890
15.583,144675,834,176883
15.588,144667,834,176905
15.593,144670,836,176898
15.598,144670,835,176899
15.603,144667,837,176898
15.608,144670,837,176889
15.613,144676,836,176880
15.618,144668,837,176878
15.623,144669,840,176880
15.628,144668,839,176892
15.633,144668,831,176888
15.638,144666,831,176886
15.643,144683,837,176889
15.648,144685,836,176903
15.653,144699,833,176901
15.658,144679,834,176891
15.663,144686,838,176908
15.668,144683,837,176904
15.673,144680,837,176913
15.678,144684,835,176899
15.683,144687,837,176886
15.687,144696,836,176909
15.692,144695,832,176914
15.697,144687,831,176890
15.702,144698,832,176898
15.707,144684,830,176905
15.712,144692,830,176881
15.717,144672,829,176901
15.722,144683,832,176905
15.727,144696,831,176882
15.732,144689,831,176907
15.737,144679,830,176895
15.742,144692,836,176901
15.747,144698,834,176913
15.752,144693,834,176915
15.757,144688,833,176904
15.762,144680,835,176897
15.767,144684,835,176905
15.772,144699,836,176906
15.777,144702,833,176909
15.782,144685,837,176899
15.787,144704,829,176914
15.792,144726,830,176904
15.797,144704,830,176911
15.802,144698,832,176914
15.807,144703,831,176923
15.812,144706,831,176929
15.817,144709,830,176922
15.822,144706,831,176914
15.827,144722,830,176925
15.832,144708,830,176934
15.837,144713,832,176920
15.842,144712,835,176934
15.847,144723,832,176931
15.851,144716,241,176928
15.856,144697,304,176930
15.861,144712,344,176926
15.866,144704,373,176941
15.871,144719,397,176936
15.876,144725,417,176948
15.881,144711,436,176941
15.886,144728,445,176933
15.891,144721,459,176947
15.896,144731,472,176942
15.901,144724,485,176944
15.906,144743,495,176965
15.911,144742,507,176958
15.916,144742,515,176948
15.921,144752,526,176957
15.926,144745,533,176958
15.931,144750,546,176953
15.936,144753,552,176979
15.941,144761,560,176977
15.946,144772,564,176971
15.951,144778,575,176966
15.956,144782,584,176967
15.961,144794,1249,176979
15.966,144809,1177,176975
15.971,144814,1135,177008
15.976,144798,1096,176995
15.981,144809,1072,176982
15.986,144802,1029,176990
15.991,144813,1033,176989
15.996,144820,1014,176982
16.001,144795,1003,176985
16.006,144819,989,176994
16.011,144829,981,177000
16.016,144822,968,177014
16.020,144826,963,176992
16.025,144824,955,177003
16.030,144805,947,176996
16.035,144830,936,176993
16.040,144835,933,177004
16.045,144834,926,176994
16.050,144824,922,176990
16.055,144858,914,177010
16.060,144844,913,177015
16.065,144854,908,177020
16.070,144863,903,177029
16.075,144863,898,177021
16.080,144868,898,177021
16.085,144864,896,177030
16.090,144873,895,177034
16.095,144888,889,177035
16.100,144886,888,177044
16.105,144881,885,177036
16.110,144893,883,177048
16.115,144897,878,177046
16.120,144904,878,177049
16.125,144901,874,177043
16.130,144906,876,177050
16.135,144919,873,177073
16.140,144910,873,177055
16.145,144917,871,177068
16.150,144930,870,177073
16.155,144916,865,177064
16.160,144928,865,177080
16.165,144944,864,177083
16.170,144926,861,177087
16.175,144939,859,177078
16.180,144938,862,177083
16.185,144931,860,177086
16.189,144911,861,177082
16.194,144911,857,177072
16.199,144910,858,177055
16.204,144878,856,177057
16.209,144892,854,177075
16.214,144865,853,177044
16.219,144843,852,177028
16.224,144869,851,177047
16.229,144829,851,177031
16.234,144829,847,177026
16.239,144826,855,177013
16.244,144804,854,177022
16.249,144808,853,177018
16.254,144816,849,177016
16.259,144812,849,177022
16.264,144799,849,177005
16.269,144798,848,176991
16.274,144785,848,176977
16.279,144787,843,176990
16.284,144787,850,176989
16.289,144787,849,176982
16.294,144781,847,176975
16.299,144777,847,176981
16.304,144760,847,176969
16.309,144778,845,176969
16.314,144771,846,176980
16.319,144763,844,176984
16.324,144762,845,176971
16.329,144763,846,176973
16.334,144760,844,176962
16.339,144765,843,176970
16.344,144749,844,176968
16.349,144766,842,176964
16.354,144747,841,176958
16.358,144739,841,176957
16.363,144755,842,176958
16.368,144751,842,176955
16.373,144741,843,176950
16.378,144746,842,176958
16.383,144741,844,176958
16.388,144734,843,176934
16.393,144749,842,176944
16.398,144741,841,176926
16.403,144738,844,176946
16.408,144750,841,176944
16.413,144735,842,176940
16.418,144738,841,176941
16.423,144752,838,176941
16.428,144755,836,176946
16.433,144743,836,176947
16.438,144750,835,176955
16.443,144751,837,176946
16.448,144742,834,176942
16.453,144755,834,176939
16.458,144754,832,176940
16.463,144748,833,176949
16.468,144746,833,176941
16.473,144747,834,176943
16.478,144747,834,176952
16.483,144744,835,176942
16.488,144769,834,176951
16.493,144760,835,176956
16.498,144744,834,176938
16.503,144751,837,176943
16.508,144753,835,176952
16.513,144751,834,176952
16.518,144752,832,176945
16.522,144737,837,176946
16.527,144760,836,176952
16.532,144757,835,176948
16.537,144759,835,176939
16.542,144759,836,176945
16.547,144751,837,176946
16.552,144758,836,176944
16.557,144758,835,176950
16.562,144766,837,176951
16.567,144784,829,176957
16.572,144770,832,176966
16.577,144779,830,176955
16.582,144775,830,176954
16.587,144775,831,176953
16.592,144780,831,176969
16.597,144784,829,176959
16.602,144775,833,176982
16.607,144787,832,176964
16.612,144802,833,176962
16.617,144812,827,176972
16.622,144792,829,176966
16.627,144815,835,176975
16.632,144808,828,176999
16.637,144811,825,176979
16.642,144803,829,176980
16.647,144805,828,176988
16.652,144824,829,176988
16.657,144832,826,176985
16.662,144821,829,176997
16.667,144832,833,177001
16.672,144825,829,176999
16.677,144826,826,177001
16.682,144828,830,176993
16.687,144856,828,177002
16.691,144849,830,177000
16.696,144854,827,177003
16.701,144863,830,177015
16.706,144851,828,177013
16.711,144855,837,177018
16.716,144858,831,177001
16.721,144873,834,177020
16.726,144879,833,177022
16.731,144873,833,177023
16.736,144889,831,177019
16.741,144877,833,177033
16.746,144889,832,177026
16.751,144888,833,177023
16.756,144892,832,177012
16.761,144890,834,177015
16.766,144895,829,177014
16.771,144902,828,177040
16.776,144900,827,177039
16.781,144898,830,177031
16.786,144912,829,177028
16.791,144924,830,177039
16.796,144922,828,177049
16.801,144911,829,177046
16.806,144931,830,177059
16.811,144929,825,177046
16.816,144926,831,177044
16.821,144931,833,177051
16.826,144933,832,177041
16.831,144939,834,177050
16.836,144939,831,177058
16.841,144930,826,177055
16.846,144941,826,177054
16.851,144955,827,177583
16.856,144938,282,177073
16.860,144942,329,177047
16.865,144955,362,177060
16.870,144952,387,177072
16.875,144962,406,177078
16.880,144957,427,177066
16.885,144975,444,177081
16.890,144960,461,177086
16.895,144966,472,177078
16.900,144971,487,177059
16.905,144986,497,177095
16.910,144990,510,177094
16.915,144998,515,177111
16.920,145013,526,177093
16.925,145018,535,177094
16.930,145009,545,177096
16.935,145014,550,177095
16.940,145019,560,177096
16.945,145034,566,177105
16.950,145022,574,177126
16.955,145009,579,177117
16.960,145031,1256,177129
16.965,145037,1195,177132
16.970,145028,1140,177133
16.975,145014,1100,177128
16.980,145010,1074,177111
16.985,145000,1049,177112
16.990,144996,1030,177089
16.995,144975,1012,177087
17.000,144978,997,177075
17.005,144970,986,177080
17.010,144967,978,177060
17.015,144948,967,177058
17.020,144952,960,177046
17.024,144942,952,177067
17.029,144931,945,177053
17.034,144933,937,177045
17.039,144935,932,177043
17.044,144920,928,177058
17.049,144913,917,177038
17.054,144913,914,177072
17.059,144915,908,177029
17.064,144913,906,177028
17.069,144912,901,177035
17.074,144904,896,177022
17.079,144915,893,177019
17.084,144902,892,177005
17.089,144903,888,177005
17.094,144894,885,177012
17.099,144893,881,176999
17.104,144875,882,176994
17.109,144895,881,176998
17.114,144904,878,177005
17.119,144894,876,177005
17.124,144904,875,177010
17.129,144885,874,176999
17.134,144888,872,176995
17.139,144889,869,176982
17.144,144881,871,177005
17.149,144875,869,176989
17.154,144882,861,177003
17.159,144868,861,177000
17.164,144895,862,176993
17.169,144905,859,176995
17.174,144903,858,176974
17.179,144896,856,176977
17.184,144883,854,177001
17.189,144898,855,176975
17.193,144900,852,176992
17.198,144884,850,176981
17.203,144892,856,177005
17.208,144907,854,177001
17.213,144904,852,177004
17.218,144917,852,177005
17.223,144923,853,176999
17.228,144907,852,176990
17.233,144925,850,177014
17.238,144927,850,177001
17.243,144906,851,177010
17.248,144919,849,177014
17.253,144921,843,177018
17.258,144914,840,177014
17.263,144914,843,177013
17.268,144923,841,177006
17.273,144927,848,176996
17.278,144928,846,177007
17.283,144922,847,176998
17.288,144923,847,176996
17.293,144925,846,176999
17.298,144922,845,177001
17.303,144924,841,176996
17.308,144924,840,176998
17.313,144923,840,176996
17.318,144925,839,176988
17.323,144927,838,177003
17.328,144932,840,176997
17.333,144931,839,177010
17.338,144927,839,177008
17.343,144928,841,176992
17.348,144933,844,177003
17.353,144935,837,177004
17.358,144941,836,177008
17.362,144939,838,177011
17.367,144950,836,177009
17.372,144938,836,176985
17.377,144943,835,177005
17.382,144948,838,176993
17.387,144945,836,176997
17.392,144944,838,176992
17.397,144953,831,176984
17.402,144941,834,176990
17.407,144945,830,176982
17.412,144959,832,176997
17.417,144959,830,177000
17.422,144954,833,176993
17.427,144961,832,176998
17.432,144970,833,176997
17.437,144978,831,177001
17.442,144966,833,177001
17.447,144967,834,176988
17.452,144984,835,177008
17.457,144994,835,177014
17.462,144984,837,177010
17.467,145011,830,177023
17.472,145006,830,177022
17.477,145007,830,177020
17.482,144992,832,177022
17.487,145019,831,177015
17.492,145013,837,177023
17.497,145012,827,177020
17.502,145010,830,177046
17.507,145029,829,177047
17.512,145016,830,177028
17.517,145032,829,177044
17.522,145030,830,177045
17.526,145034,829,177032
17.531,145032,829,177036
17.536,145042,829,177058
17.541,145047,830,177052
17.546,145057,832,177064
17.551,145050,831,177058
17.556,145048,831,177062
17.561,145067,827,177062
17.566,145070,827,177058
17.571,145068,828,177044
17.576,145077,825,177051
17.581,145087,829,177056
17.586,145076,829,177068
17.591,145086,826,177070
17.596,145087,831,177055
17.601,145096,826,177065
17.606,145102,826,177086
17.611,145100,828,177077
17.616,145100,826,177080
17.621,145097,829,177076
17.626,145101,828,177086
17.631,145127,830,177058
17.636,145107,828,177070
17.641,145131,826,177075
17.646,145136,825,177086
17.651,145129,828,177096
17.656,145134,825,177095
17.661,145133,828,177098
17.666,145153,828,177114
17.671,145137,828,177087
17.676,145150,827,177108
17.681,145163,829,177115
17.686,145155,828,177103
17.691,145162,826,177112
17.695,145170,823,177115
17.700,145176,826,177103
17.705,145169,824,177118
17.710,145188,827,177126
17.715,145191,823,177105
17.720,145189,826,177114
17.725,145184,825,177124
17.730,145201,826,177124
17.735,145195,823,177117
17.740,145183,830,177123
17.745,145197,827,177135
17.750,145176,830,177118
17.755,145174,828,177121
17.760,145183,824,177126
17.765,145178,821,177116
17.770,145158,824,177120
17.775,145141,821,177102
17.780,145134,823,177101
17.785,145136,823,177101
17.790,145140,822,177098
17.795,145124,820,177088
17.800,145129,821,177092
17.805,145109,822,177090
17.810,145110,822,177078
17.815,145113,820,177074
17.820,145098,822,177067
17.825,145085,821,177067
17.830,145083,823,177065
17.835,145082,825,177054
17.840,145108,820,177047
17.845,145089,823,177070
17.850,145104,824,177045
17.855,145063,271,177063
17.860,145080,317,177048
17.864,145083,350,177045
17.869,145067,377,177048
17.874,145071,396,177053
17.879,145078,416,177052
17.884,145076,438,177049
17.889,145070,457,177038
17.894,145075,468,177033
17.899,145086,482,177034
17.904,145055,494,177034
17.909,145077,505,177024
17.914,145066,514,177043
17.919,145066,524,177035
17.924,145072,534,177034
17.929,145068,542,177028
17.934,145074,542,177034
17.939,145068,549,177021
17.944,145072,557,177021
17.949,145072,564,177033
17.954,145076,569,177015
17.959,145089,1304,177020
17.964,145097,1207,177024
17.969,145094,1149,177031
17.974,145101,1109,177027
17.979,145097,1078,177013
17.984,145099,1056,177022
17.989,145100,1037,177029
17.994,145098,1020,177028
17.999,145106,1004,177038
18.004,145112,987,177035
18.009,145113,975,177029
18.014,145106,964,177026
18.019,145122,954,177035
18.024,145115,950,177019
18.028,145128,941,177022
18.033,145105,933,177026
18.038,145107,925,177040
18.043,145100,923,177029
18.048,145097,917,177033
18.053,145114,911,177028
18.058,145144,909,177049
18.063,145123,906,177040
18.068,145115,901,177020
18.073,145137,897,177022
18.078,145115,895,177007
18.083,145117,890,177040
18.088,145122,885,177042
18.093,145143,884,177015
18.098,145141,881,177032
18.103,145129,881,177040
18.108,145147,877,177038
18.113,145143,875,177043
18.118,145147,870,177030
18.123,145140,870,177027
18.128,145180,867,177034
18.133,145146,869,177040
18.138,145158,865,177033
18.143,145156,866,177041
18.148,145157,864,177037
18.153,145149,863,177034
18.158,145159,858,177059
18.163,145148,859,177027
18.168,145146,857,177035
18.173,145164,856,177045
18.178,145157,858,177035
18.183,145164,858,177040
18.188,145178,858,177049
18.193,145163,856,177049
18.197,145174,847,177056
18.202,145176,848,177071
18.207,145180,847,177049
18.212,145184,847,177067
18.217,145192,845,177052
18.222,145187,845,177062
18.227,145193,847,177072
18.232,145192,846,177072
18.237,145192,844,177057
18.242,145193,847,177067
18.247,145206,847,177066
18.252,145201,840,177053
18.257,145219,839,177070
18.262,145224,841,177100
18.267,145230,839,177075
18.272,145230,834,177073
18.277,145240,841,177093
18.282,145228,842,177078
18.287,145251,841,177095
18.292,145241,842,177097
18.297,145263,840,177094
18.302,145274,842,177105
18.307,145261,840,177094
18.312,145259,841,177080
18.317,145264,838,177090
18.322,145267,840,177086
18.327,145272,834,177117
18.332,145275,836,177117
18.337,145293,833,177116
18.342,145288,838,177102
18.347,145295,834,177117
18.352,145302,836,177119
18.357,145296,834,177134
18.362,145308,835,177117
18.366,145314,834,177143
18.371,145306,829,177143
18.376,145336,828,177119
18.381,145308,832,177135
18.386,145327,830,177145
18.391,145327,831,177130
18.396,145333,831,177149
18.401,145337,833,177148
18.406,145336,832,177154
18.411,145333,833,177165
18.416,145346,831,177157
18.421,145342,830,177161
18.426,145353,831,177163
18.431,145346,833,177160
18.436,145360,828,177165
18.441,145360,834,177180
18.446,145355,834,177159
18.451,145370,827,177163
18.456,145369,826,177173
18.461,145360,828,177174
18.466,145366,827,177167
18.471,145400,834,177176
18.476,145380,824,177156
18.481,145374,825,177175
18.486,145381,826,177174
18.491,145397,827,177178
18.496,145370,824,177178
18.501,145376,825,177172
18.506,145369,825,177180
18.511,145375,825,177163
18.516,145357,822,177167
18.521,145356,826,177164
18.526,145346,826,177155
18.530,145344,828,177165
18.535,145337,824,177141
18.540,145324,827,177141
18.545,145322,826,177130
18.550,145314,826,177132
18.555,145311,823,177149
18.560,145314,823,177135
18.565,145323,824,177126
18.570,145300,827,177126
18.575,145315,823,177132
18.580,145299,825,177108
18.585,145301,827,177112
18.590,145288,827,177125
18.595,145289,825,177115
18.600,145286,826,177121
18.605,145296,826,177112
18.610,145283,828,177105
18.615,145293,841,177081
18.620,145309,822,177104
18.625,145280,823,177099
18.630,145291,823,177098
18.635,145290,820,177085
18.640,145286,822,177088
18.645,145283,822,177086
18.650,145299,823,177101
18.655,145284,820,177103
18.660,145286,821,177087
18.665,145279,823,177081
18.670,145292,823,177099
18.675,145276,823,177088
18.680,145279,823,177093
18.685,145300,822,177106
18.690,145283,823,177064
18.695,145299,821,177064
18.699,145282,820,177076
18.704,145285,821,177071
18.709,145295,828,177077
18.714,145279,822,177070
18.719,145289,821,177069
18.724,145301,822,177081
18.729,145293,822,177057
18.734,145300,820,177061
18.739,145302,820,177080
18.744,145303,821,177084
18.749,145297,821,177064
18.754,145297,820,177072
18.759,145293,819,177061
18.764,145311,810,177076
18.769,145300,819,177069
18.774,145283,826,177066
18.779,145303,825,177078
18.784,145305,820,177063
18.789,145308,819,177063
18.794,145301,819,177070
18.799,145301,818,177065
18.804,145297,819,177063
18.809,145321,819,177046
18.814,145309,823,177047
18.819,145297,823,177055
18.824,145296,824,177060
18.829,145301,823,177064
18.834,145289,823,177042
18.839,145312,823,177050
18.844,145302,825,177058
18.849,145309,825,177064
18.854,145317,823,177073
18.859,145314,824,177060
18.864,145271,278,177061
18.868,145291,321,177063
18.873,145297,352,177037
18.878,145290,377,177038
18.883,145311,399,177045
18.888,145298,418,177038
18.893,145307,435,177049
18.898,145300,449,177052
18.903,145298,466,177047
18.908,145351,475,177041
18.913,145306,494,177056
18.918,145319,505,177049
18.923,145312,515,177049
18.928,145318,525,177049
18.933,145322,532,177045
18.938,145333,540,177033
18.943,145333,549,177053
18.948,145327,555,177049
18.953,145349,562,177057
18.958,145343,560,177063
18.963,145335,566,177053
18.968,145362,1276,177064
18.973,145350,1190,177063
18.978,145371,1136,177048
18.983,145358,1100,177053
18.988,145364,1070,177061
18.993,145375,1045,177058
18.998,145363,1023,177075
19.003,145357,1010,177058
19.008,145392,1002,177029
19.013,145370,980,177040
19.018,145359,967,177055
19.023,145383,959,177060
19.028,145367,949,177058
19.032,145376,941,177046
19.037,145383,933,177064
19.042,145392,929,177070
19.047,145397,921,177068
19.052,145393,910,177067
19.057,145411,911,177071
19.062,145406,910,177057
19.067,145400,905,177077
19.072,145400,902,177067
19.077,145406,895,177067
19.082,145411,896,177089
19.087,145405,890,177086
19.092,145417,890,177081
19.097,145432,885,177081
19.102,145414,887,177077
19.107,145423,878,177091
19.112,145434,877,177092
19.117,145423,871,177083
19.122,145442,873,177093
19.127,145447,869,177095
19.132,145441,866,177098
19.137,145444,864,177108
19.142,145452,865,177097
19.147,145452,862,177089
19.152,145460,888,177129
19.157,145454,857,177102
19.162,145456,858,177082
19.167,145458,856,177104
19.172,145454,856,177097
19.177,145451,852,177093
19.182,145458,853,177096
19.187,145471,850,177099
19.192,145460,851,177099
19.197,145472,847,177104
19.201,145467,851,177104
19.206,145477,850,177089
19.211,145456,849,177103
19.216,145464,845,177102
19.221,145456,846,177095
19.226,145454,844,177088
19.231,145436,844,177091
19.236,145452,841,177071
19.241,145427,842,177091
19.246,145410,840,177070
19.251,145417,846,177082
19.256,145404,840,177069
19.261,145398,842,177053
19.266,145398,842,177058
19.271,145393,844,177060
19.276,145388,839,177050
19.281,145391,841,177061
19.286,145388,840,177027
19.291,145377,839,177028
19.296,145374,836,176995
19.301,145381,840,176968
19.306,145356,837,177023
19.311,145353,841,177008
19.316,145358,830,177013
19.321,145345,832,177012
19.326,145354,831,177024
19.331,145351,832,177010
19.336,145367,830,177000
19.341,145351,831,177006
19.346,145365,831,176997
19.351,145357,837,177010
19.356,145337,827,177005
19.361,145343,828,176986
19.366,145337,828,176993
19.370,145336,830,176984
19.375,145340,827,176994
19.380,145334,828,176963
19.385,145319,828,176988
19.390,145319,829,176962
19.395,145316,838,176943
19.400,145319,830,176969
19.405,145327,830,176962
19.410,145348,831,176979
19.415,145320,830,176939
19.420,145329,831,176954
19.425,145324,831,176951
19.430,145338,831,176963
19.435,145343,830,176960
19.440,145338,830,176961
19.445,145347,826,176965
19.450,145331,826,176960
19.455,145349,826,176962
19.460,145342,825,176958
19.465,145356,826,176975
19.470,145350,827,176987
19.475,145350,825,176975
19.480,145350,824,176965
19.485,145344,827,176972
19.490,145362,825,176971
19.495,145361,827,176974
19.500,145354,827,176968
19.505,145359,829,176961
19.510,145346,829,176966
19.515,145357,826,176963
19.520,145348,826,176956
19.525,145345,827,176955
19.530,145340,830,176947
19.534,145331,828,176958
19.539,145335,821,176945
19.544,145339,824,176960
19.549,145338,823,176947
19.554,145346,822,176935
19.559,145347,821,176934
19.564,145322,822,176951
19.569,145340,822,176932
19.574,145344,821,176949
19.579,145341,819,176941
19.584,145333,820,176945
19.589,145343,820,176952
19.594,145346,824,176951
19.599,145362,825,176959
19.604,145338,820,176941
19.609,145350,820,176951
19.614,145354,818,176952
19.619,145352,818,176948
19.624,145357,818,176945
19.629,145351,819,176950
19.634,145345,816,176953
19.639,145361,817,176947
19.644,145354,824,176957
19.649,145362,824,176965
19.654,145360,824,176947
19.659,145366,823,176953
19.664,145353,825,176946
19.669,145368,819,176955
19.674,145365,817,176940
19.679,145370,816,176954
19.684,145366,818,176967
19.689,145390,818,176943
19.694,145379,819,176967
19.699,145361,818,176965
19.703,145363,821,176945
19.708,145374,819,176947
19.713,145377,817,176952
19.718,145378,816,176956
19.723,145380,819,176961
19.728,145385,817,176941
19.733,145371,816,176949
19.738,145375,818,176945
19.743,145391,821,176964
19.748,145381,819,176971
19.753,145386,820,176955
19.758,145388,819,176962
19.763,145390,819,176956
19.768,145388,819,176966
19.773,145402,818,176958
19.778,145404,817,176953
19.783,145397,819,176965
19.788,145399,820,176958
19.793,145404,820,176947
19.798,145408,818,176953
19.803,145406,819,176962
19.808,145408,818,176962
19.813,145419,818,176955
19.818,145415,814,176975
19.823,145425,817,176962
19.828,145428,814,176973
19.833,145434,817,176970
19.838,145425,819,176956
19.843,145439,821,176962
19.848,145442,820,176964
19.853,145428,227,176970
19.858,145406,293,176947
19.863,145426,333,176959
19.868,145421,360,176966
19.872,145426,383,176960
19.877,145447,402,176960
19.882,145430,422,176955
19.887,145440,433,176948
19.892,145432,448,176963
19.897,145428,469,176961
19.902,145440,484,176966
19.907,145435,493,176967
19.912,145443,504,176956
19.917,145429,511,176958
19.922,145425,522,176956
19.927,145410,529,176937
19.932,145422,532,176949
19.937,145420,542,176948
19.942,145406,552,176940
19.947,145405,559,176943
19.952,145379,578,176946
19.957,145373,570,176988
19.962,145376,1246,176937
19.967,145370,1171,176935
19.972,145367,1125,176911
19.977,145360,1088,176915
19.982,145358,1059,176911
19.987,145352,1037,176899
19.992,145351,1019,176900
19.997,145345,999,176906
20.002,145352,988,176900
20.007,145343,975,176887
20.012,145334,965,176900
20.017,145336,952,176882
20.022,145318,947,176883
20.027,145328,938,176882
20.032,145315,936,176884
20.036,145321,919,176875
20.041,145319,916,176880
20.046,145310,910,176875
20.051,145309,907,176881
20.056,145315,901,176876
20.061,145309,897,176887
20.066,145296,893,176881
20.071,145301,890,176868
20.076,145284,885,176849
20.081,145283,886,176872
20.086,145297,883,176860
20.091,145280,879,176861
20.096,145294,875,176871
20.101,145298,875,176875
20.106,145279,870,176875
20.111,145300,870,176846
20.116,145283,865,176862
20.121,145288,865,176840
20.126,145292,865,176861
20.131,145286,860,176856
20.136,145297,856,176848
20.141,145293,855,176837
20.146,145295,856,176849
20.151,145296,855,176845
20.156,145295,851,176853
20.161,145298,852,176858
20.166,145296,851,176854
20.171,145285,851,176846
20.176,145290,850,176869
20.181,145289,845,176866
20.186,145310,844,176858
20.191,145279,845,176842
20.196,145295,841,176841
20.201,145292,841,176862
20.205,145287,841,176850
20.210,145282,842,176858
20.215,145295,839,176857
20.220,145291,840,176858
20.225,145291,840,176849
20.230,145293,841,176861
20.235,145304,837,176852
20.240,145292,837,176853
20.245,145302,837,176862
20.250,145297,839,176872
20.255,145288,837,176860
20.260,145294,838,176855
20.265,145299,837,176854
20.270,145292,836,176850
20.275,145304,833,176867
20.280,145285,833,176860
20.285,145283,834,176846
20.290,145292,834,176849
20.295,145298,832,176849
20.300,145298,832,176863
20.305,145296,833,176858
20.310,145297,832,176850
20.315,145300,831,176846
20.320,145300,831,176857
20.325,145295,828,176853
20.330,145304,827,176862
20.335,145306,827,176858
20.340,145290,826,176840
20.345,145302,828,176858
20.350,145319,826,176837
20.355,145309,826,176848
20.360,145299,825,176847
20.365,145291,827,176831
20.370,145307,827,176848
20.374,145295,828,176854
20.379,145305,827,176848
20.384,145314,830,176862
20.389,145325,824,176870
20.394,145318,822,176869
20.399,145318,821,176852
20.404,145312,831,176868
20.409,145315,828,176864
20.414,145319,828,176853
20.419,145322,821,176869
20.424,145316,825,176856
20.429,145315,824,176845
20.434,145330,824,176855
20.439,145323,823,176860
20.444,145326,827,176856
20.449,145324,824,176876
20.454,145334,823,176859
20.459,145329,821,176867
20.464,145328,823,176874
20.469,145295,818,176858
20.474,145335,824,176854
20.479,145344,825,176861
20.484,145336,826,176859
20.489,145361,823,176866
20.494,145358,823,176863
20.499,145347,822,176859
20.504,145357,824,176868
20.509,145350,824,176871
20.514,145351,820,176880
20.519,145365,824,176876
20.524,145357,823,176886
20.529,145360,825,176891
20.534,145379,823,176867
20.538,145366,822,176870
20.543,145373,824,176880
20.548,145368,821,176889
20.553,145373,822,176869
20.558,145381,820,176878
20.563,145377,822,176900
20.568,145380,823,176870
20.573,145385,823,176887
20.578,145386,821,176883
20.583,145389,823,176881
20.588,145395,821,176876
20.593,145398,823,176887
20.598,145399,820,176882
20.603,145381,822,176894
20.608,145381,822,176878
20.613,145376,828,176894
20.618,145383,816,176882
20.623,145355,819,176862
20.628,145348,817,176868
20.633,145352,818,176876
20.638,145327,816,176852
20.643,145315,818,176848
20.648,145314,816,176842
20.653,145325,816,176830
20.658,145291,814,176828
20.663,145284,815,176819
20.668,145275,817,176826
20.673,145284,816,176814
20.678,145275,814,176805
20.683,145270,818,176807
20.688,145279,815,176798
20.693,145268,815,176803
20.698,145254,813,176813
20.703,145241,814,176795
20.707,145247,814,176788
20.712,145233,808,176799
20.717,145235,818,176788
20.722,145235,820,176791
20.727,145233,819,176769
20.732,145242,819,176777
20.737,145231,816,176783
20.742,145223,818,176762
20.747,145224,815,176764
20.752,145213,816,176764
20.757,145224,813,176771
20.762,145226,819,176760
20.767,145205,813,176785
20.772,145212,814,176773
20.777,145230,811,176777
20.782,145215,813,176770
20.787,145210,812,176772
20.792,145209,812,176787
20.797,145203,810,176775
20.802,145199,811,176777
20.807,145203,812,176740
20.812,145201,816,176778
20.817,145205,813,176760
20.822,145189,816,176742
20.827,145195,815,176767
20.832,145194,816,176760
20.837,145195,813,176746
20.842,145201,814,176746
20.847,145214,813,176744
20.852,145214,815,176759
20.857,145187,275,176772
20.862,145185,322,176758
20.867,145184,354,176756
20.872,145192,379,176749
20.876,145200,398,176757
20.881,145193,418,176741
20.886,145171,434,176751
20.891,145193,450,176745
20.896,145188,460,176744
20.901,145191,475,176748
20.906,145185,487,176751
20.911,145201,493,176741
20.916,145186,500,176763
20.921,145195,512,176755
20.926,145204,519,176762
20.931,145195,529,176763
20.936,145199,535,176767
20.941,145198,545,176775
20.946,145183,551,176762
20.951,145187,556,176765
20.956,145189,566,176806
20.961,145198,1270,176759
20.966,145210,1183,176788
20.971,145206,1131,176769
20.976,145204,1092,176774
20.981,145219,1063,176772
20.986,145212,1040,176772
20.991,145215,1019,176789
20.996,145219,1002,176776
21.001,145220,988,176780
21.006,145198,972,176770
21.011,145232,968,176772
21.016,145210,957,176770
21.021,145220,949,176774
21.026,145221,942,176779
21.031,145224,928,176773
21.036,145224,920,176790
21.040,145236,915,176794
21.045,145221,910,176783
21.050,145213,905,176780
21.055,145212,902,176779
21.060,145212,899,176784
21.065,145229,896,176779
21.070,145236,893,176777
21.075,145223,888,176767
21.080,145229,883,176789
21.085,145242,884,176803
21.090,145234,878,176774
21.095,145231,875,176784
21.100,145237,872,176798
21.105,145237,868,176775
21.110,145248,866,176788
21.115,145258,863,176789
21.120,145246,861,176794
21.125,145248,860,176800
21.130,145253,857,176802
21.135,145254,854,176797
21.140,145254,853,176806
21.145,145271,853,176821
21.150,145266,850,176803
21.155,145262,850,176795
21.160,145270,850,176815
21.165,145276,852,176804
21.170,145273,849,176823
21.175,145278,848,176798
21.180,145279,847,176799
21.185,145266,849,176808
21.190,145263,841,176817
21.195,145277,840,176820
21.200,145269,839,176823
21.205,145280,843,176817
21.209,145284,841,176801
21.214,145275,842,176804
21.219,145290,840,176833
21.224,145291,843,176813
21.229,145292,834,176810
21.234,145296,839,176801
21.239,145274,831,176819
21.244,145300,832,176811
21.249,145289,833,176795
21.254,145298,834,176798
21.259,145296,832,176818
21.264,145303,834,176805
21.269,145310,834,176802
21.274,145306,834,176815
21.279,145311,833,176791
21.284,145308,834,176808
21.289,145317,834,176819
21.294,145334,833,176823
21.299,145331,828,176825
21.304,145328,830,176825
21.309,145329,829,176851
21.314,145342,831,176831
21.319,145325,829,176855
21.324,145326,832,176841
21.329,145319,824,176840
21.334,145311,824,176824
21.339,145315,824,176824
21.344,145280,825,176811
21.349,145281,821,176821
21.354,145276,822,176809
21.359,145265,821,176822
21.364,145240,824,176799
21.369,145242,823,176789
21.374,145232,822,176783
21.378,145221,820,176770
21.383,145201,821,176763
21.388,145219,821,176778
21.393,145194,830,176763
21.398,145201,820,176752
21.403,145193,827,176751
21.408,145188,825,176769
21.413,145180,826,176750
21.418,145184,818,176751
21.423,145169,819,176763
21.428,145166,817,176744
21.433,145166,819,176738
21.438,145169,815,176736
21.443,145159,819,176734
21.448,145154,820,176736
21.453,145148,821,176732
21.458,145137,818,176726
21.463,145148,821,176723
21.468,145154,820,176720
21.473,145124,822,176726
21.478,145127,819,176711
21.483,145135,823,176718
21.488,145120,819,176718
21.493,145115,843,176703
21.498,145119,814,176711
21.503,145118,818,176680
21.508,145115,816,176703
21.513,145105,817,176701
21.518,145111,813,176707
21.523,145116,816,176701
21.528,145115,815,176704
21.533,145096,817,176702
21.538,145107,816,176702
21.542,145097,822,176699
21.547,145117,821,176695
21.552,145091,814,176707
21.557,145101,811,176688
21.562,145092,814,176685
21.567,145113,814,176697
21.572,145099,815,176685
21.577,145114,813,176705
21.582,145093,816,176692
21.587,145116,815,176702
21.592,145098,819,176701
21.597,145096,816,176699
21.602,145097,820,176700
21.607,145101,819,176688
21.612,145106,820,176681
21.617,145076,818,176686
21.622,145094,820,176686
21.627,145096,819,176697
21.632,145096,821,176675
21.637,145118,818,176688
21.642,145080,815,176693
21.647,145100,815,176680
21.652,145096,817,176689
21.657,145104,814,176693
21.662,145085,817,176674
21.667,145082,816,176687
21.672,145097,818,176690
21.677,145085,816,176688
21.682,145080,818,176684
21.687,145068,817,176679
21.692,145076,818,176664
21.697,145090,815,176667
21.702,145081,818,176669
21.707,145084,817,176674
21.711,145087,813,176682
21.716,145073,811,176690
21.721,145088,814,176687
21.726,145107,813,176685
21.731,145086,816,176672
21.736,145084,825,176648
21.741,145088,818,176684
21.746,145100,811,176686
21.751,145100,813,176688
21.756,145105,811,176678
21.761,145102,814,176686
21.766,145090,814,176692
21.771,145101,815,176698
21.776,145102,812,176701
21.781,145100,817,176698
21.786,145100,811,176701
21.791,145103,815,176692
21.796,145109,812,176697
21.801,145118,815,176701
21.806,145119,817,176707
21.811,145116,811,176710
21.816,145106,811,176709
21.821,145124,812,176716
21.826,145130,812,176714
21.831,145112,815,176701
21.836,145131,810,176704
21.841,145131,813,176725
21.846,145136,814,176705
21.851,145136,814,176711
21.856,145138,266,176732
21.861,145122,312,176737
21.866,145138,346,176727
21.871,145143,364,176719
21.876,145135,386,176747
21.880,145153,405,176778
21.885,145144,428,176741
21.890,145154,446,176751
21.895,145151,460,176744
21.900,145172,465,176750
21.905,145154,476,176734
21.910,145158,490,176734
21.915,145170,499,176757
21.920,145159,510,176767
21.925,145167,520,176751
21.930,145146,527,176764
21.935,145187,532,176759
21.940,145184,540,176753
21.945,145186,545,176771
21.950,145192,553,176762
21.955,145189,561,176779
21.960,145200,1299,176772
21.965,145219,1200,176781
21.970,145212,1142,176775
21.975,145222,1102,176797
21.980,145233,1071,176814
21.985,145215,1046,176792
21.990,145218,1026,176798
21.995,145228,1007,176792
22.000,145232,992,176797
22.005,145242,976,176792
22.010,145249,963,176793
22.015,145242,953,176803
22.020,145252,943,176805
22.025,145256,937,176795
22.030,145253,930,176804
22.035,145259,925,176809
22.040,145252,918,176807
22.044,145260,915,176813
22.049,145255,908,176819
22.054,145264,900,176830
22.059,145263,898,176829
22.064,145262,896,176819
22.069,145263,891,176803
22.074,145243,887,176809
22.079,145235,880,176802
22.084,145220,880,176808
22.089,145210,878,176796
22.094,145208,874,176791
22.099,145199,873,176781
22.104,145174,865,176764
22.109,145181,862,176779
22.114,145178,860,176765
22.119,145162,857,176745
22.124,145146,858,176758
22.129,145151,859,176751
22.134,145134,857,176743
22.139,145139,857,176740
22.144,145123,856,176731
22.149,145113,848,176722
22.154,145110,847,176730
22.159,145113,845,176735
22.164,145105,846,176726
22.169,145108,844,176719
22.174,145093,843,176706
22.179,145104,844,176697
22.184,145092,846,176697
22.189,145099,843,176697
22.194,145088,837,176704
22.199,145083,836,176681
22.204,145084,837,176691
22.209,145066,837,176706
22.213,145069,837,176693
22.218,145075,836,176680
22.223,145063,837,176711
22.228,145074,830,176705
22.233,145066,833,176688
22.238,145058,829,176701
22.243,145067,830,176691
22.248,145060,830,176692
22.253,145063,831,176687
22.258,145067,828,176688
22.263,145071,831,176692
22.268,145055,829,176680
22.273,145030,829,176685
22.278,145053,829,176676
22.283,145051,831,176667
22.288,145041,831,176680
22.293,145059,831,176683
22.298,145043,829,176679
22.303,145059,824,176695
22.308,145063,823,176688
22.313,145057,824,176692
22.318,145072,821,176694
22.323,145062,827,176701
22.328,145069,826,176701
22.333,145062,825,176706
22.338,145057,825,176694
22.343,145066,826,176698
22.348,145060,827,176686
22.353,145073,827,176701
22.358,145067,819,176704
22.363,145070,819,176713
22.368,145074,818,176708
22.373,145076,821,176712
22.378,145067,819,176708
22.382,145066,821,176706
22.387,145072,821,176705
22.392,145065,822,176691
22.397,145060,818,176701
22.402,145070,820,176703
22.407,145060,820,176707
22.412,145051,821,176697
22.417,145078,823,176711
22.422,145073,816,176708
22.427,145073,816,176721
22.432,145062,817,176717
22.437,145073,815,176724
22.442,145091,818,176727
22.447,145084,816,176715
22.452,145078,818,176726
22.457,145077,814,176716
22.462,145089,817,176732
22.467,145089,816,176734
22.472,145090,820,176739
22.477,145095,819,176759
22.482,145091,815,176750
22.487,145099,814,176738
22.492,145093,815,176752
22.497,145097,815,176748
22.502,145111,817,176754
22.507,145100,816,176760
22.512,145107,817,176775
22.517,145108,831,176761
22.522,145134,816,176777
22.527,145132,817,176771
22.532,145128,819,176757
22.537,145128,815,176787
22.542,145128,816,176786
22.546,145126,818,176793
22.551,145135,818,176790
22.556,145151,815,176795
22.561,145151,817,176807
22.566,145156,815,176801
22.571,145151,816,176793
22.576,145159,815,176815
22.581,145149,814,176811
22.586,145164,814,176822
22.591,145171,817,176817
22.596,145167,813,176821
22.601,145180,815,176818
22.606,145172,815,176839
22.611,145192,818,176828
22.616,145188,810,176834
22.621,145180,812,176841
22.626,145198,811,176840
22.631,145204,813,176854
22.636,145203,811,176866
22.641,145214,812,176859
22.646,145202,811,176872
22.651,145217,814,176873
22.656,145209,810,176864
22.661,145231,811,176876
22.666,145221,814,176878
22.671,145219,815,176882
22.676,145220,812,176878
22.681,145235,813,176877
22.686,145244,815,176886
22.691,145252,814,176905
22.696,145254,814,176903
22.701,145257,814,176899
22.706,145257,816,176921
22.711,145251,815,176912
22.715,145277,810,176915
22.720,145264,811,176901
22.725,145280,812,176931
22.730,145276,813,176922
22.735,145286,812,176932
22.740,145276,810,176929
22.745,145290,813,176923
22.750,145294,809,176948
22.755,145290,812,176943
22.760,145296,819,176932
22.765,145293,811,176958
22.770,145301,812,176948
22.775,145318,812,176951
22.780,145313,811,176948
22.785,145321,814,176962
22.790,145329,813,176950
22.795,145317,813,176976
22.800,145318,812,176964
22.805,145337,816,176960
22.810,145340,810,176973
22.815,145330,810,176967
22.820,145337,811,176972
22.825,145352,813,176982
22.830,145356,815,176987
22.835,145358,813,176995
22.840,145376,815,176984
22.845,145349,807,176989
22.850,145344,810,176988
22.855,145339,245,176996
22.860,145339,303,176987
22.865,145325,328,176996
22.870,145316,356,176974
22.875,145295,379,176969
22.880,145295,399,176970
22.884,145284,418,176959
22.889,145298,435,176976
22.894,145272,450,176936
22.899,145266,462,176967
22.904,145256,475,176952
22.909,145255,492,176956
22.914,145252,501,176947
22.919,145243,509,176947
22.924,145242,521,176951
22.929,145242,520,176952
22.934,145223,528,176944
22.939,145222,534,176937
22.944,145233,543,176946
22.949,145216,548,176945
22.954,145218,556,176943
22.959,145239,1340,176943
22.964,145246,1216,176948
22.969,145247,1150,176934
22.974,145242,1107,176930
22.979,145234,1073,176927
22.984,145237,1048,176931
22.989,145226,1025,176945
22.994,145224,1006,176941
22.999,145230,988,176926
23.004,145215,977,176899
23.009,145221,967,176917
23.014,145229,957,176932
23.019,145231,946,176919
23.024,145208,938,176921
23.029,145220,928,176930
23.034,145209,924,176924
23.039,145191,915,176899
23.044,145200,913,176907
23.048,145204,908,176923
23.053,145223,894,176928
23.058,145216,894,176913
23.063,145203,891,176923
23.068,145201,887,176904
23.073,145199,884,176910
23.078,145203,878,176922
23.083,145212,877,176907
23.088,145216,872,176921
23.093,145197,872,176938
23.098,145214,867,176925
23.103,145226,870,176931
23.108,145214,867,176929
23.113,145227,867,176925
23.118,145236,860,176944
23.123,145228,862,176942
23.128,145226,860,176932
23.133,145226,859,176937
23.138,145217,854,176936
23.143,145222,855,176933
23.148,145232,851,176944
23.153,145214,847,176933
23.158,145226,844,176946
23.163,145221,845,176942
23.168,145234,842,176947
23.173,145222,844,176957
23.178,145236,839,176961
23.183,145225,842,176947
23.188,145224,840,176957
23.193,145239,842,176942
23.198,145224,831,176943
23.203,145229,822,176953
23.208,145237,836,176949
23.213,145231,839,176958
23.217,145239,836,176952
23.222,145235,838,176961
23.227,145257,836,176949
23.232,145257,831,176985
23.237,145235,828,176968
23.242,145232,830,176962
23.247,145251,828,176970
23.252,145264,834,176972
23.257,145252,831,176969
23.262,145248,833,176972
23.267,145256,832,176985
23.272,145263,832,176978
23.277,145260,823,176983
23.282,145266,824,176970
23.287,145264,825,176982
23.292,145272,825,176983
23.297,145279,804,176983
23.302,145267,827,176978
23.307,145265,825,176975
23.312,145266,826,176965
23.317,145277,824,176975
23.322,145262,827,176984
23.327,145272,826,176986
23.332,145276,827,176973
23.337,145277,825,176980
23.342,145276,826,176984
23.347,145287,821,176987
23.352,145286,823,176993
23.357,145269,820,176992
23.362,145292,819,177006
23.367,145292,821,177015
23.372,145298,822,177004
23.377,145294,820,177006
23.382,145303,821,177015
23.386,145314,822,177013
23.391,145303,823,177014
23.396,145303,817,177016
23.401,145316,816,177019
23.406,145319,816,177010
23.411,145316,817,177008
23.416,145322,814,177010
23.421,145323,815,177023
23.426,145339,817,177023
23.431,145327,815,177029
23.436,145340,814,177022
23.441,145335,814,177024
23.446,145329,819,177005
23.451,145358,817,177029
23.456,145340,814,177031
23.461,145351,815,177032
23.466,145341,814,177028
23.471,145347,815,177010
23.476,145351,813,177026
23.481,145366,814,177023
23.486,145358,814,177031
23.491,145364,815,177019
23.496,145371,811,177037
23.501,145371,814,177032
23.506,145377,814,177055
23.511,145371,813,177034
23.516,145372,812,177037
23.521,145383,811,177040
23.526,145380,813,177074
23.531,145403,819,177058
23.536,145390,818,177061
23.541,145395,814,177063
23.546,145412,815,177060
23.550,145415,814,177082
23.555,145405,815,177077
23.560,145414,815,177082
23.565,145407,819,177076
23.570,145411,816,177073
23.575,145425,817,177075
23.580,145427,816,177075
23.585,145432,815,177082
23.590,145422,812,177079
23.595,145429,810,177077
23.600,145428,811,177063
23.605,145439,812,177087
23.610,145459,813,177098
23.615,145450,811,177088
23.620,145453,811,177102
23.625,145456,813,177084
23.630,145455,812,177095
23.635,145445,812,177067
23.640,145431,814,177087
23.645,145428,815,177098
23.650,145425,814,177087
23.655,145412,813,177069
23.660,145407,814,177078
23.665,145401,815,177060
23.670,145394,814,177059
23.675,145378,814,177057
23.680,145381,812,177049
23.685,145365,813,177054
23.690,145358,809,177047
23.695,145360,808,177044
23.700,145357,806,177046
23.705,145348,808,177024
23.710,145335,807,177011
23.715,145326,813,177019
23.719,145330,812,177032
23.724,145329,814,176999
23.729,145337,814,177004
23.734,145340,815,177000
23.739,145321,811,176990
23.744,145327,813,176995
23.749,145315,812,176984
23.754,145313,813,176997
23.759,145314,811,177003
23.764,145308,814,176997
23.769,145318,813,177007
23.774,145309,812,176991
23.779,145321,811,176991
23.784,145310,813,176969
23.789,145301,808,176985
23.794,145319,807,177001
23.799,145318,806,176979
23.804,145316,809,176988
23.809,145304,807,176993
23.814,145299,808,176981
23.819,145308,806,176981
23.824,145294,807,176977
23.829,145306,805,176984
23.834,145343,808,176984
23.839,145304,807,176974
23.844,145299,810,176978
23.849,145302,809,176968
23.854,145290,226,176984
23.859,145289,284,176963
23.864,145284,323,176983
23.869,145280,351,176968
23.874,145281,374,176969
23.879,145290,392,176971
23.884,145296,430,176973
23.888,145307,427,176984
23.893,145294,444,176968
23.898,145307,456,176985
23.903,145291,469,176975
23.908,145289,480,176978
23.913,145303,489,176974
23.918,145306,498,176981
23.923,145297,518,176980
23.928,145291,525,176988
23.933,145307,528,176982
23.938,145302,531,176968
23.943,145307,540,176956
23.948,145300,545,176953
23.953,145299,555,176964
23.958,145306,1115,176964
23.963,145310,1234,176969
23.968,145304,1161,176976
23.973,145301,1113,176980
23.978,145331,1069,176969
23.983,145316,1053,176977
23.988,145305,1030,176972
23.993,145315,1011,176964
23.998,145323,992,176961
24.003,145319,977,176980
24.008,145307,967,176967
24.013,145320,956,176971
24.018,145324,943,176961
24.023,145339,939,176965
24.028,145335,929,176953
24.033,145319,920,176969
24.038,145321,910,176977
24.043,145332,908,176963
24.048,145328,900,176960
24.052,145319,897,176979
24.057,145319,889,176962
24.062,145326,887,176957
24.067,145334,881,176961
24.072,145335,881,176971
24.077,145335,882,176973
24.082,145339,876,176971
24.087,145344,875,176987
24.092,145334,867,176965
24.097,145329,862,176962
24.102,145338,861,176974
24.107,145338,859,176973
24.112,145344,858,176972
24.117,145338,854,176977
24.122,145350,854,176964
24.127,145350,856,176963
24.132,145358,855,176980
24.137,145349,851,176979
24.142,145364,852,176978
24.147,145349,849,176965
24.152,145366,848,176974
24.157,145367,844,176981
24.162,145368,842,176981
24.167,145369,843,176991
24.172,145377,841,176972
24.177,145372,836,176985
24.182,145370,836,176984
24.187,145388,835,176979
24.192,145394,834,176985
24.197,145384,832,176983
24.202,145379,832,176992
24.207,145381,832,176984
24.212,145390,833,176969
24.217,145386,830,176989
24.221,145399,831,176991
24.226,145395,833,176983
24.231,145403,833,176981
24.236,145418,832,176984
24.241,145397,832,176992
24.246,145396,832,176990
24.251,145411,832,176989
24.256,145408,830,176989
24.261,145416,831,176995
24.266,145417,824,177011
24.271,145431,823,176995
24.276,145420,823,177005
24.281,145425,824,177000
24.286,145436,825,177016
24.291,145428,826,177007
24.296,145442,824,177013
24.301,145450,825,177003
24.306,145448,826,177003
24.311,145457,825,176999
24.316,145447,824,177003
24.321,145446,825,177008
24.326,145448,824,177021
24.331,145460,825,177030
24.336,145472,822,177029
24.341,145470,822,177020
24.346,145469,825,177029
24.351,145494,815,177030
24.356,145470,815,177034
24.361,145485,822,177013
24.366,145487,822,177045
24.371,145504,818,177041
24.376,145491,820,177039
24.381,145487,813,177040
24.386,145501,814,177042
24.390,145498,813,177031
24.395,145486,813,177031
24.400,145496,813,177046
24.405,145491,814,177042
24.410,145488,813,177038
24.415,145494,813,177038
24.420,145502,816,177027
24.425,145478,816,177055
24.430,145493,817,177038
24.435,145489,816,177027
24.440,145452,815,177016
24.445,145466,818,177018
24.450,145461,810,177031
24.455,145445,809,177021
24.460,145451,809,177015
24.465,145432,812,177030
24.470,145442,813,177010
24.475,145426,811,177015
24.480,145417,811,177007
24.485,145406,813,176995
24.490,145399,813,176994
24.495,145399,812,176995
24.500,145401,811,176993
24.505,145396,813,176981
24.510,145388,812,176972
24.515,145368,811,176959
24.520,145384,813,176963
24.525,145383,807,176963
24.530,145389,808,176979
24.535,145382,808,176974
24.540,145379,806,176949
24.545,145376,808,176965
24.550,145372,806,176949
24.554,145384,806,176952
24.559,145375,804,176972
24.564,145371,809,176906
24.569,145370,810,176952
24.574,145361,810,176930
24.579,145379,810,176952
24.584,145364,814,176948
24.589,145369,813,176940
24.594,145369,813,176938
24.599,145361,805,176942
24.604,145383,808,176949
24.609,145375,806,176943
24.614,145438,810,176938
24.619,145385,804,176940
24.624,145393,807,176929
24.629,145371,806,176922
24.634,145372,806,176943
24.639,145370,805,176931
24.644,145383,808,176935
24.649,145382,807,176937
24.654,145383,808,176932
24.659,145368,805,176944
24.664,145384,807,176950
24.669,145388,806,176946
24.674,145378,808,176959
24.679,145380,804,176945
24.684,145387,808,176947
24.689,145401,807,176949
24.694,145381,809,176936
24.699,145396,806,176945
24.704,145392,810,176947
24.709,145389,809,176934
24.714,145385,805,176941
24.719,145392,803,176939
24.723,145379,806,176939
24.728,145381,804,176946
24.733,145388,805,176949
24.738,145382,804,176958
24.743,145385,806,176940
24.748,145386,805,176925
24.753,145402,805,176930
24.758,145379,803,176943
24.763,145376,808,176936
24.768,145408,806,176933
24.773,145397,807,176940
24.778,145398,805,176940
24.783,145385,807,176931
24.788,145397,807,176936
24.793,145388,807,176950
24.798,145408,806,176950
24.803,145401,808,176950
24.808,145399,809,176950
24.813,145401,805,176952
24.818,145408,803,176942
24.823,145413,806,176933
24.828,145420,804,176934
24.833,145405,805,176943
24.838,145418,803,176949
24.843,145422,804,176962
24.848,145423,804,176949
24.853,145410,804,176964
24.858,145430,278,176945
24.863,145394,314,176943
24.868,145410,345,176934
24.873,145402,370,176956
24.878,145400,389,176940
24.883,145417,409,176942
24.888,145409,427,176954
24.892,145424,444,176959
24.897,145417,456,176959
24.902,145427,470,176956
24.907,145423,475,176942
24.912,145439,488,176954
24.917,145441,498,176969
24.922,145438,507,176946
24.927,145441,514,176969
24.932,145433,523,176956
24.937,145453,530,176967
24.942,145446,539,176958
24.947,145470,545,176978
24.952,145446,552,176956
24.957,145457,553,176970
24.962,145475,1262,176965
24.967,145478,1178,176969
24.972,145478,1126,176970
24.977,145490,1086,176991
24.982,145500,1057,176972
24.987,145485,1033,176979
24.992,145480,1014,176972
24.997,145487,994,176975
25.002,145483,981,176984
25.007,145506,965,176980
25.012,145484,957,176963
25.017,145490,946,176975
25.022,145494,938,176977
25.027,145504,929,176977
25.032,145504,922,176971
25.037,145513,914,176968
25.042,145496,909,176968
25.047,145499,904,176977
25.052,145498,899,176982
25.056,145495,891,176974
25.061,145497,886,176976
25.066,145522,885,176980
25.071,145512,880,176963
25.076,145515,875,176976
25.081,145529,872,176986
25.086,145527,869,176968
25.091,145523,867,176991
25.096,145531,864,176993
25.101,145525,858,176959
25.106,145529,863,176973
25.111,145535,861,176978
25.116,145550,852,177002
25.121,145519,851,176998
25.126,145545,852,176987
25.131,145548,849,176994
25.136,145550,847,176980
25.141,145552,844,176984
25.146,145556,846,176995
25.151,145591,851,176984
25.156,145563,838,176992
25.161,145577,837,176990
25.166,145572,839,176991
25.171,145566,835,176999
25.176,145578,836,177003
25.181,145593,832,176995
25.186,145583,835,177001
25.191,145596,833,177007
25.196,145581,833,177013
25.201,145579,833,177009
25.206,145604,834,177008
25.211,145595,832,177027
25.216,145608,833,177004
25.221,145581,830,177016
25.225,145571,830,177003
25.230,145566,830,177003
25.235,145576,829,176993
25.240,145550,828,176979
25.245,145544,829,176995
25.250,145542,822,176989
25.255,145535,825,176979
25.260,145515,826,176941
25.265,145516,827,176962
25.270,145514,826,176960
25.275,145519,825,176953
25.280,145493,818,176962
25.285,145493,821,176943
25.290,145497,819,176946
25.295,145492,819,176942
25.300,145479,822,176927
25.305,145476,823,176926
25.310,145454,823,176932
25.315,145471,817,176939
25.320,145463,816,176926
25.325,145457,817,176914
25.330,145460,816,176920
25.335,145450,816,176915
25.340,145452,815,176908
25.345,145446,821,176953
25.350,145453,819,176909
25.355,145448,819,176888
25.360,145449,817,176913
25.365,145452,820,176906
25.370,145442,820,176897
25.375,145431,817,176910
25.380,145433,815,176892
25.385,145444,817,176896
25.390,145430,817,176890
25.394,145433,812,176893
25.399,145426,811,176880
25.404,145431,813,176874
25.409,145439,812,176881
25.414,145430,812,176885
25.419,145426,810,176890
25.424,145429,813,176883
25.429,145425,812,176890
25.434,145435,814,176861
25.439,145426,812,176867
25.444,145430,812,176885
25.449,145421,811,176887
25.454,145409,812,176869
25.459,145410,810,176866
25.464,145434,813,176865
25.469,145420,811,176875
25.474,145418,811,176859
25.479,145427,810,176877
25.484,145435,812,176859
25.489,145434,812,176856
25.494,145434,808,176863
25.499,145430,805,176873
25.504,145439,809,176861
25.509,145422,807,176873
25.514,145434,809,176870
25.519,145441,805,176868
25.524,145423,809,176865
25.529,145441,808,176853
25.534,145421,807,176870
25.539,145420,807,176862
25.544,145417,813,176857
25.549,145429,806,176861
25.554,145415,807,176847
25.558,145412,804,176832
25.563,145408,806,176850
25.568,145431,812,176839
25.573,145417,814,176851
25.578,145420,811,176852
25.583,145426,806,176848
25.588,145421,803,176876
25.593,145429,810,176836
25.598,145418,806,176830
25.603,145413,809,176833
25.608,145418,809,176816
25.613,145409,811,176829
25.618,145407,808,176824
25.623,145410,810,176818
25.628,145409,810,176830
25.633,145414,811,176825
25.638,145383,799,176838
25.643,145425,807,176813
25.648,145422,805,176852
25.653,145412,807,176842
25.658,145422,805,176842
25.663,145438,805,176829
25.668,145425,805,176820
25.673,145417,805,176822
25.678,145421,804,176819
25.683,145434,805,176829
25.688,145434,808,176816
25.693,145435,809,176831
25.698,145430,807,176821
25.703,145433,809,176822
25.708,145433,809,176829
25.713,145448,812,176826
25.718,145438,810,176819
25.723,145440,804,176831
25.727,145451,804,176834
25.732,145448,803,176846
25.737,145465,808,176836
25.742,145455,804,176850
25.747,145463,803,176830
25.752,145472,804,176860
25.757,145470,801,176847
25.762,145483,804,176855
25.767,145477,804,176865
25.772,145485,803,176875
25.777,145494,802,176865
25.782,145483,805,176867
25.787,145490,806,176862
25.792,145503,807,176858
25.797,145488,805,176871
25.802,145495,805,176869
25.807,145500,805,176872
25.812,145506,805,176874
25.817,145506,805,176868
25.822,145508,803,176874
25.827,145511,805,176880
25.832,145517,806,176873
25.837,145533,802,176878
25.842,145538,801,176878
25.847,145532,801,176884
25.852,145539,809,176899
25.857,145523,265,176882
25.862,145504,308,176886
25.867,145519,341,176885
25.872,145525,367,176885
25.877,145528,389,176880
25.882,145534,420,176891
25.887,145532,419,176879
25.892,145528,435,176896
25.896,145532,449,176915
25.901,145544,463,176892
25.906,145552,475,176908
25.911,145556,486,176908
25.916,145560,495,176903
25.921,145559,505,176905
25.926,145565,515,176917
25.931,145579,527,176906
25.936,145559,534,176902
25.941,145580,541,176923
25.946,145599,549,176923
25.951,145599,558,176900
25.956,145583,562,176910
25.961,145585,560,176904
25.966,145597,1255,176916
25.971,145616,1175,176938
25.976,145625,1122,176938
25.981,145627,1089,176926
25.986,145606,1061,176920
25.991,145612,1035,176922
25.996,145609,1015,176936
26.001,145618,995,176936
26.006,145619,982,176932
26.011,145614,969,176933
26.016,145606,956,176908
26.021,145588,947,176931
26.026,145594,939,176901
26.031,145591,927,176893
26.036,145573,919,176915
26.041,145581,911,176892
26.046,145550,907,176892
26.051,145549,900,176900
26.056,145542,896,176897
26.061,145531,890,176875
26.065,145534,887,176876
26.070,145513,883,176878
26.075,145524,878,176871
26.080,145498,877,176856
26.085,145497,876,176870
26.090,145494,872,176852
26.095,145492,870,176865
26.100,145475,864,176837
26.105,145493,866,176835
26.110,145496,864,176859
26.115,145476,860,176834
26.120,145465,858,176831
26.125,145459,852,176808
26.130,145464,847,176835
26.135,145466,847,176822
26.140,145475,844,176832
26.145,145457,844,176813
26.150,145469,841,176816
26.155,145461,841,176822
26.160,145463,838,176815
26.165,145471,839,176818
26.170,145466,836,176829
26.175,145460,838,176824
26.180,145450,836,176814
26.185,145465,838,176805
26.190,145441,834,176813
26.195,145453,834,176816
26.200,145449,831,176811
26.205,145457,835,176803
26.210,145438,832,176816
26.215,145446,833,176796
26.220,145430,831,176806
26.225,145440,829,176800
26.229,145455,824,176810
26.234,145427,827,176780
26.239,145452,823,176793
26.244,145424,826,176796
26.249,145438,823,176809
26.254,145444,825,176797
26.259,145454,820,176799
26.264,145467,823,176806
26.269,145455,820,176795
26.274,145462,823,176807
26.279,145452,821,176787
26.284,145455,823,176802
26.289,145440,821,176807
26.294,145457,821,176801
26.299,145448,817,176784
26.304,145437,818,176794
26.309,145439,818,176801
26.314,145446,818,176782
26.319,145466,815,176781
26.324,145445,821,176790
26.329,145433,820,176773
26.334,145446,820,176792
26.339,145438,818,176778
26.344,145445,820,176787
26.349,145450,820,176788
26.354,145445,820,176788
26.359,145441,818,176771
26.364,145448,813,176787
26.369,145444,812,176795
26.374,145437,815,176781
26.379,145434,813,176783
26.384,145452,814,176788
26.389,145459,814,176796
26.394,145444,816,176798
26.398,145443,814,176796
26.403,145459,816,176774
26.408,145460,818,176790
26.413,145459,811,176789
26.418,145418,813,176786
26.423,145451,810,176793
26.428,145454,810,176793
26.433,145451,812,176786
26.438,145450,810,176780
26.443,145453,813,176791
26.448,145465,811,176766
26.453,145469,813,176787
26.458,145475,812,176780
26.463,145459,809,176795
26.468,145466,810,176784
26.473,145480,813,176786
26.478,145482,811,176778
26.483,145466,813,176781
26.488,145468,813,176790
26.493,145473,813,176766
26.498,145483,811,176772
26.503,145483,812,176776
26.508,145495,813,176796
26.513,145487,809,176802
26.518,145491,807,176785
26.523,145481,811,176790
26.528,145498,811,176795
26.533,145492,812,176783
26.538,145500,809,176790
26.543,145495,811,176787
26.548,145499,812,176792
26.553,145497,812,176794
26.558,145486,811,176804
26.562,145494,807,176798
26.567,145504,808,176791
26.572,145518,808,176795
26.577,145507,807,176801
26.582,145527,810,176813
26.587,145522,809,176817
26.592,145530,811,176818
26.597,145527,809,176811
26.602,145538,810,176815
26.607,145525,809,176822
26.612,145538,811,176815
26.617,145533,806,176816
26.622,145534,806,176809
26.627,145528,809,176808
26.632,145535,808,176808
26.637,145522,807,176808
26.642,145545,807,176794
26.647,145548,808,176815
26.652,145547,809,176805
26.657,145556,807,176806
26.662,145547,832,176800
26.667,145558,805,176815
26.672,145555,805,176802
26.677,145561,804,176813
26.682,145562,803,176817
26.687,145572,805,176810
26.692,145564,805,176812
26.697,145558,804,176812
26.702,145580,804,176815
26.707,145562,806,176822
26.712,145591,809,176824
26.717,145578,803,176821
26.722,145583,803,176820
26.727,145577,804,176832
26.731,145574,803,176826
26.736,145588,809,176818
26.741,145592,808,176816
26.746,145596,811,176826
26.751,145593,811,176825
26.756,145593,808,176820
26.761,145609,807,176820
26.766,145598,808,176813
26.771,145605,807,176805
26.776,145593,806,176825
26.781,145612,805,176835
26.786,145600,805,176830
26.791,145599,805,176846
26.796,145592,805,176826
26.801,145589,804,176808
26.806,145584,805,176821
26.811,145587,808,176824
26.816,145576,807,176815
26.821,145569,806,176810
26.826,145558,808,176802
26.831,145554,806,176793
26.836,145529,806,176789
26.841,145542,804,176796
26.846,145532,806,176791
26.851,145515,804,176810
26.856,145512,246,176783
26.861,145500,292,176775
26.866,145486,328,176782
26.871,145487,354,176771
26.876,145472,376,176772
26.881,145480,394,176771
26.886,145464,414,176769
26.891,145481,429,176744
26.896,145463,444,176756
26.900,145478,457,176758
26.905,145451,486,176725
26.910,145464,486,176734
26.915,145462,496,176738
26.920,145457,505,176745
26.925,145462,514,176755
26.930,145470,524,176717
26.935,145473,531,176747
26.940,145455,536,176729
26.945,145455,544,176722
26.950,145463,549,176750
26.955,145460,560,176740
26.960,145469,1337,176726
26.965,145468,1213,176730
26.970,145472,1150,176726
26.975,145466,1105,176715
26.980,145465,1071,176712
26.985,145463,1046,176717
26.990,145465,1023,176729
26.995,145459,1005,176725
27.000,145467,987,176732
27.005,145478,973,176741
27.010,145460,959,176720
27.015,145458,948,176714
27.020,145457,936,176717
27.025,145464,930,176719
27.030,145461,922,176724
27.035,145474,916,176727
27.040,145467,907,176734
27.045,145469,904,176726
27.050,145461,897,176723
27.055,145469,896,176722
27.060,145473,889,176727
27.064,145468,879,176740
27.069,145469,876,176708
27.074,145470,874,176722
27.079,145469,868,176723
27.084,145462,866,176706
27.089,145455,862,176720
27.094,145478,862,176728
27.099,145495,856,176732
27.104,145460,861,176723
27.109,145482,857,176722
27.114,145457,857,176722
27.119,145458,852,176722
27.124,145469,854,176716
27.129,145463,851,176728
27.134,145471,851,176724
27.139,145466,846,176725
27.144,145462,848,176709
27.149,145464,846,176724
27.154,145456,840,176696
27.159,145468,836,176706
27.164,145466,836,176710
27.169,145459,834,176727
27.174,145460,835,176728
27.179,145480,829,176725
27.184,145460,830,176714
27.189,145463,828,176725
27.194,145465,830,176729
27.199,145471,825,176709
27.204,145487,829,176731
27.209,145469,828,176731
27.214,145481,828,176711
27.219,145466,826,176721
27.224,145479,828,176709
27.229,145485,826,176711
27.233,145479,826,176719
27.238,145474,823,176710
27.243,145481,824,176711
27.248,145484,828,176713
27.253,145488,822,176725
27.258,145477,819,176714
27.263,145487,820,176716
27.268,145475,820,176703
27.273,145478,818,176724
27.278,145487,818,176706
27.283,145496,817,176707
27.288,145486,818,176707
27.293,145485,817,176711
27.298,145486,819,176716
27.303,145500,819,176712
27.308,145492,819,176725
27.313,145490,819,176711
27.318,145500,816,176731
27.323,145497,819,176707
27.328,145480,818,176709
27.333,145489,819,176708
27.338,145503,818,176716
27.343,145494,820,176706
27.348,145479,815,176708
27.353,145503,817,176715
27.358,145513,816,176720
27.363,145511,816,176713
27.368,145513,817,176725
27.373,145508,818,176715
27.378,145514,816,176718
27.383,145523,817,176716
27.388,145517,816,176715
27.393,145526,816,176722
27.398,145527,810,176720
27.402,145526,810,176711
27.407,145535,809,176711
27.412,145527,809,176721
27.417,145535,815,176723
27.422,145530,815,176718
27.427,145538,815,176706
27.432,145535,814,176724
27.437,145556,813,176708
27.442,145547,830,176724
27.447,145559,810,176728
27.452,145549,808,176730
27.457,145539,808,176735
27.462,145554,809,176718
27.467,145556,810,176711
27.472,145553,809,176725
27.477,145556,808,176714
27.482,145567,806,176721
27.487,145563,808,176709
27.492,145519,811,176716
27.497,145566,808,176680
27.502,145555,807,176692
27.507,145557,808,176699
27.512,145554,806,176699
27.517,145555,805,176679
27.522,145555,805,176688
27.527,145547,806,176685
27.532,145572,805,176692
27.537,145562,805,176684
27.542,145550,807,176674
27.547,145560,809,176690
27.552,145539,808,176682
27.557,145536,807,176677
27.562,145533,806,176658
27.567,145516,808,176652
27.571,145518,806,176666
27.576,145515,807,176661
27.581,145513,805,176671
27.586,145486,808,176648
27.591,145476,810,176634
27.596,145476,808,176618
27.601,145482,808,176634
27.606,145481,809,176633
27.611,145450,808,176615
27.616,145451,807,176612
27.621,145466,806,176606
27.626,145433,809,176591
27.631,145428,807,176593
27.636,145413,807,176598
27.641,145423,809,176575
27.646,145427,810,176571
27.651,145417,802,176574
27.656,145400,805,176569
27.661,145408,803,176559
27.666,145403,807,176569
27.671,145405,804,176558
27.676,145404,805,176556
27.681,145408,804,176561
27.686,145405,809,176507
27.691,145418,809,176561
27.696,145399,803,176560
27.701,145403,800,176553
27.706,145402,809,176550
27.711,145405,807,176545
27.716,145411,809,176555
27.721,145398,806,176568
27.726,145416,808,176567
27.731,145412,806,176562
27.735,145428,802,176567
27.740,145402,800,176561
27.745,145402,802,176553
27.750,145407,801,176566
27.755,145411,802,176584
27.760,145412,799,176574
27.765,145416,803,176538
27.770,145413,801,176563
27.775,145420,803,176573
27.780,145430,801,176568
27.785,145422,805,176572
27.790,145427,804,176558
27.795,145422,804,176566
27.800,145410,801,176563
27.805,145415,804,176565
27.810,145418,802,176553
27.815,145409,802,176546
27.820,145417,799,176550
27.825,145414,802,176551
27.830,145414,801,176545
27.835,145414,804,176554
27.840,145418,803,176546
27.845,145413,806,176555
27.850,145421,806,176549
27.855,145415,229,176565
27.860,145405,277,176547
27.865,145415,314,176549
27.870,145389,343,176550
27.875,145400,367,176550
27.880,145409,386,176553
27.885,145404,411,176549
27.890,145400,426,176550
27.895,145409,442,176542
27.900,145417,455,176551
27.904,145405,470,176540
27.909,145395,480,176534
27.914,145406,491,176543
27.919,145391,497,176536
27.924,145402,508,176534
27.929,145401,517,176585
27.934,145393,525,176527
27.939,145412,531,176527
27.944,145404,540,176524
27.949,145406,545,176522
27.954,145431,554,176527
27.959,145402,1428,176510
27.964,145418,1233,176540
27.969,145429,1159,176527
27.974,145421,1113,176530
27.979,145405,1068,176529
27.984,145427,1045,176516
27.989,145413,1022,176528
27.994,145428,1003,176520
27.999,145430,983,176528
28.004,145423,973,176528
28.009,145433,958,176530
28.014,145433,949,176533
28.019,145430,935,176525
28.024,145438,931,176524
28.029,145441,923,176536
28.034,145442,918,176529
28.039,145434,908,176534
28.044,145438,904,176553
28.049,145467,899,176534
28.054,145433,897,176535
28.059,145453,889,176531
28.064,145456,887,176532
28.069,145462,883,176530
28.073,145463,874,176536
28.078,145455,870,176541
28.083,145457,870,176542
28.088,145453,866,176547
28.093,145452,865,176547
28.098,145475,860,176551
28.103,145473,858,176538
28.108,145460,857,176537
28.113,145466,854,176541
28.118,145464,849,176550
28.123,145474,848,176555
28.128,145489,850,176544
28.133,145477,851,176550
28.138,145485,847,176545
28.143,145480,845,176551
28.148,145485,844,176544
28.153,145480,843,176552
28.158,145485,840,176558
28.163,145501,841,176552
28.168,145503,837,176556
28.173,145495,838,176559
28.178,145509,829,176573
28.183,145499,830,176569
28.188,145502,829,176552
28.193,145501,829,176565
28.198,145501,827,176562
28.203,145503,826,176554
28.208,145499,827,176562
28.213,145518,826,176570
28.218,145523,826,176569
28.223,145519,833,176561
28.228,145522,822,176545
28.233,145511,828,176535
28.237,145514,826,176574
28.242,145508,825,176545
28.247,145513,826,176554
28.252,145511,823,176564
28.257,145508,821,176556
28.262,145496,820,176562
28.267,145520,821,176549
28.272,145500,823,176542
28.277,145487,822,176561
28.282,145485,813,176569
28.287,145488,815,176538
28.292,145471,814,176537
28.297,145476,813,176537
28.302,145452,813,176525
28.307,145455,814,176530
28.312,145444,811,176516
28.317,145450,811,176508
28.322,145427,814,176501
28.327,145419,816,176506
28.332,145435,813,176500
28.337,145417,813,176485
28.342,145411,813,176504
28.347,145411,813,176489
28.352,145402,814,176483
28.357,145409,812,176477
28.362,145401,812,176485
28.367,145403,814,176451
28.372,145398,809,176477
28.377,145380,808,176484
28.382,145393,807,176476
28.387,145402,807,176477
28.392,145397,808,176469
28.397,145394,806,176466
28.402,145386,807,176476
28.406,145374,807,176467
28.411,145397,807,176463
28.416,145393,807,176465
28.421,145379,808,176448
28.426,145388,809,176457
28.431,145388,809,176468
28.436,145375,808,176468
28.441,145378,807,176461
28.446,145368,808,176451
28.451,145374,809,176453
28.456,145365,807,176465
28.461,145377,807,176429
28.466,145367,811,176442
28.471,145374,810,176460
28.476,145367,810,176436
28.481,145380,809,176448
28.486,145375,810,176453
28.491,145364,809,176454
28.496,145388,810,176462
28.501,145384,809,176442
28.506,145386,810,176442
28.511,145384,808,176451
28.516,145374,803,176457
28.521,145382,808,176456
28.526,145385,809,176446
28.531,145379,807,176449
28.536,145391,810,176455
28.541,145376,806,176448
28.546,145390,809,176438
28.551,145367,806,176443
28.556,145390,806,176443
28.561,145386,803,176438
28.566,145367,802,176445
28.571,145378,808,176441
28.575,145378,810,176440
28.580,145359,808,176442
28.585,145366,808,176434
28.590,145371,801,176420
28.595,145385,809,176435
28.600,145352,806,176423
28.605,145355,801,176444
28.610,145364,801,176431
28.615,145356,807,176441
28.620,145352,806,176412
28.625,145377,808,176423
28.630,145365,800,176434
28.635,145372,802,176429
28.640,145382,799,176439
28.645,145374,802,176436
28.650,145361,801,176421
28.655,145371,802,176424
28.660,145390,799,176423
28.665,145380,801,176442
28.670,145372,799,176420
28.675,145370,800,176428
28.680,145380,799,176439
28.685,145377,801,176441
28.690,145379,800,176427
28.695,145376,801,176439
28.700,145384,800,176432
28.705,145374,800,176432
28.710,145395,800,176465
28.715,145383,804,176430
28.720,145383,801,176429
28.725,145379,803,176443
28.730,145385,804,176426
28.735,145395,803,176441
28.739,145390,803,176440
28.744,145383,807,176422
28.749,145388,807,176445
28.754,145393,808,176440
28.759,145356,798,176410
28.764,145398,803,176425
28.769,145399,802,176434
28.774,145398,802,176440
28.779,145399,801,176446
28.784,145410,802,176435
28.789,145406,802,176446
28.794,145404,805,176457
28.799,145426,801,176438
28.804,145426,804,176441
28.809,145434,800,176450
28.814,145414,803,176437
28.819,145427,800,176439
28.824,145420,802,176444
28.829,145419,803,176460
28.834,145430,803,176444
28.839,145445,800,176460
28.844,145428,802,176461
28.849,145439,802,176458
28.854,145451,802,176453
28.859,145420,272,176461
28.864,145435,314,176458
28.869,145434,344,176457
28.874,145446,372,176438
28.879,145435,392,176461
28.884,145419,411,176463
28.889,145434,426,176468
28.894,145443,442,176447
28.899,145456,454,176449
28.904,145455,476,176460
28.908,145450,472,176448
28.913,145443,484,176458
28.918,145454,501,176467
28.923,145463,510,176462
28.928,145458,517,176465
28.933,145460,525,176470
28.938,145458,530,176458
28.943,145467,537,176467
28.948,145458,544,176487
28.953,145459,551,176472
28.958,145450,560,176487
28.963,145464,1268,176466
28.968,145457,1181,176464
28.973,145447,1126,176473
28.978,145437,1084,176454
28.983,145428,1055,176460
28.988,145419,1030,176441
28.993,145418,1009,176437
28.998,145403,990,176440
29.003,145382,969,176404
29.008,145383,965,176436
29.013,145390,954,176418
29.018,145384,941,176424
29.023,145379,932,176411
29.028,145360,927,176424
29.033,145353,920,176388
29.038,145361,907,176397
29.043,145346,899,176393
29.048,145348,896,176408
29.053,145341,891,176388
29.058,145337,887,176390
29.063,145349,883,176392
29.068,145326,881,176382
29.073,145328,877,176380
29.077,145328,873,176377
29.082,145319,869,176379
29.087,145332,868,176379
29.092,145316,866,176374
29.097,145315,863,176377
29.102,145342,862,176369
29.107,145307,858,176360
29.112,145308,855,176377
29.117,145301,853,176345
29.122,145303,846,176375
29.127,145296,845,176361
29.132,145299,844,176353
29.137,145297,841,176358
29.142,145300,839,176349
29.147,145293,840,176330
29.152,145297,823,176328
29.157,145295,839,176346
29.162,145288,836,176352
29.167,145288,837,176330
29.172,145282,836,176351
29.177,145277,835,176353
29.182,145274,833,176341
29.187,145296,835,176346
29.192,145308,828,176349
29.197,145302,826,176354
29.202,145294,827,176359
29.207,145312,827,176355
29.212,145308,827,176375
29.217,145305,826,176362
29.222,145297,824,176354
29.227,145311,826,176351
29.232,145307,825,176350
29.237,145305,827,176349
29.241,145294,823,176341
29.246,145297,821,176310
29.251,145290,819,176358
29.256,145302,820,176353
29.261,145302,817,176354
29.266,145291,819,176361
29.271,145294,817,176359
29.276,145292,818,176341
29.281,145290,816,176354
29.286,145283,816,176364
29.291,145303,813,176358
29.296,145319,816,176345
29.301,145297,815,176351
29.306,145290,817,176346
29.311,145293,816,176347
29.316,145301,816,176351
29.321,145287,814,176336
29.326,145277,816,176356
29.331,145291,814,176348
29.336,145305,813,176368
29.341,145295,812,176340
29.346,145296,816,176349
29.351,145301,814,176363
29.356,145308,815,176353
29.361,145306,811,176359
29.366,145295,813,176359
29.371,145307,810,176343
29.376,145298,812,176354
29.381,145289,809,176353
29.386,145291,809,176342
29.391,145306,807,176336
29.396,145286,812,176348
29.401,145311,811,176356
29.406,145308,813,176345
29.410,145309,809,176382
29.415,145320,809,176350
29.420,145307,808,176361
29.425,145317,810,176342
29.430,145327,805,176380
29.435,145312,807,176373
29.440,145310,803,176365
29.445,145315,810,176364
29.450,145322,808,176365
29.455,145319,809,176365
29.460,145323,806,176366
29.465,145324,809,176362
29.470,145345,807,176372
29.475,145332,808,176369
29.480,145332,806,176373
29.485,145326,807,176363
29.490,145349,806,176370
29.495,145327,811,176378
29.500,145337,806,176374
29.505,145335,810,176366
29.510,145345,808,176377
29.515,145335,809,176378
29.520,145352,806,176375
