df_hash,22ZHK4.4549PD
device,HZ2X61
project_hash,29R7
project_name,istanbul_aydin_university
person_hash,29R7.RR3X
person_label,V8
date_time_start,2025-05-21_10-22-56.669000_+03
date_time_start_unix,1747812176.669
date_time_end,2025-05-21_10-30-43.316000_+03
length_difference_noticed,no

time,ppg_ir,ppg_ambient,ppg_red
5.623,224799,169,38743
5.628,224831,169,38732
5.633,224773,170,38737
5.638,224752,168,38730
5.643,224749,169,38718
5.648,224709,168,38718
5.652,224731,169,38709
5.657,224694,168,38709
5.662,224662,169,38700
5.667,224586,168,38685
5.672,224522,169,38674
5.677,224419,168,38664
5.682,224370,170,38658
5.687,224314,168,38647
5.692,224195,170,38639
5.697,224124,168,38623
5.702,224033,169,38622
5.707,223922,168,38598
5.712,223864,169,38600
5.717,223773,168,38589
5.722,223705,169,38577
5.727,223618,168,38563
5.732,223535,170,38560
5.737,223502,168,38548
5.742,223432,170,38536
5.747,223374,168,38527
5.752,223321,170,38515
5.757,223262,168,38507
5.762,223217,169,38504
5.767,223185,168,38491
5.772,223148,169,38486
5.777,223108,168,38478
5.782,223062,169,38471
5.786,223045,168,38469
5.791,223006,169,38467
5.796,222973,168,38470
5.801,222940,170,38463
5.806,222933,168,38466
5.811,222894,171,38457
5.816,222860,168,38461
5.821,222839,172,38462
5.826,222793,168,38445
5.831,222779,171,38443
5.836,222763,168,38440
5.841,222738,171,38432
5.846,222725,168,38421
5.851,222701,171,38425
5.856,222691,168,38425
5.861,222659,172,38428
5.866,222645,168,38425
5.871,222609,169,38425
5.876,222648,168,38431
5.881,222594,170,38433
5.886,222600,168,38436
5.891,222587,171,38421
5.896,222573,168,38433
5.901,222530,171,38426
5.906,222505,168,38425
5.911,222507,172,38419
5.916,222474,168,38416
5.920,222465,170,38421
5.925,222447,168,38422
5.930,222432,170,38415
5.935,222445,168,38410
5.940,222432,173,38419
5.945,222431,168,38412
5.950,222434,172,38418
5.955,222439,168,38419
5.960,222420,172,38421
5.965,222438,168,38426
5.970,222427,169,38416
5.975,222425,168,38419
5.980,222420,174,38420
5.985,222386,168,38414
5.990,222393,173,38424
5.995,222386,168,38414
6.000,222362,173,38405
6.005,222336,168,38407
6.010,222347,173,38410
6.015,222331,168,38406
6.020,222314,170,38410
6.025,222332,168,38408
6.030,222320,170,38419
6.035,222315,168,38417
6.040,222317,170,38419
6.045,222344,168,38421
6.050,222330,170,38422
6.054,222352,168,38412
6.059,222358,170,38413
6.064,222379,168,38419
6.069,222367,169,38410
6.074,222376,168,38412
6.079,222396,169,38413
6.084,222387,168,38408
6.089,222379,173,38408
6.094,222391,168,38406
6.099,222406,173,38412
6.104,222409,168,38412
6.109,222434,173,38418
6.114,222423,168,38416
6.119,222433,170,38412
6.124,222446,168,38417
6.129,222451,170,38422
6.134,222452,168,38427
6.139,222460,170,38422
6.144,222474,168,38424
6.149,222479,170,38421
6.154,222466,168,38414
6.159,222494,170,38419
6.164,222488,168,38416
6.169,222496,171,38410
6.174,222493,168,38423
6.179,222511,171,38424
6.184,222505,168,38421
6.188,222506,171,38423
6.193,222506,168,38425
6.198,222502,171,38423
6.203,222497,168,38419
6.208,222494,171,38421
6.213,222507,168,38413
6.218,222501,169,38422
6.223,222484,168,38417
6.228,222511,169,38422
6.233,222536,168,38420
6.238,222530,169,38419
6.243,222554,168,38421
6.248,222553,169,38423
6.253,222584,168,38423
6.258,222604,169,38427
6.263,222601,168,38425
6.268,222613,170,38424
6.273,222622,168,38425
6.278,222646,170,38432
6.283,222651,168,38424
6.288,222665,170,38426
6.293,222681,168,38421
6.298,222676,170,38429
6.303,222686,168,38434
6.308,222682,169,38429
6.313,222715,169,38436
6.318,222702,171,38429
6.322,222727,169,38428
6.327,222715,170,38427
6.332,222758,169,38429
6.337,222752,170,38429
6.342,222733,169,38433
6.347,222761,169,38428
6.352,222788,168,38431
6.357,222785,170,38435
6.362,222796,168,38428
6.367,222797,168,38434
6.372,222810,170,38433
6.377,222824,170,38433
6.382,222852,170,38429
6.387,222862,171,38437
6.392,222855,170,38431
6.397,222889,170,38429
6.402,222893,170,38442
6.407,222913,168,38437
6.412,222910,168,38434
6.417,222909,168,38437
6.422,222909,168,38431
6.427,222934,170,38438
6.432,222927,170,38441
6.437,222946,169,38434
6.442,222989,170,38442
6.447,222966,169,38434
6.451,222991,170,38438
6.456,223053,168,38439
6.461,223047,168,38442
6.466,223079,168,38448
6.471,223079,168,38443
6.476,223109,168,38453
6.481,223132,168,38453
6.486,223136,168,38451
6.491,223146,171,38453
6.496,223155,169,38447
6.501,223202,171,38454
6.506,223235,168,38465
6.511,223249,169,38460
6.516,223262,168,38462
6.521,223269,168,38465
6.526,223312,169,38470
6.531,223303,171,38464
6.536,223323,169,38467
6.541,223300,172,38471
6.546,223297,168,38469
6.551,223280,170,38467
6.556,223251,168,38460
6.561,223219,169,38463
6.566,223188,168,38465
6.571,223167,169,38467
6.576,223120,168,38458
6.581,223097,169,38460
6.585,223042,169,38444
6.590,222967,172,38452
6.595,222936,169,38449
6.600,222881,169,38451
6.605,222847,168,38440
6.610,222793,170,38434
6.615,222743,168,38444
6.620,222720,170,38430
6.625,222700,168,38442
6.630,222676,170,38440
6.635,222650,168,38435
6.640,222630,170,38432
6.645,222601,168,38428
6.650,222619,187,38432
6.655,222589,168,38433
6.660,222574,172,38430
6.665,222561,168,38424
6.670,222538,172,38423
6.675,222505,168,38419
6.680,222498,172,38418
6.685,222466,168,38418
6.690,222460,173,38409
6.695,222428,168,38412
6.700,222423,170,38404
6.705,222378,168,38414
6.710,222345,170,38402
6.715,222343,168,38397
6.719,222319,170,38405
6.724,222302,168,38398
6.729,222286,170,38391
6.734,222232,168,38390
6.739,222204,170,38385
6.744,222176,168,38386
6.749,222171,173,38386
6.754,222132,168,38386
6.759,222128,169,38389
6.764,222115,168,38384
6.769,222087,170,38380
6.774,222077,168,38384
6.779,222057,170,38385
6.784,222056,168,38380
6.789,222024,169,38380
6.794,222027,168,38379
6.799,222054,175,38369
6.804,222023,168,38379
6.809,222000,173,38376
6.814,221978,168,38371
6.819,221982,171,38365
6.824,221968,168,38371
6.829,221954,171,38363
6.834,221952,168,38366
6.839,221950,170,38368
6.844,221910,168,38366
6.849,221913,170,38356
6.853,221890,168,38368
6.858,221907,172,38357
6.863,221857,168,38353
6.868,221872,171,38357
6.873,221862,168,38356
6.878,221837,174,38356
6.883,221829,168,38353
6.888,221812,171,38351
6.893,221817,168,38458
6.898,221799,171,38349
6.903,221800,168,38349
6.908,221803,170,38346
6.913,221797,168,38340
6.918,221801,171,38343
6.923,221768,168,38344
6.928,221780,173,38341
6.933,221785,168,38343
6.938,221760,170,38344
6.943,221791,168,38335
6.948,221758,171,38330
6.953,221753,168,38335
6.958,221736,169,38333
6.963,221739,168,38334
6.968,221709,171,38332
6.973,221704,168,38324
6.978,221721,169,38324
6.983,221704,168,38324
6.987,221702,170,38326
6.992,221696,168,38321
6.997,221691,170,38323
7.002,221691,168,38314
7.007,221673,172,38319
7.012,221678,168,38312
7.017,221672,170,38313
7.022,221698,168,38312
7.027,221690,171,38313
7.032,221675,168,38306
7.037,221692,169,38300
7.042,221704,168,38304
7.047,221673,169,38310
7.052,221685,168,38302
7.057,221652,171,38302
7.062,221662,168,38307
7.067,221673,169,38295
7.072,221666,168,38295
7.077,221671,171,38298
7.082,221657,169,38293
7.087,221679,170,38291
7.092,221704,169,38297
7.097,221677,170,38291
7.102,221709,168,38295
7.107,221699,169,38281
7.112,221714,168,38290
7.117,221707,168,38287
7.121,221710,168,38282
7.126,221706,170,38286
7.131,221718,169,38285
7.136,221713,169,38286
7.141,221725,170,38285
7.146,221710,169,38281
7.151,221751,168,38282
7.156,221724,168,38287
7.161,221745,168,38286
7.166,221767,169,38292
7.171,221769,169,38285
7.176,221770,168,38283
7.181,221797,168,38288
7.186,221783,168,38286
7.191,221798,171,38282
7.196,221800,169,38286
7.201,221807,169,38276
7.206,221816,168,38282
7.211,221833,169,38286
7.216,221823,168,38285
7.221,221831,171,38282
7.226,221864,169,38288
7.231,221871,170,38284
7.236,221888,169,38290
7.241,221887,171,38293
7.246,221924,168,38292
7.251,221924,169,38295
7.255,221945,168,38297
7.260,221977,169,38293
7.265,221980,169,38294
7.270,221998,171,38305
7.275,222014,168,38296
7.280,222035,170,38281
7.285,222026,168,38294
7.290,222055,171,38301
7.295,222051,168,38299
7.300,222074,169,38295
7.305,222065,169,38290
7.310,222095,171,38299
7.315,222098,168,38306
7.320,222110,170,38300
7.325,222126,168,38304
7.330,222139,173,38300
7.335,222171,168,38307
7.340,222182,171,38312
7.345,222196,168,38317
7.350,222222,169,38315
7.355,222219,168,38316
7.360,222248,172,38309
7.365,222236,168,38318
7.370,222254,171,38313
7.375,222292,168,38309
7.380,222280,169,38310
7.385,222318,168,38316
7.389,222313,170,38317
7.394,222326,168,38315
7.399,222364,172,38323
7.404,222363,168,38319
7.409,222380,171,38326
7.414,222379,168,38326
7.419,222354,169,38308
7.424,222316,168,38318
7.429,222306,172,38321
7.434,222264,168,38317
7.439,222222,173,38312
7.444,222185,168,38322
7.449,222152,171,38322
7.454,222108,168,38321
7.459,222034,170,38316
7.464,222002,168,38311
7.469,221927,173,38306
7.474,221876,168,38298
7.479,221835,194,38302
7.484,221804,168,38302
7.489,221748,171,38297
7.494,221723,168,38297
7.499,221698,170,38290
7.504,221659,168,38294
7.509,221631,173,38290
7.514,221613,168,38283
7.519,221601,171,38291
7.523,221568,168,38289
7.528,221552,171,38285
7.533,221542,168,38282
7.538,221525,174,38289
7.543,221528,168,38286
7.548,221502,171,38290
7.553,221507,168,38286
7.558,221491,174,38282
7.563,221457,168,38282
7.568,221456,171,38285
7.573,221444,168,38287
7.578,221413,173,38283
7.583,221397,168,38275
7.588,221386,172,38278
7.593,221357,168,38284
7.598,221365,171,38275
7.603,221369,168,38282
7.608,221326,170,38278
7.613,221307,168,38291
7.618,221299,173,38282
7.623,221291,168,38296
7.628,221289,173,38281
7.633,221291,168,38286
7.638,221284,171,38285
7.643,221303,168,38277
7.648,221304,169,38284
7.653,221308,168,38295
7.657,221316,172,38283
7.662,221299,168,38294
7.667,221335,170,38291
7.672,221337,168,38293
7.677,221342,171,38292
7.682,221343,168,38292
7.687,221364,169,38293
7.692,221370,169,38298
7.697,221388,171,38287
7.702,221414,168,38297
7.707,221412,169,38303
7.712,221445,169,38309
7.717,221451,170,38302
7.722,221460,168,38310
7.727,221438,170,38306
7.732,221464,168,38314
7.737,221457,169,38311
7.742,221469,169,38315
7.747,221482,171,38311
7.752,221485,168,38307
7.757,221492,169,38312
7.762,221509,168,38316
7.767,221502,171,38323
7.772,221496,169,38319
7.777,221544,171,38325
7.782,221549,169,38319
7.787,221566,169,38327
7.791,221583,168,38325
7.796,221574,168,38326
7.801,221591,169,38331
7.806,221603,170,38329
7.811,221639,168,38336
7.816,221645,168,38332
7.821,221685,169,38341
7.826,221686,168,38340
7.831,221703,168,38346
7.836,221718,171,38342
7.841,221757,170,38346
7.846,221748,169,38341
7.851,221772,169,38344
7.856,221776,168,38347
7.861,221778,168,38353
7.866,221796,170,38354
7.871,221848,168,38353
7.876,221823,168,38354
7.881,221834,169,38354
7.886,221853,168,38354
7.891,221853,171,38347
7.896,221875,169,38359
7.901,221875,170,38355
7.906,221895,168,38357
7.911,221905,169,38359
7.916,221920,168,38365
7.921,221932,171,38355
7.925,221974,168,38359
7.930,221975,169,38362
7.935,221998,168,38369
7.940,222023,168,38366
7.945,222036,169,38369
7.950,222051,170,38372
7.955,222058,168,38375
7.960,222054,168,38369
7.965,222069,169,38372
7.970,222098,169,38370
7.975,222110,169,38369
7.980,222116,171,38374
7.985,222144,168,38374
7.990,222173,169,38379
7.995,222171,168,38385
8.000,222178,172,38383
8.005,222194,168,38384
8.010,222224,170,38378
8.015,222227,168,38391
8.020,222240,171,38387
8.025,222275,168,38388
8.030,222299,170,38390
8.035,222300,168,38392
8.040,222323,173,38386
8.045,222336,168,38398
8.050,222380,171,38396
8.055,222376,168,38398
8.059,222393,170,38397
8.064,222384,168,38397
8.069,222439,170,38402
8.074,222458,168,38396
8.079,222469,173,38411
8.084,222500,168,38409
8.089,222490,172,38412
8.094,222521,168,38418
8.099,222542,170,38411
8.104,222543,168,38418
8.109,222553,172,38420
8.114,222590,168,38413
8.119,222590,173,38416
8.124,222605,168,38419
8.129,222624,171,38414
8.134,222643,168,38422
8.139,222671,170,38427
8.144,222657,168,38424
8.149,222715,173,38428
8.154,222730,168,38431
8.159,222732,171,38434
8.164,222766,168,38435
8.169,222789,172,38444
8.174,222795,168,38444
8.179,222829,171,38442
8.184,222855,168,38440
8.189,222864,170,38442
8.193,222883,168,38444
8.198,222907,173,38440
8.203,222923,168,38448
8.208,222937,170,38446
8.213,222954,168,38451
8.218,222975,171,38445
8.223,222996,168,38452
8.228,223023,174,38452
8.233,223025,168,38464
8.238,223030,172,38459
8.243,223054,168,38461
8.248,223079,170,38463
8.253,223104,168,38465
8.258,223090,172,38455
8.263,223098,168,38462
8.268,223095,171,38461
8.273,223095,168,38466
8.278,223057,174,38462
8.283,223028,168,38461
8.288,222998,172,38463
8.293,222965,168,38462
8.298,222909,170,38461
8.303,222901,168,38458
8.308,222826,172,38448
8.313,222789,168,38453
8.318,222726,173,38449
8.323,222672,168,38445
8.327,222615,170,38433
8.332,222555,168,38432
8.337,222501,173,38434
8.342,222468,168,38428
8.347,222442,171,38425
8.352,222403,168,38423
8.357,222372,172,38417
8.362,222378,168,38418
8.367,222338,170,38421
8.372,222302,168,38417
8.377,222297,169,38415
8.382,222263,168,38413
8.387,222240,171,38414
8.392,222223,168,38416
8.397,222225,170,38393
8.402,222182,168,38404
8.407,222184,170,38400
8.412,222160,168,38407
8.417,222106,169,38395
8.422,222101,169,38399
8.427,222085,171,38394
8.432,222044,168,38398
8.437,222040,169,38396
8.442,222026,168,38398
8.447,221988,172,38396
8.452,221981,169,38387
8.456,221976,169,38390
8.461,221929,169,38385
8.466,221923,171,38389
8.471,221902,168,38383
8.476,221878,169,38376
8.481,221853,168,38377
8.486,221829,168,38384
8.491,221830,169,38378
8.496,221817,170,38373
8.501,221793,168,38377
8.506,221815,170,38380
8.511,221791,169,38379
8.516,221785,169,38380
8.521,221792,168,38380
8.526,221814,168,38380
8.531,221807,170,38381
8.536,221792,170,38370
8.541,221783,169,38377
8.546,221789,169,38372
8.551,221774,168,38374
8.556,221783,169,38373
8.561,221759,168,38375
8.566,221766,170,38370
8.571,221761,170,38370
8.576,221762,169,38368
8.581,221772,168,38368
8.586,221765,168,38369
8.590,221753,171,38375
8.595,221751,169,38369
8.600,221751,168,38373
8.605,221747,169,38370
8.610,221739,170,38372
8.615,221722,168,38372
8.620,221743,169,38362
8.625,221760,168,38371
8.630,221737,171,38367
8.635,221740,168,38370
8.640,221752,169,38369
8.645,221741,168,38367
8.650,221746,169,38362
8.655,221756,168,38372
8.660,221771,172,38368
8.665,221771,168,38369
8.670,221770,169,38373
8.675,221778,168,38368
8.680,221808,169,38374
8.685,221806,169,38368
8.690,221804,171,38371
8.695,221805,168,38370
8.700,221862,172,38365
8.705,221816,168,38372
8.710,221839,171,38371
8.715,221839,168,38371
8.720,221846,169,38374
8.724,221863,168,38371
8.729,221864,171,38372
8.734,221875,168,38376
8.739,221887,170,38377
8.744,221890,168,38369
8.749,221902,170,38380
8.754,221923,168,38380
8.759,221932,173,38379
8.764,221937,168,38381
8.769,221945,171,38380
8.774,221966,168,38382
8.779,221981,170,38377
8.784,221981,168,38385
8.789,222010,172,38377
8.794,222026,168,38381
8.799,222049,171,38385
8.804,222056,168,38387
8.809,222082,169,38395
8.814,222103,168,38390
8.819,222086,173,38395
8.824,222104,168,38394
8.829,222130,172,38397
8.834,222134,168,38397
8.839,222166,171,38399
8.844,222169,168,38366
8.849,222176,173,38400
8.854,222195,168,38399
8.858,222211,173,38405
8.863,222232,168,38401
8.868,222256,172,38402
8.873,222239,168,38407
8.878,222266,172,38408
8.883,222269,168,38402
8.888,222303,172,38405
8.893,222394,168,38409
8.898,222334,174,38415
8.903,222324,168,38409
8.908,222318,170,38409
8.913,222345,168,38413
8.918,222324,170,38400
8.923,222343,168,38401
8.928,222342,174,38398
8.933,222350,168,38398
8.938,222369,174,38401
8.943,222391,168,38399
8.948,222399,171,38412
8.953,222395,168,38401
8.958,222438,171,38408
8.963,222444,168,38409
8.968,222440,171,38408
8.973,222487,168,38413
8.978,222493,171,38411
8.983,222516,168,38414
8.988,222526,171,38418
8.992,222578,168,38419
8.997,222570,171,38419
9.002,222567,168,38425
9.007,222598,174,38425
9.012,222605,168,38424
9.017,222593,172,38428
9.022,222616,168,38422
9.027,222646,170,38426
9.032,222645,168,38431
9.037,222669,172,38431
9.042,222695,168,38436
9.047,222698,172,38436
9.052,222701,168,38434
9.057,222726,170,38433
9.062,222761,168,38430
9.067,222750,173,38436
9.072,222775,168,38436
9.077,222789,171,38437
9.082,222808,168,38435
9.087,222820,174,38437
9.092,222849,168,38444
9.097,222859,169,38445
9.102,222892,169,38452
9.107,222887,172,38455
9.112,222924,168,38463
9.117,222912,170,38450
9.122,222940,168,38454
9.126,222939,172,38454
9.131,222948,168,38454
9.136,222984,170,38453
9.141,222982,168,38464
9.146,223010,170,38458
9.151,223014,168,38463
9.156,223021,172,38468
9.161,223047,168,38466
9.166,223070,170,38458
9.171,223046,168,38465
9.176,223033,171,38458
9.181,223013,168,38459
9.186,222998,171,38457
9.191,222972,168,38454
9.196,222938,169,38455
9.201,222916,168,38459
9.206,222896,171,38454
9.211,222823,169,38459
9.216,222795,170,38455
9.221,222748,168,38454
9.226,222680,168,38452
9.231,222624,170,38430
9.236,222572,169,38441
9.241,222518,168,38431
9.246,222492,171,38431
9.251,222439,169,38424
9.256,222396,169,38426
9.260,222379,168,38419
9.265,222339,171,38425
9.270,222338,170,38415
9.275,222317,169,38419
9.280,222300,168,38409
9.285,222276,169,38409
9.290,222276,169,38413
9.295,222239,168,38406
9.300,222235,171,38413
9.305,222225,169,38405
9.310,222222,169,38404
9.315,222186,168,38402
9.320,222173,171,38403
9.325,222138,169,38408
9.330,222132,169,38406
9.335,222113,169,38397
9.340,222105,169,38402
9.345,222071,168,38400
9.350,222066,168,38392
9.355,222029,169,38390
9.360,222033,171,38397
9.365,222015,168,38404
9.370,221973,169,38386
9.375,221992,168,38393
9.380,221943,172,38397
9.385,221954,168,38393
9.390,221931,172,38393
9.394,221909,168,38396
9.399,221920,170,38388
9.404,221903,168,38391
9.409,221908,169,38389
9.414,221901,169,38387
9.419,221893,171,38387
9.424,221915,168,38392
9.429,221907,187,38385
9.434,221916,168,38382
9.439,221903,172,38377
9.444,221905,168,38387
9.449,221928,170,38379
9.454,221908,168,38382
9.459,221903,172,38384
9.464,221916,168,38385
9.469,221915,171,38383
9.474,221925,168,38378
9.479,221929,171,38385
9.484,221927,168,38391
9.489,221924,169,38382
9.494,221932,168,38392
9.499,221931,171,38393
9.504,221939,168,38390
9.509,221924,170,38381
9.514,221953,168,38386
9.519,221957,172,38389
9.524,221957,168,38387
9.528,221960,173,38387
9.533,221954,168,38385
9.538,221965,171,38381
9.543,221976,168,38386
9.548,222004,170,38388
9.553,221998,168,38392
9.558,222019,173,38393
9.563,222015,168,38392
9.568,222036,171,38396
9.573,222042,168,38412
9.578,222071,171,38393
9.583,222101,168,38393
9.588,222087,174,38399
9.593,222110,168,38394
9.598,222123,172,38406
9.603,222141,168,38406
9.608,222151,170,38401
9.613,222165,168,38405
9.618,222161,173,38398
9.623,222194,168,38398
9.628,222191,174,38403
9.633,222205,168,38400
9.638,222218,172,38400
9.643,222245,168,38416
9.648,222244,171,38369
9.653,222246,168,38400
9.658,222247,170,38414
9.662,222272,168,38412
9.667,222279,172,38407
9.672,222301,168,38412
9.677,222315,173,38408
9.682,222332,168,38420
9.687,222339,171,38420
9.692,222347,168,38417
9.697,222345,170,38412
9.702,222376,168,38415
9.707,222371,173,38416
9.712,222416,168,38415
9.717,222392,172,38416
9.722,222369,168,38413
9.727,222426,172,38426
9.732,222454,168,38419
9.737,222459,171,38422
9.742,222474,168,38423
9.747,222486,170,38426
9.752,222508,168,38426
9.757,222526,172,38428
9.762,222536,168,38428
9.767,222557,171,38424
9.772,222580,169,38431
9.777,222588,172,38425
9.782,222602,168,38440
9.787,222616,170,38432
9.792,222644,169,38431
9.796,222628,172,38425
9.801,222652,168,38435
9.806,222672,170,38437
9.811,222675,168,38445
9.816,222701,173,38437
9.821,222736,168,38440
9.826,222759,171,38439
9.831,222778,168,38452
9.836,222801,169,38442
9.841,222808,169,38450
9.846,222843,171,38454
9.851,222855,168,38459
9.856,222885,169,38455
9.861,222888,168,38461
9.866,222917,172,38466
9.871,222949,168,38465
9.876,222951,169,38463
9.881,222993,169,38464
9.886,223015,171,38468
9.891,223042,168,38475
9.896,223070,169,38480
9.901,223113,168,38478
9.906,223170,168,38485
9.911,223210,169,38494
9.916,223240,169,38496
9.921,223303,170,38506
9.926,223347,169,38522
9.930,223384,168,38530
9.935,223455,168,38537
9.940,223513,170,38547
9.945,223594,170,38559
9.950,223627,169,38567
9.955,223713,169,38576
9.960,223760,168,38594
9.965,223852,169,38591
9.970,223916,169,38624
9.975,224006,168,38635
9.980,224090,168,38646
9.985,224152,170,38665
9.990,224233,169,38675
9.995,224302,168,38688
10.000,224367,168,38709
10.005,224445,170,38706
10.010,224489,170,38721
10.015,224448,170,38731
10.020,224616,170,38741
10.025,224653,168,38746
10.030,224699,169,38756
10.035,224727,168,38761
10.040,224790,171,38770
10.045,224810,168,38776
10.050,224846,169,38780
10.055,224914,168,38794
10.060,224930,168,38802
10.064,224984,168,38805
10.069,224983,169,38805
10.074,225047,169,38815
10.079,225064,171,38821
10.084,225093,168,38834
10.089,225113,170,38833
10.094,225105,168,38828
10.099,225089,172,38823
10.104,225070,168,38831
10.109,225035,170,38831
10.114,225045,168,38834
10.119,224992,173,38837
10.124,224967,168,38829
10.129,224890,171,38832
10.134,224840,168,38826
10.139,224782,170,38822
10.144,224743,168,38818
10.149,224683,172,38819
10.154,224638,168,38821
10.159,224574,171,38815
10.164,224550,168,38807
10.169,224546,171,38812
10.174,224487,168,38809
10.179,224469,174,38806
10.184,224439,168,38801
10.189,224415,172,38805
10.194,224402,168,38800
10.198,224389,170,38801
10.203,224379,168,38795
10.208,224352,172,38791
10.213,224342,168,38796
10.218,224334,172,38787
10.223,224319,168,38794
10.228,224311,170,38792
10.233,224301,168,38790
10.238,224277,172,38789
10.243,224244,168,38786
10.248,224222,171,38793
10.253,224194,168,38793
10.258,224178,170,38772
10.263,224168,168,38785
10.268,224150,170,38785
10.273,224139,168,38772
10.278,224115,174,38777
10.283,224073,168,38781
10.288,224062,172,38779
10.293,224024,168,38776
10.298,224022,171,38771
10.303,223996,168,38772
10.308,224034,171,38775
10.313,223989,168,38772
10.318,223976,172,38773
10.323,223983,168,38765
10.328,223989,170,38771
10.332,223996,168,38777
10.337,223988,172,38782
10.342,224001,168,38755
10.347,223987,171,38772
10.352,224000,168,38773
10.357,223975,170,38767
10.362,223977,168,38768
10.367,223980,172,38763
10.372,223977,168,38762
10.377,223989,170,38772
10.382,223983,168,38765
10.387,223982,172,38769
10.392,223970,168,38768
10.397,223997,171,38772
10.402,223994,168,38774
10.407,223999,171,38773
10.412,223989,168,38778
10.417,223971,172,38776
10.422,224000,168,38777
10.427,224022,170,38774
10.432,223996,168,38777
10.437,223993,172,38772
10.442,224006,168,38778
10.447,223982,170,38777
10.452,223999,168,38777
10.457,224016,169,38774
10.462,224003,168,38779
10.466,224026,171,38774
10.471,224049,168,38773
10.476,224055,172,38780
10.481,224056,168,38779
10.486,224056,170,38770
10.491,224046,168,38774
10.496,224065,172,38773
10.501,224067,168,38780
10.506,224075,170,38776
10.511,224073,168,38780
10.516,224079,173,38779
10.521,224083,168,38783
10.526,224088,170,38774
10.531,224103,168,38773
10.536,224132,172,38780
10.541,224111,168,38781
10.546,224130,170,38784
10.551,224134,181,38778
10.556,224145,169,38781
10.561,224165,168,38774
10.566,224173,170,38788
10.571,224162,168,38783
10.576,224191,169,38786
10.581,224190,169,38787
10.586,224201,170,38783
10.591,224193,168,38779
10.595,224225,168,38789
10.600,224233,168,38783
10.605,224240,171,38790
10.610,224257,169,38783
10.615,224269,169,38796
10.620,224297,168,38796
10.625,224323,170,38790
10.630,224328,169,38793
10.635,224334,168,38793
10.640,224347,168,38790
10.645,224363,170,38799
10.650,224367,168,38799
10.655,224379,170,38798
10.660,224395,170,38798
10.665,224412,168,38794
10.670,224402,168,38799
10.675,224437,170,38802
10.680,224452,170,38807
10.685,224458,168,38806
10.690,224476,169,38809
10.695,224494,168,38806
10.700,224496,169,38807
10.705,224511,168,38800
10.710,224531,171,38803
10.715,224519,168,38804
10.720,224525,170,38799
10.725,224525,168,38794
10.729,224526,172,38799
10.734,224575,168,38795
10.739,224578,170,38799
10.744,224603,168,38803
10.749,224591,170,38802
10.754,224628,168,38811
10.759,224617,169,38797
10.764,224647,169,38805
10.769,224656,172,38802
10.774,224653,168,38804
10.779,224671,170,38812
10.784,224671,168,38805
10.789,224676,169,38810
10.794,224691,169,38811
10.799,224702,169,38813
10.804,224711,169,38812
10.809,224738,172,38813
10.814,224727,168,38807
10.819,224752,170,38804
10.824,224745,168,38814
10.829,224763,173,38807
10.834,224788,168,38807
10.839,224797,171,38812
10.844,224808,168,38811
10.849,224807,172,38811
10.854,224811,168,38805
10.859,224796,170,38812
10.863,224815,168,38807
10.868,224824,173,38805
10.873,224840,168,38806
10.878,224824,170,38804
10.883,224831,168,38808
10.888,224840,173,38806
10.893,224873,168,38803
10.898,224848,171,38801
10.903,224846,168,38813
10.908,224879,174,38808
10.913,224889,168,38807
10.918,224881,172,38800
10.923,224898,168,38805
10.928,224924,173,38804
10.933,224916,168,38804
10.938,224922,171,38804
10.943,224971,168,38797
10.948,224917,173,38802
10.953,224956,168,38806
10.958,224944,171,38808
10.963,224965,168,38805
10.968,224965,173,38796
10.973,224962,168,38802
10.978,225009,171,38800
10.983,225009,168,38802
10.988,224993,173,38785
10.993,224987,168,38800
10.997,224961,172,38786
11.002,224968,168,38785
11.007,224934,170,38787
11.012,224925,168,38785
11.017,224874,172,38786
11.022,224853,168,38780
11.027,224802,175,38778
11.032,224756,168,38780
11.037,224707,171,38763
11.042,224677,168,38766
11.047,224597,172,38765
11.052,224538,168,38760
11.057,224487,174,38748
11.062,224434,168,38740
11.067,224376,171,38739
11.072,224303,168,38734
11.077,224262,174,38725
11.082,224212,168,38724
11.087,224162,172,38689
11.092,224139,168,38717
11.097,224093,171,38709
11.102,224065,168,38701
11.107,224015,173,38693
11.112,223999,168,38691
11.117,223989,170,38688
11.122,223969,168,38691
11.127,223942,172,38685
11.131,223919,168,38685
11.136,223848,170,38684
11.141,223889,168,38681
11.146,223846,170,38672
11.151,223828,168,38673
11.156,223800,171,38665
11.161,223786,168,38664
11.166,223747,169,38664
11.171,223729,169,38666
11.176,223713,171,38661
11.181,223660,168,38657
11.186,223707,170,38650
11.191,223617,168,38653
11.196,223567,172,38648
11.201,223584,168,38641
11.206,223529,169,38644
11.211,223523,168,38644
11.216,223503,172,38632
11.221,223451,169,38631
11.226,223440,170,38626
11.231,223432,168,38624
11.236,223407,170,38622
11.241,223419,168,38622
11.246,223408,169,38614
11.251,223412,168,38611
11.256,223389,171,38614
11.261,223387,169,38615
11.265,223365,169,38616
11.270,223372,168,38610
11.275,223362,168,38607
11.280,223347,168,38615
11.285,223344,168,38601
11.290,223343,168,38616
11.295,223358,170,38607
11.300,223340,169,38614
11.305,223351,168,38604
11.310,223353,168,38606
11.315,223356,170,38614
11.320,223346,169,38606
11.325,223349,168,38614
11.330,223329,168,38604
11.335,223317,168,38600
11.340,223315,168,38596
11.345,223324,170,38593
11.350,223294,170,38599
11.355,223308,168,38596
11.360,223293,169,38598
11.365,223298,168,38590
11.370,223308,171,38597
11.375,223311,168,38593
11.380,223319,171,38690
11.385,223319,168,38601
11.390,223323,169,38595
11.395,223334,168,38598
11.399,223359,172,38605
11.404,223371,169,38596
11.409,223347,170,38594
11.414,223355,168,38596
11.419,223368,173,38599
11.424,223357,168,38596
11.429,223404,173,38594
11.434,223392,169,38596
11.439,223408,171,38595
11.444,223395,168,38595
11.449,223402,169,38609
11.454,223410,168,38597
11.459,223434,172,38599
11.464,223434,168,38596
11.469,223463,170,38603
11.474,223468,168,38608
11.479,223503,170,38605
11.484,223485,168,38607
11.489,223510,174,38608
11.494,223527,168,38609
11.499,223532,171,38612
11.504,223557,168,38618
11.509,223593,170,38619
11.514,223614,168,38618
11.519,223635,172,38619
11.524,223648,168,38629
11.529,223648,172,38624
11.533,223669,168,38630
11.538,223684,170,38625
11.543,223693,168,38629
11.548,223695,172,38630
11.553,223724,168,38624
11.558,223728,170,38623
11.563,223731,168,38623
11.568,223768,172,38631
11.573,223791,168,38632
11.578,223808,171,38634
11.583,223838,168,38645
11.588,223884,173,38646
11.593,223883,168,38655
11.598,223914,171,38649
11.603,223917,168,38652
11.608,223927,174,38653
11.613,223950,168,38654
11.618,223965,171,38660
11.623,223973,168,38652
11.628,224004,174,38658
11.633,224010,168,38659
11.638,224051,172,38666
11.643,224050,168,38665
11.648,224064,174,38661
11.653,224075,168,38661
11.658,224076,171,38667
11.663,224081,168,38666
11.667,224105,174,38663
11.672,224122,168,38602
11.677,224124,173,38667
11.682,224132,168,38669
11.687,224170,171,38675
11.692,224167,168,38672
11.697,224186,173,38673
11.702,224189,168,38666
11.707,224215,171,38677
11.712,224220,168,38673
11.717,224239,173,38680
11.722,224248,168,38681
11.727,224254,173,38678
11.732,224282,168,38679
11.737,224281,170,38678
11.742,224282,168,38681
11.747,224303,173,38679
11.752,224311,171,38681
11.757,224352,170,38686
11.762,224358,168,38685
11.767,224361,171,38687
11.772,224402,168,38693
11.777,224430,171,38691
11.782,224406,168,38685
11.787,224423,169,38689
11.792,224426,168,38689
11.797,224450,171,38696
11.801,224468,168,38697
11.806,224504,169,38700
11.811,224511,168,38703
11.816,224520,171,38700
11.821,224589,168,38704
11.826,224531,169,38702
11.831,224568,169,38708
11.836,224566,171,38702
11.841,224567,168,38708
11.846,224549,169,38699
11.851,224516,169,38698
11.856,224513,170,38693
11.861,224473,168,38700
11.866,224426,169,38703
11.871,224407,168,38693
11.876,224368,169,38695
11.881,224344,169,38691
11.886,224281,170,38682
11.891,224224,168,38686
11.896,224173,168,38682
11.901,224145,169,38668
11.906,224105,169,38672
11.911,224043,168,38662
11.916,224011,171,38662
11.921,223976,169,38655
11.926,223936,169,38657
11.931,223909,168,38661
11.935,223895,168,38656
11.940,223849,169,38652
11.945,223845,169,38647
11.950,223841,168,38641
11.955,223830,170,38641
11.960,223821,169,38633
11.965,223792,168,38635
11.970,223779,168,38635
11.975,223779,168,38639
11.980,223765,170,38634
11.985,223744,168,38632
11.990,223720,168,38642
11.995,223715,170,38636
12.000,223683,170,38631
12.005,223673,168,38639
12.010,223642,169,38614
12.015,223640,168,38635
12.020,223607,169,38634
12.025,223597,168,38630
12.030,223582,170,38629
12.035,223563,168,38629
12.040,223557,169,38613
12.045,223528,168,38622
12.050,223517,171,38617
12.055,223508,168,38616
12.060,223494,169,38613
12.065,223487,168,38612
12.069,223483,169,38621
12.074,223493,169,38618
12.079,223486,170,38619
12.084,223497,168,38615
12.089,223519,172,38616
12.094,223493,168,38613
12.099,223477,170,38606
12.104,223477,168,38609
12.109,223475,172,38605
12.114,223484,168,38606
12.119,223451,172,38613
12.124,223452,168,38609
12.129,223471,170,38616
12.134,223442,168,38609
12.139,223435,171,38607
12.144,223455,168,38619
12.149,223456,169,38591
12.154,223451,168,38606
12.159,223452,170,38608
12.164,223436,168,38607
12.169,223421,170,38604
12.174,223434,168,38607
12.179,223407,172,38609
12.184,223421,168,38606
12.189,223421,170,38600
12.194,223417,168,38605
12.199,223411,173,38603
12.203,223414,168,38602
12.208,223415,171,38598
12.213,223417,168,38608
12.218,223408,171,38601
12.223,223440,168,38601
12.228,223428,172,38608
12.233,223398,168,38606
12.238,223428,170,38603
12.243,223434,168,38605
12.248,223446,172,38602
12.253,223461,168,38602
12.258,223457,169,38597
12.263,223459,168,38607
12.268,223442,170,38604
12.273,223441,168,38599
12.278,223450,172,38598
12.283,223455,168,38595
12.288,223453,170,38598
12.293,223449,168,38593
12.298,223461,172,38594
12.303,223451,168,38590
12.308,223496,172,38594
12.313,223468,168,38595
12.318,223476,171,38594
12.323,223477,168,38597
12.328,223467,174,38595
12.333,223482,168,38597
12.337,223493,171,38597
12.342,223489,168,38597
12.347,223510,173,38599
12.352,223521,168,38596
12.357,223512,173,38593
12.362,223536,168,38599
12.367,223546,170,38598
12.372,223535,168,38592
12.377,223569,172,38590
12.382,223559,168,38599
12.387,223584,169,38594
12.392,223585,168,38589
12.397,223594,172,38593
12.402,223596,168,38596
12.407,223576,170,38599
12.412,223631,168,38602
12.417,223627,171,38593
12.422,223625,168,38603
12.427,223655,170,38596
12.432,223643,168,38588
12.437,223640,171,38597
12.442,223664,168,38592
12.447,223664,172,38594
12.452,223642,168,38589
12.457,223670,172,38588
12.462,223667,168,38591
12.467,223666,169,38590
12.471,223687,168,38585
12.476,223718,170,38593
12.481,223730,168,38590
12.486,223744,169,38594
12.491,223751,169,38594
12.496,223770,170,38592
12.501,223767,168,38597
12.506,223779,169,38595
12.511,223787,168,38592
12.516,223797,171,38593
12.521,223808,168,38590
12.526,223803,169,38590
12.531,223824,168,38593
12.536,223846,170,38596
12.541,223862,168,38590
12.546,223868,168,38589
12.551,223878,185,38597
12.556,223897,171,38596
12.561,223909,168,38608
12.566,223929,169,38596
12.571,223925,170,38601
12.576,223935,170,38597
12.581,223946,168,38601
12.586,223946,171,38601
12.591,223935,169,38599
12.596,223902,168,38598
12.601,223884,168,38592
12.605,223858,168,38586
12.610,223831,170,38587
12.615,223797,168,38585
12.620,223762,168,38582
12.625,223712,169,38578
12.630,223663,169,38582
12.635,223616,168,38579
12.640,223552,170,38574
12.645,223494,168,38559
12.650,223430,169,38565
12.655,223394,168,38558
12.660,223347,171,38549
12.665,223323,168,38548
12.670,223274,169,38548
12.675,223248,168,38546
12.680,223204,171,38535
12.685,223192,168,38539
12.690,223166,169,38533
12.695,223134,169,38529
12.700,223112,169,38524
12.705,223082,169,38522
12.710,223071,171,38524
12.715,223044,168,38527
12.720,223000,169,38519
12.725,223004,168,38517
12.730,222959,172,38517
12.734,222923,168,38514
12.739,222894,170,38514
12.744,222855,168,38510
12.749,222811,169,38503
12.754,222795,168,38504
12.759,222759,170,38507
12.764,222721,168,38495
12.769,222701,172,38504
12.774,222661,168,38497
12.779,222625,170,38491
12.784,222602,168,38492
12.789,222565,171,38482
12.794,222541,168,38484
12.799,222525,172,38488
12.804,222495,168,38482
12.809,222474,170,38470
12.814,222439,168,38477
12.819,222430,172,38466
12.824,222422,168,38469
12.829,222432,170,38464
12.834,222418,168,38471
12.839,222433,172,38474
12.844,222393,168,38470
12.849,222383,172,38461
12.854,222383,168,38459
12.859,222374,170,38459
12.864,222361,168,38459
12.868,222352,171,38455
12.873,222339,168,38460
12.878,222347,173,38460
12.883,222326,168,38457
12.888,222342,170,38462
12.893,222336,168,38455
12.898,222324,170,38461
12.903,222308,168,38459
12.908,222301,172,38463
12.913,222321,168,38463
12.918,222306,170,38459
12.923,222276,168,38451
12.928,222285,172,38451
12.933,222291,168,38465
12.938,222269,174,38456
12.943,222275,168,38451
12.948,222268,173,38456
12.953,222274,168,38454
12.958,222273,171,38456
12.963,222275,168,38457
12.968,222274,174,38451
12.973,222284,168,38460
12.978,222305,171,38458
12.983,222306,168,38459
12.988,222322,174,38465
12.993,222305,168,38458
12.998,222311,171,38453
13.002,222321,168,38450
13.007,222326,174,38451
13.012,222336,168,38456
13.017,222321,171,38453
13.022,222325,168,38458
13.027,222339,173,38456
13.032,222352,168,38458
13.037,222368,171,38463
13.042,222371,168,38456
13.047,222388,171,38458
13.052,222400,168,38465
13.057,222407,173,38458
13.062,222418,168,38461
13.067,222439,171,38466
13.072,222437,168,38464
13.077,222445,170,38465
13.082,222454,168,38466
13.087,222466,172,38481
13.092,222486,169,38466
13.097,222482,172,38465
13.102,222495,168,38467
13.107,222514,169,38468
13.112,222540,168,38472
13.117,222576,171,38480
13.122,222572,168,38484
13.127,222580,169,38479
13.132,222592,169,38477
13.136,222606,172,38478
13.141,222626,168,38480
13.146,222635,170,38487
13.151,222661,168,38484
13.156,222663,172,38483
13.161,222691,168,38486
13.166,222687,170,38490
13.171,222717,168,38480
13.176,222713,169,38490
13.181,222750,169,38486
13.186,222762,169,38498
13.191,222765,169,38492
13.196,222793,170,38493
13.201,222804,168,38492
13.206,222848,169,38497
13.211,222838,170,38491
13.216,222883,170,38501
13.221,222887,168,38499
13.226,222910,169,38509
13.231,222921,168,38508
13.236,222942,169,38512
13.241,222969,168,38506
13.246,222983,170,38517
13.251,223008,168,38512
13.256,223011,168,38523
13.261,223044,171,38514
13.266,223047,169,38520
13.270,223073,169,38519
13.275,223072,168,38527
13.280,223081,170,38510
13.285,223161,168,38522
13.290,223126,169,38528
13.295,223148,168,38526
13.300,223188,170,38523
13.305,223196,169,38534
13.310,223206,169,38535
13.315,223214,168,38537
13.320,223253,170,38540
13.325,223279,168,38540
13.330,223281,168,38540
13.335,223309,168,38551
13.340,223321,168,38550
13.345,223310,169,38547
13.350,223321,170,38546
13.355,223296,168,38544
13.360,223280,168,38547
13.365,223239,169,38541
13.370,223224,170,38537
13.375,223168,168,38538
13.380,223148,169,38469
13.385,223088,168,38537
13.390,223058,169,38532
13.395,222998,168,38540
13.400,222973,172,38540
13.404,222897,168,38528
13.409,222856,171,38523
13.414,222826,168,38517
13.419,222749,169,38514
13.424,222728,168,38507
13.429,222691,169,38509
13.434,222654,168,38504
13.439,222600,170,38503
13.444,222586,168,38495
13.449,222520,172,38499
13.454,222509,168,38490
13.459,222466,170,38488
13.464,222432,168,38487
13.469,222397,171,38486
13.474,222362,168,38485
13.479,222325,171,38485
13.484,222293,168,38481
13.489,222255,170,38474
13.494,222211,168,38473
13.499,222171,173,38470
13.504,222131,168,38466
13.509,222093,171,38460
13.514,222054,168,38458
13.519,222017,170,38457
13.524,221951,168,38456
13.529,221928,170,38454
13.534,221897,168,38453
13.538,221844,174,38437
13.543,221819,168,38448
13.548,221775,171,38445
13.553,221754,168,38444
13.558,221704,170,38436
13.563,221661,168,38438
13.568,221626,172,38430
13.573,221605,168,38431
13.578,221568,172,38421
13.583,221571,168,38425
13.588,221558,170,38425
13.593,221544,168,38418
13.598,221532,172,38423
13.603,221547,168,38418
13.608,221520,171,38422
13.613,221550,168,38423
13.618,221545,172,38420
13.623,221556,168,38420
13.628,221546,172,38419
13.633,221525,168,38418
13.638,221516,170,38412
13.643,221533,168,38424
13.648,221514,168,38415
13.653,221514,168,38419
13.658,221487,175,38422
13.663,221517,168,38415
13.668,221502,171,38415
13.672,221506,168,38387
13.677,221491,171,38421
13.682,221494,168,38411
13.687,221488,173,38416
13.692,221494,168,38417
13.697,221492,171,38419
13.702,221495,168,38414
13.707,221471,172,38413
13.712,221508,172,38412
13.717,221505,170,38414
13.722,221452,168,38414
13.727,221501,171,38419
13.732,221520,168,38425
13.737,221501,173,38412
13.742,221522,168,38415
13.747,221540,178,38417
13.752,221548,168,38417
13.757,221551,173,38419
13.762,221543,168,38426
13.767,221557,171,38417
13.772,221570,168,38423
13.777,221582,172,38423
13.782,221576,168,38431
13.787,221607,170,38423
13.792,221623,168,38418
13.797,221618,173,38430
13.802,221639,168,38425
13.806,221658,170,38431
13.811,221652,168,38423
13.816,221690,169,38436
13.821,221730,168,38430
13.826,221698,171,38429
13.831,221721,168,38434
13.836,221713,169,38440
13.841,221733,168,38435
13.846,221753,171,38435
13.851,221771,168,38442
13.856,221781,169,38435
13.861,221782,168,38442
13.866,221807,168,38439
13.871,221822,168,38442
13.876,221827,170,38447
13.881,221860,168,38442
13.886,221878,169,38454
13.891,221902,168,38445
13.896,221908,171,38451
13.901,221929,168,38455
13.906,221925,169,38450
13.911,221952,168,38461
13.916,221968,170,38457
13.921,221998,169,38459
13.926,222012,169,38455
13.931,222022,168,38456
13.936,222056,168,38464
13.940,222035,170,38463
13.945,222033,170,38463
13.950,222061,168,38457
13.955,222071,168,38459
13.960,222084,168,38461
13.965,222096,168,38435
13.970,222116,168,38467
13.975,222137,168,38464
13.980,222162,170,38466
13.985,222189,168,38468
13.990,222197,168,38476
13.995,222209,170,38472
14.000,222233,170,38473
14.005,222241,169,38475
14.010,222267,168,38474
14.015,222298,168,38474
14.020,222285,168,38479
14.025,222306,168,38475
14.030,222327,170,38482
14.035,222326,168,38485
14.040,222343,169,38480
14.045,222360,170,38486
14.050,222355,171,38486
14.055,222395,168,38494
14.060,222418,169,38494
14.065,222409,168,38492
14.070,222452,169,38490
14.074,222490,169,38499
14.079,222511,171,38501
14.084,222521,168,38498
14.089,222553,169,38506
14.094,222560,168,38504
14.099,222566,172,38503
14.104,222582,168,38509
14.109,222596,170,38508
14.114,222575,168,38512
14.119,222635,169,38510
14.124,222647,169,38510
14.129,222664,171,38511
14.134,222698,168,38514
14.139,222728,169,38513
14.144,222731,168,38518
14.149,222758,172,38517
14.154,222762,168,38520
14.159,222783,170,38514
14.164,222800,168,38517
14.169,222815,171,38521
14.174,222838,168,38520
14.179,222841,170,38522
14.184,222861,168,38520
14.189,222873,172,38518
14.194,222904,168,38524
14.199,222912,170,38521
14.204,222939,168,38537
14.208,222976,173,38541
14.213,222992,168,38542
14.218,223000,172,38548
14.223,223033,168,38540
14.228,223054,170,38554
14.233,223067,168,38539
14.238,223099,173,38542
14.243,223108,168,38547
14.248,223137,171,38549
14.253,223152,168,38552
14.258,223167,190,38554
14.263,223178,168,38558
14.268,223191,174,38560
14.273,223226,168,38560
14.278,223252,171,38566
14.283,223241,168,38569
14.288,223285,173,38566
14.293,223300,168,38561
14.298,223288,170,38567
14.303,223269,168,38563
14.308,223252,170,38565
14.313,223216,168,38556
14.318,223196,172,38557
14.323,223159,168,38562
14.328,223136,171,38566
14.333,223081,168,38553
14.338,223039,173,38557
14.342,222999,168,38556
14.347,222919,171,38547
14.352,222864,168,38547
14.357,222818,171,38540
14.362,222775,168,38536
14.367,222733,173,38542
14.372,222678,168,38531
14.377,222645,170,38529
14.382,222598,168,38529
14.387,222564,172,38513
14.392,222545,168,38520
14.397,222501,169,38521
14.402,222471,168,38519
14.407,222449,169,38518
14.412,222426,168,38518
14.417,222408,171,38508
14.422,222366,168,38516
14.427,222342,169,38509
14.432,222291,168,38507
14.437,222261,172,38503
14.442,222212,168,38501
14.447,222171,170,38500
14.452,222153,168,38494
14.457,222106,170,38479
14.462,222038,168,38486
14.467,222005,172,38483
14.472,221976,168,38482
14.476,221934,170,38475
14.481,221898,168,38473
14.486,221849,169,38463
14.491,221838,168,38471
14.496,221797,171,38462
14.501,221762,168,38473
14.506,221731,171,38469
14.511,221703,168,38460
14.516,221682,169,38461
14.521,221662,168,38459
14.526,221648,172,38455
14.531,221596,168,38455
14.536,221603,169,38457
14.541,221617,168,38456
14.546,221584,172,38445
14.551,221624,170,38454
14.556,221601,170,38458
14.561,221612,168,38454
14.566,221622,171,38457
14.571,221620,168,38449
14.576,221597,169,38455
14.581,221613,168,38453
14.586,221633,171,38452
14.591,221620,168,38458
14.596,221617,169,38457
14.601,221655,169,38461
14.606,221628,170,38457
14.610,221616,168,38460
14.615,221631,169,38459
14.620,221628,168,38455
14.625,221614,170,38456
14.630,221625,168,38451
14.635,221642,168,38458
14.640,221611,168,38458
14.645,221617,169,38459
14.650,221630,168,38453
14.655,221623,170,38455
14.660,221618,169,38459
14.665,221648,168,38462
14.670,221637,168,38455
14.675,221634,169,38462
14.680,221650,169,38463
14.685,221655,168,38454
14.690,221633,168,38453
14.695,221645,168,38448
14.700,221667,169,38456
14.705,221679,168,38464
14.710,221694,171,38467
14.715,221691,169,38461
14.720,221710,169,38457
14.725,221697,168,38468
14.730,221713,168,38469
14.735,221717,168,38467
14.740,221749,171,38459
14.744,221752,168,38471
14.749,221753,172,38467
14.754,221764,168,38463
14.759,221773,170,38466
14.764,221799,168,38463
14.769,221788,172,38469
14.774,221829,168,38468
14.779,221837,170,38466
14.784,221842,168,38480
14.789,221857,172,38474
14.794,221857,168,38438
14.799,221881,172,38475
14.804,221882,168,38474
14.809,221898,170,38475
14.814,221909,168,38477
14.819,221918,169,38475
14.824,221925,169,38481
14.829,221942,172,38475
14.834,221938,168,38478
14.839,221980,170,38479
14.844,222016,168,38454
14.849,222006,171,38480
14.854,222019,168,38485
14.859,222025,170,38479
14.864,222042,168,38492
14.869,222053,172,38486
14.873,222069,168,38489
14.878,222084,170,38489
14.883,222104,168,38495
14.888,222123,173,38492
14.893,222118,168,38491
14.898,222119,173,38488
14.903,222151,168,38485
14.908,222156,171,38489
14.913,222143,168,38491
14.918,222161,170,38485
14.923,222171,168,38491
14.928,222188,172,38487
14.933,222188,168,38487
14.938,222187,170,38485
14.943,222231,168,38484
14.948,222195,172,38479
14.953,222178,168,38474
14.958,222187,170,38478
14.963,222185,168,38470
14.968,222199,173,38472
14.973,222227,168,38470
14.978,222226,171,38464
14.983,222217,168,38465
14.988,222221,174,38469
14.993,222233,168,38470
14.998,222246,174,38475
15.003,222253,168,38475
15.007,222251,172,38478
15.012,222275,168,38474
15.017,222285,170,38474
15.022,222292,168,38481
15.027,222308,172,38479
15.032,222304,168,38482
15.037,222316,170,38479
15.042,222338,168,38482
15.047,222344,170,38481
15.052,222352,168,38480
15.057,222368,172,38476
15.062,222381,168,38484
15.067,222389,170,38485
15.072,222395,168,38488
15.077,222415,173,38476
15.082,222415,168,38489
15.087,222424,172,38450
15.092,222445,168,38486
15.097,222455,171,38486
15.102,222459,168,38495
15.107,222488,170,38489
15.112,222492,168,38486
15.117,222483,172,38484
15.122,222500,168,38491
15.127,222552,170,38488
15.132,222509,168,38495
15.137,222505,170,38488
15.141,222568,169,38491
15.146,222580,172,38489
15.151,222578,168,38492
15.156,222582,171,38496
15.161,222612,168,38489
15.166,222617,170,38488
15.171,222642,168,38488
15.176,222650,171,38492
15.181,222680,168,38495
15.186,222655,172,38494
15.191,222697,168,38497
15.196,222711,169,38499
15.201,222706,168,38507
15.206,222701,172,38498
15.211,222746,168,38504
15.216,222736,170,38502
15.221,222755,168,38497
15.226,222752,172,38498
15.231,222763,168,38499
15.236,222811,168,38506
15.241,222812,168,38504
15.246,222795,171,38502
15.251,222825,168,38502
15.256,222823,169,38507
15.261,222833,169,38503
15.266,222840,170,38509
15.271,222829,168,38500
15.275,222829,169,38503
15.280,222809,170,38504
15.285,222782,168,38501
15.290,222758,169,38496
15.295,222726,170,38493
15.300,222683,168,38491
15.305,222632,168,38494
15.310,222604,170,38492
15.315,222545,170,38483
15.320,222480,168,38479
15.325,222454,168,38482
15.330,222388,170,38480
15.335,222324,168,38474
15.340,222265,170,38470
15.345,222238,169,38468
15.350,222188,168,38465
15.355,222143,168,38467
15.360,222112,170,38452
15.365,222086,168,38451
15.370,222027,168,38443
15.375,222016,168,38441
15.380,221967,172,38447
15.385,221934,169,38438
15.390,221897,168,38429
15.395,221884,168,38435
15.400,221854,170,38427
15.405,221807,168,38426
15.409,221764,169,38423
15.414,221737,168,38420
15.419,221697,170,38418
15.424,221667,168,38415
15.429,221624,170,38412
15.434,221585,168,38403
15.439,221569,169,38398
15.444,221529,168,38403
15.449,221498,171,38396
15.454,221456,168,38393
15.459,221423,169,38385
15.464,221388,168,38392
15.469,221341,172,38385
15.474,221292,168,38391
15.479,221271,169,38381
15.484,221237,169,38373
15.489,221200,171,38379
15.494,221196,168,38368
15.499,221154,169,38368
15.504,221120,168,38362
15.509,221105,171,38364
15.514,221097,168,38359
15.519,221090,169,38358
15.524,221073,168,38367
15.529,221072,169,38364
15.534,221053,168,38356
15.539,221048,171,38347
15.543,221057,168,38354
15.548,221042,170,38343
15.553,221025,168,38352
15.558,221001,173,38345
15.563,220998,168,38343
15.568,221009,170,38345
15.573,220995,168,38334
15.578,220980,171,38342
15.583,220986,168,38333
15.588,220966,173,38333
15.593,220954,168,38342
15.598,220954,171,38336
15.603,220942,168,38336
15.608,220941,174,38333
15.613,220937,168,38336
15.618,220911,170,38340
15.623,220925,168,38336
15.628,220909,169,38326
15.633,220895,168,38328
15.638,220902,171,38325
15.643,220902,168,38331
15.648,220905,170,38333
15.653,220901,168,38323
15.658,220875,172,38323
15.663,220893,168,38319
15.668,220884,171,38318
15.673,220885,175,38321
15.677,220886,172,38321
15.682,220894,168,38321
15.687,220923,170,38315
15.692,220903,168,38313
15.697,220909,174,38321
15.702,220889,168,38318
15.707,220890,172,38316
15.712,220915,168,38312
15.717,220909,171,38309
15.722,220897,168,38314
15.727,220891,172,38313
15.732,220910,168,38318
15.737,220910,171,38320
15.742,220922,168,38314
15.747,220928,170,38311
15.752,220922,168,38315
15.757,220944,172,38311
15.762,220928,168,38318
15.767,220946,170,38309
15.772,221022,168,38285
15.777,220957,173,38310
15.782,220965,168,38317
15.787,220971,170,38316
15.792,220975,168,38318
15.797,221002,173,38311
15.802,220984,168,38314
15.807,221013,171,38311
15.811,221001,168,38313
15.816,221008,173,38319
15.821,221030,168,38318
15.826,221028,173,38307
15.831,221044,168,38310
15.836,221048,171,38315
15.841,221065,168,38309
15.846,221073,170,38314
15.851,221088,168,38309
15.856,221075,172,38319
15.861,221087,168,38314
15.866,221117,170,38315
15.871,221116,168,38314
15.876,221123,170,38313
15.881,221125,168,38311
15.886,221127,169,38309
15.891,221135,168,38314
15.896,221135,171,38322
15.901,221153,168,38299
15.906,221168,170,38310
15.911,221172,168,38316
15.916,221164,169,38330
15.921,221175,168,38314
15.926,221190,170,38316
15.931,221190,168,38315
15.936,221183,172,38307
15.941,221176,168,38308
15.945,221177,170,38308
15.950,221157,168,38307
15.955,221161,169,38309
15.960,221157,168,38305
15.965,221161,168,38303
15.970,221173,168,38305
15.975,221163,171,38303
15.980,221171,168,38303
15.985,221164,169,38292
15.990,221164,168,38291
15.995,221171,171,38295
16.000,221152,169,38296
16.005,221156,170,38281
16.010,221134,168,38280
16.015,221167,170,38287
16.020,221166,168,38288
16.025,221156,169,38276
16.030,221171,168,38278
16.035,221153,171,38277
16.040,221142,169,38265
16.045,221127,169,38269
16.050,221157,168,38267
16.055,221149,168,38258
16.060,221148,168,38267
16.065,221182,168,38372
16.070,221128,170,38262
16.075,221136,169,38261
16.079,221155,169,38250
16.084,221133,168,38254
16.089,221159,168,38250
16.094,221162,169,38250
16.099,221164,169,38251
16.104,221174,168,38259
16.109,221197,171,38251
16.114,221210,168,38259
16.119,221225,168,38252
16.124,221236,169,38252
16.129,221264,169,38258
16.134,221274,168,38257
16.139,221325,168,38262
16.144,221339,169,38265
16.149,221360,170,38268
16.154,221406,168,38281
16.159,221451,168,38279
16.164,221481,168,38285
16.169,221514,169,38285
16.174,221549,169,38294
16.179,221594,170,38290
16.184,221631,168,38308
16.189,221686,169,38311
16.194,221729,168,38320
16.199,221759,171,38331
16.204,221803,168,38336
16.209,221828,171,38405
16.213,221855,168,38345
16.218,221873,170,38350
16.223,221858,168,38357
16.228,221893,169,38363
16.233,221898,168,38363
16.238,221902,171,38373
16.243,221873,168,38376
16.248,221842,170,38376
16.253,221818,168,38380
16.258,221839,170,38376
16.263,221774,168,38377
16.268,221770,171,38376
16.273,221740,168,38377
16.278,221713,169,38375
16.283,221706,168,38380
16.288,221706,172,38371
16.293,221692,168,38376
16.298,221654,170,38377
16.303,221658,168,38375
16.308,221661,171,38377
16.313,221637,168,38386
16.318,221635,174,38382
16.323,221618,168,38383
16.328,221587,171,38373
16.333,221578,168,38378
16.338,221557,169,38373
16.343,221545,168,38374
16.347,221523,172,38369
16.352,221480,168,38371
16.357,221487,168,38364
16.362,221405,168,38362
16.367,221390,173,38366
16.372,221370,168,38366
16.377,221364,171,38368
16.382,221345,168,38369
16.387,221323,173,38358
16.392,221276,168,38361
16.397,221261,170,38357
16.402,221233,168,38364
16.407,221203,170,38355
16.412,221214,168,38348
16.417,221156,173,38352
16.422,221142,168,38351
16.427,221140,170,38343
16.432,221124,168,38349
16.437,221127,172,38343
16.442,221117,168,38338
16.447,221125,170,38349
16.452,221129,168,38345
16.457,221130,170,38346
16.462,221124,168,38342
16.467,221095,172,38347
16.472,221132,168,38341
16.477,221106,170,38334
16.481,221090,168,38341
16.486,221098,172,38338
16.491,221101,168,38341
16.496,221106,170,38336
16.501,221122,169,38279
16.506,221106,170,38338
16.511,221103,168,38342
16.516,221117,171,38343
16.521,221114,168,38332
16.526,221090,173,38339
16.531,221092,168,38344
16.536,221110,171,38341
16.541,221086,168,38343
16.546,221121,173,38344
16.551,221140,168,38348
16.556,221118,169,38335
16.561,221131,168,38338
16.566,221133,171,38338
16.571,221148,168,38347
16.576,221117,169,38345
16.581,221157,168,38348
16.586,221152,171,38343
16.591,221181,168,38351
16.596,221210,170,38331
16.601,221200,168,38349
16.606,221204,170,38347
16.611,221231,168,38349
16.615,221220,169,38342
16.620,221229,168,38351
16.625,221240,171,38354
16.630,221241,168,38351
16.635,221238,169,38346
16.640,221265,168,38353
16.645,221272,170,38350
16.650,221271,169,38346
16.655,221299,170,38357
16.660,221305,168,38358
16.665,221304,169,38355
16.670,221326,169,38358
16.675,221361,170,38356
16.680,221359,168,38363
16.685,221373,169,38361
16.690,221394,169,38357
16.695,221410,170,38366
16.700,221405,170,38368
16.705,221443,171,38363
16.710,221450,168,38371
16.715,221464,169,38371
16.720,221465,168,38378
16.725,221485,168,38375
16.730,221500,169,38371
16.735,221519,169,38378
16.740,221532,168,38373
16.745,221545,171,38380
16.749,221574,168,38384
16.754,221577,170,38384
16.759,221608,169,38383
16.764,221632,168,38388
16.769,221643,170,38390
16.774,221660,169,38390
16.779,221676,168,38391
16.784,221675,168,38395
16.789,221704,171,38393
16.794,221724,169,38396
16.799,221752,170,38405
16.804,221754,168,38405
16.809,221772,168,38404
16.814,221796,168,38407
16.819,221829,170,38407
16.824,221827,168,38406
16.829,221852,169,38409
16.834,221859,168,38408
16.839,221867,171,38407
16.844,221890,169,38411
16.849,221927,172,38424
16.854,221942,169,38420
16.859,221968,170,38424
16.864,221987,168,38435
16.869,221989,168,38434
16.874,222004,169,38433
16.879,222020,171,38432
16.883,222042,168,38434
16.888,222077,169,38438
16.893,222109,168,38420
16.898,222100,171,38439
16.903,222145,168,38437
16.908,222151,169,38444
16.913,222169,168,38452
16.918,222210,172,38452
16.923,222226,168,38448
16.928,222232,170,38459
16.933,222260,168,38455
16.938,222278,169,38458
16.943,222298,168,38467
16.948,222326,170,38468
16.953,222357,168,38464
16.958,222374,173,38470
16.963,222406,168,38476
16.968,222435,172,38477
16.973,222453,168,38481
16.978,222490,170,38487
16.983,222524,168,38484
16.988,222542,174,38492
16.993,222552,168,38497
16.998,222568,169,38497
17.003,222600,168,38501
17.008,222639,172,38507
17.012,222647,168,38509
17.017,222657,171,38506
17.022,222698,168,38511
17.027,222735,174,38514
17.032,222755,168,38518
17.037,222781,172,38518
17.042,222825,168,38530
17.047,222844,170,38523
17.052,222868,168,38530
17.057,222900,173,38540
17.062,222942,168,38540
17.067,222967,171,38550
17.072,223005,168,38545
17.077,223029,174,38554
17.082,223073,168,38556
17.087,223092,168,38558
17.092,223092,168,38570
17.097,223131,172,38562
17.102,223154,168,38571
17.107,223157,171,38564
17.112,223192,168,38570
17.117,223171,174,38568
17.122,223162,168,38573
17.127,223150,171,38566
17.132,223126,168,38572
17.137,223098,172,38571
17.142,223078,168,38571
17.146,223061,170,38575
17.151,223005,168,38573
17.156,222984,173,38578
17.161,222942,168,38569
17.166,222907,171,38572
17.171,222858,168,38564
17.176,222850,173,38564
17.181,222809,168,38565
17.186,222805,173,38566
17.191,222780,168,38563
17.196,222757,171,38561
17.201,222737,168,38554
17.206,222721,170,38559
17.211,222699,168,38559
17.216,222688,172,38549
17.221,222655,168,38556
17.226,222632,174,38553
17.231,222626,168,38540
17.236,222623,174,38552
17.241,222589,168,38557
17.246,222564,171,38556
17.251,222535,168,38553
17.256,222521,170,38545
17.261,222483,168,38540
17.266,222474,171,38545
17.271,222443,168,38544
17.276,222406,169,38542
17.280,222382,168,38541
17.285,222355,173,38535
17.290,222339,168,38537
17.295,222316,170,38533
17.300,222303,168,38533
17.305,222266,173,38537
17.310,222233,168,38532
17.315,222233,170,38530
17.320,222199,168,38535
17.325,222160,169,38533
17.330,222151,168,38477
17.335,222141,170,38523
17.340,222120,168,38522
17.345,222103,173,38523
17.350,222132,168,38520
17.355,222101,171,38521
17.360,222117,168,38524
17.365,222123,169,38525
17.370,222149,169,38526
17.375,222129,171,38520
17.380,222118,168,38524
17.385,222126,171,38519
17.390,222133,168,38523
17.395,222137,170,38521
17.400,222127,168,38526
17.405,222125,168,38524
17.410,222136,169,38516
17.414,222130,170,38529
17.419,222119,168,38523
17.424,222144,168,38532
17.429,222138,168,38529
17.434,222115,168,38529
17.439,222118,170,38523
17.444,222112,170,38522
17.449,222113,168,38527
17.454,222126,168,38527
17.459,222128,168,38528
17.464,222134,171,38527
17.469,222135,169,38525
17.474,222155,169,38530
17.479,222106,168,38499
17.484,222148,168,38528
17.489,222174,171,38529
17.494,222184,169,38526
17.499,222196,169,38526
17.504,222189,168,38525
17.509,222191,168,38528
17.514,222207,170,38529
17.519,222215,170,38533
17.524,222218,168,38528
17.529,222231,170,38536
17.534,222232,168,38539
17.539,222244,169,38530
17.544,222276,170,38532
17.548,222249,171,38532
17.553,222257,168,38538
17.558,222268,169,38534
17.563,222287,168,38541
17.568,222278,172,38537
17.573,222322,168,38534
17.578,222324,172,38537
17.583,222342,168,38540
17.588,222336,170,38540
17.593,222375,168,38545
17.598,222367,172,38540
17.603,222390,168,38547
17.608,222395,171,38547
17.613,222407,168,38544
17.618,222419,169,38546
17.623,222445,168,38515
17.628,222452,169,38551
17.633,222462,169,38546
17.638,222480,171,38541
17.643,222511,168,38542
17.648,222503,169,38547
17.653,222527,169,38552
17.658,222555,172,38545
17.663,222555,168,38555
17.668,222571,171,38557
17.673,222493,168,38565
17.678,222598,172,38553
17.682,222610,168,38559
17.687,222624,170,38554
17.692,222628,168,38549
17.697,222654,173,38563
17.702,222642,168,38560
17.707,222676,172,38566
17.712,222679,168,38559
17.717,222688,170,38559
17.722,222700,168,38564
17.727,222690,171,38556
17.732,222703,168,38558
17.737,222700,174,38561
17.742,222707,168,38560
17.747,222711,172,38558
17.752,222718,168,38551
17.757,222725,170,38554
17.762,222734,168,38554
17.767,222735,172,38550
17.772,222756,168,38548
17.777,222730,173,38544
17.782,222725,168,38542
17.787,222715,171,38527
17.792,222714,168,38531
17.797,222679,173,38522
17.802,222659,168,38521
17.807,222680,171,38524
17.812,222655,168,38519
17.816,222669,173,38509
17.821,222682,168,38510
17.826,222681,173,38511
17.831,222671,168,38508
17.836,222693,171,38509
17.841,222705,168,38511
17.846,222704,174,38516
17.851,222718,168,38512
17.856,222735,172,38511
17.861,222749,168,38506
17.866,222773,174,38514
17.871,222795,168,38517
17.876,222786,172,38523
17.881,222824,168,38514
17.886,222853,170,38516
17.891,222865,168,38521
17.896,222886,173,38520
17.901,222917,168,38527
17.906,222937,171,38523
17.911,222950,168,38525
17.916,222948,170,38516
17.921,222983,168,38530
17.926,222997,170,38532
17.931,223008,168,38521
17.936,223030,173,38535
17.941,223073,168,38524
17.946,223074,172,38537
17.950,223089,168,38539
17.955,223113,170,38536
17.960,223119,168,38543
17.965,223153,171,38550
17.970,223161,168,38544
17.975,223183,173,38548
17.980,223218,168,38551
17.985,223227,172,38537
17.990,223254,168,38550
17.995,223259,171,38554
18.000,223283,168,38556
18.005,223314,169,38559
18.010,223302,169,38563
18.015,223356,170,38562
18.020,223364,168,38566
18.025,223384,172,38566
18.030,223406,168,38579
18.035,223447,170,38572
18.040,223470,168,38578
18.045,223507,169,38583
18.050,223548,169,38585
18.055,223560,171,38592
18.060,223572,168,38596
18.065,223609,172,38600
18.070,223641,168,38606
18.075,223679,170,38609
18.080,223680,168,38612
18.084,223699,169,38614
18.089,223700,170,38616
18.094,223665,171,38613
18.099,223657,168,38614
18.104,223633,170,38618
18.109,223605,168,38616
18.114,223569,170,38615
18.119,223549,168,38623
18.124,223495,169,38617
18.129,223455,168,38608
18.134,223412,171,38607
18.139,223368,169,38609
18.144,223332,170,38600
18.149,223292,169,38596
18.154,223276,169,38601
18.159,223221,168,38594
18.164,223201,168,38596
18.169,223170,170,38594
18.174,223145,170,38594
18.179,223132,169,38592
18.184,223077,168,38583
18.189,223083,168,38586
18.194,223045,170,38582
18.199,223017,170,38588
18.204,222979,169,38587
18.209,222983,168,38586
18.214,222962,168,38582
18.218,222918,169,38585
18.223,222887,168,38581
18.228,222840,171,38576
18.233,222834,169,38572
18.238,222788,169,38576
18.243,222755,170,38571
18.248,222708,170,38566
18.253,222693,168,38563
18.258,222639,170,38561
18.263,222609,168,38562
18.268,222572,169,38558
18.273,222549,169,38558
18.278,222541,170,38553
18.283,222475,168,38552
18.288,222448,172,38548
18.293,222410,168,38547
18.298,222389,170,38549
18.303,222346,168,38549
18.308,222321,170,38536
18.313,222315,168,38536
18.318,222296,173,38539
18.323,222266,168,38535
18.328,222257,171,38529
18.333,222265,168,38536
18.338,222267,173,38537
18.343,222283,168,38536
18.348,222260,171,38537
18.352,222273,168,38552
18.357,222277,173,38536
18.362,222242,168,38537
18.367,222255,170,38535
18.372,222245,169,38530
18.377,222246,173,38528
18.382,222239,168,38526
18.387,222245,170,38530
18.392,222236,168,38530
18.397,222223,171,38536
18.402,222206,168,38532
18.407,222213,172,38532
18.412,222206,168,38533
18.417,222202,170,38530
18.422,222213,168,38531
18.427,222209,173,38531
18.432,222199,168,38531
18.437,222226,171,38523
18.442,222201,168,38529
18.447,222205,172,38537
18.452,222232,168,38539
18.457,222219,172,38534
18.462,222235,168,38535
18.467,222227,174,38535
18.472,222241,168,38532
18.477,222259,172,38530
18.482,222254,168,38533
18.486,222267,171,38530
18.491,222266,168,38530
18.496,222281,174,38540
18.501,222255,168,38539
18.506,222301,173,38538
18.511,222304,168,38537
18.516,222335,170,38537
18.521,222334,168,38548
18.526,222331,171,38546
18.531,222364,168,38542
18.536,222358,173,38547
18.541,222377,168,38553
18.546,222392,171,38545
18.551,222428,168,38545
18.556,222401,174,38548
18.561,222426,168,38548
18.566,222426,171,38550
18.571,222408,168,38549
18.576,222438,172,38549
18.581,222450,168,38543
18.586,222433,170,38544
18.591,222454,168,38540
18.596,222494,172,38541
18.601,222505,168,38539
18.606,222508,172,38540
18.611,222514,168,38552
18.616,222523,174,38540
18.620,222538,168,38545
18.625,222562,171,38543
18.630,222568,168,38550
18.635,222572,174,38554
18.640,222583,168,38556
18.645,222621,171,38548
18.650,222614,168,38559
18.655,222634,171,38558
18.660,222640,168,38557
18.665,222657,169,38556
18.670,222663,168,38559
18.675,222691,171,38561
18.680,222692,168,38559
18.685,222704,172,38560
18.690,222733,168,38564
18.695,222725,170,38563
18.700,222762,168,38567
18.705,222770,172,38570
18.710,222781,168,38564
18.715,222805,169,38564
18.720,222821,169,38573
18.725,222837,171,38572
18.730,222829,168,38580
18.735,222838,173,38575
18.740,222862,168,38579
18.745,222883,171,38543
18.750,222906,169,38581
18.754,222936,174,38581
18.759,222947,168,38583
18.764,222956,172,38582
18.769,222989,168,38584
18.774,223010,169,38586
18.779,223020,168,38594
18.784,223040,171,38589
18.789,223089,168,38595
18.794,223090,168,38591
18.799,223122,168,38595
18.804,223134,168,38597
18.809,223151,169,38603
18.814,223153,169,38607
18.819,223182,168,38599
18.824,223197,171,38604
18.829,223214,169,38600
18.834,223225,168,38602
18.839,223243,170,38607
18.844,223281,168,38611
18.849,223296,171,38608
18.854,223307,169,38612
18.859,223350,169,38616
18.864,223355,168,38621
18.869,223364,171,38617
18.874,223401,169,38623
18.879,223412,169,38632
18.884,223427,168,38630
18.888,223460,171,38630
18.893,223476,168,38629
18.898,223484,171,38628
18.903,223494,168,38631
18.908,223514,169,38635
18.913,223520,168,38635
18.918,223550,171,38633
18.923,223574,168,38637
18.928,223596,169,38640
18.933,223594,168,38641
18.938,223640,171,38653
18.943,223642,169,38641
18.948,223664,171,38643
18.953,223686,168,38660
18.958,223691,169,38660
18.963,223716,168,38653
18.968,223751,172,38653
18.973,223759,168,38654
18.978,223769,170,38656
18.983,223797,168,38657
18.988,223818,172,38659
18.993,223824,168,38663
18.998,223857,170,38664
19.003,223871,168,38665
19.008,223877,173,38668
19.013,223904,168,38672
19.018,223934,171,38664
19.022,223946,168,38668
19.027,223937,169,38678
19.032,223975,168,38678
19.037,224009,173,38776
19.042,224013,168,38682
19.047,223999,171,38682
19.052,224011,168,38678
19.057,224000,173,38675
19.062,223966,168,38674
19.067,223941,171,38673
19.072,223948,168,38683
19.077,223908,173,38674
19.082,223865,168,38676
19.087,223845,173,38674
19.092,223783,168,38669
19.097,223722,171,38653
19.102,223673,168,38655
19.107,223625,172,38656
19.112,223567,168,38646
19.117,223529,170,38642
19.122,223480,168,38645
19.127,223448,172,38643
19.132,223406,168,38638
19.137,223372,172,38633
19.142,223357,168,38634
19.147,223322,170,38631
19.151,223293,168,38626
19.156,223254,173,38624
19.161,223234,168,38625
19.166,223218,171,38627
19.171,223195,168,38622
19.176,223166,173,38613
19.181,223133,168,38614
19.186,223104,172,38612
19.191,223064,168,38610
19.196,223038,170,38610
19.201,222998,168,38610
19.206,222980,172,38608
19.211,222958,168,38605
19.216,222921,175,38599
19.221,222906,168,38596
19.226,222837,172,38598
19.231,222816,168,38604
19.236,222769,170,38596
19.241,222734,168,38592
19.246,222706,172,38588
19.251,222670,168,38587
19.256,222632,174,38578
19.261,222622,168,38571
19.266,222582,172,38574
19.271,222525,168,38567
19.276,222498,174,38561
19.281,222491,168,38559
19.285,222491,172,38562
19.290,222444,168,38562
19.295,222434,171,38554
19.300,222445,168,38562
19.305,222441,173,38558
19.310,222438,168,38560
19.315,222431,171,38552
19.320,222415,168,38554
19.325,222387,174,38550
19.330,222378,169,38506
19.335,222366,174,38539
19.340,222355,168,38547
19.345,222365,171,38547
19.350,222362,168,38548
19.355,222331,169,38546
19.360,222357,168,38546
19.365,222340,171,38549
19.370,222341,168,38555
19.375,222331,169,38538
19.380,222361,168,38542
19.385,222316,169,38548
19.390,222312,168,38545
19.395,222320,171,38545
19.400,222297,168,38546
19.405,222315,169,38537
19.410,222316,169,38542
19.415,222317,172,38540
19.419,222320,168,38545
19.424,222314,170,38540
19.429,222304,168,38540
19.434,222323,170,38541
19.439,222326,168,38542
19.444,222339,172,38536
19.449,222368,169,38545
19.454,222349,170,38543
19.459,222359,168,38538
19.464,222400,168,38544
19.469,222388,169,38549
19.474,222399,170,38543
19.479,222413,169,38542
19.484,222400,170,38546
19.489,222420,168,38544
19.494,222398,168,38544
19.499,222410,170,38549
19.504,222420,170,38545
19.509,222451,168,38543
19.514,222447,168,38547
19.519,222445,170,38547
19.524,222454,169,38542
19.529,222466,170,38550
19.534,222483,169,38550
19.539,222497,169,38555
19.544,222519,168,38555
19.549,222518,170,38554
19.553,222527,169,38553
19.558,222547,169,38555
19.563,222538,168,38553
19.568,222551,171,38553
19.573,222567,169,38551
19.578,222588,171,38555
19.583,222597,168,38553
19.588,222587,169,38556
19.593,222603,170,38551
19.598,222630,170,38558
19.603,222607,168,38548
19.608,222634,169,38553
19.613,222648,169,38550
19.618,222657,170,38559
19.623,222640,168,38550
19.628,222651,171,38550
19.633,222680,168,38557
19.638,222713,169,38560
19.643,222705,169,38559
19.648,222726,171,38559
19.653,222718,168,38568
19.658,222722,169,38563
19.663,222758,169,38559
19.668,222764,171,38568
19.673,222795,168,38561
19.678,222784,169,38569
19.683,222800,168,38564
19.687,222801,170,38566
19.692,222833,168,38564
19.697,222827,172,38572
19.702,222843,168,38571
19.707,222859,170,38573
19.712,222860,168,38567
19.717,222886,171,38570
19.722,222901,168,38578
19.727,222905,171,38569
19.732,222927,168,38579
19.737,222941,172,38574
19.742,222958,168,38574
19.747,222957,170,38571
19.752,222968,168,38581
19.757,223000,172,38582
19.762,223028,168,38581
19.767,223031,174,38577
19.772,223048,168,38579
19.777,223052,174,38585
19.782,223080,168,38587
19.787,223093,171,38594
19.792,223111,168,38577
19.797,223134,173,38597
19.802,223164,168,38584
19.807,223144,170,38587
19.812,223168,168,38594
19.817,223148,171,38596
19.821,223195,168,38595
19.826,223219,171,38596
19.831,223216,168,38597
19.836,223241,173,38600
19.841,223252,168,38594
19.846,223268,170,38598
19.851,223288,168,38601
19.856,223325,172,38598
19.861,223340,168,38606
19.866,223343,174,38607
19.871,223368,168,38601
19.876,223380,174,38606
19.881,223387,168,38606
19.886,223412,171,38609
19.891,223436,168,38606
19.896,223446,174,38612
19.901,223440,168,38614
19.906,223462,171,38618
19.911,223492,168,38617
19.916,223490,172,38617
19.921,223517,168,38620
19.926,223539,172,38624
19.931,223558,168,38624
19.936,223593,170,38623
19.941,223579,168,38628
19.946,223597,172,38626
19.951,223607,168,38630
19.955,223640,170,38624
19.960,223654,168,38628
19.965,223646,170,38627
19.970,223645,168,38634
19.975,223639,172,38623
19.980,223614,168,38624
19.985,223585,170,38624
19.990,223552,168,38625
19.995,223532,172,38629
20.000,223496,168,38624
20.005,223476,170,38628
20.010,223418,169,38610
20.015,223366,170,38622
20.020,223317,169,38611
20.025,223270,172,38611
20.030,223237,168,38604
20.035,223177,170,38602
20.040,223157,168,38601
20.045,223119,173,38593
20.050,223073,168,38592
20.055,223055,170,38595
20.060,223035,168,38587
20.065,222992,171,38579
20.070,222984,168,38588
20.075,222959,172,38578
20.080,222948,168,38578
20.085,222914,171,38575
20.089,222922,168,38575
20.094,222883,169,38578
20.099,222854,169,38582
20.104,222832,171,38574
20.109,222799,168,38563
20.114,222773,169,38570
20.119,222747,168,38564
20.124,222719,172,38561
20.129,222699,169,38555
20.134,222671,170,38562
20.139,222631,168,38557
20.144,222601,171,38553
20.149,222559,169,38554
20.154,222552,170,38554
20.159,222524,168,38551
20.164,222484,169,38544
20.169,222465,168,38546
20.174,222436,170,38544
20.179,222425,169,38542
20.184,222401,168,38542
20.189,222403,168,38540
20.194,222363,170,38537
20.199,222343,169,38530
20.204,222353,168,38537
20.209,222366,168,38533
20.214,222356,168,38541
20.219,222356,171,38535
20.223,222391,169,38542
20.228,222368,169,38536
20.233,222354,168,38530
20.238,222368,170,38528
20.243,222330,168,38527
20.248,222348,168,38531
20.253,222342,169,38525
20.258,222342,172,38525
20.263,222340,169,38534
20.268,222341,169,38526
20.273,222338,170,38538
20.278,222323,170,38532
20.283,222337,168,38532
20.288,222313,172,38536
20.293,222334,168,38539
20.298,222329,169,38538
20.303,222315,169,38539
20.308,222338,169,38536
20.313,222333,168,38533
20.318,222325,170,38535
20.323,222322,168,38527
20.328,222350,172,38529
20.333,222349,168,38532
20.338,222355,170,38538
20.343,222339,168,38535
20.348,222356,172,38541
20.353,222371,168,38549
20.357,222398,170,38540
20.362,222391,168,38537
20.367,222392,169,38535
20.372,222412,168,38540
20.377,222408,171,38537
20.382,222434,168,38545
20.387,222445,169,38541
20.392,222449,168,38540
20.397,222446,171,38542
20.402,222467,168,38549
20.407,222443,171,38550
20.412,222470,168,38542
20.417,222477,169,38539
20.422,222493,168,38545
20.427,222511,171,38544
20.432,222525,168,38550
20.437,222522,173,38549
20.442,222544,168,38554
20.447,222552,171,38546
20.452,222573,168,38562
20.457,222574,171,38548
20.462,222576,168,38548
20.467,222596,173,38554
20.472,222605,168,38556
20.477,222619,170,38550
20.482,222631,168,38561
20.487,222637,173,38562
20.491,222648,168,38554
20.496,222659,171,38555
20.501,222696,168,38561
20.506,222695,171,38557
20.511,222707,168,38564
20.516,222723,174,38564
20.521,222733,168,38567
20.526,222749,171,38561
20.531,222771,168,38568
20.536,222781,173,38572
20.541,222779,168,38564
20.546,222796,171,38564
20.551,222803,168,38564
20.556,222818,170,38570
20.561,222826,168,38575
20.566,222855,172,38575
20.571,222863,168,38570
20.576,222883,170,38570
20.581,222889,168,38566
20.586,222908,172,38575
20.591,222905,168,38577
20.596,222939,174,38573
20.601,222953,168,38571
20.606,222946,173,38582
20.611,222978,168,38583
20.616,222988,171,38577
20.621,222999,168,38581
20.625,223013,172,38588
20.630,223019,168,38583
20.635,223038,170,38588
20.640,223060,168,38589
20.645,223078,171,38594
20.650,223081,168,38592
20.655,223104,171,38589
20.660,223125,168,38580
20.665,223121,173,38586
20.670,223155,168,38592
20.675,223162,171,38593
20.680,223169,168,38596
20.685,223197,173,38594
20.690,223211,168,38593
20.695,223197,171,38595
20.700,223239,168,38597
20.705,223274,171,38600
20.710,223279,168,38604
20.715,223273,173,38602
20.720,223304,168,38603
20.725,223304,171,38604
20.730,223336,168,38603
20.735,223352,173,38609
20.740,223359,168,38616
20.745,223368,170,38605
20.750,223406,168,38606
20.755,223400,169,38611
20.759,223429,169,38612
20.764,223459,171,38617
20.769,223457,168,38614
20.774,223470,169,38619
20.779,223472,169,38616
20.784,223500,170,38618
20.789,223499,168,38618
20.794,223497,168,38732
20.799,223548,169,38618
20.804,223577,170,38617
20.809,223593,168,38623
20.814,223612,171,38627
20.819,223629,168,38632
20.824,223646,169,38633
20.829,223667,168,38634
20.834,223670,170,38631
20.839,223697,168,38636
20.844,223709,169,38640
20.849,223730,168,38642
20.854,223733,168,38638
20.859,223754,170,38642
20.864,223737,169,38636
20.869,223713,168,38629
20.874,223689,170,38632
20.879,223648,169,38632
20.884,223619,168,38632
20.889,223600,170,38636
20.893,223562,170,38634
20.898,223539,169,38637
20.903,223499,168,38627
20.908,223448,168,38631
20.913,223376,169,38624
20.918,223331,169,38624
20.923,223290,168,38619
20.928,223271,171,38612
20.933,223231,168,38613
20.938,223186,169,38591
20.943,223170,168,38603
20.948,223120,169,38603
20.953,223112,169,38607
20.958,223078,170,38593
20.963,223054,168,38601
20.968,223017,169,38588
20.973,223003,168,38589
20.978,222975,170,38589
20.983,222951,168,38588
20.988,222948,172,38588
20.993,222894,168,38582
20.998,222888,172,38582
21.003,222837,168,38584
21.008,222812,169,38581
21.013,222787,168,38577
21.018,222750,172,38573
21.023,222713,168,38573
21.027,222680,170,38561
21.032,222641,169,38563
21.037,222614,172,38489
21.042,222592,169,38563
21.047,222556,171,38565
21.052,222492,168,38562
21.057,222500,170,38557
21.062,222465,168,38559
21.067,222440,172,38555
21.072,222395,168,38553
21.077,222390,170,38548
21.082,222352,168,38545
21.087,222330,172,38553
21.092,222310,168,38546
21.097,222287,171,38546
21.102,222280,168,38542
21.107,222269,172,38542
21.112,222270,168,38544
21.117,222276,174,38543
21.122,222273,168,38538
21.127,222285,171,38542
21.132,222257,168,38536
21.137,222258,170,38534
21.142,222261,168,38535
21.147,222259,171,38530
21.152,222250,168,38535
21.156,222235,173,38533
21.161,222245,168,38533
21.166,222254,171,38537
21.171,222239,168,38533
21.176,222236,172,38542
21.181,222220,168,38539
21.186,222242,173,38530
21.191,222228,168,38534
21.196,222211,172,38529
21.201,222210,168,38527
21.206,222197,173,38539
21.211,222216,168,38529
21.216,222206,170,38540
21.221,222214,168,38535
21.226,222233,172,38534
21.231,222198,168,38540
21.236,222203,172,38532
21.241,222220,168,38527
21.246,222224,170,38528
21.251,222210,168,38523
21.256,222221,171,38525
21.261,222240,168,38533
21.266,222229,173,38526
21.271,222231,168,38534
21.276,222242,171,38538
21.281,222242,168,38528
21.286,222264,171,38533
21.290,222261,168,38536
21.295,222274,172,38528
21.300,222273,168,38532
21.305,222278,170,38533
21.310,222290,168,38535
21.315,222314,171,38542
21.320,222321,168,38539
21.325,222349,171,38535
21.330,222356,168,38514
21.335,222358,170,38540
21.340,222369,168,38547
21.345,222403,172,38544
21.350,222399,168,38549
21.355,222401,173,38545
21.360,222419,168,38557
21.365,222424,170,38551
21.370,222453,169,38555
21.375,222476,171,38556
21.380,222524,168,38546
21.385,222486,170,38555
21.390,222528,168,38551
21.395,222521,173,38552
21.400,222550,168,38558
21.405,222578,170,38560
21.410,222577,168,38566
21.415,222597,172,38569
21.420,222613,168,38570
21.424,222641,169,38571
21.429,222648,168,38567
21.434,222669,169,38571
21.439,222671,169,38567
21.444,222685,170,38574
21.449,222697,168,38575
21.454,222722,171,38574
21.459,222726,168,38573
21.464,222749,169,38576
21.469,222779,170,38582
21.474,222782,170,38582
21.479,222824,168,38577
21.484,222814,168,38579
21.489,222825,170,38579
21.494,222867,169,38583
21.499,222859,168,38585
21.504,222880,171,38584
21.509,222886,169,38584
21.514,222911,169,38585
21.519,222912,168,38582
21.524,222918,171,38589
21.529,222934,168,38583
21.534,222942,170,38586
21.539,222930,169,38580
21.544,222970,168,38581
21.549,222957,168,38576
21.554,222967,170,38579
21.558,222980,169,38583
21.563,222999,168,38583
21.568,223024,171,38585
21.573,223052,169,38585
21.578,223066,171,38582
21.583,223055,168,38590
21.588,223080,169,38578
21.593,223098,168,38600
21.598,223138,172,38587
21.603,223147,169,38593
21.608,223147,170,38590
21.613,223194,168,38594
21.618,223179,169,38592
21.623,223184,170,38632
21.628,223225,169,38594
21.633,223205,168,38595
21.638,223224,172,38593
21.643,223229,168,38580
21.648,223231,169,38581
21.653,223253,168,38575
21.658,223239,172,38585
21.663,223259,168,38582
21.668,223256,170,38578
21.673,223265,168,38574
21.678,223246,170,38569
21.683,223233,169,38564
21.688,223227,172,38569
21.692,223240,168,38567
21.697,223254,170,38563
21.702,223284,168,38566
21.707,223290,173,38569
21.712,223296,168,38569
21.717,223347,171,38576
21.722,223371,168,38575
21.727,223394,172,38579
21.732,223434,168,38594
21.737,223441,170,38587
21.742,223509,168,38606
21.747,223535,173,38615
21.752,223574,168,38616
21.757,223617,171,38627
21.762,223660,168,38629
21.767,223694,174,38638
21.772,223726,168,38648
21.777,223747,170,38655
21.782,223757,168,38652
21.787,223771,172,38653
21.792,223776,168,38657
21.797,223770,170,38655
21.802,223744,168,38659
21.807,223733,172,38662
21.812,223685,168,38666
21.817,223675,171,38669
21.822,223633,168,38672
21.826,223601,170,38664
21.831,223548,168,38663
21.836,223499,172,38662
21.841,223455,168,38658
21.846,223419,174,38659
21.851,223356,168,38657
21.856,223341,171,38646
21.861,223312,168,38649
21.866,223285,173,38649
21.871,223244,168,38642
21.876,223242,173,38653
21.881,223205,168,38652
21.886,223187,170,38647
21.891,223192,168,38658
21.896,223185,173,38656
21.901,223159,168,38657
21.906,223140,171,38655
21.911,223124,168,38666
21.916,223109,175,38624
21.921,223102,168,38662
21.926,223065,171,38666
21.931,223060,168,38674
21.936,223035,172,38666
21.941,222995,168,38673
21.946,222985,171,38677
21.951,222993,168,38674
21.956,222972,174,38672
21.960,222961,168,38683
21.965,222951,170,38677
21.970,222913,168,38686
21.975,222920,172,38687
21.980,222894,168,38682
21.985,222891,170,38692
21.990,222873,168,38688
21.995,222843,172,38688
22.000,222831,168,38687
22.005,222815,170,38691
22.010,222804,168,38692
22.015,222787,169,38685
22.020,222764,168,38686
22.025,222762,172,38685
22.030,222763,168,38695
22.035,222768,170,38701
22.040,222804,169,38696
22.045,222805,171,38695
22.050,222800,168,38702
22.055,222813,170,38700
22.060,222814,169,38702
22.065,222817,170,38702
22.070,222815,168,38699
22.075,222837,172,38705
22.080,222823,168,38703
22.085,222828,169,38697
22.090,222838,168,38706
22.094,222843,172,38712
22.099,222844,168,38716
22.104,222853,170,38711
22.109,222846,168,38720
22.114,222859,170,38714
22.119,222876,168,38718
22.124,222871,172,38713
22.129,222866,169,38717
22.134,222870,170,38726
22.139,222893,168,38724
22.144,222888,169,38725
22.149,222902,168,38730
22.154,222904,171,38723
22.159,222915,169,38724
22.164,222913,170,38729
22.169,222948,168,38724
22.174,222936,168,38727
22.179,222952,170,38737
22.184,222939,169,38719
22.189,222980,168,38732
22.194,222978,168,38728
22.199,222991,171,38739
22.204,223008,170,38740
22.209,223035,169,38743
22.214,223023,168,38747
22.219,223065,168,38739
22.224,223080,170,38746
22.228,223078,170,38744
22.233,223076,168,38753
22.238,223101,168,38752
22.243,223120,170,38752
22.248,223105,170,38747
22.253,223145,168,38754
22.258,223140,170,38756
22.263,223155,168,38750
22.268,223182,169,38757
22.273,223181,169,38762
22.278,223202,170,38760
22.283,223219,168,38764
22.288,223242,168,38770
22.293,223238,169,38769
22.298,223268,170,38771
22.303,223291,168,38773
22.308,223298,171,38772
22.313,223307,168,38764
22.318,223329,169,38774
22.323,223333,169,38771
22.328,223346,171,38775
22.333,223368,168,38776
22.338,223377,170,38776
22.343,223399,168,38778
22.348,223418,173,38787
22.353,223429,168,38780
22.358,223440,173,38784
22.362,223460,168,38781
22.367,223480,170,38792
22.372,223504,168,38789
22.377,223519,173,38789
22.382,223515,168,38791
22.387,223530,170,38799
22.392,223544,168,38789
22.397,223547,172,38796
22.402,223573,168,38795
22.407,223585,173,38797
22.412,223592,168,38794
22.417,223605,171,38798
22.422,223624,169,38799
22.427,223655,172,38811
22.432,223666,168,38796
22.437,223661,171,38803
22.442,223717,168,38805
22.447,223726,172,38808
22.452,223729,168,38818
22.457,223753,172,38810
22.462,223762,168,38816
22.467,223771,170,38816
22.472,223779,168,38819
22.477,223815,172,38813
22.482,223828,168,38821
22.487,223834,170,38823
22.492,223854,168,38826
22.496,223861,172,38830
22.501,223877,178,38820
22.506,223896,172,38824
22.511,223905,168,38828
22.516,223939,170,38824
22.521,223957,168,38821
22.526,223961,172,38835
22.531,224004,168,38834
22.536,223990,174,38835
22.541,224028,168,38831
22.546,224023,171,38835
22.551,224048,168,38833
22.556,224049,175,38838
22.561,224057,168,38836
22.566,224100,171,38841
22.571,224099,168,38838
22.576,224134,173,38840
22.581,224156,168,38843
22.586,224152,170,38844
22.591,224210,168,38847
22.596,224220,172,38852
22.601,224268,168,38843
22.606,224245,174,38858
22.611,224257,168,38865
22.616,224265,172,38860
22.621,224294,168,38856
22.626,224313,174,38861
22.630,224328,168,38864
22.635,224314,171,38861
22.640,224340,168,38860
22.645,224355,173,38855
22.650,224370,169,38859
22.655,224381,172,38863
22.660,224401,168,38865
22.665,224427,170,38867
22.670,224461,168,38873
22.675,224456,172,38870
22.680,224488,168,38872
22.685,224519,173,38869
22.690,224509,168,38881
22.695,224547,171,38878
22.700,224549,168,38885
22.705,224547,170,38881
22.710,224510,168,38877
22.715,224450,172,38853
22.720,224428,168,38845
22.725,224357,170,38842
22.730,224310,168,38835
22.735,224291,172,38834
22.740,224285,168,38838
22.745,224256,170,38831
22.750,224205,168,38848
22.755,224198,170,38843
22.760,224178,168,38849
22.764,224126,173,38842
22.769,224075,169,38846
22.774,224045,170,38848
22.779,224013,168,38841
22.784,223973,172,38840
22.789,223922,169,38838
22.794,223887,178,38859
22.799,223843,169,38832
22.804,223790,170,38820
22.809,223744,168,38820
22.814,223726,172,38814
22.819,223699,169,38818
22.824,223658,169,38810
22.829,223643,168,38814
22.834,223610,168,38814
22.839,223565,170,38807
22.844,223567,168,38808
22.849,223547,170,38802
22.854,223531,169,38807
22.859,223491,168,38797
22.864,223446,168,38801
22.869,223382,169,38789
22.874,223377,169,38788
22.879,223331,168,38780
22.884,223309,168,38777
22.889,223241,170,38777
22.894,223238,168,38767
22.898,223192,171,38759
22.903,223158,169,38765
22.908,223153,169,38758
22.913,223114,168,38760
22.918,223099,172,38764
22.923,223097,169,38769
22.928,223043,170,38768
22.933,223038,168,38769
22.938,223037,169,38771
22.943,223012,168,38760
22.948,223019,172,38762
22.953,222990,169,38762
22.958,222992,170,38756
22.963,222978,168,38757
22.968,222980,172,38751
22.973,222969,168,38746
22.978,222971,170,38739
22.983,222968,168,38739
22.988,222954,172,38739
22.993,222950,168,38738
22.998,222973,170,38739
23.003,222989,168,38745
23.008,222982,173,38744
23.013,222992,168,38749
23.018,222989,170,38749
23.023,222989,168,38758
23.028,222998,173,38750
23.032,222964,168,38747
23.037,222951,172,38739
23.042,222949,168,38735
23.047,222914,171,38734
23.052,222886,168,38732
23.057,222866,170,38719
23.062,222856,168,38713
23.067,222859,172,38714
23.072,222870,168,38713
23.077,222901,170,38713
23.082,222924,168,38724
23.087,222892,169,38731
23.092,222947,168,38738
23.097,222966,173,38742
23.102,223021,168,38752
23.107,222997,171,38756
23.112,223015,168,38759
23.117,222997,174,38751
23.122,222958,168,38748
23.127,222926,171,38733
23.132,222902,168,38723
23.137,222904,172,38720
23.142,222900,168,38716
23.147,222906,170,38714
23.152,222917,168,38720
23.157,222941,173,38724
23.162,222976,168,38730
23.166,223012,171,38741
23.171,223054,168,38754
23.176,223089,174,38764
23.181,223101,168,38766
23.186,223099,174,38772
23.191,223104,168,38767
23.196,223081,172,38761
23.201,223073,168,38760
23.206,223065,175,38761
23.211,223079,168,38752
23.216,223082,172,38760
23.221,223095,168,38753
23.226,223106,170,38757
23.231,223114,168,38753
23.236,223141,171,38755
23.241,223158,168,38754
23.246,223182,173,38760
23.251,223209,168,38766
23.256,223202,172,38767
23.261,223254,168,38763
23.266,223240,174,38766
23.271,223248,168,38763
23.276,223247,172,38767
23.281,223254,168,38763
23.286,223280,171,38756
23.291,223232,168,38753
23.295,223247,173,38751
23.300,223225,168,38756
23.305,223251,170,38755
23.310,223307,169,38770
23.315,223315,172,38770
23.320,223311,168,38776
23.325,223360,170,38782
23.330,223371,169,38841
23.335,223377,170,38785
23.340,223404,168,38790
23.345,223416,172,38790
23.350,223435,168,38790
23.355,223419,170,38791
23.360,223435,168,38790
23.365,223447,171,38783
23.370,223442,168,38792
23.375,223471,169,38792
23.380,223572,168,38793
23.385,223479,170,38793
23.390,223538,168,38796
23.395,223583,171,38799
23.400,223586,168,38807
23.405,223583,173,38809
23.410,223600,168,38805
23.415,223600,170,38799
23.420,223608,169,38805
23.425,223615,171,38801
23.429,223633,169,38795
23.434,223644,171,38802
23.439,223662,168,38801
23.444,223677,169,38800
23.449,223683,169,38805
23.454,223693,170,38808
23.459,223741,168,38805
23.464,223769,168,38808
23.469,223768,169,38812
23.474,223792,170,38825
23.479,223823,169,38818
23.484,223805,170,38808
23.489,223837,168,38811
23.494,223838,168,38808
23.499,223839,170,38815
23.504,223863,170,38807
23.509,223865,168,38811
23.514,223879,168,38816
23.519,223911,170,38819
23.524,223963,170,38821
23.529,223952,170,38826
23.534,223981,170,38829
23.539,223998,169,38830
23.544,224035,169,38814
23.549,224051,168,38834
23.554,224060,170,38832
23.559,224060,169,38827
23.563,224071,168,38817
23.568,224084,171,38826
23.573,224090,169,38819
23.578,224092,171,38822
23.583,224119,169,38823
23.588,224127,169,38822
23.593,224145,168,38830
23.598,224143,172,38830
23.603,224134,169,38831
23.608,224120,170,38824
23.613,224093,168,38827
23.618,224060,172,38828
23.623,224029,170,38861
23.628,223998,171,38822
23.633,223905,168,38822
23.638,223870,169,38808
23.643,223804,170,38802
23.648,223765,171,38803
23.653,223722,168,38796
23.658,223685,169,38792
23.663,223653,169,38787
23.668,223624,171,38786
23.673,223562,169,38791
23.678,223568,171,38796
23.683,223562,168,38794
23.688,223534,170,38795
23.693,223513,169,38797
23.697,223473,172,38785
23.702,223433,168,38783
23.707,223391,170,38769
23.712,223346,168,38762
23.717,223291,172,38758
23.722,223317,169,38751
23.727,223281,170,38751
23.732,223218,168,38754
23.737,223187,171,38753
23.742,223176,168,38750
23.747,223131,173,38744
23.752,223094,168,38748
23.757,223071,170,38718
23.762,223043,168,38741
23.767,223016,172,38747
23.772,222975,168,38747
23.777,222938,172,38743
23.782,222917,168,38747
23.787,222851,174,38742
23.792,222819,168,38729
23.797,222773,171,38735
23.802,222721,168,38724
23.807,222697,173,38718
23.812,222674,168,38712
23.817,222635,170,38713
23.822,222620,168,38705
23.827,222619,170,38698
23.831,222616,168,38708
23.836,222631,172,38711
23.841,222641,168,38711
23.846,222620,173,38710
23.851,222633,168,38708
23.856,222617,170,38710
23.861,222626,168,38704
23.866,222626,172,38706
23.871,222607,168,38701
23.876,222586,170,38697
23.881,222589,168,38700
23.886,222581,172,38703
23.891,222564,168,38707
23.896,222560,173,38709
23.901,222572,168,38705
23.906,222576,174,38708
23.911,222562,168,38709
23.916,222554,173,38621
23.921,222559,168,38715
23.926,222557,170,38708
23.931,222550,168,38717
23.936,222541,172,38710
23.941,222549,168,38706
23.946,222564,173,38706
23.951,222539,168,38702
23.956,222546,174,38703
23.961,222558,168,38704
23.965,222511,173,38706
23.970,222571,168,38707
23.975,222595,174,38713
23.980,222594,168,38713
23.985,222623,170,38710
23.990,222646,168,38716
23.995,222651,171,38720
24.000,222653,168,38725
24.005,222671,173,38725
24.010,222678,168,38717
24.015,222690,173,38717
24.020,222682,168,38723
24.025,222700,170,38722
24.030,222691,168,38713
24.035,222671,172,38720
24.040,222703,168,38725
24.045,222715,170,38712
24.050,222728,169,38720
24.055,222744,171,38725
24.060,222765,168,38721
24.065,222795,170,38730
24.070,222807,168,38730
24.075,222799,169,38718
24.080,222823,168,38731
24.085,222842,170,38731
24.090,222858,168,38733
24.095,222862,171,38737
24.099,222873,168,38731
24.104,222872,169,38732
24.109,222870,168,38740
24.114,222912,172,38732
24.119,222891,170,38725
24.124,222903,171,38724
24.129,222916,168,38731
24.134,222927,169,38737
24.139,222946,170,38738
24.144,222946,170,38734
24.149,222991,168,38734
24.154,222991,168,38738
24.159,223011,169,38738
24.164,223001,168,38740
24.169,223021,170,38740
24.174,223012,170,38736
24.179,223029,170,38737
24.184,223021,169,38736
24.189,223051,169,38733
24.194,223063,169,38732
24.199,223059,168,38735
24.204,223090,168,38732
24.209,223092,169,38764
24.214,223107,168,38730
24.219,223124,169,38732
24.224,223122,168,38740
24.229,223139,168,38734
24.233,223163,170,38746
24.238,223179,171,38739
24.243,223200,169,38748
24.248,223200,170,38751
24.253,223220,169,38742
24.258,223221,171,38749
24.263,223216,169,38750
24.268,223231,171,38749
24.273,223244,169,38744
24.278,223256,170,38742
24.283,223272,168,38747
24.288,223287,169,38747
24.293,223312,168,38747
24.298,223315,171,38759
24.303,223346,168,38756
24.308,223379,169,38746
24.313,223388,168,38755
24.318,223376,169,38747
24.323,223384,169,38750
24.328,223412,171,38745
24.333,223400,168,38757
24.338,223437,170,38752
24.343,223439,168,38759
24.348,223444,170,38757
24.353,223475,168,38752
24.358,223479,170,38751
24.363,223489,168,38746
24.367,223525,170,38759
24.372,223538,168,38765
24.377,223535,170,38765
24.382,223549,169,38766
24.387,223566,173,38764
24.392,223565,168,38769
24.397,223589,172,38768
24.402,223591,168,38768
24.407,223626,171,38763
24.412,223627,168,38769
24.417,223652,170,38766
24.422,223658,168,38775
24.427,223669,170,38764
24.432,223679,168,38772
24.437,223693,174,38770
24.442,223712,168,38772
24.447,223726,173,38777
24.452,223743,168,38771
24.457,223767,170,38784
24.462,223767,168,38776
24.467,223791,173,38776
24.472,223792,168,38788
24.477,223836,172,38787
24.482,223854,168,38788
24.487,223833,171,38783
24.492,223873,168,38784
24.497,223863,170,38780
24.501,223896,168,38792
24.506,223890,171,38789
24.511,223903,168,38794
24.516,223914,174,38779
24.521,223913,168,38791
24.526,223895,173,38783
24.531,223879,168,38781
24.536,223851,172,38780
24.541,223835,168,38774
24.546,223811,170,38775
24.551,223760,168,38778
24.556,223732,171,38778
24.561,223686,168,38777
24.566,223659,170,38778
24.571,223619,168,38775
24.576,223575,173,38770
24.581,223506,168,38770
24.586,223453,172,38760
24.591,223416,168,38755
24.596,223393,171,38754
24.601,223340,168,38745
24.606,223311,172,38740
24.611,223272,168,38745
24.616,223244,172,38736
24.621,223203,168,38737
24.626,223157,171,38737
24.631,223126,168,38732
24.635,223110,174,38726
24.640,223054,168,38731
24.645,223022,172,38726
24.650,222984,169,38719
24.655,222953,174,38716
24.660,222902,168,38711
24.665,222865,173,38701
24.670,222815,168,38703
24.675,222762,172,38699
24.680,222738,168,38699
24.685,222671,171,38694
24.690,222640,168,38691
24.695,222612,171,38688
24.700,222562,168,38679
24.705,222502,172,38679
24.710,222480,168,38682
24.715,222441,171,38678
24.720,222384,168,38668
24.725,222325,171,38666
24.730,222279,168,38651
24.735,222231,170,38643
24.740,222174,168,38642
24.745,222130,171,38630
24.750,222104,168,38635
24.755,222076,170,38630
24.760,222056,169,38629
24.765,222047,173,38629
24.769,222025,169,38631
24.774,222025,172,38623
24.779,222034,168,38628
24.784,222041,172,38629
24.789,222046,168,38638
24.794,222034,172,38632
24.799,222053,169,38625
24.804,222045,172,38623
24.809,222005,168,38620
24.814,222019,171,38622
24.819,222016,168,38622
24.824,222005,170,38621
24.829,221986,168,38622
24.834,221984,170,38618
24.839,221980,168,38624
24.844,221962,172,38622
24.849,221976,168,38627
24.854,221959,169,38619
24.859,221955,168,38615
24.864,221970,169,38622
24.869,221958,170,38621
24.874,221966,171,38618
24.879,221953,169,38618
24.884,221964,171,38621
24.889,221967,169,38617
24.894,221948,168,38619
24.899,221962,170,38621
24.903,221954,171,38615
24.908,221984,169,38615
24.913,221964,170,38611
24.918,221989,169,38611
24.923,221975,169,38614
24.928,221982,168,38614
24.933,222003,168,38604
24.938,222011,168,38621
24.943,222016,169,38620
24.948,222026,169,38614
24.953,222021,168,38619
24.958,222012,168,38620
24.963,222034,168,38619
24.968,222022,171,38614
24.973,222047,170,38618
24.978,222053,170,38612
24.983,222068,169,38617
24.988,222077,169,38614
24.993,222070,170,38613
24.998,222090,171,38613
25.003,222081,169,38617
25.008,222107,170,38613
25.013,222112,168,38615
25.018,222108,169,38616
25.023,222134,168,38620
25.028,222148,172,38618
25.033,222169,169,38626
25.037,222170,178,38619
25.042,222173,168,38615
25.047,222210,172,38617
25.052,222201,169,38630
25.057,222204,170,38620
25.062,222205,168,38624
25.067,222226,169,38621
25.072,222238,170,38625
25.077,222262,172,38622
25.082,222254,168,38622
25.087,222293,173,38631
25.092,222289,168,38632
25.097,222296,172,38621
25.102,222317,168,38629
25.107,222332,171,38628
25.112,222360,168,38623
25.117,222358,170,38623
25.122,222370,168,38626
25.127,222387,173,38634
25.132,222409,168,38635
25.137,222434,170,38637
25.142,222444,168,38631
25.147,222450,173,38646
25.152,222473,168,38640
25.157,222485,172,38645
25.162,222482,168,38642
25.167,222509,171,38640
25.171,222515,168,38641
25.176,222543,169,38644
25.181,222538,168,38652
25.186,222555,171,38644
25.191,222595,168,38641
25.196,222609,171,38643
25.201,222627,168,38647
25.206,222643,170,38659
25.211,222653,168,38646
25.216,222666,170,38646
25.221,222685,168,38648
25.226,222710,174,38650
25.231,222721,168,38655
25.236,222736,173,38655
25.241,222749,168,38658
25.246,222766,172,38654
25.251,222778,168,38666
25.256,222806,171,38663
25.261,222821,168,38651
25.266,222845,171,38657
25.271,222837,168,38661
25.276,222868,174,38661
25.281,222892,168,38688
25.286,222891,171,38665
25.291,222899,168,38662
25.296,222926,172,38665
25.301,222947,168,38675
25.305,222971,175,38669
25.310,222978,168,38668
25.315,222984,172,38670
25.320,223008,168,38679
25.325,223047,173,38668
25.330,223075,168,38675
25.335,223063,173,38674
25.340,223071,168,38678
25.345,223095,170,38677
25.350,223094,168,38676
25.355,223135,172,38678
25.360,223127,168,38683
25.365,223158,174,38683
25.370,223159,168,38686
25.375,223210,171,38693
25.380,223222,168,38684
25.385,223245,170,38693
25.390,223259,168,38690
25.395,223284,171,38699
25.400,223302,168,38692
25.405,223329,172,38697
25.410,223335,168,38702
25.415,223353,174,38706
25.420,223363,168,38699
25.425,223409,171,38703
25.430,223400,168,38708
25.434,223414,170,38701
25.439,223441,168,38714
25.444,223464,171,38705
25.449,223487,168,38706
25.454,223508,173,38719
25.459,223506,168,38714
25.464,223542,169,38723
25.469,223550,168,38717
25.474,223575,171,38726
25.479,223568,168,38722
25.484,223569,170,38727
25.489,223560,169,38730
25.494,223535,171,38722
25.499,223505,168,38729
25.504,223497,172,38721
25.509,223477,168,38727
25.514,223437,170,38723
25.519,223408,168,38720
25.524,223366,171,38719
25.529,223321,169,38725
25.534,223294,170,38719
25.539,223236,168,38718
25.544,223194,171,38719
25.549,223164,168,38713
25.554,223139,169,38712
25.559,223107,170,38707
25.564,223059,171,38713
25.568,223043,168,38707
25.573,223012,170,38743
25.578,222984,168,38708
25.583,222972,169,38705
25.588,222951,170,38700
25.593,222928,170,38711
25.598,222915,168,38698
25.603,222896,171,38706
25.608,222852,169,38699
25.613,222853,169,38705
25.618,222808,168,38698
25.623,222847,168,38697
25.628,222762,171,38703
25.633,222715,169,38694
25.638,222680,169,38696
25.643,222650,171,38687
25.648,222611,170,38692
25.653,222614,168,38686
25.658,222543,171,38694
25.663,222521,170,38680
25.668,222476,169,38682
25.673,222466,169,38682
25.678,222438,170,38684
25.683,222400,168,38676
25.688,222374,172,38677
25.693,222362,169,38671
25.698,222330,170,38664
25.702,222293,168,38672
25.707,222288,171,38668
25.712,222247,168,38665
25.717,222246,169,38674
25.722,222234,168,38661
25.727,222242,169,38662
25.732,222232,169,38662
25.737,222232,171,38663
25.742,222250,168,38661
25.747,222258,170,38662
25.752,222248,169,38657
25.757,222240,172,38648
25.762,222245,168,38659
25.767,222223,170,38655
25.772,222221,168,38655
25.777,222223,171,38655
25.782,222227,168,38659
25.787,222246,170,38664
25.792,222234,168,38660
25.797,222239,173,38662
25.802,222255,168,38662
25.807,222264,172,38670
25.812,222266,168,38668
25.817,222264,170,38660
25.822,222278,168,38668
25.827,222283,170,38659
25.832,222278,168,38667
25.836,222270,172,38653
25.841,222292,168,38664
25.846,222282,170,38660
25.851,222286,168,38658
25.856,222299,172,38661
25.861,222302,168,38659
25.866,222308,171,38613
25.871,222303,168,38657
25.876,222321,170,38664
25.881,222329,168,38668
25.886,222351,172,38658
25.891,222376,168,38665
25.896,222386,171,38665
25.901,222405,168,38673
25.906,222422,174,38676
25.911,222424,168,38674
25.916,222439,173,38670
25.921,222449,168,38675
25.926,222467,175,38677
25.931,222481,168,38671
25.936,222501,172,38678
25.941,222498,168,38679
25.946,222522,170,38674
25.951,222535,168,38679
25.956,222565,172,38675
25.961,222566,168,38680
25.966,222584,172,38678
25.970,222585,168,38685
25.975,222625,175,38680
25.980,222636,168,38688
25.985,222635,173,38683
25.990,222654,168,38688
25.995,222678,171,38684
26.000,222690,168,38689
26.005,222706,174,38688
26.010,222714,168,38688
26.015,222742,173,38697
26.020,222759,168,38699
26.025,222767,172,38696
26.030,222775,168,38700
26.035,222806,174,38705
26.040,222835,168,38705
26.045,222841,171,38704
26.050,222866,168,38707
26.055,222883,174,38707
26.060,222915,168,38714
26.065,222908,173,38716
26.070,222927,168,38710
26.075,222950,171,38717
26.080,222970,168,38713
26.085,222973,173,38716
26.090,223002,168,38716
26.095,223006,171,38715
26.100,223026,168,38719
26.104,223054,173,38722
26.109,223073,168,38734
26.114,223098,173,38728
26.119,223110,168,38729
26.124,223122,170,38734
26.129,223137,169,38736
26.134,223172,172,38739
26.139,223175,168,38735
26.144,223210,170,38739
26.149,223232,169,38742
26.154,223240,172,38740
26.159,223270,168,38774
26.164,223295,172,38748
26.169,223289,168,38755
26.174,223322,170,38750
26.179,223337,169,38756
26.184,223363,171,38760
26.189,223377,168,38757
26.194,223402,170,38762
26.199,223440,168,38767
26.204,223438,172,38760
26.209,223478,170,38771
26.214,223488,172,38775
26.219,223532,169,38769
26.224,223536,170,38772
26.229,223567,168,38776
26.234,223579,172,38777
26.238,223606,169,38780
26.243,223623,170,38780
26.248,223651,168,38787
26.253,223649,172,38779
26.258,223688,168,38790
26.263,223690,168,38789
26.268,223727,170,38787
26.273,223744,170,38793
26.278,223750,169,38803
26.283,223780,169,38800
26.288,223813,168,38797
26.293,223819,168,38807
26.298,223855,170,38804
26.303,223865,169,38805
26.308,223885,171,38799
26.313,223911,170,38808
26.318,223908,169,38813
26.323,223904,169,38807
26.328,223922,169,38804
26.333,223937,168,38801
26.338,223911,168,38802
26.343,223892,170,38792
26.348,223888,170,38787
26.353,223859,168,38775
26.358,223871,169,38772
26.363,223833,168,38768
26.368,223800,172,38763
26.372,223770,169,38760
26.377,223737,170,38758
26.382,223706,168,38741
26.387,223657,172,38743
26.392,223603,169,38736
26.397,223541,170,38735
26.402,223501,168,38729
26.407,223436,170,38720
26.412,223407,168,38709
26.417,223337,173,38715
26.422,223289,168,38705
26.427,223219,170,38703
26.432,223197,168,38696
26.437,223146,169,38689
26.442,223118,169,38690
26.447,223077,172,38689
26.452,223058,184,38686
26.457,223024,172,38687
26.462,223020,168,38672
26.467,222992,171,38679
26.472,222965,168,38677
26.477,222949,170,38677
26.482,222928,169,38673
26.487,222907,173,38674
26.492,222894,168,38669
26.497,222842,171,38680
26.502,222838,168,38674
26.506,222822,172,38670
26.511,222788,168,38678
26.516,222772,170,38666
26.521,222754,168,38667
26.526,222727,172,38667
26.531,222709,168,38671
26.536,222673,171,38667
26.541,222637,169,38666
26.546,222600,173,38660
26.551,222584,168,38661
26.556,222569,174,38657
26.561,222542,168,38654
26.566,222535,172,38659
26.571,222513,168,38656
26.576,222505,171,38664
26.581,222497,168,38660
26.586,222484,173,38659
26.591,222509,168,38658
26.596,222494,171,38664
26.601,222490,168,38665
26.606,222515,172,38668
26.611,222544,168,38682
26.616,222526,174,38680
26.621,222563,168,38683
26.626,222571,173,38680
26.631,222570,168,38682
26.636,222565,171,38683
26.640,222605,168,38687
26.645,222602,174,38691
26.650,222602,168,38688
26.655,222630,171,38693
26.660,222618,168,38691
26.665,222634,174,38695
26.670,222634,168,38698
26.675,222644,172,38698
26.680,222661,168,38698
26.685,222650,174,38706
26.690,222672,168,38705
26.695,222681,172,38716
26.700,222733,168,38712
26.705,222695,171,38705
26.710,222699,168,38716
26.715,222723,173,38713
26.720,222722,168,38713
26.725,222727,171,38718
26.730,222724,169,38705
26.735,222736,173,38722
26.740,222732,168,38692
26.745,222697,170,38710
26.750,222745,168,38718
26.755,222740,171,38711
26.760,222758,168,38715
26.765,222773,174,38709
26.770,222790,168,38716
26.774,222806,173,38708
26.779,222807,168,38716
26.784,222825,171,38720
26.789,222833,168,38719
26.794,222850,172,38723
26.799,222888,168,38719
26.804,222879,171,38728
26.809,222893,168,38728
26.814,222892,174,38728
26.819,222903,168,38718
26.824,222906,172,38728
26.829,222912,168,38728
26.834,222934,171,38724
26.839,222936,168,38732
26.844,222954,171,38726
26.849,222951,168,38725
26.854,222971,170,38729
26.859,222975,169,38727
26.864,222986,172,38730
26.869,223005,168,38734
26.874,223020,170,38725
26.879,223057,168,38735
26.884,223058,173,38731
26.889,223080,168,38740
26.894,223082,173,38727
26.899,223101,168,38735
26.904,223116,170,38733
26.908,223120,168,38738
26.913,223131,169,38736
26.918,223139,169,38737
26.923,223171,171,38739
26.928,223161,168,38743
26.933,223174,169,38739
26.938,223184,170,38734
26.943,223191,170,38739
26.948,223196,168,38739
26.953,223223,172,38739
26.958,223220,169,38744
26.963,223251,170,38743
26.968,223267,169,38745
26.973,223250,169,38749
26.978,223281,168,38740
26.983,223293,171,38743
26.988,223322,171,38843
26.993,223334,171,38747
26.998,223352,170,38746
27.003,223367,170,38749
27.008,223398,169,38744
27.013,223403,168,38756
27.018,223405,172,38754
27.023,223440,170,38756
27.028,223442,169,38749
27.033,223449,168,38755
27.038,223503,169,38758
27.042,223477,170,38760
27.047,223493,170,38759
27.052,223507,169,38755
27.057,223509,169,38757
27.062,223528,170,38763
27.067,223544,170,38760
27.072,223563,168,38763
27.077,223566,169,38762
27.082,223591,168,38764
27.087,223588,169,38765
27.092,223627,168,38765
27.097,223633,173,38761
27.102,223662,169,38765
27.107,223670,171,38766
27.112,223684,168,38770
27.117,223704,169,38767
27.122,223728,168,38764
27.127,223719,172,38769
27.132,223748,168,38777
27.137,223760,173,38781
27.142,223771,169,38777
27.147,223780,171,38779
27.152,223808,168,38788
27.157,223772,169,38776
27.162,223828,169,38783
27.167,223841,172,38782
27.172,223854,168,38783
27.176,223859,171,38781
27.181,223872,168,38781
27.186,223887,171,38782
27.191,223902,168,38783
27.196,223918,170,38786
27.201,223940,168,38790
27.206,223947,172,38796
27.211,223952,168,38793
27.216,223955,170,38791
27.221,223985,168,38799
27.226,223984,172,38798
27.231,224008,168,38804
27.236,223998,173,38799
27.241,223984,168,38796
27.246,223960,171,38790
27.251,223936,169,38795
27.256,223894,173,38789
27.261,223862,168,38785
27.266,223828,171,38786
27.271,223762,168,38785
27.276,223742,174,38791
27.281,223686,169,38780
27.286,223622,172,38774
27.291,223605,168,38781
27.296,223525,171,38767
27.301,223495,168,38765
27.306,223440,173,38760
27.310,223414,168,38757
27.315,223383,171,38747
27.320,223341,168,38750
27.325,223314,174,38749
27.330,223315,168,38666
27.335,223255,172,38748
27.340,223226,168,38742
27.345,223165,171,38738
27.350,223124,168,38734
27.355,223113,173,38734
27.360,223075,168,38734
27.365,223050,171,38730
27.370,223009,168,38719
27.375,222993,173,38716
27.380,222940,168,38715
27.385,222898,173,38712
27.390,222865,168,38707
27.395,222833,171,38711
27.400,222780,168,38709
27.405,222725,174,38699
27.410,222705,168,38693
27.415,222649,171,38695
27.420,222606,168,38687
27.425,222568,174,38678
27.430,222516,168,38679
27.435,222492,174,38681
27.440,222466,168,38674
27.444,222439,172,38684
27.449,222401,168,38676
27.454,222376,170,38668
27.459,222337,168,38659
27.464,222313,173,38658
27.469,222299,168,38658
27.474,222292,170,38663
27.479,222265,168,38664
27.484,222269,171,38665
27.489,222259,168,38668
27.494,222258,174,38661
27.499,222265,168,38658
27.504,222261,171,38660
27.509,222233,168,38656
27.514,222249,174,38654
27.519,222223,168,38653
27.524,222213,172,38648
27.529,222221,168,38643
27.534,222188,172,38648
27.539,222196,168,38647
27.544,222194,170,38650
27.549,222226,169,38655
27.554,222197,171,38651
27.559,222207,168,38646
27.564,222219,173,38654
27.569,222205,168,38657
27.573,222210,194,38655
27.578,222202,169,38649
27.583,222210,171,38646
27.588,222206,168,38651
27.593,222211,170,38645
27.598,222194,168,38653
27.603,222189,173,38653
27.608,222199,169,38650
27.613,222216,171,38646
27.618,222217,168,38649
27.623,222241,171,38654
27.628,222220,169,38652
27.633,222239,171,38652
27.638,222236,168,38654
27.643,222255,169,38649
27.648,222253,170,38651
27.653,222296,168,38652
27.658,222294,168,38658
27.663,222312,169,38655
27.668,222318,168,38664
27.673,222329,170,38663
27.678,222355,169,38665
27.683,222360,170,38675
27.688,222348,169,38666
27.693,222371,169,38671
27.698,222388,169,38666
27.703,222391,169,38663
27.707,222401,168,38679
27.712,222418,168,38667
27.717,222431,168,38677
27.722,222465,168,38677
27.727,222449,171,38670
27.732,222458,170,38673
27.737,222495,170,38679
27.742,222482,170,38673
27.747,222515,170,38680
27.752,222538,170,38671
27.757,222546,170,38676
27.762,222552,169,38683
27.767,222554,169,38685
27.772,222568,170,38679
27.777,222598,171,38681
27.782,222607,170,38679
27.787,222614,171,38682
27.792,222625,170,38681
27.797,222634,171,38675
27.802,222657,170,38685
27.807,222658,171,38685
27.812,222677,169,38686
27.817,222691,171,38710
27.822,222711,168,38689
27.827,222722,172,38688
27.832,222760,170,38689
27.837,222773,172,38695
27.841,222768,170,38700
27.846,222794,172,38703
27.851,222809,169,38700
27.856,222844,173,38692
27.861,222827,169,38704
27.866,222883,169,38709
27.871,222859,168,38703
27.876,222883,169,38712
27.881,222898,169,38706
27.886,222929,173,38711
27.891,222917,169,38714
27.896,222939,173,38713
27.901,222967,168,38716
27.906,222976,169,38715
27.911,222990,169,38717
27.916,223005,171,38719
27.921,223025,168,38718
27.926,223067,170,38721
27.931,223075,168,38724
27.936,223076,170,38726
27.941,223102,168,38734
27.946,223106,170,38725
27.951,223125,168,38726
27.956,223129,170,38725
27.961,223144,168,38727
27.966,223181,171,38726
27.971,223170,168,38732
27.975,223203,171,38731
27.980,223213,168,38731
27.985,223232,171,38738
27.990,223244,168,38722
27.995,223249,170,38732
28.000,223273,168,38735
28.005,223296,170,38734
28.010,223325,168,38737
28.015,223331,171,38747
28.020,223342,168,38741
28.025,223382,172,38748
28.030,223380,168,38746
28.035,223410,172,38746
28.040,223435,168,38747
28.045,223425,172,38744
28.050,223459,168,38758
28.055,223478,171,38756
28.060,223497,168,38755
28.065,223500,174,38755
28.070,223516,168,38761
28.075,223540,173,38763
28.080,223550,168,38767
28.085,223573,173,38767
28.090,223595,168,38772
28.095,223610,172,38764
28.100,223637,168,38770
28.105,223659,173,38774
28.109,223669,180,38766
28.114,223698,174,38772
28.119,223710,168,38768
28.124,223722,173,38781
28.129,223728,168,38768
28.134,223734,174,38773
28.139,223753,168,38771
28.144,223785,174,38781
28.149,223794,168,38779
28.154,223803,174,38776
28.159,223794,168,38776
28.164,223759,171,38778
28.169,223728,168,38771
28.174,223694,171,38762
28.179,223664,168,38771
28.184,223639,174,38773
28.189,223589,168,38770
28.194,223539,174,38762
28.199,223512,168,38766
28.204,223479,173,38767
28.209,223377,168,38759
28.214,223354,171,38751
28.219,223303,168,38748
28.224,223228,171,38743
28.229,223211,168,38740
28.234,223174,170,38738
28.239,223143,168,38734
28.243,223111,175,38732
28.248,223060,168,38729
28.253,223060,174,38718
28.258,223036,168,38727
28.263,223007,170,38723
28.268,222966,168,38722
28.273,222935,174,38716
28.278,222899,169,38717
28.283,222875,174,38716
28.288,222835,168,38710
28.293,222805,174,38703
28.298,222773,168,38700
28.303,222728,173,38699
28.308,222695,168,38699
28.313,222634,171,38699
28.318,222621,168,38689
28.323,222560,170,38690
28.328,222525,168,38686
28.333,222482,170,38682
28.338,222439,168,38679
28.343,222405,170,38678
28.348,222368,168,38679
28.353,222337,171,38668
28.358,222293,168,38668
28.363,222268,171,38671
28.368,222240,168,38658
28.373,222194,171,38672
28.377,222176,168,38658
28.382,222146,171,38665
28.387,222136,168,38652
28.392,222112,171,38655
28.397,222105,168,38656
28.402,222080,172,38661
28.407,222082,169,38653
28.412,222086,172,38658
28.417,222084,168,38656
28.422,222079,171,38649
28.427,222066,168,38647
28.432,222082,171,38648
28.437,222083,168,38653
28.442,222075,170,38642
28.447,222063,168,38646
28.452,222081,172,38659
28.457,222065,168,38652
28.462,222063,169,38642
28.467,222085,168,38652
28.472,222078,169,38657
28.477,222066,168,38647
28.482,222050,169,38652
28.487,222063,168,38650
28.492,222054,169,38653
28.497,222076,168,38650
28.502,222068,170,38647
28.507,222058,168,38654
28.511,222063,169,38650
28.516,222064,168,38643
28.521,222058,169,38647
28.526,222064,168,38648
28.531,222066,168,38648
28.536,222069,168,38650
28.541,222085,171,38651
28.546,222109,170,38647
28.551,222098,169,38644
28.556,222104,169,38651
28.561,222113,169,38644
28.566,222143,169,38646
28.571,222129,169,38647
28.576,222154,169,38646
28.581,222167,168,38649
28.586,222176,169,38648
28.591,222163,168,38657
28.596,222192,169,38646
28.601,222181,169,38653
28.606,222214,169,38655
28.611,222225,168,38657
28.616,222222,169,38654
28.621,222231,168,38652
28.626,222237,169,38657
28.631,222279,168,38657
28.636,222278,169,38655
28.641,222296,168,38658
28.645,222315,168,38657
28.650,222307,168,38664
28.655,222320,170,38669
28.660,222327,168,38662
28.665,222345,170,38668
28.670,222365,168,38668
28.675,222368,170,38671
28.680,222391,168,38674
28.685,222418,170,38676
28.690,222435,168,38669
28.695,222501,168,38670
28.700,222457,168,38677
28.705,222493,169,38672
28.710,222498,168,38675
28.715,222500,173,38682
28.720,222520,169,38677
28.725,222547,173,38685
28.730,222568,170,38681
28.735,222567,169,38681
28.740,222589,169,38690
28.745,222615,171,38682
28.750,222606,168,38689
28.755,222638,170,38686
28.760,222650,169,38693
28.765,222676,172,38685
28.770,222659,168,38688
28.775,222686,171,38696
28.779,222705,168,38693
28.784,222714,170,38698
28.789,222748,169,38703
28.794,222787,177,38694
28.799,222778,168,38696
28.804,222801,173,38700
28.809,222832,168,38707
28.814,222845,171,38706
28.819,222895,168,38714
28.824,222887,170,38710
28.829,222913,168,38711
28.834,222929,173,38711
28.839,222946,168,38708
28.844,222969,172,38713
28.849,222997,168,38713
28.854,223018,174,38720
28.859,223038,168,38723
28.864,223049,172,38722
28.869,223085,168,38719
28.874,223104,171,38729
28.879,223132,169,38730
28.884,223144,173,38718
28.889,223162,168,38721
28.894,223172,173,38724
28.899,223195,168,38727
28.904,223207,171,38725
28.909,223223,168,38732
28.913,223255,173,38731
28.918,223256,168,38744
28.923,223287,171,38736
28.928,223310,168,38737
28.933,223319,175,38741
28.938,223236,168,38739
28.943,223347,171,38751
28.948,223391,168,38750
28.953,223418,174,38745
28.958,223415,168,38755
28.963,223438,172,38756
28.968,223460,168,38749
28.973,223488,171,38754
28.978,223508,168,38752
28.983,223528,173,38759
28.988,223552,168,38759
28.993,223566,174,38761
28.998,223592,168,38766
29.003,223623,172,38769
29.008,223626,168,38774
29.013,223662,175,38775
29.018,223676,168,38781
29.023,223683,173,38781
29.028,223715,168,38779
29.033,223752,171,38789
29.038,223772,168,38792
29.043,223794,171,38789
29.047,223804,168,38790
29.052,223813,174,38788
29.057,223849,168,38793
29.062,223865,171,38795
29.067,223895,168,38803
29.072,223893,175,38803
29.077,223893,168,38799
29.082,223889,173,38800
29.087,223873,169,38795
29.092,223881,172,38802
29.097,223860,168,38806
29.102,223846,170,38792
29.107,223837,169,38806
29.112,223793,172,38802
29.117,223735,168,38800
29.122,223692,171,38799
29.127,223636,168,38797
29.132,223592,173,38789
29.137,223542,168,38785
29.142,223500,173,38787
29.147,223449,168,38781
29.152,223413,171,38774
29.157,223372,168,38771
29.162,223350,172,38768
29.167,223306,168,38777
29.172,223282,170,38770
29.177,223267,168,38772
29.181,223229,174,38790
29.186,223207,170,38765
29.191,223179,172,38758
29.196,223144,168,38757
29.201,223134,170,38756
29.206,223107,168,38764
29.211,223106,172,38759
29.216,223052,169,38754
29.221,223019,169,38750
29.226,222986,168,38747
29.231,222941,170,38748
29.236,222908,168,38751
29.241,222894,169,38749
29.246,222858,170,38750
29.251,222829,170,38745
29.256,222774,168,38741
29.261,222767,169,38732
29.266,222721,171,38740
29.271,222679,170,38730
29.276,222673,169,38733
29.281,222639,171,38753
29.286,222598,171,38728
29.291,222584,169,38722
29.296,222538,169,38723
29.301,222505,168,38723
29.306,222497,171,38726
29.311,222485,169,38724
29.315,222471,169,38721
29.320,222450,168,38718
29.325,222448,171,38716
29.330,222457,170,38716
29.335,222453,171,38719
29.340,222473,168,38717
29.345,222459,169,38712
29.350,222465,170,38714
29.355,222470,171,38712
29.360,222416,168,38714
29.365,222445,169,38713
29.370,222462,169,38713
29.375,222459,170,38721
29.380,222465,169,38715
29.385,222463,171,38719
29.390,222470,168,38712
29.395,222448,169,38718
29.400,222455,169,38730
29.405,222475,171,38722
29.410,222470,168,38725
29.415,222474,173,38718
29.420,222456,168,38718
29.425,222466,171,38718
29.430,222481,168,38725
29.435,222477,171,38719
29.440,222478,168,38721
29.445,222480,169,38722
29.449,222469,169,38712
29.454,222468,171,38726
29.459,222467,168,38718
29.464,222491,170,38719
29.469,222522,169,38724
29.474,222530,172,38727
29.479,222542,168,38722
29.484,222531,172,38725
29.489,222543,168,38725
29.494,222555,171,38728
29.499,222579,168,38724
29.504,222578,174,38730
29.509,222606,168,38734
29.514,222597,172,38729
29.519,222605,168,38734
29.524,222629,173,38716
29.529,222635,168,38735
29.534,222646,174,38732
29.539,222676,168,38734
29.544,222671,172,38738
29.549,222683,168,38732
29.554,222687,171,38743
29.559,222701,168,38742
29.564,222722,173,38741
29.569,222740,168,38746
29.574,222742,174,38750
29.579,222755,168,38746
29.583,222791,172,38744
29.588,222797,168,38749
29.593,222811,171,38745
29.598,222812,168,38750
29.603,222840,173,38753
29.608,222870,168,38752
29.613,222856,171,38752
29.618,222867,168,38750
29.623,222885,171,38754
29.628,222929,168,38758
29.633,222931,175,38759
29.638,222938,168,38762
29.643,222959,172,38759
29.648,222992,168,38761
29.653,222993,171,38754
29.658,222992,168,38763
29.663,223033,173,38758
29.668,223036,168,38764
29.673,223058,168,38734
29.678,223061,168,38764
29.683,223060,171,38765
29.688,223093,168,38767
29.693,223094,173,38773
29.698,223113,168,38768
29.703,223137,171,38769
29.708,223140,168,38774
29.712,223158,173,38772
29.717,223164,168,38787
29.722,223179,174,38781
29.727,223197,168,38776
29.732,223218,172,38782
29.737,223228,168,38777
29.742,223244,170,38788
29.747,223269,168,38783
29.752,223270,173,38785
29.757,223302,168,38784
29.762,223314,171,38791
29.767,223343,168,38788
29.772,223348,172,38787
29.777,223370,168,38784
29.782,223394,170,38786
29.787,223419,168,38790
29.792,223440,173,38800
29.797,223461,168,38798
29.802,223469,171,38795
29.807,223478,168,38798
29.812,223516,174,38794
29.817,223513,168,38800
29.822,223521,170,38804
29.827,223537,169,38806
29.832,223551,172,38807
29.837,223581,168,38807
29.842,223603,171,38809
29.846,223622,168,38812
29.851,223637,173,38820
29.856,223657,168,38810
29.861,223682,170,38812
29.866,223690,168,38821
29.871,223724,170,38817
29.876,223750,170,38825
29.881,223745,171,38820
29.886,223779,168,38823
29.891,223787,169,38827
29.896,223807,170,38825
29.901,223828,171,38830
29.906,223839,169,38835
29.911,223858,169,38820
29.916,223852,169,38830
29.921,223893,169,38835
29.926,223920,168,38834
29.931,223909,169,38839
29.936,223943,168,38835
29.941,223959,171,38836
29.946,223970,170,38838
29.951,224007,169,38837
29.956,224008,169,38843
29.961,224028,168,38847
29.966,224045,171,38844
29.971,224066,171,38847
29.976,224062,169,38853
29.980,224082,169,38849
29.985,224064,168,38855
29.990,224071,168,38847
29.995,224067,171,38847
30.000,224018,169,38851
30.005,224014,169,38844
30.010,223967,169,38902
30.015,223928,170,38836
30.020,223886,169,38844
30.025,223840,169,38836
30.030,223781,168,38837
30.035,223729,171,38834
30.040,223666,168,38828
30.045,223619,169,38820
30.050,223570,168,38814
30.055,223522,172,38815
30.060,223605,168,38807
30.065,223455,169,38806
30.070,223439,169,38803
30.075,223394,172,38791
30.080,223370,168,38798
30.085,223335,170,38796
30.090,223303,168,38798
30.095,223285,169,38791
30.100,223253,169,38790
30.105,223221,171,38786
30.110,223209,169,38782
30.114,223184,172,38782
30.119,223145,168,38778
30.124,223114,171,38778
30.129,223072,168,38779
30.134,223059,169,38778
30.139,223003,168,38773
30.144,222958,172,38761
30.149,222934,168,38764
30.154,222906,170,38771
30.159,222881,168,38765
30.164,222843,171,38765
30.169,222819,168,38751
30.174,222770,170,38753
30.179,222741,169,38752
30.184,222730,173,38752
30.189,222693,168,38751
30.194,222656,171,38744
30.199,222632,168,38742
30.204,222618,171,38740
30.209,222588,168,38735
30.214,222587,171,38734
30.219,222550,168,38729
30.224,222540,170,38734
30.229,222539,168,38728
30.234,222534,174,38731
30.239,222536,168,38727
30.244,222544,172,38732
30.248,222546,168,38731
30.253,222530,171,38730
30.258,222528,168,38730
30.263,222541,174,38725
30.268,222532,168,38728
30.273,222514,172,38730
30.278,222527,168,38729
30.283,222515,171,38725
30.288,222506,168,38729
30.293,222519,174,38728
30.298,222511,168,38730
30.303,222506,174,38758
30.308,222489,168,38726
30.313,222495,172,38726
30.318,222492,168,38724
30.323,222499,175,38728
30.328,222505,168,38732
30.333,222522,173,38722
30.338,222512,168,38722
30.343,222515,171,38727
30.348,222527,168,38734
30.353,222525,172,38726
30.358,222522,168,38722
30.363,222544,175,38720
30.368,222529,168,38720
30.373,222531,173,38722
30.378,222546,168,38726
30.382,222563,171,38722
30.387,222556,168,38728
30.392,222580,173,38722
30.397,222564,168,38728
30.402,222603,174,38766
30.407,222584,168,38728
30.412,222586,173,38725
30.417,222603,168,38724
30.422,222593,171,38733
30.427,222596,168,38724
30.432,222613,173,38724
30.437,222617,168,38733
30.442,222639,170,38719
30.447,222634,168,38722
30.452,222642,170,38726
30.457,222646,168,38720
30.462,222643,172,38726
30.467,222658,168,38730
30.472,222671,173,38722
30.477,222683,168,38717
30.482,222693,171,38726
30.487,222721,168,38738
30.492,222716,174,38734
30.497,222733,168,38726
30.502,222747,173,38735
30.507,222724,168,38724
30.512,222737,170,38731
30.516,222767,168,38732
30.521,222753,172,38728
30.526,222790,168,38734
30.531,222778,170,38731
30.536,222790,169,38732
30.541,222802,171,38729
30.546,222811,168,38726
