df_hash,22ZHK4.EMHYEC
device,HZ2X61
project_hash,29R7
project_name,istanbul_aydin_university
person_hash,29R7.G6QH
person_label,V45
date_time_start,2025-10-27_15-00-12.639000_+03
date_time_start_unix,1761562812.639
date_time_end,2025-10-27_15-08-55.301000_+03
length_difference_noticed,no

time,ppg_ir,ppg_ambient,ppg_red
5.885,148987,211,180975
5.890,148963,209,180990
5.895,148937,208,180984
5.900,148935,207,180966
5.905,148912,205,180959
5.910,148893,204,180954
5.915,148886,207,180928
5.920,148854,211,180939
5.925,148855,209,180929
5.930,148841,207,180905
5.935,148834,205,180891
5.940,148807,204,180898
5.945,148810,202,180885
5.950,148796,201,180886
5.955,148790,211,180871
5.960,148785,211,180874
5.965,148767,205,180859
5.970,148757,207,180860
5.975,148753,206,180868
5.979,148756,205,180860
5.984,148762,204,180854
5.989,148751,203,180837
5.994,148745,201,180851
5.999,148751,212,180854
6.004,148729,210,180839
6.009,148738,207,180875
6.014,148734,211,180851
6.019,148723,209,180842
6.024,148717,208,180834
6.029,148707,206,180846
6.034,148718,204,180828
6.039,148705,203,180806
6.044,148708,202,180824
6.049,148704,209,180829
6.054,148695,207,180811
6.059,148690,205,180802
6.064,148682,208,180798
6.069,148702,206,180815
6.074,148689,204,180823
6.079,148705,203,180819
6.084,148706,202,180835
6.089,148688,210,180833
6.094,148715,209,180831
6.099,148719,208,180838
6.104,148708,207,180826
6.109,148708,207,180813
6.114,148702,204,180839
6.118,148713,203,180837
6.123,148713,203,180832
6.128,148708,201,180848
6.133,148723,211,180829
6.138,148704,208,180835
6.143,148716,206,180839
6.148,148727,204,180851
6.153,148725,203,180834
6.158,148750,203,180845
6.163,148735,204,180854
6.168,148744,202,180867
6.173,148726,211,180857
6.178,148736,207,180847
6.183,148731,206,180865
6.188,148736,202,180854
6.193,148733,212,180863
6.198,148722,210,180851
6.203,148737,209,180859
6.208,148731,201,180860
6.213,148731,210,180851
6.218,148736,208,180850
6.223,148736,206,180865
6.228,148747,204,180852
6.233,148729,203,180849
6.238,148733,212,180831
6.243,148736,210,180855
6.248,148736,207,180855
6.253,148739,205,180854
6.258,148743,207,180974
6.262,148767,205,180870
6.267,148770,203,180878
6.272,148783,203,180888
6.277,148757,211,180876
6.282,148781,210,180871
6.287,148779,206,180891
6.292,148768,206,180882
6.297,148784,203,180892
6.302,148786,202,180883
6.307,148790,204,180904
6.312,148796,203,180891
6.317,148790,201,180896
6.322,148804,211,180905
6.327,148805,208,180904
6.332,148805,207,180930
6.337,148825,205,180925
6.342,148818,204,180932
6.347,148835,202,180925
6.352,148842,202,180928
6.357,148848,201,180938
6.362,148846,211,180939
6.367,148857,210,180953
6.372,148868,209,180963
6.377,148874,206,180953
6.382,148870,206,180959
6.387,148874,204,180948
6.392,148890,204,180959
6.397,148896,202,180965
6.402,148913,205,180963
6.406,148901,206,180960
6.411,148907,205,180978
6.416,148923,203,180987
6.421,148927,202,180977
6.426,148936,212,180987
6.431,148951,210,181012
6.436,148950,208,181026
6.441,148962,207,181009
6.446,148960,206,181003
6.451,148961,210,181027
6.456,148964,209,181015
6.461,148969,210,181025
6.466,148984,209,181012
6.471,148977,209,181007
6.476,148972,207,180999
6.481,148989,207,181006
6.486,148990,206,181003
6.491,148993,206,181009
6.496,148983,206,180996
6.501,148998,211,180997
6.506,148988,209,180999
6.511,148973,210,180976
6.516,148980,209,180969
6.521,148949,209,180969
6.526,148953,207,180941
6.531,148932,205,180931
6.536,148906,204,180914
6.541,148892,205,180914
6.546,148874,203,180923
6.550,148866,207,180909
6.555,148851,206,180886
6.560,148835,206,180857
6.565,148824,205,180873
6.570,148806,204,180844
6.575,148775,203,180829
6.580,148756,202,180827
6.585,148752,212,180809
6.590,148738,209,180806
6.595,148723,208,180772
6.600,148716,201,180771
6.605,148692,210,180770
6.610,148680,208,180757
6.615,148684,208,180764
6.620,148668,207,180771
6.625,148657,206,180747
6.630,148658,205,180748
6.635,148656,204,180751
6.640,148631,203,180740
6.645,148638,203,180743
6.650,148624,205,180723
6.655,148615,204,180721
6.660,148620,203,180730
6.665,148606,202,180725
6.670,148607,211,180709
6.675,148579,210,180701
6.680,148572,208,180706
6.685,148580,207,180713
6.689,148559,205,180715
6.694,148567,208,180705
6.699,148566,207,180710
6.704,148560,206,180711
6.709,148555,204,180690
6.714,148565,203,180710
6.719,148549,202,180699
6.724,148547,212,180706
6.729,148533,209,180690
6.734,148530,207,180697
6.739,148536,206,180696
6.744,148531,208,180689
6.749,148526,205,180689
6.754,148540,204,180697
6.759,148543,201,180704
6.764,148539,212,180695
6.769,148557,210,180706
6.774,148543,209,180724
6.779,148555,208,180716
6.784,148548,208,180708
6.789,148553,207,180710
6.794,148550,199,180712
6.799,148555,210,180728
6.804,148553,209,180723
6.809,148556,208,180727
6.814,148569,207,180734
6.819,148562,205,180735
6.824,148564,205,180737
6.829,148568,204,180744
6.833,148572,203,180746
6.838,148567,204,180746
6.843,148579,205,180736
6.848,148563,205,180749
6.853,148573,205,180757
6.858,148573,204,180741
6.863,148563,204,180739
6.868,148574,202,180756
6.873,148586,202,180731
6.878,148576,210,180755
6.883,148577,210,180740
6.888,148569,208,180748
6.893,148574,212,180742
6.898,148584,209,180745
6.903,148576,208,180754
6.908,148581,206,180765
6.913,148574,204,180746
6.918,148584,203,180751
6.923,148591,202,180753
6.928,148602,210,180747
6.933,148592,208,180756
6.938,148589,207,180780
6.943,148600,210,180773
6.948,148600,207,180773
6.953,148607,207,180765
6.958,148618,205,180769
6.963,148621,204,180773
6.968,148638,203,180779
6.973,148605,203,180787
6.977,148636,203,180779
6.982,148627,203,180782
6.987,148642,205,180786
6.992,148651,206,180808
6.997,148648,206,180811
7.002,148650,206,180817
7.007,148655,204,180823
7.012,148658,203,180820
7.017,148673,202,180823
7.022,148677,202,180820
7.027,148681,200,180830
7.032,148690,211,180842
7.037,148722,205,180835
7.042,148699,209,180833
7.047,148701,207,180850
7.052,148717,206,180838
7.057,148714,204,180850
7.062,148707,203,180869
7.067,148725,201,180853
7.072,148723,210,180855
7.077,148723,208,180851
7.082,148736,207,180869
7.087,148737,211,180855
7.092,148754,209,180875
7.097,148768,206,180874
7.102,148767,207,180886
7.107,148764,205,180875
7.112,148764,204,180880
7.116,148787,202,180884
7.121,148787,212,180893
7.126,148792,210,180889
7.131,148800,208,180885
7.136,148800,201,180913
7.141,148831,212,180900
7.146,148815,210,180914
7.151,148819,209,180901
7.156,148833,207,180905
7.161,148830,206,180907
7.166,148836,204,180903
7.171,148834,203,180910
7.176,148842,202,180910
7.181,148846,202,180883
7.186,148871,204,180913
7.191,148853,202,180913
7.196,148870,201,180922
7.201,148856,211,180902
7.206,148853,210,180903
7.211,148859,209,180914
7.216,148840,208,180897
7.221,148833,208,180873
7.226,148827,206,180874
7.231,148833,209,180860
7.236,148801,211,180872
7.241,148785,210,180852
7.246,148766,209,180836
7.251,148752,208,180830
7.256,148736,207,180824
7.260,148734,205,180819
7.265,148712,205,180814
7.270,148710,204,180807
7.275,148678,203,180775
7.280,148679,206,180772
7.285,148653,205,180756
7.290,148638,203,180748
7.295,148606,202,180742
7.300,148604,201,180744
7.305,148609,200,180724
7.310,148584,210,180724
7.315,148577,209,180714
7.320,148574,207,180706
7.325,148564,206,180705
7.330,148549,210,180702
7.335,148541,209,180698
7.340,148538,208,180694
7.345,148534,207,180687
7.350,148527,206,180680
7.355,148502,206,180694
7.360,148508,205,180696
7.365,148475,206,180669
7.370,148489,204,180668
7.375,148482,205,180672
7.380,148476,207,180652
7.385,148476,207,180665
7.390,148482,206,180680
7.395,148477,205,180663
7.400,148462,204,180671
7.404,148447,204,180664
7.409,148466,203,180670
7.414,148458,202,180646
7.419,148449,201,180666
7.424,148442,212,180663
7.429,148440,204,180660
7.434,148435,202,180645
7.439,148418,201,180642
7.444,148422,211,180639
7.449,148427,208,180661
7.454,148425,207,180647
7.459,148429,204,180642
7.464,148413,203,180652
7.469,148429,202,180659
7.474,148423,200,180670
7.479,148430,208,180657
7.484,148439,207,180659
7.489,148444,206,180665
7.494,148429,204,180655
7.499,148430,203,180656
7.504,148437,202,180666
7.509,148440,211,180646
7.514,148444,209,180667
7.519,148433,208,180661
7.524,148435,200,180680
7.529,148445,210,180669
7.534,148448,209,180668
7.539,148442,207,180680
7.544,148457,207,180692
7.548,148455,204,180670
7.553,148458,204,180690
7.558,148458,203,180698
7.563,148462,202,180696
7.568,148457,201,180691
7.573,148464,205,180691
7.578,148449,203,180685
7.583,148459,203,180699
7.588,148457,202,180697
7.593,148456,212,180687
7.598,148465,210,180715
7.603,148466,209,180696
7.608,148496,207,180714
7.613,148494,206,180700
7.618,148476,204,180728
7.623,148496,202,180720
7.628,148491,202,180727
7.633,148505,211,180723
7.638,148497,208,180733
7.643,148504,207,180738
7.648,148507,206,180756
7.653,148512,205,180746
7.658,148517,203,180763
7.663,148522,203,180756
7.668,148506,201,180742
7.673,148539,204,180753
7.678,148536,203,180754
7.683,148543,202,180747
7.687,148542,200,180751
7.692,148541,211,180766
7.697,148542,209,180757
7.702,148546,209,180775
7.707,148556,207,180752
7.712,148552,205,180770
7.717,148560,204,180777
7.722,148568,207,180781
7.727,148581,206,180791
7.732,148593,205,180790
7.737,148589,204,180802
7.742,148580,205,180794
7.747,148608,204,180812
7.752,148617,204,180820
7.757,148617,203,180813
7.762,148625,203,180807
7.767,148664,204,180806
7.772,148624,205,180812
7.777,148637,204,180832
7.782,148650,203,180834
7.787,148654,202,180838
7.792,148663,201,180846
7.797,148672,210,180865
7.802,148675,210,180859
7.807,148691,208,180855
7.812,148699,207,180862
7.817,148701,209,180863
7.822,148700,209,180877
7.827,148712,208,180887
7.831,148713,208,180873
7.836,148731,207,180898
7.841,148744,206,180916
7.846,148756,205,180914
7.851,148751,205,180927
7.856,148772,204,180933
7.861,148769,204,180935
7.866,148791,211,180964
7.871,148793,202,180967
7.876,148817,201,180960
7.881,148820,201,180963
7.886,148831,211,180961
7.891,148812,210,180977
7.896,148837,209,180988
7.901,148849,209,180986
7.906,148860,208,180986
7.911,148870,205,181026
7.916,148873,203,181006
7.921,148888,202,181011
7.926,148888,211,181013
7.931,148893,209,181009
7.936,148895,207,181025
7.941,148877,205,181015
7.946,148868,204,181011
7.951,148856,203,181019
7.956,148862,201,180995
7.961,148845,209,180980
7.966,148827,203,180993
7.971,148813,202,180989
7.975,148802,211,180963
7.980,148787,209,180961
7.985,148772,207,180945
7.990,148765,205,180943
7.995,148736,204,180927
8.000,148726,203,180936
8.005,148704,202,180913
8.010,148706,207,180920
8.015,148684,205,180898
8.020,148666,204,180910
8.025,148666,203,180910
8.030,148657,202,180885
8.035,148628,202,180874
8.040,148633,202,180871
8.045,148621,202,180875
8.050,148609,201,180868
8.055,148620,211,180863
8.060,148596,204,180856
8.065,148576,202,180860
8.070,148566,201,180845
8.075,148577,211,180856
8.080,148586,209,180861
8.085,148570,208,180846
8.090,148571,207,180851
8.095,148566,206,180843
8.100,148577,205,180845
8.105,148553,205,180863
8.110,148547,208,180850
8.114,148545,207,180842
8.119,148543,206,180832
8.124,148551,205,180824
8.129,148541,204,180842
8.134,148526,203,180846
8.139,148526,203,180831
8.144,148509,202,180825
8.149,148527,201,180827
8.154,148519,211,180826
8.159,148523,207,180835
8.164,148524,207,180850
8.169,148517,207,180847
8.174,148529,206,180838
8.179,148514,205,180859
8.184,148534,206,180843
8.189,148523,205,180858
8.194,148529,204,180855
8.199,148539,203,180866
8.204,148547,203,180871
8.209,148532,210,180867
8.214,148530,210,180871
8.219,148525,209,180881
8.224,148541,207,180871
8.229,148538,207,180868
8.234,148541,206,180870
8.239,148545,205,180879
8.244,148556,204,180872
8.249,148552,202,180890
8.254,148554,205,180949
8.258,148583,202,180888
8.263,148555,204,180877
8.268,148546,202,180899
8.273,148556,202,180879
8.278,148558,201,180901
8.283,148551,211,180881
8.288,148559,208,180881
8.293,148561,207,180890
8.298,148551,205,180892
8.303,148528,209,180882
8.308,148555,206,180899
8.313,148568,206,180890
8.318,148550,204,180896
8.323,148558,202,180895
8.328,148571,201,180890
8.333,148566,201,180915
8.338,148573,210,180910
8.343,148560,209,180907
8.348,148568,207,180892
8.353,148580,201,180895
8.358,148559,210,180912
8.363,148577,264,180896
8.368,148580,209,180895
8.373,148583,209,180916
8.378,148569,207,180918
8.383,148582,208,180902
8.388,148581,205,180919
8.393,148587,205,180924
8.398,148603,204,180923
8.402,148609,210,180922
8.407,148600,208,180921
8.412,148619,208,180946
8.417,148612,205,180918
8.422,148624,204,180934
8.427,148621,203,180943
8.432,148621,202,180954
8.437,148644,201,180945
8.442,148644,212,180968
8.447,148645,208,180955
8.452,148662,203,180961
8.457,148652,201,180973
8.462,148670,201,180970
8.467,148672,210,180973
8.472,148669,208,180977
8.477,148685,207,180980
8.482,148694,205,180981
8.487,148703,204,180979
8.492,148693,203,180981
8.497,148695,201,181004
8.502,148716,204,180991
8.507,148729,202,181000
8.512,148733,201,180991
8.517,148721,210,181002
8.522,148731,208,181015
8.527,148737,206,181014
8.532,148742,205,181009
8.537,148736,204,181020
8.542,148755,203,181017
8.546,148750,209,181021
8.551,148770,205,181016
8.556,148777,204,181040
8.561,148786,204,181043
8.566,148786,203,181045
8.571,148807,201,181047
8.576,148798,210,181059
8.581,148804,209,181059
8.586,148820,208,181073
8.591,148850,206,181072
8.596,148848,210,181110
8.601,148842,204,181079
8.606,148878,203,181102
8.611,148871,202,181096
8.616,148877,200,181111
8.621,148881,209,181105
8.626,148877,207,181098
8.631,148889,205,181115
8.636,148891,203,181097
8.641,148901,202,181109
8.646,148890,205,181109
8.651,148925,204,181116
8.656,148915,203,181112
8.661,148929,201,181132
8.666,148926,211,181129
8.671,148924,209,181124
8.676,148924,207,181119
8.681,148909,205,181089
8.685,148901,204,181099
8.690,148886,203,181079
8.695,148886,206,181081
8.700,148891,204,181088
8.705,148874,204,181076
8.710,148858,203,181103
8.715,148845,201,181057
8.720,148838,201,181066
8.725,148805,210,181041
8.730,148798,207,181047
8.735,148792,206,181032
8.740,148786,205,181026
8.745,148763,209,181016
8.750,148754,207,181007
8.755,148734,206,180999
8.760,148720,205,181001
8.765,148717,203,180982
8.770,148691,201,180985
8.775,148702,201,180972
8.780,148706,211,180962
8.785,148693,210,180975
8.790,148669,211,180997
8.795,148668,201,180976
8.800,148665,210,180961
8.805,148660,210,180979
8.810,148666,209,180957
8.815,148662,208,180959
8.820,148644,205,180972
8.825,148638,205,180948
8.829,148648,204,180955
8.834,148640,203,180949
8.839,148646,205,180958
8.844,148648,205,180960
8.849,148628,202,180970
8.854,148645,202,180960
8.859,148639,201,180966
8.864,148637,211,180962
8.869,148635,209,180973
8.874,148618,209,180965
8.879,148625,207,180958
8.884,148627,206,180957
8.889,148622,209,180959
8.894,148616,208,180961
8.899,148630,206,180962
8.904,148618,205,180969
8.909,148640,204,180974
8.914,148630,203,180988
8.919,148642,202,180994
8.924,148658,203,181007
8.929,148659,201,181000
8.934,148665,212,180999
8.939,148648,203,181002
8.944,148668,203,181019
8.949,148661,201,181021
8.954,148668,201,181022
8.959,148683,209,181040
8.964,148679,208,181036
8.969,148687,206,181052
8.973,148684,205,181044
8.978,148691,203,181044
8.983,148695,202,181052
8.988,148692,210,181050
8.993,148692,210,181052
8.998,148705,207,181062
9.003,148705,207,181061
9.008,148706,205,181079
9.013,148721,204,181072
9.018,148715,202,181070
9.023,148706,202,181069
9.028,148713,211,181068
9.033,148715,211,181079
9.038,148711,203,181087
9.043,148737,203,181082
9.048,148728,202,181083
9.053,148719,202,181078
9.058,148728,211,181111
9.063,148752,211,181086
9.068,148740,209,181108
9.073,148748,208,181125
9.078,148766,207,181114
9.083,148736,218,181118
9.088,148757,205,181130
9.093,148763,204,181123
9.098,148774,203,181146
9.103,148778,204,181129
9.108,148767,202,181138
9.112,148777,201,181153
9.117,148777,211,181148
9.122,148799,211,181150
9.127,148798,209,181155
9.132,148796,201,181168
9.137,148813,211,181168
9.142,148811,209,181165
9.147,148823,207,181175
9.152,148826,206,181180
9.157,148832,205,181197
9.162,148857,205,181197
9.167,148854,205,181200
9.172,148863,205,181209
9.177,148862,204,181199
9.182,148858,208,181209
9.187,148876,207,181223
9.192,148880,208,181223
9.197,148873,207,181226
9.202,148892,208,181230
9.207,148904,208,181256
9.212,148908,209,181237
9.217,148911,207,181247
9.222,148921,207,181226
9.227,148924,206,181239
9.232,148927,209,181260
9.237,148934,207,181261
9.242,148942,208,181279
9.247,148947,207,181258
9.252,148960,206,181283
9.256,148960,206,181272
9.261,148959,206,181266
9.266,148971,204,181280
9.271,148975,204,181296
9.276,148989,202,181277
9.281,148991,202,181292
9.286,148989,201,181283
9.291,148997,200,181294
9.296,149006,211,181302
9.301,149008,210,181322
9.306,149034,209,181330
9.311,149032,207,181336
9.316,149032,206,181325
9.321,149055,205,181329
9.326,149051,206,181295
9.331,149069,206,181335
9.336,149064,207,181335
9.341,149067,206,181312
9.346,149075,204,181331
9.351,149079,204,181346
9.356,149076,203,181346
9.361,149085,202,181347
9.366,149083,202,181339
9.371,149103,211,181356
9.376,149131,204,181364
9.381,149104,204,181353
9.386,149110,202,181357
9.391,149110,210,181373
9.396,149106,208,181348
9.400,149104,207,181351
9.405,149102,206,181348
9.410,149076,205,181348
9.415,149077,204,181318
9.420,149057,204,181321
9.425,149036,209,181312
9.430,149039,208,181296
9.435,149019,207,181286
9.440,148999,206,181285
9.445,148976,207,181287
9.450,148985,204,181263
9.455,148967,204,181253
9.460,148955,202,181264
9.465,148926,202,181261
9.470,148932,211,181235
9.475,148915,204,181229
9.480,148907,202,181242
9.485,148913,202,181225
9.490,148896,201,181232
9.495,148893,201,181231
9.500,148892,201,181222
9.505,148876,212,181218
9.510,148880,210,181212
9.515,148872,209,181219
9.520,148867,208,181234
9.525,148866,202,181211
9.530,148859,211,181217
9.535,148869,211,181222
9.540,148860,208,181216
9.544,148862,207,181214
9.549,148874,204,181219
9.554,148857,203,181221
9.559,148851,202,181220
9.564,148842,201,181211
9.569,148849,201,181213
9.574,148852,204,181206
9.579,148837,204,181222
9.584,148836,204,181211
9.589,148853,202,181226
9.594,148845,202,181210
9.599,148835,210,181202
9.604,148832,209,181209
9.609,148841,207,181212
9.614,148844,206,181231
9.619,148847,204,181217
9.624,148855,208,181232
9.629,148846,205,181218
9.634,148845,205,181220
9.639,148857,203,181237
9.644,148860,202,181228
9.649,148864,211,181233
9.654,148873,211,181235
9.659,148867,210,181248
9.664,148852,209,181238
9.669,148881,202,181240
9.674,148872,205,181245
9.679,148883,202,181239
9.683,148871,201,181255
9.688,148890,210,181254
9.693,148885,208,181251
9.698,148881,206,181255
9.703,148897,206,181246
9.708,148887,204,181248
9.713,148901,202,181263
9.718,148902,209,181271
9.723,148895,210,181263
9.728,148896,208,181265
9.733,148901,207,181272
9.738,148893,204,181258
9.743,148904,204,181262
9.748,148892,202,181257
9.753,148903,212,181257
9.758,148903,209,181248
9.763,148892,210,181246
9.768,148896,203,181266
9.773,148897,202,181263
9.778,148917,211,181273
9.783,148916,210,181272
9.788,148914,208,181273
9.793,148932,207,181302
9.798,148925,205,181283
9.803,148930,205,181288
9.808,148948,203,181292
9.813,148926,202,181304
9.818,148932,204,181299
9.823,148944,203,181304
9.827,148929,202,181297
9.832,148941,211,181284
9.837,148950,209,181301
9.842,148946,207,181300
9.847,148949,206,181297
9.852,148958,204,181301
9.857,148959,202,181307
9.862,148970,204,181274
9.867,148976,204,181321
9.872,149000,204,181321
9.877,148978,202,181323
9.882,148997,202,181330
9.887,149002,212,181336
9.892,149001,209,181332
9.897,149007,208,181327
9.902,149002,207,181325
9.907,149015,206,181342
9.912,149001,208,181335
9.917,149014,209,181348
9.922,149026,208,181330
9.927,149027,206,181342
9.932,149040,204,181346
9.937,149034,204,181347
9.942,149058,203,181366
9.947,149064,202,181362
9.952,149059,211,181375
9.957,149083,210,181378
9.962,149087,199,181367
9.967,149102,207,181390
9.971,149104,206,181405
9.976,149114,205,181404
9.981,149126,204,181413
9.986,149125,203,181397
9.991,149151,201,181418
9.996,149141,201,181427
10.001,149143,211,181417
10.006,149144,210,181412
10.011,149147,203,181427
10.016,149156,202,181430
10.021,149175,201,181448
10.026,149173,210,181450
10.031,149191,208,181458
10.036,149205,207,181462
10.041,149223,206,181460
10.046,149226,204,181468
10.051,149218,203,181460
10.056,149220,203,181467
10.061,149205,206,181462
10.066,149208,204,181454
10.071,149191,203,181457
10.076,149179,203,181417
10.081,149178,202,181430
10.086,149161,201,181424
10.091,149149,211,181422
10.096,149143,211,181404
10.101,149123,210,181406
10.106,149112,210,181407
10.110,149093,203,181371
10.115,149071,202,181375
10.120,149060,202,181360
10.125,149045,201,181361
10.130,149041,201,181351
10.135,149030,211,181352
10.140,149029,210,181346
10.145,149013,209,181323
10.150,149011,208,181328
10.155,149015,207,181340
10.160,149015,200,181329
10.165,148997,211,181331
10.170,148999,209,181331
10.175,148987,209,181333
10.180,149001,208,181330
10.185,148999,207,181350
10.190,148995,207,181334
10.195,148989,207,181352
10.200,148986,206,181351
10.205,148999,211,181342
10.210,148986,200,181355
10.215,148988,202,181347
10.220,148971,200,181349
10.225,148981,201,181357
10.230,148964,201,181352
10.235,148988,212,181350
10.240,148964,211,181363
10.245,148975,211,181341
10.250,148977,210,181353
10.254,148977,204,181359
10.259,148972,201,181381
10.264,148969,202,181343
10.269,148963,201,181367
10.274,148959,201,181371
10.279,148963,201,181372
10.284,148963,201,181367
10.289,148978,201,181381
10.294,148975,212,181372
10.299,148974,209,181387
10.304,148977,203,181402
10.309,149004,201,181379
10.314,149001,201,181388
10.319,148995,210,181384
10.324,148991,209,181399
10.329,148988,208,181383
10.334,149008,208,181396
10.339,148995,206,181387
10.344,149001,206,181398
10.349,149004,205,181405
10.354,149016,210,181414
10.359,149009,208,181423
10.364,149005,209,181412
10.369,149020,206,181402
10.374,149009,206,181414
10.379,149015,204,181411
10.384,149018,204,181404
10.389,149024,203,181409
10.394,149001,203,181426
10.398,149007,206,181406
10.403,149006,201,181424
10.408,149029,211,181416
10.413,149017,211,181396
10.418,149013,209,181410
10.423,149012,209,181408
10.428,149019,206,181421
10.433,149016,206,181417
10.438,149025,205,181405
10.443,149009,205,181408
10.448,149014,207,181406
10.453,149026,206,181414
10.458,149015,205,181412
10.463,149028,204,181413
10.468,149033,204,181415
10.473,149038,202,181417
10.478,149034,212,181418
10.483,149028,210,181424
10.488,149044,208,181431
10.493,149050,207,181438
10.498,149056,211,181439
10.503,149063,210,181444
10.508,149057,207,181438
10.513,149067,205,181450
10.518,149056,203,181430
10.523,149081,202,181434
10.528,149094,211,181430
10.533,149072,209,181443
10.538,149087,207,181443
10.542,149088,207,181445
10.547,149084,210,181454
10.552,149087,209,181463
10.557,149102,207,181460
10.562,149095,206,181439
10.567,149086,205,181467
10.572,149121,203,181468
10.577,149097,203,181468
10.582,149120,202,181467
10.587,149112,201,181465
10.592,149144,211,181471
10.597,149130,208,181473
10.602,149133,207,181470
10.607,149140,207,181461
10.612,149135,207,181475
10.617,149154,206,181479
10.622,149141,205,181467
10.627,149140,204,181486
10.632,149156,203,181472
10.637,149176,203,181475
10.642,149173,203,181507
10.647,149166,206,181472
10.652,149160,205,181453
10.657,149178,205,181477
10.662,149175,205,181490
10.667,149184,206,181484
10.672,149201,204,181486
10.677,149188,202,181497
10.681,149209,201,181480
10.686,149203,212,181492
10.691,149209,200,181489
10.696,149219,202,181496
10.701,149211,211,181482
10.706,149215,211,181480
10.711,149232,210,181483
10.716,149231,208,181476
10.721,149232,206,181481
10.726,149239,204,181482
10.731,149242,203,181495
10.736,149236,201,181478
10.741,149240,203,181472
10.746,149214,202,181455
10.751,149214,201,181447
10.756,149200,210,181434
10.761,149181,208,181425
10.766,149161,207,181400
10.771,149138,206,181391
10.776,149118,204,181373
10.781,149105,204,181377
10.786,149098,203,181356
10.791,149068,209,181346
10.796,149051,200,181342
10.801,149050,210,181332
10.806,149026,209,181317
10.811,149023,208,181311
10.816,148999,208,181304
10.821,148978,207,181289
10.825,148985,206,181281
10.830,148962,205,181275
10.835,148944,204,181266
10.840,148952,207,181262
10.845,148941,206,181262
10.850,148924,204,181247
10.855,148915,203,181243
10.860,148905,200,181235
10.865,148905,210,181235
10.870,148896,207,181224
10.875,148889,207,181232
10.880,148870,205,181233
10.885,148872,204,181219
10.890,148858,207,181210
10.895,148871,206,181217
10.900,148849,205,181215
10.905,148843,204,181206
10.910,148850,202,181207
10.915,148840,202,181203
10.920,148848,200,181214
10.925,148828,211,181217
10.930,148843,209,181217
10.935,148843,203,181249
10.940,148854,204,181236
10.945,148845,205,181243
10.950,148837,202,181230
10.955,148840,203,181248
10.960,148849,202,181242
10.965,148827,201,181254
10.969,148852,210,181243
10.974,148840,209,181235
10.979,148823,207,181253
10.984,148828,212,181230
10.989,148830,210,181251
10.994,148843,210,181246
10.999,148853,208,181256
11.004,148836,206,181259
11.009,148851,205,181262
11.014,148849,205,181265
11.019,148843,202,181267
11.024,148855,202,181278
11.029,148856,201,181273
11.034,148857,204,181269
11.039,148862,202,181280
11.044,148860,202,181275
11.049,148867,201,181283
11.054,148862,201,181286
11.059,148861,210,181275
11.064,148857,209,181262
11.069,148867,207,181269
11.074,148858,206,181257
11.079,148855,204,181271
11.084,148852,202,181290
11.089,148855,201,181282
11.094,148861,210,181291
11.099,148865,207,181298
11.104,148865,206,181297
11.108,148869,204,181284
11.113,148869,203,181287
11.118,148872,211,181297
11.123,148884,208,181294
11.128,148881,206,181289
11.133,148871,210,181300
11.138,148887,208,181312
11.143,148891,206,181308
11.148,148884,205,181318
11.153,148894,204,181331
11.158,148882,202,181322
11.163,148881,202,181340
11.168,148901,210,181318
11.173,148902,208,181322
11.178,148904,205,181332
11.183,148907,207,181344
11.188,148934,205,181319
11.193,148905,204,181335
11.198,148915,201,181338
11.203,148905,212,181323
11.208,148922,209,181339
11.213,148928,207,181342
11.218,148933,205,181330
11.223,148923,204,181340
11.228,148942,206,181355
11.233,148943,201,181338
11.238,148961,209,181354
11.243,148967,207,181348
11.248,148958,206,181358
11.252,148966,204,181375
11.257,148998,196,181365
11.262,148981,200,181361
11.267,148981,210,181374
11.272,148988,207,181376
11.277,148987,201,181361
11.282,148990,205,181374
11.287,149009,204,181379
11.292,149013,202,181396
11.297,149011,211,181378
11.302,149012,208,181376
11.307,149015,206,181389
11.312,149011,204,181390
11.317,149026,202,181399
11.322,149030,211,181410
11.327,149035,203,181410
11.332,149036,202,181403
11.337,149052,201,181409
11.342,149066,208,181405
11.347,149061,207,181420
11.352,149065,205,181421
11.357,149080,208,181401
11.362,149085,204,181273
11.367,149079,203,181434
11.372,149077,201,181444
11.377,149086,205,181436
11.382,149104,204,181431
11.387,149117,202,181447
11.392,149126,212,181451
11.396,149137,209,181455
11.401,149145,206,181465
11.406,149150,206,181477
11.411,149143,204,181467
11.416,149158,203,181462
11.421,149161,211,181458
11.426,149178,202,181476
11.431,149175,201,181476
11.436,149178,211,181473
11.441,149186,208,181484
11.446,149176,206,181484
11.451,149170,205,181477
11.456,149186,203,181470
11.461,149194,201,181488
11.466,149183,211,181473
11.471,149163,213,181446
11.476,149167,206,181459
11.481,149147,204,181439
11.486,149137,203,181430
11.491,149133,200,181427
11.496,149125,209,181431
11.501,149096,207,181415
11.506,149094,206,181411
11.511,149076,203,181396
11.516,149063,202,181391
11.521,149052,205,181369
11.526,149025,205,181372
11.531,149010,205,181362
11.536,148975,204,181358
11.540,148981,202,181331
11.545,148962,201,181319
11.550,148953,210,181307
11.555,148931,210,181314
11.560,148935,208,181305
11.565,148917,206,181300
11.570,148910,209,181301
11.575,148904,208,181288
11.580,148897,206,181294
11.585,148880,205,181287
11.590,148897,204,181286
11.595,148879,202,181279
11.600,148880,210,181282
11.605,148861,210,181272
11.610,148870,207,181271
11.615,148859,208,181262
11.620,148850,210,181277
11.625,148843,209,181254
11.630,148835,207,181259
11.635,148838,206,181258
11.640,148822,204,181258
11.645,148823,203,181260
11.650,148827,202,181256
11.655,148823,202,181253
11.660,148808,200,181250
11.665,148802,210,181243
11.670,148797,202,181252
11.675,148798,201,181249
11.679,148804,210,181229
11.684,148790,210,181239
11.689,148787,208,181234
11.694,148784,207,181239
11.699,148775,206,181227
11.704,148776,206,181217
11.709,148773,204,181226
11.714,148766,203,181228
11.719,148787,205,181243
11.724,148781,205,181237
11.729,148787,203,181238
11.734,148789,202,181246
11.739,148795,200,181262
11.744,148788,211,181258
11.749,148773,208,181236
11.754,148790,207,181237
11.759,148794,206,181231
11.764,148798,209,181226
11.769,148792,209,181227
11.774,148782,208,181231
11.779,148783,207,181229
11.784,148796,205,181230
11.789,148793,204,181225
11.794,148785,203,181220
11.799,148772,202,181235
11.804,148786,201,181231
11.809,148771,211,181226
11.814,148775,203,181222
11.819,148793,201,181227
11.823,148779,212,181229
11.828,148776,209,181233
11.833,148795,208,181225
11.838,148768,207,181224
11.843,148763,207,181218
11.848,148775,205,181235
11.853,148772,205,181218
11.858,148778,203,181216
11.863,148762,207,181205
11.868,148762,205,181215
11.873,148776,204,181212
11.878,148780,203,181223
11.883,148784,203,181219
11.888,148773,202,181218
11.893,148785,201,181219
11.898,148794,210,181228
11.903,148783,208,181230
11.908,148792,208,181245
11.913,148811,203,181248
11.918,148798,208,181233
11.923,148813,206,181241
11.928,148812,205,181236
11.933,148811,205,181246
11.938,148817,204,181254
11.943,148807,203,181253
11.948,148827,202,181250
11.953,148827,202,181253
11.958,148841,200,181249
11.963,148817,204,181256
11.967,148839,202,181254
11.972,148843,202,181259
11.977,148846,212,181274
11.982,148845,209,181264
11.987,148862,208,181269
11.992,148857,205,181271
11.997,148868,204,181289
12.002,148872,202,181292
12.007,148877,204,181281
12.012,148888,204,181292
12.017,148900,203,181298
12.022,148892,203,181274
12.027,148902,202,181292
12.032,148892,201,181298
12.037,148910,201,181291
12.042,148903,210,181296
12.047,148903,209,181287
12.052,148924,207,181290
12.057,148928,200,181297
12.062,148919,212,181302
12.067,148926,210,181308
12.072,148946,209,181301
12.077,148926,209,181312
12.082,148946,208,181308
12.087,148950,208,181319
12.092,148953,207,181301
12.097,148954,206,181302
12.102,148959,204,181308
12.106,148974,210,181343
12.111,148956,202,181314
12.116,148952,211,181326
12.121,148977,209,181301
12.126,148970,208,181297
12.131,148994,205,181311
12.136,149009,205,181316
12.141,149000,203,181334
12.146,149003,202,181339
12.151,149024,201,181324
12.156,149031,204,181344
12.161,149027,201,181348
12.166,149020,200,181349
12.171,149043,209,181338
12.176,149035,208,181341
12.181,149049,206,181354
12.186,149067,205,181359
12.191,149054,204,181352
12.196,149053,202,181359
12.201,149065,200,181367
12.206,149064,209,181357
12.211,149074,207,181357
12.216,149063,205,181354
12.221,149049,203,181352
12.226,149064,203,181333
12.231,149042,201,181327
12.236,149023,201,181315
12.241,149008,210,181299
12.246,148992,210,181294
12.250,148981,208,181258
12.255,148968,201,181274
12.260,148950,199,181266
12.265,148932,210,181265
12.270,148915,208,181234
12.275,148899,206,181224
12.280,148891,204,181212
12.285,148866,204,181220
12.290,148852,202,181208
12.295,148847,201,181204
12.300,148848,198,181194
12.305,148817,203,181189
12.310,148815,200,181179
12.315,148807,209,181152
12.320,148787,207,181162
12.325,148779,207,181153
12.330,148773,205,181141
12.335,148774,205,181141
12.340,148753,203,181148
12.345,148756,202,181146
12.350,148741,205,181141
12.355,148755,204,181140
12.360,148742,203,181126
12.365,148730,203,181131
12.370,148721,203,181126
12.375,148721,202,181141
12.380,148720,201,181123
12.385,148697,211,181106
12.390,148709,208,181120
12.394,148702,207,181111
12.399,148690,210,181112
12.404,148698,209,181113
12.409,148690,206,181109
12.414,148678,204,181114
12.419,148683,203,181107
12.424,148685,202,181109
12.429,148671,211,181108
12.434,148679,209,181111
12.439,148670,209,181090
12.444,148676,208,181129
12.449,148656,201,181093
12.454,148665,201,181112
12.459,148661,200,181110
12.464,148659,210,181111
12.469,148676,208,181110
12.474,148668,207,181114
12.479,148664,204,181113
12.484,148668,202,181112
12.489,148670,211,181106
12.494,148672,208,181120
12.499,148672,210,181117
12.504,148681,208,181128
12.509,148688,206,181110
12.514,148692,206,181121
12.519,148690,204,181127
12.524,148686,202,181135
12.529,148687,200,181126
12.533,148679,210,181130
12.538,148689,207,181114
12.543,148683,208,181157
12.548,148696,208,181125
12.553,148679,206,181126
12.558,148675,204,181114
12.563,148686,202,181126
12.568,148681,211,181116
12.573,148677,208,181129
12.578,148664,205,181123
12.583,148677,203,181109
12.588,148674,201,181119
12.593,148669,203,181099
12.598,148663,207,181107
12.603,148670,204,181097
12.608,148678,203,181115
12.613,148673,202,181106
12.618,148676,211,181117
12.623,148677,209,181119
12.628,148678,207,181117
12.633,148683,205,181116
12.638,148681,203,181125
12.643,148685,205,181127
12.648,148697,202,181105
12.653,148697,202,181126
12.658,148681,211,181119
12.663,148688,208,181122
12.668,148681,206,181113
12.673,148703,203,181119
12.677,148680,201,181107
12.682,148683,210,181120
12.687,148681,208,181119
12.692,148721,204,181099
12.697,148695,204,181095
12.702,148688,203,181079
12.707,148679,201,181096
12.712,148685,210,181084
12.717,148687,207,181086
12.722,148674,206,181074
12.727,148670,204,181058
12.732,148669,202,181051
12.737,148681,209,181061
12.742,148676,204,181065
12.747,148686,203,181062
12.752,148681,211,181055
12.757,148671,209,181061
12.762,148694,206,181054
12.767,148691,204,181061
12.772,148690,203,181052
12.777,148698,201,181048
12.782,148693,211,181062
12.787,148710,210,181041
12.792,148730,201,181050
12.797,148723,201,181063
12.802,148721,209,181064
12.807,148740,207,181067
12.812,148730,205,181072
12.817,148736,204,181065
12.821,148744,202,181066
12.826,148745,212,181058
12.831,148759,209,181075
12.836,148756,212,181077
12.841,148766,200,181085
12.846,148766,211,181068
12.851,148773,208,181078
12.856,148781,208,181058
12.861,148791,206,181107
12.866,148797,205,181091
12.871,148791,203,181093
12.876,148819,203,181107
12.881,148808,201,181103
12.886,148810,204,181099
12.891,148838,202,181116
12.896,148840,211,181121
12.901,148834,208,181131
12.906,148841,206,181127
12.911,148855,204,181156
12.916,148850,202,181130
12.921,148862,201,181126
12.926,148887,210,181134
12.931,148880,208,181150
12.936,148888,201,181144
12.941,148876,210,181137
12.946,148886,209,181144
12.951,148905,207,181146
12.956,148901,205,181159
12.961,148904,204,181165
12.965,148923,203,181153
12.970,148920,201,181170
12.975,148920,210,181162
12.980,148916,206,181165
12.985,148920,211,181142
12.990,148908,207,181148
12.995,148895,207,181130
13.000,148871,204,181118
13.005,148869,204,181108
13.010,148844,201,181089
13.015,148827,211,181082
13.020,148829,208,181099
13.025,148810,206,181082
13.030,148787,202,181062
13.035,148767,212,181060
13.040,148775,208,181058
13.045,148747,206,181033
13.050,148712,202,181027
13.055,148709,211,180996
13.060,148701,207,181004
13.065,148676,204,181008
13.070,148671,201,180978
13.075,148673,209,180990
13.080,148647,207,180975
13.085,148647,210,180980
13.090,148640,206,180973
13.095,148637,205,180983
13.100,148628,203,180970
13.104,148629,202,180966
13.109,148614,201,180962
13.114,148616,210,180967
13.119,148616,207,180956
13.124,148619,206,180955
13.129,148583,207,180953
13.134,148604,205,180962
13.139,148603,202,180977
13.144,148595,210,180945
13.149,148598,208,180959
13.154,148590,205,180952
13.159,148594,202,180962
13.164,148580,201,180963
13.169,148588,209,180950
13.174,148590,207,180970
13.179,148588,208,180947
13.184,148584,207,180947
13.189,148585,205,180935
13.194,148561,202,180942
13.199,148563,211,180939
13.204,148573,208,180949
13.209,148567,207,180949
13.214,148586,204,180954
13.219,148588,202,180981
13.224,148571,211,180991
13.229,148573,203,180961
13.234,148592,211,180978
13.239,148592,208,180982
13.244,148603,206,180999
13.248,148595,203,181010
13.253,148605,201,181002
13.258,148627,207,180999
13.263,148605,206,181000
13.268,148595,202,180991
13.273,148598,200,180989
13.278,148618,202,180995
13.283,148605,200,181015
13.288,148624,208,181032
13.293,148618,205,181016
13.298,148639,201,181019
13.303,148638,209,181035
13.308,148632,206,181035
13.313,148643,204,181031
13.318,148642,202,181041
13.323,148640,211,181037
13.328,148642,210,181021
13.333,148644,207,181021
13.338,148640,205,181029
13.343,148640,203,181027
13.348,148643,202,181030
13.353,148634,209,181032
13.358,148634,207,181035
13.363,148565,215,181034
13.368,148643,203,181048
13.373,148640,203,181036
13.378,148650,203,181050
13.383,148664,201,181052
13.388,148656,209,181050
13.392,148656,206,181061
13.397,148668,204,181071
13.402,148656,202,181070
13.407,148658,210,181073
13.412,148665,208,181066
13.417,148667,206,181068
13.422,148707,207,181066
13.427,148660,207,181063
13.432,148680,204,181076
13.437,148690,202,181082
13.442,148678,210,181075
13.447,148700,207,181077
13.452,148693,204,181091
13.457,148712,202,181098
13.462,148714,210,181115
13.467,148737,207,181135
13.472,148741,209,181109
13.477,148748,208,181123
13.482,148752,205,181140
13.487,148749,203,181132
13.492,148751,200,181143
13.497,148766,210,181149
13.502,148781,207,181163
13.507,148784,205,181158
13.512,148789,202,181177
13.517,148815,201,181193
13.522,148823,203,181199
13.527,148829,201,181197
13.531,148831,211,181209
13.536,148844,208,181206
13.541,148849,206,181222
13.546,148865,204,181236
13.551,148855,202,181227
13.556,148857,201,181223
13.561,148870,210,181236
13.566,148879,207,181230
13.571,148881,205,181246
13.576,148883,204,181228
13.581,148900,202,181244
13.586,148893,211,181247
13.591,148911,209,181250
13.596,148920,207,181254
13.601,148937,204,181263
13.606,148930,202,181267
13.611,148939,210,181267
13.616,148942,209,181268
13.621,148952,201,181288
13.626,148950,210,181293
13.631,148958,206,181276
13.636,148967,206,181279
13.641,148963,203,181295
13.646,148971,203,181301
13.651,148978,201,181297
13.656,148997,210,181305
13.661,149009,208,181307
13.666,149003,212,181301
13.671,149010,208,181325
13.675,149009,208,181319
13.680,149028,205,181325
13.685,149034,204,181337
13.690,149037,202,181345
13.695,149046,201,181337
13.700,149037,209,181325
13.705,149025,207,181335
13.710,149031,205,181301
13.715,149049,209,181300
13.720,148983,202,181305
13.725,148985,202,181273
13.730,148958,210,181262
13.735,148957,209,181268
13.740,148942,207,181248
13.745,148932,205,181237
13.750,148905,203,181248
13.755,148882,202,181208
13.760,148887,201,181223
13.765,148859,204,181208
13.770,148850,201,181209
13.775,148824,210,181190
13.780,148811,209,181178
13.785,148791,209,181170
13.790,148787,209,181149
13.795,148783,209,181147
13.800,148771,207,181135
13.805,148751,207,181148
13.810,148759,207,181121
13.815,148738,212,181120
13.819,148734,200,181119
13.824,148711,201,181125
13.829,148723,201,181096
13.834,148707,201,181089
13.839,148706,201,181117
13.844,148707,202,181121
13.849,148696,201,181102
13.854,148698,202,181084
13.859,148691,201,181092
13.864,148678,205,181079
13.869,148674,204,181067
13.874,148654,205,181072
13.879,148659,204,181056
13.884,148639,204,181070
13.889,148650,204,181059
13.894,148647,203,181069
13.899,148642,202,181049
13.904,148647,202,181063
13.909,148649,206,181095
13.914,148642,206,181053
13.919,148628,207,181045
13.924,148626,208,181046
13.929,148636,207,181055
13.934,148629,208,181063
13.939,148628,207,181056
13.944,148630,207,181047
13.949,148645,206,181033
13.954,148635,205,181047
13.959,148606,209,181043
13.963,148639,208,181080
13.968,148651,208,181065
13.973,148645,206,181061
13.978,148647,205,181047
13.983,148649,205,181064
13.988,148654,204,181068
13.993,148652,203,181062
13.998,148658,201,181069
14.003,148669,212,181064
14.008,148664,205,181084
14.013,148659,209,181080
14.018,148649,208,181074
14.023,148659,207,181065
14.028,148655,207,181061
14.033,148652,207,181068
14.038,148652,208,181066
14.043,148638,207,181065
14.048,148635,208,181050
14.053,148649,209,181054
14.058,148651,202,181074
14.063,148646,201,181059
14.068,148661,201,181069
14.073,148651,201,181071
14.078,148646,201,181067
14.083,148642,211,181069
14.088,148642,210,181063
14.093,148665,209,181065
14.098,148656,209,181076
14.102,148660,209,181066
14.107,148674,202,181068
14.112,148664,202,181079
14.117,148664,202,181078
14.122,148666,203,181084
14.127,148659,204,181078
14.132,148669,205,181091
14.137,148681,205,181092
14.142,148696,205,181100
14.147,148680,205,181097
14.152,148707,205,181110
14.157,148699,204,181086
14.162,148707,204,181098
14.167,148719,204,181094
14.172,148700,201,181113
14.177,148714,201,181115
14.182,148717,200,181118
14.187,148711,201,181122
14.192,148720,200,181120
14.197,148734,211,181110
14.202,148731,199,181134
14.207,148745,203,181113
14.212,148753,202,181137
14.217,148764,203,181134
14.222,148762,203,181138
14.227,148772,203,181147
14.232,148758,202,181143
14.237,148775,202,181136
14.242,148789,200,181144
14.246,148772,211,181146
14.251,148781,203,181150
14.256,148785,203,181234
14.261,148796,201,181155
14.266,148788,202,181147
14.271,148794,202,181147
14.276,148820,202,181175
14.281,148817,202,181164
14.286,148826,203,181170
14.291,148839,201,181180
14.296,148830,201,181182
14.301,148840,204,181185
14.306,148852,205,181178
14.311,148874,205,181204
14.316,148864,206,181200
14.321,148873,205,181187
14.326,148875,206,181188
14.331,148887,207,181175
14.336,148883,207,181205
14.341,148898,206,181193
14.346,148896,206,181185
14.351,148884,210,181190
14.356,148902,210,181204
14.361,148913,200,181194
14.366,148907,202,181196
14.371,148918,202,181205
14.376,148922,202,181211
14.381,148926,201,181213
14.386,148908,202,181204
14.390,148916,201,181195
14.395,148888,202,181193
14.400,148886,201,181161
14.405,148860,201,181159
14.410,148835,211,181152
14.415,148843,211,181140
14.420,148826,210,181121
14.425,148808,210,181131
14.430,148798,210,181122
14.435,148760,210,181098
14.440,148755,209,181087
14.445,148750,208,181080
14.450,148721,202,181063
14.455,148713,202,181067
14.460,148684,201,181059
14.465,148678,211,181052
14.470,148667,210,181029
14.475,148664,211,181040
14.480,148648,210,181032
14.485,148638,210,181020
14.490,148637,208,181008
14.495,148616,202,181016
14.500,148621,201,181001
14.505,148610,201,181004
14.510,148601,200,180999
14.515,148599,211,180986
14.520,148592,209,181004
14.525,148579,209,180977
14.529,148577,208,180977
14.534,148562,207,180967
14.539,148570,205,180968
14.544,148557,210,180975
14.549,148541,209,180960
14.554,148534,208,180970
14.559,148549,208,180972
14.564,148530,208,180967
14.569,148531,207,180969
14.574,148531,207,180971
14.579,148523,207,180951
14.584,148522,208,180953
14.589,148529,207,180964
14.594,148503,200,180959
14.599,148516,210,180948
14.604,148516,211,180947
14.609,148502,210,180957
14.614,148493,209,180944
14.619,148493,208,180940
14.624,148500,209,180941
14.629,148501,207,180949
14.634,148506,206,180960
14.639,148504,206,180974
14.644,148515,209,180958
14.649,148522,209,180958
14.654,148523,207,180958
14.659,148507,206,180970
14.664,148513,207,180966
14.669,148516,206,180978
14.673,148532,205,180966
14.678,148519,204,180977
14.683,148540,204,180972
14.688,148531,208,181026
14.693,148539,207,180980
14.698,148526,206,180999
14.703,148538,206,181000
14.708,148512,205,180976
14.713,148540,204,180995
14.718,148534,204,181011
14.723,148535,204,180994
14.728,148524,203,180986
14.733,148533,202,180991
14.738,148495,205,180989
14.743,148527,206,180990
14.748,148534,205,180985
14.753,148525,206,180991
14.758,148520,205,180993
14.763,148540,206,180997
14.768,148526,205,180994
14.773,148523,205,180974
14.778,148519,205,180984
14.783,148527,204,180992
14.788,148528,209,180976
14.793,148542,208,180985
14.798,148543,208,181007
14.803,148536,209,180996
14.808,148536,209,181003
14.813,148554,208,181012
14.817,148563,208,181008
14.822,148551,207,181003
14.827,148553,206,181009
14.832,148553,206,181009
14.837,148575,203,181008
14.842,148571,204,181001
14.847,148569,204,180998
14.852,148581,204,181019
14.857,148584,204,181008
14.862,148581,204,181023
14.867,148580,203,181012
14.872,148596,203,181032
14.877,148604,204,181016
14.882,148601,203,181025
14.887,148606,207,181021
14.892,148613,207,181025
14.897,148628,206,181023
14.902,148616,205,181046
14.907,148623,205,181036
14.912,148619,206,181027
14.917,148634,206,181029
14.922,148634,206,181048
14.927,148633,206,181040
14.932,148641,207,181024
14.937,148660,212,181038
14.942,148644,200,181064
14.947,148652,201,181047
14.952,148671,201,181056
14.957,148684,202,181046
14.961,148683,202,181061
14.966,148689,203,181064
14.971,148702,203,181084
14.976,148700,203,181059
14.981,148714,206,181083
14.986,148728,207,181090
14.991,148720,207,181083
14.996,148745,208,181105
15.001,148730,208,181108
15.006,148741,210,181108
15.011,148755,209,181109
15.016,148754,210,181126
15.021,148760,209,181133
15.026,148773,210,181129
15.031,148783,203,181136
15.036,148792,203,181140
15.041,148792,201,181154
15.046,148805,202,181164
15.051,148811,201,181146
15.056,148828,201,181152
15.061,148826,201,181143
15.066,148839,201,181165
15.071,148833,211,181174
15.076,148849,210,181166
15.081,148847,204,181170
15.086,148841,204,181169
15.091,148855,203,181168
15.096,148856,203,181174
15.100,148844,203,181171
15.105,148837,205,181153
15.110,148827,204,181155
15.115,148805,204,181141
15.120,148803,203,181136
15.125,148805,204,181124
15.130,148799,202,181115
15.135,148750,208,181103
15.140,148730,207,181091
15.145,148712,208,181083
15.150,148719,206,181070
15.155,148676,206,181058
15.160,148669,205,181042
15.165,148650,205,181022
15.170,148631,205,181030
15.175,148626,205,181023
15.180,148607,208,180997
15.185,148592,209,180998
15.190,148577,208,180998
15.195,148561,208,180980
15.200,148534,207,180976
15.205,148548,207,180967
15.210,148508,206,180948
15.215,148510,206,180925
15.220,148478,206,180911
15.225,148470,207,180912
15.230,148464,211,180893
15.235,148452,211,180889
15.240,148443,208,180880
15.244,148421,208,180884
15.249,148436,207,180864
15.254,148408,208,180864
15.259,148413,206,180856
15.264,148406,206,180847
15.269,148412,204,180851
15.274,148393,208,180848
15.279,148394,207,180850
15.284,148377,209,180846
15.289,148381,208,180827
15.294,148371,208,180827
15.299,148348,207,180817
15.304,148357,207,180826
15.309,148345,207,180813
15.314,148350,205,180804
15.319,148349,204,180822
15.324,148340,208,180808
15.329,148344,207,180825
15.334,148345,207,180828
15.339,148355,205,180823
15.344,148347,204,180827
15.349,148348,203,180845
15.354,148368,203,180861
15.359,148352,203,180845
15.364,148369,204,180850
15.369,148357,204,180859
15.374,148374,208,180853
15.379,148380,208,180856
15.384,148370,207,180867
15.388,148372,207,180857
15.393,148379,207,180877
15.398,148373,207,180878
15.403,148379,207,180876
15.408,148386,207,180887
15.413,148380,208,180879
15.418,148389,209,180900
15.423,148382,202,180885
15.428,148392,201,180897
15.433,148393,201,180880
15.438,148386,200,180902
15.443,148380,211,180882
15.448,148396,210,180887
15.453,148379,209,180895
15.458,148398,208,180888
15.463,148398,208,180883
15.468,148398,209,180907
15.473,148398,211,180894
15.478,148387,210,180891
15.483,148401,208,180920
15.488,148404,207,180914
15.493,148397,206,180910
15.498,148401,206,180909
15.503,148398,206,180936
15.508,148408,206,180909
15.513,148404,205,180923
15.518,148396,208,180900
15.523,148404,202,180907
15.527,148412,201,180924
15.532,148408,201,180931
15.537,148438,211,180928
15.542,148428,210,180938
15.547,148429,210,180943
15.552,148446,209,180953
15.557,148436,208,180949
15.562,148451,207,180958
15.567,148454,202,180956
15.572,148457,204,180963
15.577,148453,203,180957
15.582,148463,202,180972
15.587,148471,202,180959
15.592,148464,200,180971
15.597,148478,201,180980
15.602,148481,210,180989
15.607,148489,211,180983
15.612,148502,209,180983
15.617,148495,204,180971
15.622,148506,203,180981
15.627,148503,203,180995
15.632,148508,203,181005
15.637,148517,203,181000
15.642,148517,203,181002
15.647,148525,203,181008
15.652,148532,202,180996
15.657,148541,203,181014
15.662,148551,203,181024
15.667,148549,211,181017
15.671,148546,211,181013
15.676,148542,211,181029
15.681,148565,211,181003
15.686,148576,201,181041
15.691,148553,211,181021
15.696,148577,210,181029
15.701,148576,209,181044
15.706,148589,210,181044
15.711,148587,210,181046
15.716,148591,209,181055
15.721,148602,208,181050
15.726,148598,210,181056
15.731,148603,209,181065
15.736,148619,210,181065
15.741,148629,210,181052
15.746,148631,211,181056
15.751,148638,211,181071
15.756,148646,201,181069
15.761,148654,203,181059
15.766,148659,205,181075
15.771,148645,205,181079
15.776,148659,207,181088
15.781,148664,207,181087
15.786,148670,208,181076
15.791,148668,207,181073
15.796,148685,208,181096
15.801,148695,207,181082
15.806,148688,208,181087
15.811,148699,201,181086
15.815,148688,201,181087
15.820,148676,201,181079
15.825,148668,201,181061
15.830,148652,201,181054
15.835,148646,203,181059
15.840,148613,202,181040
15.845,148607,204,181008
15.850,148589,203,181003
15.855,148575,203,181005
15.860,148559,207,180979
15.865,148546,208,180982
15.870,148514,207,180972
15.875,148503,208,180947
15.880,148483,207,180941
15.885,148457,207,180928
15.890,148449,206,180919
15.895,148424,207,180901
15.900,148426,207,180901
15.905,148400,209,180887
15.910,148395,201,180872
15.915,148374,211,180874
15.920,148369,200,180866
15.925,148363,201,180869
15.930,148360,201,180868
15.935,148341,201,180851
15.940,148341,200,180832
15.945,148329,212,180828
15.950,148313,211,180830
15.955,148326,211,180836
15.959,148309,208,180828
15.964,148308,209,180822
15.969,148301,207,180820
15.974,148307,207,180811
15.979,148278,206,180809
15.984,148281,205,180811
15.989,148266,205,180798
15.994,148263,206,180806
15.999,148259,205,180805
16.004,148252,205,180797
16.009,148258,203,180810
16.014,148259,204,180803
16.019,148242,203,180815
16.024,148239,204,180795
16.029,148235,204,180792
16.034,148221,204,180803
16.039,148230,203,180807
16.044,148228,203,180802
16.049,148222,202,180808
16.054,148222,207,180803
16.059,148228,207,180794
16.064,148237,206,180812
16.069,148233,205,180809
16.074,148249,205,180810
16.079,148242,204,180828
16.084,148242,205,180831
16.089,148251,204,180833
16.094,148245,203,180830
16.098,148260,203,180841
16.103,148270,206,180850
16.108,148260,206,180844
16.113,148260,206,180854
16.118,148277,205,180851
16.123,148271,204,180866
16.128,148272,204,180869
16.133,148288,204,180878
16.138,148283,203,180875
16.143,148278,202,180873
16.148,148287,202,180861
16.153,148294,206,180874
16.158,148276,205,180881
16.163,148288,205,180887
16.168,148292,204,180877
16.173,148282,203,180886
16.178,148282,203,180878
16.183,148293,202,180870
16.188,148296,201,180890
16.193,148280,201,180879
16.198,148284,210,180888
16.203,148287,208,180880
16.208,148298,206,180890
16.213,148297,204,180889
16.218,148293,204,180904
16.223,148299,203,180895
16.228,148296,202,180908
16.233,148311,202,180923
16.238,148309,201,180907
16.242,148325,201,180926
16.247,148324,201,180961
16.252,148308,205,180931
16.257,148346,202,180930
16.262,148325,201,180932
16.267,148328,201,180926
16.272,148338,211,180937
16.277,148347,210,180936
16.282,148346,209,180946
16.287,148364,208,180939
16.292,148351,208,180940
16.297,148365,200,180958
16.302,148361,210,180950
16.307,148379,210,180968
16.312,148389,209,180979
16.317,148388,208,180975
16.322,148396,207,180975
16.327,148402,207,180982
16.332,148406,206,180992
16.337,148413,206,180982
16.342,148422,204,181008
16.347,148411,209,180997
16.352,148410,208,181002
16.357,148431,207,181003
16.362,148419,210,181009
16.367,148434,207,181008
16.372,148434,205,181021
16.377,148443,206,181008
16.382,148465,205,181035
16.386,148456,205,181030
16.391,148465,204,181033
16.396,148478,210,181027
16.401,148484,209,181031
16.406,148487,209,181044
16.411,148499,210,181033
16.416,148504,210,181054
16.421,148513,210,181042
16.426,148521,211,181054
16.431,148502,200,181049
16.436,148521,201,181059
16.441,148509,200,181066
16.446,148517,204,181062
16.451,148534,204,181081
16.456,148534,204,181075
16.461,148534,204,181081
16.466,148547,204,181086
16.471,148554,205,181089
16.476,148555,205,181076
16.481,148565,205,181093
16.486,148575,207,181095
16.491,148588,207,181094
16.496,148587,201,181108
16.501,148592,201,181088
16.506,148607,202,181096
16.511,148601,202,181104
16.516,148595,202,181104
16.521,148605,202,181114
16.525,148614,202,181103
16.530,148617,202,181127
16.535,148619,202,181106
16.540,148654,205,181129
16.545,148631,201,181137
16.550,148649,201,181113
16.555,148657,201,181111
16.560,148648,201,181133
16.565,148648,202,181130
16.570,148653,203,181111
16.575,148645,203,181115
16.580,148630,203,181091
16.585,148618,205,181080
16.590,148586,211,181081
16.595,148580,201,181047
16.600,148557,200,181054
16.605,148557,202,181060
16.610,148546,202,181029
16.615,148525,203,181011
16.620,148497,203,181014
16.625,148498,204,180999
16.630,148469,203,181002
16.635,148461,204,180975
16.640,148439,208,180959
16.645,148420,209,180942
16.650,148413,209,180960
16.655,148396,209,180938
16.660,148384,209,180921
16.665,148373,209,180911
16.669,148358,209,180908
16.674,148345,209,180904
16.679,148329,209,180908
16.684,148319,210,180895
16.689,148327,208,180899
16.694,148320,209,180901
16.699,148305,208,180883
16.704,148297,209,180881
16.709,148296,209,180862
16.714,148288,209,180858
16.719,148291,207,180865
16.724,148283,207,180877
16.729,148268,207,180866
16.734,148267,207,180852
16.739,148255,204,180848
16.744,148252,205,180851
16.749,148247,206,180841
16.754,148249,207,180845
16.759,148230,208,180838
16.764,148234,210,180830
16.769,148227,210,180825
16.774,148222,210,180837
16.779,148223,209,180828
16.784,148201,199,180812
16.789,148195,202,180827
16.794,148201,201,180793
16.799,148196,200,180815
16.804,148184,201,180800
16.809,148184,211,180820
16.813,148195,210,180803
16.818,148189,210,180806
16.823,148197,209,180826
16.828,148194,209,180838
16.833,148205,202,180824
16.838,148219,202,180846
16.843,148223,202,180846
16.848,148219,202,180854
16.853,148220,201,180823
16.858,148229,210,180841
16.863,148215,208,180833
16.868,148216,205,180829
16.873,148210,204,180834
16.878,148206,202,180828
16.883,148208,205,180830
16.888,148214,203,180824
16.893,148231,202,180843
16.898,148225,211,180846
16.903,148242,208,180867
16.908,148226,206,180859
16.913,148234,204,180865
16.918,148238,203,180875
16.923,148228,201,180865
16.928,148229,210,180879
16.933,148233,203,180852
16.938,148232,201,180865
16.943,148213,209,180838
16.948,148222,208,180852
16.953,148227,206,180854
16.957,148226,205,180848
16.962,148223,204,180854
16.967,148223,203,180860
16.972,148228,201,180850
16.977,148227,201,180885
16.982,148246,203,180887
16.987,148242,201,180877
16.992,148239,210,180890
16.997,148260,208,180875
17.002,148265,206,180897
17.007,148273,204,180884
17.012,148272,202,180886
17.017,148271,211,180903
17.022,148270,208,180915
17.027,148275,208,180908
17.032,148272,209,180904
17.037,148299,207,180904
17.042,148297,204,180908
17.047,148298,203,180911
17.052,148298,201,180923
17.057,148312,209,180924
17.062,148325,206,180928
17.067,148320,205,180926
17.072,148331,202,180924
17.077,148318,201,180928
17.082,148334,203,180942
17.087,148347,201,180951
17.092,148339,208,180951
17.096,148337,206,180954
17.101,148371,204,180964
17.106,148371,203,180955
17.111,148367,201,180965
17.116,148383,210,180967
17.121,148384,207,180976
17.126,148404,202,180986
17.131,148406,203,180985
17.136,148409,202,180996
17.141,148419,199,180996
17.146,148419,209,181021
17.151,148423,205,181015
17.156,148428,203,181022
17.161,148437,201,181012
17.166,148433,210,181016
17.171,148452,208,181016
17.176,148457,211,181035
17.181,148450,208,181026
17.186,148455,206,181030
17.191,148475,204,181024
17.196,148483,201,181043
17.201,148492,208,181044
17.206,148505,207,181048
17.211,148504,204,181054
17.216,148511,202,181059
17.221,148514,210,181049
17.226,148514,203,181050
17.231,148516,200,181048
17.236,148518,209,181070
17.240,148539,206,181068
17.245,148547,205,181072
17.250,148548,202,181082
17.255,148616,192,181080
17.260,148543,208,181074
17.265,148555,207,181076
17.270,148549,204,181060
17.275,148558,207,181057
17.280,148570,204,181072
17.285,148567,203,181064
17.290,148579,200,181086
17.295,148580,210,181076
17.300,148590,206,181108
17.305,148594,205,181084
17.310,148610,202,181084
17.315,148601,200,181091
17.320,148614,203,181090
17.325,148610,206,181095
17.330,148608,203,181084
17.335,148604,200,181088
17.340,148585,208,181077
17.345,148570,206,181064
17.350,148580,203,181036
17.355,148555,201,181041
17.360,148543,208,180923
17.365,148528,208,181022
17.370,148523,211,181008
17.375,148504,209,180998
17.380,148477,206,180986
17.384,148472,204,180997
17.389,148445,201,180972
17.394,148439,209,180966
17.399,148442,206,180958
17.404,148411,204,180957
17.409,148410,201,180959
17.414,148392,208,180946
17.419,148392,200,180959
17.424,148391,209,180936
17.429,148374,206,180925
17.434,148365,204,180938
17.439,148371,201,180920
17.444,148364,210,180915
17.449,148357,206,180928
17.454,148346,204,180918
17.459,148353,202,180927
17.464,148336,211,180912
17.469,148338,202,180914
17.474,148332,211,180924
17.479,148343,208,180912
17.484,148333,205,180908
17.489,148315,201,180907
17.494,148324,209,180896
17.499,148318,205,180910
17.504,148310,202,180899
17.509,148312,211,180891
17.514,148308,207,180902
17.519,148312,200,180895
17.523,148308,208,180897
17.528,148299,205,180886
17.533,148300,202,180900
17.538,148294,210,180902
17.543,148299,207,180887
17.548,148304,205,180899
17.553,148288,202,180894
17.558,148296,201,180906
17.563,148310,208,180912
17.568,148301,201,180914
17.573,148328,209,180913
17.578,148319,206,180940
17.583,148328,204,180923
17.588,148335,201,180942
17.593,148322,208,180934
17.598,148315,205,180938
17.603,148340,202,180932
17.608,148340,201,180932
17.613,148352,206,180942
17.618,148332,202,180955
17.623,148341,201,180958
17.628,148346,210,180942
17.633,148344,207,180956
17.638,148341,205,180967
17.643,148350,204,180949
17.648,148354,203,180959
17.653,148355,202,180971
17.658,148355,211,180959
17.663,148363,201,180970
17.667,148352,211,180954
17.672,148358,208,180969
17.677,148353,206,180962
17.682,148354,204,180949
17.687,148346,204,180950
17.692,148351,202,180963
17.697,148356,200,180951
17.702,148358,210,180957
17.707,148359,208,180957
17.712,148354,200,180951
17.717,148370,209,180964
17.722,148356,207,180969
17.727,148377,206,180967
17.732,148345,204,180973
17.737,148369,202,180956
17.742,148363,200,180960
17.747,148367,210,180981
17.752,148374,207,180982
17.757,148362,206,181005
17.762,148393,199,180992
17.767,148400,202,180985
17.772,148399,200,180988
17.777,148407,209,181000
17.782,148401,206,180999
17.787,148409,204,181003
17.792,148426,202,181022
17.797,148423,201,181033
17.802,148447,210,181042
17.807,148438,208,181030
17.811,148455,210,181048
17.816,148473,208,181062
17.821,148476,204,181057
17.826,148472,203,181084
17.831,148496,200,181093
17.836,148482,208,181083
17.841,148512,205,181094
17.846,148501,204,181100
17.851,148514,200,181103
17.856,148516,211,181095
17.861,148521,200,181120
17.866,148532,209,181124
17.871,148534,207,181130
17.876,148547,204,181134
17.881,148559,201,181137
17.886,148572,209,181150
17.891,148570,206,181156
17.896,148574,204,181170
17.901,148593,201,181155
17.906,148581,201,181185
17.911,148612,200,181199
17.916,148614,209,181188
17.921,148607,206,181200
17.926,148623,203,181209
17.931,148631,200,181214
17.936,148643,209,181217
17.941,148639,206,181231
17.946,148655,205,181235
17.951,148681,202,181227
17.955,148677,205,181247
17.960,148688,204,181262
17.965,148692,202,181251
17.970,148700,200,181257
17.975,148703,208,181251
17.980,148704,207,181271
17.985,148704,206,181259
17.990,148705,204,181270
17.995,148735,202,181265
18.000,148728,200,181261
18.005,148743,204,181286
18.010,148745,201,181294
18.015,148759,209,181310
18.020,148755,207,181299
18.025,148758,205,181304
18.030,148768,203,181302
18.035,148748,201,181282
18.040,148755,210,181281
18.045,148733,208,181252
18.050,148727,206,181253
18.055,148720,203,181256
18.060,148700,201,181239
18.065,148680,201,181240
18.070,148671,209,181232
18.075,148663,207,181216
18.080,148636,205,181203
18.085,148619,204,181194
18.090,148620,202,181192
18.094,148598,201,181181
18.099,148579,209,181166
18.104,148565,202,181162
18.109,148560,210,181167
18.114,148538,207,181144
18.119,148526,205,181132
18.124,148526,204,181124
18.129,148526,202,181117
18.134,148520,201,181136
18.139,148514,211,181116
18.144,148499,210,181128
18.149,148495,212,181110
18.154,148483,206,181123
18.159,148482,204,181105
18.164,148490,203,181121
18.169,148484,202,181115
18.174,148482,201,181099
18.179,148472,209,181120
18.184,148479,208,181103
18.189,148479,206,181107
18.194,148469,205,181107
18.199,148454,207,181098
18.204,148456,206,181099
18.209,148449,205,181110
18.214,148448,203,181119
18.219,148455,201,181108
18.224,148442,200,181101
18.229,148445,209,181079
18.234,148445,208,181098
18.238,148438,205,181099
18.243,148440,203,181092
18.248,148437,207,181095
18.253,148422,204,181104
18.258,148448,202,181086
18.263,148416,202,181089
18.268,148441,200,181104
18.273,148452,209,181113
18.278,148430,209,181095
18.283,148439,208,181109
18.288,148439,206,181111
18.293,148443,204,181123
18.298,148440,209,181094
18.303,148439,208,181114
18.308,148451,206,181108
18.313,148460,205,181103
18.318,148437,205,181120
18.323,148446,203,181109
18.328,148452,203,181108
18.333,148461,201,181112
18.338,148464,211,181122
18.343,148442,209,181119
18.348,148466,201,181116
18.353,148462,211,181133
18.358,148469,209,181107
18.363,148458,209,181115
18.368,148462,206,181122
18.373,148455,205,181111
18.378,148459,205,181121
18.382,148448,203,181118
18.387,148464,203,181109
18.392,148453,202,181109
18.397,148449,206,181103
18.402,148454,205,181114
18.407,148452,205,181112
18.412,148460,203,181112
18.417,148466,204,181123
18.422,148456,203,181133
18.427,148468,203,181128
18.432,148452,201,181137
18.437,148473,201,181138
18.442,148490,202,181138
18.447,148477,203,181133
18.452,148485,201,181138
18.457,148494,211,181147
18.462,148485,208,181147
18.467,148500,207,181158
18.472,148496,205,181143
18.477,148491,205,181140
18.482,148503,202,181145
18.487,148493,201,181156
18.492,148551,200,181133
18.497,148514,202,181159
18.502,148523,201,181151
18.507,148503,201,181170
18.512,148525,210,181155
18.517,148524,209,181162
18.521,148528,206,181174
18.526,148551,207,181174
18.531,148542,204,181159
18.536,148532,203,181169
18.541,148557,206,181184
18.546,148561,206,181183
18.551,148560,204,181165
18.556,148560,203,181171
18.561,148553,201,181177
18.566,148581,201,181185
18.571,148569,209,181185
18.576,148587,208,181189
18.581,148586,207,181201
18.586,148596,206,181209
18.591,148594,210,181198
18.596,148610,209,181197
18.601,148612,207,181214
18.606,148609,208,181217
18.611,148638,206,181223
18.616,148631,205,181219
18.621,148654,204,181219
18.626,148654,203,181234
18.631,148649,201,181228
18.636,148654,201,181233
18.641,148667,209,181223
18.646,148672,209,181227
18.651,148693,207,181242
18.656,148690,205,181238
18.661,148692,205,181236
18.665,148696,204,181251
18.670,148697,203,181257
18.675,148713,202,181248
18.680,148713,201,181261
18.685,148718,206,181250
18.690,148725,204,181280
18.695,148708,204,181247
18.700,148727,203,181262
18.705,148722,202,181264
18.710,148710,200,181240
18.715,148695,211,181233
18.720,148688,210,181221
18.725,148673,209,181215
18.730,148654,207,181187
18.735,148629,211,181188
18.740,148626,211,181168
18.745,148599,210,181167
18.750,148589,209,181140
18.755,148569,209,181146
18.760,148551,207,181124
18.765,148529,206,181115
18.770,148521,205,181111
18.775,148520,205,181089
18.780,148495,203,181078
18.785,148475,207,181081
18.790,148465,206,181070
18.795,148458,205,181068
18.800,148435,204,181041
18.805,148418,204,181029
18.809,148422,204,181040
18.814,148417,203,181031
18.819,148402,202,181017
18.824,148399,201,181017
18.829,148396,210,181022
18.834,148395,202,181028
18.839,148371,201,181008
18.844,148391,212,181002
18.849,148387,210,181013
18.854,148371,210,180997
18.859,148359,209,180990
18.864,148352,209,180995
18.869,148348,207,180977
18.874,148341,206,180983
18.879,148341,205,180993
18.884,148333,204,180973
18.889,148335,203,180995
18.894,148322,203,180980
18.899,148320,201,180975
18.904,148326,211,180975
18.909,148320,209,180969
18.914,148318,208,180969
18.919,148315,206,180969
18.924,148330,205,180975
18.929,148311,205,181003
18.934,148311,208,180983
18.939,148295,207,180982
18.944,148304,205,180972
18.949,148297,204,180965
18.953,148303,202,180974
18.958,148306,202,180978
18.963,148306,211,180976
18.968,148299,208,180995
18.973,148309,207,180967
18.978,148308,206,180979
18.983,148319,207,180986
18.988,148312,206,180998
18.993,148326,204,180999
18.998,148319,202,180996
19.003,148320,201,181007
19.008,148332,211,180998
19.013,148326,207,181007
19.018,148326,206,181014
19.023,148333,204,180994
19.028,148337,207,180996
19.033,148344,206,181002
19.038,148332,205,180989
19.043,148321,203,180999
19.048,148343,202,180983
19.053,148331,200,180991
19.058,148329,208,180995
19.063,148318,206,180985
19.068,148323,205,181002
19.073,148323,202,181005
19.078,148324,205,181002
19.083,148322,203,180999
19.088,148322,201,180991
19.092,148322,210,180997
19.097,148334,208,180992
19.102,148323,206,180982
19.107,148333,204,181004
19.112,148332,201,181006
19.117,148336,201,180999
19.122,148347,209,181000
19.127,148344,206,181006
19.132,148329,204,181006
19.137,148342,204,181011
19.142,148336,201,181003
19.147,148344,211,181001
19.152,148353,207,181001
19.157,148367,206,181008
19.162,148369,204,181024
19.167,148373,202,181023
19.172,148366,200,181023
19.177,148387,203,181029
19.182,148376,200,181020
19.187,148384,210,181027
19.192,148381,207,181021
19.197,148407,207,181045
19.202,148401,204,181053
19.207,148396,203,181056
19.212,148409,200,181033
19.217,148421,209,181052
19.222,148416,210,181038
19.227,148412,202,181045
19.232,148435,201,181075
19.236,148442,211,181052
19.241,148444,208,181078
19.246,148443,207,181066
19.251,148451,205,181070
19.256,148467,201,181084
19.261,148471,202,181086
19.266,148490,202,181082
19.271,148495,202,181087
19.276,148499,204,181099
19.281,148504,202,181106
19.286,148511,201,181116
19.291,148517,208,181113
19.296,148524,207,181124
19.301,148540,205,181138
19.306,148542,204,181126
19.311,148529,202,181142
19.316,148556,211,181158
19.321,148559,202,181163
19.326,148584,202,181170
19.331,148583,210,181158
19.336,148594,208,181180
19.341,148591,205,181186
19.346,148613,204,181181
19.351,148604,202,181197
19.356,148613,201,181171
19.361,148616,275,181171
19.366,148624,208,181192
19.371,148632,211,181200
19.376,148657,210,181199
19.380,148655,207,181210
19.385,148652,206,181211
19.390,148671,204,181190
19.395,148678,203,181218
19.400,148683,201,181226
19.405,148661,210,181234
19.410,148666,207,181203
19.415,148646,204,181208
19.420,148632,207,181172
19.425,148625,206,181187
19.430,148609,205,181168
19.435,148603,204,181171
19.440,148609,202,181156
19.445,148579,201,181149
19.450,148560,211,181136
19.455,148546,208,181111
19.460,148534,206,181122
19.465,148521,206,181107
19.470,148508,209,181105
19.475,148488,207,181110
19.480,148487,205,181082
19.485,148466,204,181087
19.490,148456,202,181096
19.495,148448,210,181089
19.500,148439,208,181061
19.505,148433,207,181075
19.510,148414,205,181067
19.515,148424,204,181075
19.519,148421,207,181063
19.524,148407,205,181062
19.529,148402,204,181068
19.534,148393,202,181064
19.539,148396,211,181045
19.544,148390,209,181067
19.549,148368,207,181056
19.554,148387,205,181057
19.559,148356,204,181043
19.564,148378,208,181045
19.569,148361,208,181045
19.574,148349,205,181051
19.579,148336,204,181042
19.584,148342,202,181052
19.589,148337,201,181042
19.594,148330,209,181026
19.599,148323,207,181040
19.604,148314,204,181030
19.609,148330,202,181038
19.614,148309,205,181026
19.619,148308,204,181016
19.624,148296,202,181017
19.629,148301,211,181014
19.634,148298,209,181023
19.639,148284,207,181008
19.644,148294,205,181008
19.649,148274,204,181016
19.654,148288,202,181010
19.659,148285,201,181005
19.663,148278,204,181001
19.668,148273,203,181017
19.673,148293,202,181029
19.678,148297,211,181036
19.683,148290,208,181016
19.688,148297,207,181029
19.693,148292,205,181031
19.698,148284,204,181023
19.703,148291,202,181022
19.708,148301,201,181012
19.713,148294,203,181019
19.718,148298,201,181011
19.723,148278,210,181012
19.728,148292,210,181027
19.733,148274,207,181016
19.738,148280,206,180999
19.743,148290,204,180999
19.748,148284,203,181008
19.753,148280,201,181017
19.758,148270,201,181018
19.763,148282,202,181010
19.768,148290,201,181025
19.773,148297,209,181028
19.778,148297,208,181018
19.783,148291,207,181031
19.788,148293,205,181009
19.793,148290,204,181024
19.798,148288,203,181018
19.803,148298,202,181033
19.807,148316,204,181016
19.812,148302,204,181029
19.817,148286,203,181027
19.822,148295,201,181041
19.827,148298,201,181033
19.832,148300,211,181036
19.837,148323,210,181051
19.842,148306,207,181063
19.847,148316,207,181058
19.852,148327,204,181062
19.857,148331,208,181043
19.862,148332,207,181065
19.867,148329,206,181069
19.872,148340,205,181063
19.877,148351,204,181083
19.882,148353,202,181077
19.887,148338,201,181070
19.892,148353,209,181090
19.897,148351,207,181092
19.902,148351,205,181076
19.907,148362,209,181100
19.912,148373,207,181071
19.917,148360,206,181096
19.922,148379,203,181089
19.927,148378,202,181097
19.932,148375,200,181106
19.937,148386,210,181114
19.942,148397,208,181132
19.947,148397,207,181118
19.951,148406,207,181117
19.956,148402,204,181138
19.961,148414,204,181117
19.966,148403,204,181129
19.971,148424,202,181138
19.976,148414,201,181127
19.981,148422,210,181141
19.986,148439,208,181140
19.991,148440,206,181140
19.996,148432,205,181151
20.001,148450,203,181157
20.006,148447,207,181155
20.011,148464,205,181180
20.016,148476,204,181171
20.021,148474,203,181184
20.026,148498,202,181197
20.031,148495,201,181201
20.036,148515,211,181198
20.041,148505,209,181203
20.046,148536,207,181218
20.051,148542,204,181218
20.056,148556,207,181230
20.061,148558,205,181245
20.066,148565,203,181244
20.071,148563,202,181244
20.076,148589,211,181251
20.081,148590,207,181259
20.086,148590,206,181242
20.090,148603,204,181267
20.095,148614,202,181270
20.100,148621,204,181277
20.105,148617,202,181286
20.110,148615,201,181276
20.115,148616,210,181276
20.120,148634,208,181270
20.125,148643,207,181288
20.130,148637,205,181273
20.135,148633,204,181274
20.140,148646,203,181277
20.145,148634,201,181254
20.150,148618,206,181247
20.155,148592,208,181229
20.160,148606,206,181230
20.165,148590,204,181225
20.170,148561,203,181225
20.175,148552,201,181205
20.180,148543,210,181201
20.185,148540,207,181189
20.190,148517,205,181184
20.195,148502,203,181179
20.200,148482,206,181165
20.205,148471,204,181151
20.210,148452,203,181151
20.215,148445,201,181125
20.220,148421,209,181152
20.225,148416,207,181124
20.230,148418,204,181117
20.234,148411,201,181113
20.239,148394,210,181111
20.244,148383,207,181097
20.249,148369,204,181092
20.254,148371,202,181098
20.259,148382,200,181098
20.264,148357,208,181088
20.269,148375,207,181093
20.274,148361,204,181097
20.279,148349,204,181084
20.284,148358,202,181084
20.289,148356,202,181076
20.294,148340,201,181077
20.299,148337,203,181075
20.304,148337,201,181093
20.309,148321,211,181068
20.314,148328,208,181085
20.319,148321,206,181083
20.324,148312,204,181066
20.329,148316,203,181068
20.334,148308,201,181061
20.339,148308,209,181062
20.344,148269,198,181056
20.349,148292,201,181056
20.354,148286,209,181055
20.359,148288,207,181062
20.364,148284,205,181035
20.369,148273,204,181063
20.374,148277,201,181053
20.378,148283,211,181056
20.383,148288,208,181060
20.388,148288,206,181062
20.393,148294,208,181078
20.398,148303,206,181070
20.403,148308,204,181091
20.408,148300,201,181090
20.413,148307,210,181084
20.418,148310,206,181100
20.423,148300,203,181098
20.428,148303,202,181080
20.433,148306,210,181072
20.438,148307,208,181087
20.443,148306,201,181071
20.448,148311,211,181082
20.453,148320,207,181087
20.458,148299,205,181070
20.463,148305,202,181061
20.468,148305,210,181087
20.473,148316,207,181097
20.478,148317,204,181098
20.483,148318,202,181096
20.488,148321,201,181102
20.493,148311,206,181100
20.498,148326,203,181103
20.503,148314,201,181080
20.508,148300,210,181080
20.513,148299,207,181088
20.517,148324,205,181090
20.522,148316,203,181092
20.527,148310,202,181094
20.532,148304,210,181091
20.537,148324,209,181102
20.542,148321,200,181107
20.547,148322,209,181109
20.552,148326,205,181124
20.557,148344,203,181123
20.562,148335,201,181133
20.567,148343,211,181145
20.572,148349,208,181144
20.577,148356,207,181149
20.582,148360,204,181155
20.587,148361,206,181107
20.592,148377,204,181149
20.597,148363,203,181158
20.602,148384,200,181169
20.607,148375,209,181161
20.612,148396,206,181174
20.617,148399,205,181192
20.622,148400,202,181184
20.627,148412,211,181192
20.632,148420,207,181204
20.637,148425,210,181185
20.642,148423,209,181196
20.647,148422,208,181195
20.652,148421,206,181208
20.657,148434,205,181225
20.661,148456,203,181212
20.666,148448,202,181221
20.671,148448,201,181239
20.676,148472,211,181239
20.681,148482,208,181261
20.686,148488,201,181233
20.691,148476,209,181246
20.696,148497,208,181245
20.701,148484,205,181258
20.706,148503,204,181255
20.711,148499,202,181257
20.716,148509,201,181274
20.721,148519,210,181258
20.726,148526,208,181279
20.731,148519,207,181280
20.736,148539,203,181273
20.741,148534,203,181294
20.746,148540,202,181296
20.751,148552,210,181290
20.756,148559,208,181299
20.761,148573,205,181305
20.766,148559,203,181307
20.771,148583,201,181321
20.776,148585,210,181322
20.781,148597,207,181334
20.786,148598,211,181345
20.791,148617,207,181340
20.796,148611,205,181349
20.801,148626,203,181339
20.805,148629,202,181346
20.810,148629,211,181352
20.815,148639,209,181374
20.820,148654,207,181350
20.825,148678,206,181381
20.830,148661,206,181382
20.835,148660,208,181369
20.840,148670,206,181373
20.845,148663,204,181368
20.850,148643,202,181364
20.855,148650,201,181344
20.860,148619,210,181332
20.865,148608,208,181326
20.870,148608,207,181320
20.875,148611,206,181317
20.880,148585,214,181327
20.885,148568,209,181303
20.890,148548,208,181310
20.895,148539,205,181293
20.900,148526,203,181289
20.905,148513,201,181275
20.910,148511,212,181265
20.915,148497,208,181290
20.920,148502,207,181283
20.925,148473,204,181256
20.930,148483,208,181253
20.935,148467,205,181244
20.940,148462,203,181247
20.945,148445,202,181256
20.949,148461,212,181262
20.954,148449,208,181249
20.959,148456,206,181246
20.964,148439,204,181240
20.969,148434,203,181244
20.974,148435,201,181275
20.979,148431,204,181234
20.984,148433,202,181254
20.989,148438,202,181256
20.994,148430,211,181243
20.999,148423,209,181244
21.004,148410,208,181259
21.009,148410,207,181260
21.014,148412,206,181236
21.019,148412,204,181253
21.024,148401,202,181240
21.029,148400,205,181246
21.034,148388,202,181243
21.039,148401,201,181261
21.044,148383,211,181254
21.049,148387,210,181254
21.054,148395,207,181257
21.059,148390,205,181237
21.064,148382,203,181255
21.069,148383,203,181244
21.074,148371,200,181259
21.079,148391,201,181267
21.084,148391,204,181274
21.088,148401,203,181275
21.093,148399,202,181289
21.098,148409,201,181288
21.103,148407,211,181278
21.108,148410,210,181298
21.113,148414,210,181293
21.118,148412,210,181280
21.123,148414,210,181334
21.128,148415,201,181291
21.133,148419,200,181297
21.138,148437,201,181309
21.143,148428,201,181304
21.148,148443,202,181320
21.153,148436,201,181324
21.158,148439,211,181327
21.163,148441,208,181329
21.168,148443,207,181312
21.173,148409,210,181319
21.178,148443,209,181322
21.183,148436,207,181320
21.188,148449,206,181330
21.193,148443,205,181314
21.198,148436,205,181309
21.203,148453,204,181325
21.208,148449,205,181334
21.213,148439,203,181334
21.218,148443,202,181328
21.223,148449,205,181339
21.228,148443,204,181334
21.232,148453,201,181338
21.237,148471,211,181345
21.242,148461,207,181352
21.247,148477,206,181354
21.252,148479,204,181362
21.257,148502,202,181361
21.262,148481,200,181356
21.267,148487,201,181375
21.272,148489,203,181381
21.277,148490,203,181367
21.282,148501,201,181372
21.287,148501,201,181366
21.292,148512,210,181369
21.297,148511,209,181380
21.302,148510,206,181382
21.307,148507,205,181388
21.312,148509,204,181389
21.317,148520,200,181380
21.322,148530,204,181404
21.327,148547,204,181402
21.332,148559,203,181430
21.337,148549,203,181426
21.342,148556,202,181427
21.347,148561,202,181431
21.352,148575,211,181441
21.357,148579,210,181438
21.362,148564,213,181438
21.367,148593,209,181443
21.372,148603,204,181455
21.376,148601,211,181459
21.381,148599,210,181460
21.386,148602,208,181472
21.391,148609,206,181460
21.396,148642,205,181482
21.401,148641,203,181485
21.406,148655,203,181494
21.411,148648,202,181506
21.416,148665,208,181498
21.421,148666,205,181488
21.426,148674,205,181517
21.431,148678,204,181515
21.436,148682,203,181534
21.441,148695,202,181530
21.446,148698,202,181537
21.451,148706,200,181557
21.456,148712,211,181562
21.461,148741,210,181565
21.466,148734,203,181563
21.471,148754,201,181577
21.476,148755,202,181563
21.481,148741,201,181571
21.486,148769,201,181570
21.491,148754,211,181578
21.496,148771,211,181580
21.501,148769,209,181579
21.506,148777,208,181577
21.511,148794,206,181594
21.515,148789,210,181605
21.520,148796,209,181607
21.525,148793,207,181596
21.530,148788,205,181594
21.535,148773,204,181581
21.540,148767,202,181578
21.545,148757,201,181561
21.550,148747,212,181561
21.555,148724,210,181552
21.560,148709,210,181530
21.565,148702,203,181530
21.570,148675,201,181517
21.575,148674,201,181505
21.580,148639,201,181496
21.585,148629,201,181463
21.590,148605,201,181464
21.595,148593,212,181441
21.600,148575,211,181449
21.605,148570,211,181438
21.610,148574,210,181432
21.615,148551,208,181420
21.620,148537,206,181412
21.625,148512,206,181416
21.630,148521,206,181394
21.635,148511,205,181391
21.640,148504,204,181384
21.645,148502,204,181387
21.650,148479,203,181377
21.655,148474,202,181373
21.659,148464,204,181343
21.664,148463,204,181370
21.669,148464,203,181377
21.674,148444,203,181369
21.679,148449,202,181358
21.684,148435,201,181358
21.689,148431,211,181363
21.694,148431,208,181357
21.699,148431,207,181352
21.704,148420,206,181361
21.709,148397,209,181329
21.714,148403,208,181342
21.719,148391,205,181334
21.724,148400,204,181340
21.729,148378,203,181325
21.734,148379,202,181326
21.739,148378,211,181321
21.744,148364,208,181319
21.749,148364,206,181320
21.754,148351,205,181302
21.759,148371,210,181306
21.764,148355,201,181312
21.769,148344,211,181321
21.774,148334,209,181316
21.779,148347,208,181317
21.784,148355,206,181313
21.789,148343,206,181315
21.794,148365,204,181337
21.799,148363,203,181323
21.803,148348,201,181299
21.808,148348,206,181317
21.813,148351,204,181329
21.818,148362,204,181319
21.823,148348,202,181311
21.828,148361,202,181309
21.833,148369,210,181330
21.838,148371,209,181318
21.843,148361,207,181337
21.848,148366,206,181323
21.853,148366,204,181319
21.858,148366,209,181315
21.863,148369,207,181321
21.868,148355,206,181309
21.873,148358,204,181325
21.878,148359,203,181309
21.883,148360,201,181317
21.888,148365,201,181340
21.893,148368,209,181327
21.898,148370,208,181327
21.903,148377,206,181337
21.908,148367,209,181345
21.913,148382,206,181352
21.918,148379,206,181361
21.923,148391,204,181356
21.928,148377,204,181362
21.933,148393,202,181362
21.938,148384,202,181366
21.943,148398,200,181385
21.947,148414,211,181380
21.952,148415,201,181400
21.957,148417,202,181402
21.962,148426,202,181419
21.967,148432,201,181418
21.972,148427,200,181410
21.977,148436,211,181423
21.982,148446,208,181426
21.987,148448,209,181437
21.992,148452,208,181441
21.997,148457,207,181455
22.002,148461,211,181459
22.007,148472,210,181462
22.012,148487,208,181467
22.017,148494,207,181464
22.022,148508,203,181472
22.027,148509,202,181483
22.032,148505,201,181491
22.037,148521,211,181487
22.042,148519,208,181498
22.047,148524,207,181508
22.052,148523,201,181508
22.057,148534,210,181522
22.062,148536,208,181505
22.067,148560,207,181526
22.072,148564,205,181524
22.077,148562,204,181529
22.082,148569,203,181540
22.086,148575,202,181544
22.091,148598,201,181546
22.096,148592,201,181550
22.101,148593,203,181559
22.106,148598,201,181569
22.111,148602,211,181590
22.116,148614,209,181564
22.121,148627,207,181580
22.126,148632,207,181579
22.131,148635,204,181587
22.136,148643,202,181586
22.141,148641,201,181575
22.146,148665,211,181585
22.151,148663,203,181602
22.156,148666,203,181606
22.161,148665,201,181623
22.166,148685,200,181624
22.171,148691,211,181635
22.176,148690,210,181621
22.181,148701,208,181623
22.186,148702,207,181628
22.191,148721,206,181646
22.196,148730,209,181687
22.201,148744,207,181633
22.206,148751,207,181648
22.211,148747,207,181659
22.216,148757,206,181670
22.221,148757,206,181670
22.226,148774,206,181676
22.230,148761,205,181681
22.235,148762,205,181661
22.240,148776,204,181692
22.245,148780,206,181680
22.250,148777,205,181682
22.255,148790,168,181708
22.260,148809,202,181705
22.265,148803,202,181704
22.270,148815,201,181701
22.275,148815,211,181693
22.280,148803,209,181696
22.285,148781,208,181683
22.290,148772,206,181674
22.295,148757,210,181669
22.300,148744,209,181656
22.305,148739,207,181675
22.310,148705,207,181637
22.315,148712,206,181632
22.320,148685,204,181614
22.325,148653,203,181595
22.330,148656,202,181596
22.335,148633,201,181577
22.340,148624,211,181562
22.345,148605,203,181541
22.350,148607,202,181553
22.355,148581,201,181533
22.360,148585,202,181523
22.365,148556,202,181529
22.370,148540,202,181512
22.374,148525,202,181510
22.379,148517,202,181491
22.384,148514,201,181497
22.389,148490,210,181473
22.394,148499,203,181485
22.399,148494,201,181474
22.404,148476,210,181453
22.409,148481,209,181463
22.414,148462,208,181452
22.419,148448,207,181442
22.424,148447,205,181436
22.429,148424,204,181433
22.434,148425,203,181432
22.439,148414,203,181443
22.444,148422,204,181426
22.449,148405,204,181432
22.454,148404,203,181415
22.459,148401,202,181410
22.464,148394,201,181398
22.469,148372,210,181399
22.474,148380,208,181396
22.479,148370,207,181402
22.484,148373,205,181383
22.489,148367,205,181406
22.494,148346,207,181392
22.499,148354,206,181383
22.504,148357,204,181399
22.509,148344,204,181396
22.513,148344,201,181385
22.518,148338,211,181379
22.523,148346,209,181393
22.528,148351,209,181406
22.533,148353,207,181408
22.538,148366,202,181416
22.543,148357,200,181419
22.548,148365,210,181419
22.553,148362,208,181415
22.558,148358,207,181415
22.563,148360,204,181425
22.568,148352,204,181409
22.573,148363,202,181410
22.578,148379,202,181411
22.583,148386,211,181421
22.588,148379,203,181434
22.593,148375,202,181432
22.598,148366,202,181434
22.603,148377,211,181419
22.608,148366,210,181439
22.613,148379,207,181436
22.618,148369,206,181432
22.623,148377,204,181429
22.628,148377,204,181435
22.633,148367,202,181437
22.638,148373,206,181429
22.643,148383,203,181423
22.648,148364,202,181429
22.653,148374,201,181430
22.657,148360,210,181428
22.662,148376,207,181442
22.667,148376,206,181449
22.672,148384,205,181446
22.677,148377,203,181441
22.682,148379,202,181443
22.687,148396,204,181456
22.692,148377,204,181460
22.697,148396,202,181451
22.702,148381,211,181453
22.707,148404,209,181444
22.712,148402,207,181451
22.717,148408,206,181457
22.722,148415,204,181488
22.727,148412,204,181484
22.732,148420,205,181525
22.737,148431,206,181480
22.742,148431,204,181486
22.747,148434,202,181484
22.752,148449,211,181489
22.757,148443,209,181490
22.762,148462,206,181508
22.767,148457,204,181509
22.772,148462,202,181504
22.777,148475,201,181514
22.782,148439,202,181507
22.787,148474,201,181502
22.792,148495,211,181508
22.797,148490,209,181520
22.801,148501,208,181525
22.806,148506,207,181531
22.811,148497,205,181533
22.816,148509,203,181532
22.821,148520,201,181535
22.826,148513,210,181555
22.831,148535,202,181548
22.836,148536,201,181541
22.841,148543,209,181560
22.846,148550,208,181568
22.851,148546,206,181553
22.856,148569,204,181565
22.861,148578,202,181573
22.866,148568,201,181577
22.871,148572,212,181581
22.876,148572,209,181591
22.881,148593,205,181578
22.886,148604,206,181597
22.891,148600,204,181597
22.896,148602,202,181598
22.901,148620,211,181601
22.906,148622,209,181610
22.911,148618,206,181601
22.916,148632,203,181625
22.921,148630,202,181606
22.926,148629,208,181611
22.931,148641,204,181626
22.936,148661,202,181630
22.940,148664,200,181634
22.945,148675,208,181632
22.950,148681,206,181645
22.955,148679,204,181655
22.960,148683,202,181651
22.965,148691,210,181647
22.970,148702,207,181663
22.975,148701,205,181655
22.980,148696,208,181664
22.985,148697,206,181654
22.990,148718,204,181669
22.995,148714,201,181651
23.000,148718,211,181669
23.005,148736,210,181661
23.010,148725,208,181671
23.015,148742,206,181675
23.020,148751,203,181670
23.025,148746,203,181692
23.030,148737,206,181669
23.035,148745,204,181672
23.040,148745,202,181662
23.045,148736,201,181646
23.050,148731,210,181634
23.055,148703,206,181627
23.060,148704,205,181617
23.065,148677,203,181609
23.070,148666,201,181595
23.075,148654,203,181572
23.080,148643,203,181576
23.084,148601,202,181561
23.089,148587,202,181541
23.094,148580,212,181526
23.099,148572,209,181521
23.104,148541,206,181497
23.109,148522,205,181482
23.114,148516,202,181489
23.119,148503,212,181456
23.124,148488,206,181464
23.129,148490,207,181459
23.134,148464,204,181436
23.139,148459,203,181451
23.144,148448,202,181421
23.149,148445,212,181440
23.154,148424,209,181418
23.159,148424,207,181416
23.164,148401,204,181405
23.169,148432,203,181422
23.174,148398,210,181407
23.179,148384,208,181407
23.184,148383,206,181393
23.189,148379,204,181384
23.194,148368,201,181402
23.199,148355,210,181381
23.204,148361,208,181374
23.209,148355,207,181380
23.214,148340,204,181359
23.219,148329,204,181360
23.224,148334,207,181374
23.228,148322,206,181366
23.233,148325,204,181354
23.238,148307,203,181345
23.243,148319,202,181336
23.248,148312,211,181358
23.253,148302,208,181352
23.258,148323,206,181350
23.263,148285,204,181350
23.268,148301,203,181308
23.273,148272,206,181326
23.278,148287,205,181340
23.283,148279,204,181327
23.288,148285,203,181345
23.293,148280,201,181349
23.298,148290,211,181341
23.303,148302,207,181353
23.308,148303,207,181365
23.313,148303,204,181340
23.318,148336,205,181351
23.323,148317,209,181357
23.328,148298,207,181354
23.333,148315,205,181363
23.338,148308,203,181352
23.343,148308,200,181363
23.348,148308,210,181365
23.353,148322,207,181362
23.358,148333,205,181364
23.363,148300,204,181368
23.368,148324,208,181361
23.372,148329,207,181364
23.377,148332,205,181385
23.382,148317,203,181366
23.387,148311,202,181379
23.392,148312,210,181363
23.397,148313,209,181374
23.402,148317,205,181365
23.407,148327,204,181376
23.412,148313,203,181374
23.417,148320,208,181369
23.422,148305,206,181357
23.427,148314,206,181369
23.432,148320,203,181365
23.437,148321,202,181373
23.442,148325,211,181363
23.447,148314,209,181378
23.452,148324,207,181375
23.457,148326,205,181371
23.462,148326,204,181385
23.467,148336,207,181371
23.472,148336,204,181371
23.477,148332,201,181383
23.482,148322,210,181367
23.487,148326,208,181379
23.492,148331,206,181375
23.497,148337,205,181378
23.502,148345,204,181384
23.507,148342,203,181372
23.511,148331,200,181376
23.516,148339,203,181387
23.521,148342,201,181359
23.526,148347,210,181376
23.531,148357,208,181376
23.536,148359,206,181388
23.541,148363,204,181399
23.546,148370,202,181385
23.551,148377,201,181389
23.556,148375,210,181371
23.561,148393,212,181421
23.566,148376,201,181402
23.571,148393,209,181393
23.576,148397,207,181394
23.581,148411,204,181394
23.586,148412,202,181405
23.591,148411,211,181405
23.596,148418,208,181406
23.601,148410,205,181404
23.606,148423,204,181396
23.611,148434,207,181426
23.616,148437,210,181414
23.621,148428,208,181417
23.626,148451,206,181426
23.631,148444,204,181420
23.636,148463,203,181422
23.641,148467,202,181426
23.646,148475,212,181433
23.651,148489,209,181433
23.655,148474,208,181454
23.660,148485,201,181427
23.665,148487,210,181446
23.670,148479,208,181429
23.675,148515,206,181446
23.680,148493,205,181432
23.685,148504,202,181440
23.690,148518,201,181448
23.695,148524,210,181441
23.700,148520,210,181446
23.705,148531,209,181444
23.710,148535,201,181452
23.715,148535,210,181453
23.720,148558,208,181469
23.725,148558,206,181466
23.730,148557,205,181464
23.735,148565,203,181473
23.740,148568,203,181473
23.745,148585,202,181474
23.750,148578,201,181467
23.755,148586,209,181481
23.760,148587,201,181464
23.765,148588,209,181475
23.770,148598,207,181479
23.775,148597,205,181481
23.780,148610,204,181492
23.785,148614,201,181486
23.790,148629,210,181498
23.795,148636,207,181496
23.799,148634,205,181503
23.804,148641,203,181510
23.809,148644,206,181498
23.814,148627,203,181482
23.819,148607,202,181460
23.824,148584,210,181454
23.829,148579,208,181446
23.834,148580,205,181450
23.839,148570,204,181398
23.844,148552,202,181398
23.849,148513,211,181392
23.854,148521,207,181377
23.859,148495,211,181371
23.864,148480,208,181356
23.869,148455,207,181354
23.874,148444,205,181331
23.879,148420,204,181325
23.884,148411,201,181320
23.889,148381,211,181319
23.894,148388,208,181300
23.899,148373,207,181290
23.904,148367,209,181301
23.909,148349,209,181294
23.914,148354,206,181279
23.919,148336,204,181273
23.924,148335,202,181265
23.929,148328,202,181248
23.934,148318,211,181253
23.938,148306,209,181232
23.943,148309,206,181237
23.948,148299,205,181244
23.953,148302,208,181221
23.958,148295,207,181229
23.963,148290,205,181230
23.968,148276,203,181223
23.973,148293,201,181239
23.978,148277,212,181219
23.983,148264,209,181229
23.988,148262,208,181216
23.993,148258,205,181220
23.998,148253,204,181213
24.003,148295,201,181206
24.008,148243,208,181209
24.013,148229,205,181200
24.018,148246,204,181195
24.023,148238,201,181207
24.028,148226,211,181210
24.033,148227,207,181193
24.038,148228,205,181195
24.043,148224,202,181187
24.048,148228,201,181185
24.053,148218,204,181206
24.058,148233,202,181209
24.063,148240,211,181215
24.068,148229,208,181205
24.073,148242,206,181225
24.078,148257,203,181231
24.082,148228,201,181209
24.087,148253,210,181222
24.092,148263,207,181230
24.097,148253,208,181269
24.102,148242,208,181225
24.107,148251,207,181222
24.112,148252,205,181229
24.117,148247,204,181230
24.122,148256,202,181227
24.127,148262,211,181235
24.132,148266,209,181236
24.137,148272,207,181223
24.142,148267,206,181227
24.147,148271,208,181235
24.152,148253,206,181242
24.157,148257,204,181236
24.162,148261,203,181242
24.167,148280,212,181239
24.172,148264,209,181240
24.177,148264,206,181241
24.182,148267,205,181232
24.187,148241,202,181226
24.192,148261,210,181211
24.197,148265,202,181223
24.202,148264,211,181227
24.207,148254,209,181221
24.212,148255,206,181224
24.217,148276,204,181234
24.222,148280,203,181247
24.226,148268,201,181233
24.231,148288,209,181254
24.236,148283,207,181239
24.241,148277,206,181243
24.246,148292,209,181261
24.251,148303,207,181266
24.256,148311,206,181276
24.261,148313,204,181262
24.266,148306,202,181269
24.271,148322,201,181252
24.276,148332,211,181269
24.281,148319,209,181253
24.286,148319,207,181256
24.291,148353,207,181282
24.296,148303,207,181335
24.301,148347,207,181294
24.306,148360,207,181290
24.311,148347,205,181297
24.316,148357,204,181307
24.321,148369,202,181313
24.326,148380,212,181299
24.331,148389,209,181334
24.336,148392,206,181324
24.341,148404,204,181310
24.346,148397,206,181325
24.351,148404,205,181337
24.356,148409,203,181341
24.361,148415,202,181336
24.366,148417,212,181342
24.370,148410,209,181349
24.375,148446,206,181366
24.380,148430,205,181351
24.385,148445,203,181357
24.390,148457,205,181359
24.395,148449,207,181347
24.400,148459,206,181363
24.405,148481,204,181383
24.410,148486,203,181374
24.415,148484,202,181380
24.420,148490,212,181377
24.425,148508,209,181408
24.430,148497,208,181395
24.435,148518,205,181389
24.440,148516,209,181403
24.445,148519,207,181388
24.450,148521,206,181399
24.455,148525,204,181399
24.460,148533,203,181397
24.465,148542,200,181413
24.470,148563,211,181409
24.475,148554,207,181429
24.480,148564,206,181419
24.485,148589,204,181426
24.490,148585,208,181422
24.495,148579,204,181433
24.500,148595,204,181426
24.505,148595,202,181423
24.509,148601,213,181425
24.514,148611,208,181435
24.519,148618,207,181434
24.524,148628,204,181438
24.529,148630,203,181458
24.534,148638,201,181445
24.539,148651,204,181443
24.544,148644,201,181441
24.549,148650,211,181445
24.554,148641,208,181446
24.559,148632,205,181455
24.564,148620,202,181427
24.569,148626,213,181432
24.574,148610,209,181412
24.579,148582,206,181408
24.584,148587,203,181398
24.589,148559,202,181371
24.594,148548,210,181379
24.599,148542,208,181357
24.604,148522,206,181342
24.609,148486,205,181341
24.614,148492,202,181314
24.619,148468,200,181311
24.624,148434,210,181302
24.629,148428,209,181292
24.634,148413,208,181259
24.639,148404,210,181269
24.644,148399,208,181283
24.649,148386,207,181272
24.653,148368,205,181256
24.658,148371,203,181234
24.663,148366,201,181228
24.668,148361,210,181241
24.673,148346,207,181224
24.678,148332,205,181211
24.683,148307,206,181219
24.688,148324,202,181196
24.693,148315,210,181192
24.698,148306,209,181199
24.703,148304,206,181192
24.708,148299,205,181192
24.713,148294,203,181187
24.718,148283,201,181172
24.723,148286,210,181165
24.728,148286,209,181173
24.733,148287,211,181169
24.738,148284,210,181196
24.743,148263,207,181180
24.748,148279,205,181184
24.753,148276,203,181162
24.758,148266,212,181176
24.763,148268,208,181171
24.768,148261,206,181157
24.773,148267,203,181158
24.778,148255,212,181165
24.783,148261,202,181170
24.788,148256,212,181151
24.793,148265,209,181167
24.797,148275,207,181173
24.802,148272,204,181178
24.807,148282,202,181194
24.812,148287,211,181209
24.817,148295,207,181201
24.822,148294,204,181196
24.827,148288,202,181200
24.832,148277,204,181190
24.837,148284,202,181196
24.842,148287,211,181185
24.847,148293,208,181184
24.852,148286,205,181193
24.857,148281,204,181177
24.862,148277,203,181182
24.867,148272,203,181173
24.872,148273,201,181172
24.877,148284,211,181174
24.882,148280,203,181167
24.887,148269,201,181154
24.892,148266,211,181151
24.897,148256,209,181149
24.902,148252,207,181147
24.907,148237,205,181123
24.912,148216,204,181108
24.917,148218,203,181118
24.922,148212,202,181112
24.927,148218,205,181106
24.932,148206,204,181107
24.936,148208,204,181101
24.941,148214,204,181112
24.946,148219,203,181112
24.951,148214,203,181098
24.956,148221,202,181115
24.961,148230,201,181113
24.966,148219,210,181133
24.971,148232,208,181137
24.976,148233,201,181141
24.981,148233,212,181137
24.986,148243,209,181135
24.991,148243,208,181128
24.996,148252,206,181139
25.001,148254,205,181135
25.006,148252,203,181123
25.011,148262,202,181141
25.016,148241,211,181153
25.021,148254,209,181163
25.026,148266,201,181139
25.031,148287,210,181163
25.036,148299,208,181167
25.041,148303,207,181161
25.046,148299,205,181169
25.051,148313,204,181166
25.056,148308,203,181173
25.061,148325,201,181191
25.066,148328,209,181211
25.071,148330,209,181204
25.076,148343,201,181228
25.080,148338,211,181213
25.085,148365,209,181220
25.090,148364,208,181239
25.095,148383,205,181248
25.100,148395,204,181241
25.105,148404,202,181254
25.110,148397,201,181277
25.115,148406,210,181280
25.120,148415,210,181282
25.125,148416,208,181307
25.130,148453,208,181286
25.135,148452,205,181309
25.140,148450,205,181311
25.145,148475,203,181319
25.150,148483,203,181326
25.155,148497,201,181336
25.160,148522,211,181358
25.165,148518,208,181360
25.170,148532,208,181388
25.175,148548,211,181373
25.180,148543,209,181380
25.185,148548,208,181395
25.190,148556,207,181396
25.195,148562,205,181384
25.200,148557,204,181396
25.205,148573,203,181400
25.210,148585,202,181394
25.215,148578,210,181400
25.220,148621,202,181381
25.224,148599,203,181413
25.229,148594,203,181402
25.234,148591,202,181395
25.239,148578,202,181386
25.244,148571,211,181375
25.249,148558,211,181361
25.254,148547,208,181345
25.259,148529,207,181312
25.264,148506,205,181324
25.269,148494,210,181297
25.274,148469,207,181273
25.279,148450,205,181283
25.284,148445,204,181241
25.289,148425,203,181226
25.294,148401,201,181223
25.299,148365,211,181207
25.304,148350,208,181171
25.309,148331,206,181160
25.314,148318,204,181148
25.319,148292,207,181125
25.324,148285,205,181123
25.329,148279,204,181111
25.334,148264,202,181106
25.339,148240,201,181084
25.344,148234,211,181086
25.349,148218,210,181066
25.354,148211,208,181055
25.359,148202,206,181047
25.364,148183,204,181036
25.368,148180,208,181026
25.373,148177,205,181019
25.378,148159,202,181021
25.383,148153,211,181013
25.388,148163,209,181000
25.393,148142,206,181015
25.398,148152,204,181011
25.403,148147,202,181008
25.408,148142,212,181014
25.413,148156,209,180997
25.418,148146,206,181017
25.423,148131,204,181012
25.428,148129,203,181005
25.433,148138,201,181008
25.438,148129,210,181009
25.443,148134,207,181011
25.448,148131,205,181014
25.453,148131,205,181017
25.458,148139,202,181029
25.463,148139,203,181010
25.468,148133,209,181024
25.473,148130,208,181016
25.478,148135,209,181045
25.483,148146,207,181021
25.488,148149,206,181044
25.493,148168,204,181041
25.498,148167,203,181048
25.503,148166,200,181051
25.507,148157,211,181058
25.512,148154,202,181068
25.517,148148,202,181058
25.522,148168,210,181048
25.527,148161,209,181059
25.532,148165,207,181049
25.537,148179,206,181070
25.542,148195,204,181081
25.547,148179,203,181068
25.552,148197,201,181079
25.557,148189,209,181077
25.562,148191,202,181092
25.567,148191,212,181083
25.572,148195,209,181070
25.577,148188,208,181068
25.582,148185,207,181070
25.587,148173,205,181061
25.592,148184,203,181054
25.597,148183,201,181055
25.602,148156,210,181045
25.607,148163,208,181040
25.612,148167,212,181035
25.617,148158,208,181034
25.622,148152,206,181023
25.627,148162,204,181042
25.632,148156,203,181043
25.637,148151,201,181032
25.642,148151,210,181033
25.647,148155,209,181035
25.651,148156,208,181020
25.656,148154,205,181032
25.661,148153,209,181022
25.666,148141,208,181009
25.671,148154,205,181018
25.676,148168,202,181020
25.681,148166,202,181025
25.686,148166,210,181006
25.691,148168,208,181013
25.696,148165,206,181011
25.701,148165,205,181005
25.706,148175,204,181029
25.711,148170,207,181029
25.716,148193,204,181055
25.721,148186,203,181034
25.726,148213,201,181046
25.731,148205,211,181059
25.736,148216,208,181062
25.741,148228,207,181079
25.746,148229,205,181066
25.751,148239,204,181076
25.756,148239,201,181084
25.761,148262,204,181075
25.766,148266,202,181098
25.771,148262,201,181085
25.776,148282,211,181083
25.781,148285,210,181104
25.786,148285,207,181121
25.791,148298,206,181120
25.795,148298,204,181106
25.800,148303,203,181125
25.805,148279,205,181130
25.810,148339,211,181115
25.815,148336,209,181129
25.820,148337,208,181141
25.825,148358,205,181147
25.830,148363,204,181153
25.835,148370,203,181161
25.840,148366,201,181175
25.845,148377,211,181162
25.850,148400,209,181183
25.855,148390,201,181184
25.860,148407,211,181205
25.865,148422,208,181196
25.870,148420,206,181205
25.875,148425,203,181221
25.880,148439,201,181214
25.885,148440,210,181215
25.890,148456,208,181198
25.895,148456,205,181215
25.900,148468,204,181204
25.905,148461,207,181218
25.910,148470,205,181226
25.915,148477,203,181252
25.920,148488,201,181249
25.925,148501,211,181249
25.930,148492,210,181230
25.934,148502,208,181246
25.939,148506,207,181234
25.944,148511,205,181236
25.949,148493,204,181224
25.954,148497,207,181232
25.959,148475,206,181210
25.964,148459,205,181196
25.969,148445,204,181180
25.974,148436,202,181169
25.979,148409,212,181158
25.984,148398,208,181148
25.989,148382,207,181138
25.994,148364,206,181121
25.999,148354,206,181116
26.004,148324,207,181100
26.009,148321,207,181064
26.014,148296,204,181091
26.019,148291,203,181075
26.024,148274,201,181046
26.029,148259,210,181066
26.034,148244,209,181035
26.039,148229,208,181028
26.044,148216,207,181041
26.049,148248,209,181020
26.054,148204,209,181026
26.059,148193,207,181020
26.064,148173,206,181013
26.069,148185,205,181011
26.074,148168,204,181004
26.078,148169,203,181000
26.083,148167,202,180991
26.088,148154,201,181010
26.093,148162,201,180993
26.098,148156,206,180978
26.103,148137,210,180997
26.108,148135,209,180985
26.113,148129,206,180979
26.118,148122,206,180983
26.123,148129,205,180982
26.128,148121,204,180967
26.133,148108,203,180983
26.138,148098,202,180982
26.143,148104,210,180983
26.148,148104,203,180966
26.153,148092,201,180971
26.158,148094,210,180969
26.163,148097,207,180973
26.168,148088,206,180963
26.173,148074,204,180965
26.178,148081,202,180973
26.183,148092,211,180966
26.188,148078,209,180965
26.193,148094,209,180975
26.198,148076,202,180988
26.203,148100,212,180980
26.208,148104,210,180995
26.213,148098,210,180992
26.218,148114,208,181006
26.222,148117,207,180987
26.227,148105,206,181012
26.232,148106,205,181007
26.237,148111,204,181004
26.242,148115,204,180982
26.247,148096,201,181003
26.252,148111,210,181014
26.257,148125,206,181008
26.262,148119,206,181023
26.267,148121,205,181023
26.272,148105,203,181016
26.277,148118,202,181010
26.282,148121,212,181019
26.287,148123,210,181014
26.292,148130,211,181026
26.297,148117,211,181026
26.302,148132,209,181005
26.307,148122,207,181024
26.312,148120,205,181018
26.317,148126,203,181027
26.322,148137,202,181014
26.327,148133,210,181008
26.332,148126,208,181003
26.337,148118,206,181029
26.342,148139,211,181019
26.347,148131,209,181019
26.352,148134,208,181044
26.357,148150,206,181032
26.362,148053,214,181038
26.366,148152,204,181029
26.371,148144,203,181035
26.376,148163,201,181068
26.381,148170,211,181052
26.386,148171,208,181064
26.391,148188,204,181059
26.396,148181,202,181065
26.401,148176,210,181070
26.406,148183,207,181060
26.411,148191,205,181065
26.416,148187,202,181072
26.421,148190,212,181052
26.426,148194,210,181079
26.431,148202,209,181080
26.436,148211,207,181098
26.441,148222,203,181090
26.446,148233,212,181087
26.451,148227,209,181095
26.456,148239,206,181115
26.461,148251,206,181104
26.466,148242,203,181118
26.471,148251,202,181116
26.476,148257,202,181122
26.481,148276,212,181133
26.486,148269,209,181139
26.491,148276,209,181135
26.496,148267,206,181117
26.501,148285,205,181140
26.505,148293,204,181136
26.510,148297,203,181143
26.515,148314,201,181142
26.520,148307,211,181150
26.525,148306,209,181157
26.530,148321,208,181172
26.535,148343,208,181132
26.540,148343,211,181175
26.545,148358,209,181191
26.550,148355,208,181177
26.555,148364,206,181192
26.560,148370,205,181195
26.565,148377,204,181201
26.570,148377,203,181206
26.575,148393,202,181202
26.580,148389,202,181211
26.585,148428,203,181218
26.590,148415,204,181219
26.595,148415,202,181217
26.600,148425,202,181230
26.605,148426,211,181225
26.610,148443,210,181251
26.615,148455,207,181244
26.620,148447,206,181217
26.625,148460,204,181247
26.630,148455,202,181245
26.635,148473,204,181242
26.640,148469,203,181240
26.645,148486,201,181254
26.649,148479,211,181253
26.654,148501,209,181277
26.659,148497,207,181251
26.664,148481,206,181243
26.669,148477,205,181236
26.674,148463,203,181218
26.679,148469,203,181208
26.684,148438,205,181203
26.689,148437,205,181200
26.694,148412,204,181195
26.699,148405,203,181174
26.704,148392,202,181178
26.709,148383,202,181167
26.714,148349,212,181140
26.719,148344,209,181123
26.724,148311,207,181110
26.729,148290,209,181112
26.734,148282,203,181106
26.739,148268,202,181071
26.744,148250,202,181070
26.749,148244,212,181049
26.754,148231,210,181052
26.759,148203,210,181017
26.764,148207,208,181023
26.769,148195,208,181033
26.774,148194,206,181026
26.779,148197,204,181020
26.784,148168,207,181008
26.789,148159,206,180999
26.793,148152,204,180992
26.798,148146,203,180979
26.803,148123,201,180978
26.808,148116,211,180970
26.813,148098,208,180965
26.818,148107,205,180945
26.823,148085,204,180967
26.828,148079,203,180943
26.833,148066,205,180938
26.838,148066,203,180923
26.843,148044,201,180896
26.848,148037,210,180897
26.853,148037,207,180905
26.858,148024,205,180896
26.863,148020,204,180882
26.868,148021,202,180883
26.873,148008,201,180871
26.878,148018,204,180854
26.883,147988,203,180874
26.888,147993,202,180859
26.893,147985,201,180851
26.898,147981,211,180858
26.903,147992,209,180851
26.908,147980,208,180852
26.913,147971,206,180841
26.918,147977,204,180850
26.923,147980,203,180849
26.928,148001,208,180868
26.932,147977,210,180868
26.937,147994,208,180865
26.942,148008,206,180875
26.947,148001,203,180866
26.952,148007,201,180884
26.957,147993,210,180869
26.962,148005,208,180880
26.967,148014,206,180887
26.972,148008,204,180905
26.977,148005,201,180887
26.982,148017,211,180869
26.987,148008,209,180894
26.992,148010,207,180884
26.997,148019,205,180889
27.002,148020,204,180888
27.007,148013,203,180899
27.012,148020,202,180895
27.017,148015,211,180901
27.022,148023,209,180905
27.027,148030,201,180914
27.032,148027,209,180924
27.037,148024,206,180909
27.042,148033,204,180932
27.047,148024,202,180924
27.052,148039,211,180913
27.057,148037,208,180921
27.062,148025,206,180929
27.067,148046,204,180909
27.072,148041,202,180908
27.076,148038,204,180930
27.081,148059,204,180917
27.086,148064,201,180937
27.091,148064,210,180949
27.096,148072,208,180956
27.101,148067,207,180947
27.106,148075,205,180941
27.111,148080,204,180951
27.116,148081,203,180953
27.121,148059,203,180961
27.126,148090,205,180966
27.131,148093,204,180968
27.136,148093,203,180955
27.141,148106,202,180968
27.146,148100,212,180959
27.151,148106,211,180958
27.156,148110,201,180969
27.161,148112,202,180975
27.166,148122,202,180970
27.171,148112,207,180965
27.176,148135,207,180978
27.181,148143,209,180974
27.186,148141,209,180983
27.191,148144,212,180974
27.196,148140,201,180992
27.201,148150,202,180972
27.206,148154,203,180983
27.211,148157,204,181000
27.216,148163,203,180987
27.220,148169,209,180980
27.225,148171,208,180974
27.230,148179,209,180997
27.235,148184,209,180993
27.240,148192,210,180999
27.245,148191,211,180989
27.250,148201,202,180996
27.255,148207,201,181007
27.260,148218,201,181018
27.265,148211,201,181013
27.270,148215,208,181013
27.275,148222,208,181031
27.280,148228,208,181010
27.285,148243,208,181020
27.290,148246,209,181015
27.295,148254,209,181018
27.300,148265,210,181018
27.305,148266,209,181030
27.310,148270,210,181039
27.315,148275,211,181016
27.320,148272,209,181030
27.325,148274,208,181045
27.330,148299,209,181059
27.335,148312,208,181038
27.340,148292,209,181064
27.345,148292,208,181057
27.350,148322,208,181056
27.355,148329,207,181071
27.360,148336,208,181057
27.364,148325,219,181064
27.369,148342,206,181071
27.374,148348,205,181078
27.379,148349,205,181059
27.384,148365,204,181071
27.389,148367,205,181069
27.394,148378,204,181079
27.399,148375,204,181081
27.404,148364,204,181063
27.409,148349,204,181056
27.414,148361,208,181058
27.419,148325,208,181031
27.424,148334,207,181031
27.429,148308,207,181015
27.434,148294,205,180994
27.439,148268,205,180990
27.444,148255,203,180971
27.449,148245,202,180987
27.454,148231,202,180947
27.459,148217,213,180952
27.464,148207,206,180919
27.469,148186,210,180926
27.474,148157,208,180910
27.479,148144,208,180886
27.484,148143,207,180885
27.489,148117,208,180869
27.494,148108,207,180873
27.499,148107,207,180857
27.503,148095,206,180855
27.508,148076,207,180861
27.513,148090,211,180853
27.518,148066,212,180845
27.523,148071,211,180848
27.528,148061,211,180851
27.533,148047,211,180840
27.538,148045,211,180841
27.543,148034,210,180848
27.548,148035,211,180844
27.553,148043,211,180837
27.558,148028,201,180850
27.563,148027,210,180828
27.568,148032,211,180826
27.573,148020,211,180837
27.578,148021,212,180820
27.583,148005,212,180827
27.588,148000,201,180808
27.593,147999,202,180818
27.598,147989,202,180805
27.603,147991,202,180809
27.608,147986,206,180795
27.613,148001,204,180803
27.618,147990,206,180823
27.623,147980,206,180808
27.628,147991,206,180808
27.633,147987,207,180814
27.638,147975,208,180816
27.643,147969,208,180815
27.647,147982,209,180820
27.652,147987,209,180807
27.657,147989,202,180817
27.662,148002,203,180834
27.667,148001,204,180829
27.672,148005,205,180846
27.677,148001,204,180837
27.682,148020,205,180846
27.687,148002,205,180846
27.692,148014,205,180826
27.697,148003,204,180844
27.702,148021,204,180841
27.707,148013,209,180867
27.712,148020,209,180863
27.717,148006,208,180860
27.722,148041,209,180873
27.727,148035,209,180885
27.732,148035,211,180859
27.737,148030,210,180869
27.742,148049,210,180878
27.747,148041,210,180872
27.752,148029,211,180883
27.757,148034,204,180875
27.762,148032,204,180865
27.767,148043,204,180874
27.772,148033,204,180884
27.777,148048,205,180883
27.782,148045,206,180882
27.787,148049,205,180890
27.791,148041,206,180908
27.796,148058,205,180901
27.801,148046,204,180894
27.806,148044,209,180895
27.811,148061,210,180886
27.816,148072,209,180893
27.821,148059,210,180903
27.826,148062,211,180918
27.831,148069,210,180908
27.836,148078,210,180916
27.841,148082,210,180918
27.846,148102,209,180913
27.851,148094,210,180884
27.856,148089,202,180927
27.861,148107,203,180933
27.866,148120,202,180946
27.871,148110,203,180950
27.876,148119,203,180960
27.881,148124,202,180957
27.886,148115,202,180964
27.891,148120,202,180949
27.896,148124,201,180964
27.901,148176,202,180970
27.906,148143,206,180975
27.911,148158,206,180976
27.916,148160,206,180953
27.921,148166,206,180973
27.926,148163,205,180977
27.930,148174,206,180979
27.935,148172,205,180987
27.940,148182,204,180977
27.945,148192,203,180990
27.950,148172,207,180971
27.955,148184,205,180970
27.960,148183,205,180978
27.965,148197,204,180969
27.970,148168,205,180954
27.975,148178,204,180961
27.980,148184,204,180959
27.985,148192,204,180959
27.990,148195,205,180954
27.995,148185,204,180957
28.000,148203,209,180954
28.005,148216,208,180967
28.010,148203,209,180952
28.015,148204,208,180957
28.020,148219,208,180954
28.025,148221,207,180955
28.030,148225,209,180953
28.035,148247,209,180956
28.040,148235,208,180961
28.045,148243,206,180962
28.050,148250,207,180972
28.055,148257,207,180977
28.060,148277,208,180978
28.065,148276,207,180984
28.070,148285,208,181005
28.074,148291,207,181002
28.079,148295,207,181001
28.084,148317,207,181001
28.089,148314,209,181016
28.094,148316,210,181011
28.099,148325,204,180999
28.104,148332,204,181008
28.109,148341,205,181034
28.114,148348,206,181036
28.119,148354,207,181036
28.124,148360,207,181026
28.129,148367,207,181031
28.134,148367,206,181032
28.139,148345,206,181025
28.144,148366,204,181022
28.149,148344,212,181004
28.154,148327,201,180990
28.159,148308,201,180987
28.164,148296,211,180986
28.169,148284,212,180973
28.174,148275,211,180959
28.179,148252,211,180968
28.184,148246,210,180945
28.189,148223,211,180929
28.194,148262,202,180925
28.199,148192,206,180912
28.204,148174,205,180903
28.209,148174,205,180905
28.214,148153,205,180894
28.218,148147,205,180881
28.223,148139,204,180901
28.228,148134,205,180882
28.233,148129,203,180865
28.238,148113,203,180867
28.243,148096,206,180858
28.248,148094,207,180845
28.253,148081,206,180854
28.258,148086,205,180833
28.263,148056,205,180820
28.268,148055,204,180801
28.273,148024,203,180796
28.278,148040,203,180803
28.283,148035,202,180817
28.288,148029,202,180800
28.293,148016,205,180786
28.298,148008,204,180777
28.303,148011,203,180762
28.308,148006,202,180777
28.313,148003,211,180754
28.318,148000,210,180755
28.323,147989,208,180745
28.328,147985,208,180742
28.333,147986,206,180741
28.338,147968,206,180736
28.343,147985,210,180755
28.348,147978,209,180759
28.353,147984,207,180758
28.358,147988,206,180752
28.362,147975,206,180759
28.367,147990,204,180764
28.372,147993,203,180766
28.377,148002,202,180789
28.382,148020,202,180798
28.387,148016,205,180817
28.392,148019,204,180808
28.397,148029,204,180803
28.402,148024,204,180806
28.407,148023,204,180802
28.412,148028,203,180815
28.417,148027,203,180819
28.422,148047,202,180827
28.427,148045,203,180842
28.432,148051,203,180849
28.437,148076,207,180854
28.442,148067,202,180865
28.447,148072,202,180865
28.452,148088,202,180862
28.457,148082,202,180860
28.462,148079,201,180871
28.467,148085,201,180871
28.472,148078,202,180860
28.477,148071,212,180862
28.482,148075,212,180862
28.487,148085,207,180850
28.492,148092,209,180871
28.497,148084,208,180890
28.501,148107,208,180883
28.506,148100,208,180886
28.511,148094,210,180884
28.516,148094,209,180888
28.521,148099,209,180902
28.526,148117,208,180898
28.531,148095,208,180910
28.536,148105,202,180902
28.541,148118,202,180904
28.546,148126,202,180923
28.551,148117,202,180933
28.556,148129,202,180935
28.561,148142,202,180941
28.566,148127,203,180954
28.571,148141,203,180939
28.576,148153,203,180945
28.581,148153,204,180944
28.586,148170,208,180961
28.591,148148,208,180946
28.596,148169,208,180956
28.601,148180,209,180971
28.606,148173,208,180985
28.611,148179,209,180988
28.616,148199,208,180986
28.621,148217,209,180998
28.626,148219,209,181017
28.631,148220,211,180973
28.636,148233,202,181019
28.641,148239,203,181009
28.645,148234,202,181033
28.650,148241,203,181028
28.655,148242,202,181018
28.660,148252,204,181025
28.665,148263,204,181038
28.670,148275,204,181036
28.675,148267,202,181034
28.680,148303,207,181029
28.685,148279,206,181032
28.690,148292,207,181035
28.695,148300,206,181049
28.700,148321,207,181051
28.705,148319,206,181073
28.710,148332,206,181058
28.715,148337,206,181079
28.720,148341,207,181089
28.725,148353,206,181092
28.730,148351,213,181119
28.735,148358,206,181107
28.740,148377,207,181100
28.745,148370,207,181105
28.750,148364,207,181089
28.755,148384,208,181107
28.760,148392,210,181112
28.765,148409,210,181115
28.770,148406,211,181142
28.775,148424,211,181130
28.780,148428,205,181131
28.785,148431,204,181142
28.789,148431,204,181142
28.794,148433,203,181144
28.799,148430,203,181154
28.804,148419,203,181133
28.809,148423,204,181111
28.814,148387,204,181115
28.819,148375,204,181107
28.824,148373,203,181096
28.829,148365,209,181078
28.834,148346,210,181072
28.839,148346,209,181079
28.844,148321,209,181062
28.849,148302,212,181063
28.854,148312,201,181053
28.859,148281,202,181057
28.864,148276,201,181048
28.869,148260,202,181040
28.874,148255,203,181024
28.879,148245,206,181029
28.884,148224,206,181025
28.889,148214,206,181015
28.894,148215,206,181014
28.899,148200,206,181012
28.904,148201,205,180996
28.909,148179,205,180992
28.914,148177,204,180983
28.919,148162,204,180999
28.924,148182,202,180981
28.928,148169,207,180977
28.933,148156,206,180984
28.938,148160,207,180996
28.943,148147,206,180994
28.948,148161,206,180994
28.953,148157,205,180983
28.958,148146,205,180992
28.963,148142,204,180982
28.968,148144,205,180990
28.973,148145,208,180986
28.978,148134,207,180990
28.983,148126,206,180979
28.988,148121,206,180966
28.993,148117,206,180957
28.998,148112,206,180980
29.003,148102,206,180966
29.008,148103,206,180971
29.013,148103,205,180961
29.018,148108,204,180974
29.023,148108,208,180978
29.028,148113,207,180979
29.033,148125,205,180991
29.038,148135,204,181002
29.043,148123,204,180989
29.048,148123,204,181007
29.053,148128,203,181008
29.058,148119,204,180995
29.063,148109,203,181005
29.068,148120,203,181004
29.072,148129,201,181010
29.077,148129,201,181002
29.082,148129,201,181009
29.087,148134,212,181012
29.092,148146,211,181020
29.097,148149,210,181016
29.102,148145,210,181024
29.107,148156,210,181022
29.112,148147,209,181024
29.117,148157,209,181034
29.122,148152,202,181024
29.127,148148,202,181033
29.132,148147,201,181020
29.137,148152,202,181035
29.142,148160,201,181022
29.147,148162,201,181034
29.152,148153,201,181023
29.157,148151,211,181026
29.162,148154,211,181045
29.167,148142,203,181043
29.172,148152,208,181029
29.177,148152,208,181031
29.182,148165,208,181049
29.187,148163,207,181048
29.192,148159,208,181039
29.197,148171,207,181050
29.202,148165,207,181050
29.207,148178,208,181054
29.212,148186,208,181062
29.216,148184,201,181067
29.221,148183,201,181067
29.226,148192,201,181073
29.231,148197,201,181078
29.236,148207,202,181076
29.241,148200,201,181069
29.246,148211,201,181066
29.251,148203,202,181092
29.256,148216,202,181101
29.261,148215,202,181129
29.266,148228,206,181102
29.271,148229,207,181098
29.276,148239,208,181101
29.281,148242,208,181098
29.286,148251,208,181099
29.291,148245,208,181111
29.296,148251,209,181129
29.301,148263,208,181133
29.306,148264,209,181126
29.311,148258,209,181133
29.316,148279,202,181128
29.321,148286,203,181137
29.326,148279,203,181134
29.331,148296,203,181121
29.336,148303,203,181144
29.341,148308,203,181143
29.346,148308,203,181148
29.351,148303,203,181163
29.356,148321,203,181153
29.360,148305,202,181157
29.365,148324,207,181155
29.370,148336,209,181161
29.375,148329,208,181159
29.380,148367,208,181174
29.385,148352,208,181166
29.390,148369,208,181183
29.395,148367,208,181196
29.400,148375,208,181191
29.405,148381,208,181193
29.410,148387,210,181183
29.415,148401,209,181192
29.420,148395,209,181200
29.425,148402,210,181200
29.430,148406,211,181199
29.435,148422,210,181201
29.440,148422,212,181210
29.445,148423,211,181200
29.450,148426,211,181213
29.455,148439,211,181206
29.460,148407,203,181209
29.465,148437,203,181215
29.470,148445,204,181223
29.475,148441,204,181210
29.480,148433,205,181193
29.485,148414,205,181187
29.490,148391,207,181163
29.495,148390,207,181166
29.499,148374,208,181165
29.504,148370,207,181140
29.509,148329,202,181139
29.514,148337,202,181106
29.519,148300,203,181098
29.524,148277,204,181099
29.529,148268,205,181082
29.534,148261,204,181086
29.539,148240,205,181060
29.544,148231,205,181064
29.549,148212,207,181048
29.554,148196,206,181040
29.559,148185,211,181034
29.564,148174,210,181040
29.569,148174,211,181017
29.574,148153,210,181019
29.579,148136,211,181009
29.584,148132,211,181009
29.589,148123,212,181002
29.594,148123,211,180981
29.599,148121,212,181001
29.604,148096,211,180991
29.609,148114,205,180979
29.614,148102,205,180985
29.619,148094,206,180986
29.624,148088,206,180985
29.629,148097,206,180986
29.634,148086,207,180982
29.639,148076,207,180960
29.643,148076,207,180972
29.648,148054,209,180979
29.653,148052,209,180978
29.658,148051,203,180959
29.663,148036,203,180967
29.668,148049,205,180968
29.673,148051,205,180984
29.678,148028,207,180956
29.683,148024,206,180966
29.688,148030,209,180964
29.693,148030,210,180963
29.698,148021,202,180959
29.703,148013,205,180973
29.708,148014,207,180965
29.713,148012,208,180969
29.718,148023,209,180958
29.723,148013,209,180972
29.728,148019,211,180983
29.733,148030,201,180987
29.738,148038,203,180986
29.743,148029,204,180990
29.748,148038,206,180977
29.753,148022,210,180991
29.758,148024,201,180979
29.763,148032,202,180982
29.768,148035,203,180975
29.773,148030,203,180995
29.778,148030,204,180981
29.783,148032,204,180971
29.787,148014,206,180961
29.792,148030,206,180965
29.797,148007,208,180955
29.802,148007,202,180946
29.807,148005,203,180952
29.812,148005,204,180967
