df_hash,22ZHK4.8FYAMK
device,HZ2X61
project_hash,29R7
project_name,istanbul_aydin_university
person_hash,29R7.ZPV5
person_label,V99
date_time_start,2025-11-04_19-09-59.215000_+03
date_time_start_unix,1762268999.215
date_time_end,2025-11-04_19-18-14.354000_+03
length_difference_noticed,no

time,ppg_ir,ppg_ambient,ppg_red
5.042,196160,828,301796
5.047,196154,828,301826
5.052,196151,827,301805
5.057,196154,827,301817
5.062,196116,813,301812
5.067,196147,819,301810
5.072,196135,817,301797
5.077,196144,820,301829
5.082,196150,821,301794
5.087,196163,821,301834
5.092,196172,823,301835
5.097,196166,809,301834
5.102,196155,809,301838
5.107,196180,811,301834
5.112,196168,823,301826
5.117,196171,808,301848
5.122,196180,809,301852
5.127,196166,810,301825
5.132,196184,811,301844
5.137,196178,812,301845
5.142,196165,811,301833
5.147,196174,811,301842
5.152,196174,810,301825
5.157,196171,812,301841
5.161,196169,800,301852
5.166,196201,810,301851
5.171,196175,810,301847
5.176,196173,811,301833
5.181,196189,813,301827
5.186,196198,813,301828
5.191,196174,811,301844
5.196,196186,813,301846
5.201,196179,796,301848
5.206,196188,794,301849
5.211,196196,808,301828
5.216,196186,809,301861
5.221,196186,808,301830
5.226,196186,807,301838
5.231,196182,806,301789
5.236,196171,804,301805
5.241,196101,358,301796
5.246,196142,501,301769
5.251,196136,536,301743
5.256,196109,541,301744
5.261,196110,568,301716
5.266,196090,579,301700
5.271,196089,589,301697
5.276,196072,580,301678
5.281,196057,587,301650
5.286,196054,592,301655
5.291,196032,596,301641
5.296,196044,604,301640
5.301,196055,607,301654
5.306,196030,623,301624
5.311,196035,614,301639
5.315,196040,617,301646
5.320,196013,620,301612
5.325,196024,624,301618
5.330,196017,626,301641
5.335,196019,629,301607
5.340,196024,635,301624
5.345,196011,636,302046
5.350,196038,973,301612
5.355,196021,937,301618
5.360,196034,917,301633
5.365,196027,904,301616
5.370,196037,894,301608
5.375,196014,885,301604
5.380,196013,878,301598
5.385,196015,874,301603
5.390,196011,867,301596
5.395,195991,863,301581
5.400,195979,858,301583
5.405,196001,847,301611
5.410,196008,843,301609
5.415,196011,841,301588
5.420,196011,838,301608
5.425,195994,835,301587
5.430,196015,833,301615
5.435,196013,832,301603
5.440,196023,830,301631
5.445,196016,829,301644
5.450,196016,826,301617
5.455,196042,816,301632
5.460,196011,815,301608
5.464,196012,814,301599
5.469,196015,813,301604
5.474,196003,811,301616
5.479,196012,811,301607
5.484,196033,812,301591
5.489,196016,810,301592
5.494,196018,812,301616
5.499,196018,813,301608
5.504,196021,802,301631
5.509,196029,802,301641
5.514,196028,803,301587
5.519,196028,806,301599
5.524,196011,807,301622
5.529,196018,808,301637
5.534,196012,809,301627
5.539,196025,793,301624
5.544,196001,793,301619
5.549,196007,790,301627
5.554,196009,804,301628
5.559,196013,805,301626
5.564,196024,790,301644
5.569,196042,789,301631
5.574,196034,791,301656
5.579,196042,793,301673
5.584,196051,795,301655
5.589,196049,795,301658
5.594,196069,798,301665
5.599,196047,789,301661
5.604,196034,789,301666
5.609,196058,791,301668
5.614,196065,791,301666
5.618,196065,791,301669
5.623,196048,791,301665
5.628,196068,793,301679
5.633,196063,794,301689
5.638,196061,778,301684
5.643,196062,779,301693
5.648,196074,785,301684
5.653,196074,786,301668
5.658,196048,789,301669
5.663,196076,776,301681
5.668,196077,778,301659
5.673,196076,780,301670
5.678,196065,782,301702
5.683,196077,785,301700
5.688,196071,788,301701
5.693,196094,772,301688
5.698,196078,782,301689
5.703,196096,783,301712
5.708,196093,785,301709
5.713,196093,772,301710
5.718,196096,773,301714
5.723,196104,774,301713
5.728,196102,775,301717
5.733,196115,776,301698
5.738,196106,779,301722
5.743,196119,780,301727
5.748,196124,771,301746
5.753,196134,772,301761
5.758,196117,771,301742
5.763,196119,773,301757
5.767,196128,775,301743
5.772,196133,775,301752
5.777,196137,777,301755
5.782,196130,778,301757
5.787,196138,765,301763
5.792,196160,767,301732
5.797,196166,771,301779
5.802,196156,772,301773
5.807,196144,773,301777
5.812,196150,774,301772
5.817,196138,776,301789
5.822,196141,761,301742
5.827,196136,762,301751
5.832,196129,762,301750
5.837,196133,764,301742
5.842,196172,780,301726
5.847,196122,763,301717
5.852,196108,764,301747
5.857,196096,766,301729
5.862,196114,766,301737
5.867,196105,767,301728
5.872,196103,767,301719
5.877,196095,769,301714
5.882,196083,770,301710
5.887,196104,759,301693
5.892,196097,763,301705
5.897,196086,765,301727
5.902,196069,765,301703
5.907,196075,766,301701
5.912,196082,768,301716
5.917,196081,772,301704
5.921,196074,757,301691
5.926,196085,757,301702
5.931,196077,758,301677
5.936,196058,760,301662
5.941,196073,746,301697
5.946,196075,759,301711
5.951,196059,760,301693
5.956,196063,763,301671
5.961,196049,764,301682
5.966,196056,766,301661
5.971,196061,767,301648
5.976,196058,754,301668
5.981,196034,755,301682
5.986,196036,757,301633
5.991,196027,753,301637
5.996,196022,755,301645
6.001,196028,755,301654
6.006,196036,758,301653
6.011,196055,757,301679
6.016,196057,758,301697
6.021,196051,759,301699
6.026,196035,759,301676
6.031,196051,757,301675
6.036,196041,764,301625
6.041,196051,750,301670
6.046,196062,752,301658
6.051,196047,749,301657
6.056,196061,752,301671
6.061,196044,750,301689
6.066,196047,753,301673
6.070,196060,751,301663
6.075,196051,753,301663
6.080,196045,753,301678
6.085,196091,760,301673
6.090,196046,761,301671
6.095,196042,745,301667
6.100,196023,745,301669
6.105,196043,747,301664
6.110,196041,745,301672
6.115,196041,746,301672
6.120,196048,746,301658
6.125,196030,748,301663
6.130,196027,748,301639
6.135,196038,756,301639
6.140,196031,756,301633
6.145,196014,758,301650
6.150,196047,757,301651
6.155,196035,758,301653
6.160,196041,757,301657
6.165,196038,758,301653
6.170,196030,757,301662
6.175,196034,759,301667
6.180,196025,756,301668
6.185,196040,746,301641
6.190,196044,746,301655
6.195,196032,746,301631
6.200,196030,747,301645
6.205,196046,748,301657
6.210,196027,747,301659
6.215,196034,747,301647
6.220,196038,745,301643
6.224,196040,747,301662
6.229,196031,744,301661
6.234,196035,744,301629
6.239,196032,743,301228
6.244,196032,443,301624
6.249,196050,482,301633
6.254,196029,503,301611
6.259,196032,517,301619
6.264,196037,528,301631
6.269,196031,536,301623
6.274,196023,547,301636
6.279,196031,556,301632
6.284,196044,550,301637
6.289,196035,556,301622
6.294,196034,562,301610
6.299,196020,568,301626
6.304,196025,573,301622
6.309,196035,577,301595
6.314,196043,583,301596
6.319,196028,588,301626
6.324,196040,592,301612
6.329,196065,578,301610
6.334,196022,586,301626
6.339,196041,591,301581
6.344,196030,594,301599
6.349,196025,936,301584
6.354,196037,887,301579
6.359,196045,865,301601
6.364,196059,853,301605
6.369,196042,843,301586
6.373,196052,836,301599
6.378,196049,821,301596
6.383,196054,817,301586
6.388,196059,813,301579
6.393,196033,809,301593
6.398,196034,806,301594
6.403,196032,804,301570
6.408,196035,798,301554
6.413,196016,795,301532
6.418,196014,793,301523
6.423,195999,793,301511
6.428,195984,797,301503
6.433,195969,779,301480
6.438,195966,778,301472
6.443,195927,776,301458
6.448,195944,775,301464
6.453,195922,772,301433
6.458,195932,772,301394
6.463,195909,772,301403
6.468,195899,773,301398
6.473,195887,775,301374
6.478,195891,765,301373
6.483,195882,765,301364
6.488,195863,765,301366
6.493,195868,765,301352
6.498,195862,766,301337
6.503,195854,766,301340
6.508,195878,766,301376
6.513,195864,768,301346
6.518,195837,770,301335
6.522,195840,770,301327
6.527,195852,764,301357
6.532,195841,767,301316
6.537,195840,752,301324
6.542,195847,755,301313
6.547,195840,754,301298
6.552,195828,755,301306
6.557,195817,756,301295
6.562,195823,756,301279
6.567,195809,757,301275
6.572,195801,764,301249
6.577,195802,750,301263
6.582,195795,752,301252
6.587,195789,753,301258
6.592,195789,752,301253
6.597,195801,755,301250
6.602,195795,757,301269
6.607,195778,759,301268
6.612,195778,744,301239
6.617,195789,747,301263
6.622,195795,753,301269
6.627,195787,753,301250
6.632,195784,754,301239
6.637,195757,741,301258
6.642,195778,745,301235
6.647,195779,746,301228
6.652,195808,747,301246
6.657,195780,750,301224
6.662,195764,751,301258
6.667,195777,739,301227
6.672,195788,745,301230
6.676,195773,747,301225
6.681,195788,747,301221
6.686,195773,747,301200
6.691,195764,750,301220
6.696,195766,753,301209
6.701,195754,737,301228
6.706,195755,738,301210
6.711,195756,740,301208
6.716,195752,744,301196
6.721,195748,750,301178
6.726,195736,736,301202
6.731,195739,736,301172
6.736,195746,737,301177
6.741,195756,740,301182
6.746,195755,741,301173
6.751,195757,743,301187
6.756,195758,748,301164
6.761,195753,734,301159
6.766,195747,736,301174
6.771,195764,744,301182
6.776,195752,732,301173
6.781,195762,732,301184
6.786,195749,736,301212
6.791,195759,736,301183
6.796,195744,738,301186
6.801,195750,739,301174
6.806,195753,743,301175
6.811,195750,743,301188
6.816,195756,731,301179
6.821,195758,740,301184
6.825,195758,743,301183
6.830,195765,743,301186
6.835,195741,744,301184
6.840,195763,729,301161
6.845,195767,731,301147
6.850,195780,731,301184
6.855,195776,731,301164
6.860,195765,730,301179
6.865,195764,736,301194
6.870,195771,736,301180
6.875,195764,738,301173
6.880,195764,737,301211
6.885,195781,737,301183
6.890,195764,736,301190
6.895,195793,738,301214
6.900,195789,738,301212
6.905,195786,741,301196
6.910,195806,724,301208
6.915,195829,743,301196
6.920,195792,739,301225
6.925,195789,724,301228
6.930,195794,724,301241
6.935,195790,727,301219
6.940,195804,724,301223
6.945,195808,728,301226
6.950,195818,727,301223
6.955,195813,729,301243
6.960,195810,730,301253
6.965,195825,723,301251
6.970,195808,723,301249
6.975,195846,726,301249
6.979,195835,728,301251
6.984,195841,729,301251
6.989,195813,726,301253
6.994,195844,726,301271
6.999,195817,727,301270
7.004,195845,729,301281
7.009,195841,726,301271
7.014,195859,735,301263
7.019,195859,720,301262
7.024,195847,722,301242
7.029,195821,722,301234
7.034,195831,724,301220
7.039,195811,725,301229
7.044,195806,728,301192
7.049,195792,729,301190
7.054,195788,732,301186
7.059,195776,726,301244
7.064,195781,725,301175
7.069,195753,725,301153
7.074,195761,728,301138
7.079,195721,733,301121
7.084,195754,721,301146
7.089,195738,720,301132
7.094,195729,724,301127
7.099,195719,725,301133
7.104,195715,727,301108
7.109,195670,734,301105
7.114,195725,719,301104
7.119,195707,721,301093
7.124,195704,724,301087
7.128,195694,726,301113
7.133,195693,728,301071
7.138,195693,728,301072
7.143,195681,732,301090
7.148,195682,717,301053
7.153,195660,717,301072
7.158,195670,724,301056
7.163,195677,726,301061
7.168,195652,728,301056
7.173,195666,729,301051
7.178,195648,730,301029
7.183,195639,734,301015
7.188,195654,718,301054
7.193,195635,720,301045
7.198,195623,722,301011
7.203,195635,722,301009
7.208,195633,729,301020
7.213,195632,729,300985
7.218,195623,732,301013
7.223,195616,716,301011
7.228,195601,716,300998
7.233,195630,718,300993
7.238,195633,720,301000
7.243,195625,415,300996
7.248,195620,462,301022
7.253,195635,484,301002
7.258,195628,489,301022
7.263,195602,503,301016
7.268,195625,514,301002
7.273,195615,523,300987
7.278,195605,532,301017
7.282,195622,542,301006
7.287,195621,549,301014
7.292,195616,554,300983
7.297,195607,543,301026
7.302,195626,549,300987
7.307,195621,559,301000
7.312,195599,565,300997
7.317,195604,572,301000
7.322,195607,562,300968
7.327,195602,567,300976
7.332,195589,569,300983
7.337,195594,577,300944
7.342,195582,583,300953
7.347,195571,934,300968
7.352,195574,878,300965
7.357,195615,845,300953
7.362,195594,834,300976
7.367,195592,824,300969
7.372,195604,816,300957
7.377,195592,811,300979
7.382,195595,806,300955
7.387,195601,801,300961
7.392,195592,796,300949
7.397,195577,777,300964
7.402,195585,788,300988
7.407,195586,786,300944
7.412,195585,769,300973
7.417,195577,767,300954
7.422,195581,765,300948
7.427,195572,763,300969
7.431,195583,762,300923
7.436,195581,764,300914
7.441,195572,764,300905
7.446,195575,765,300917
7.451,195580,745,300877
7.456,195565,754,300913
7.461,195575,756,300908
7.466,195557,756,300910
7.471,195566,757,300895
7.476,195567,758,300918
7.481,195573,757,300916
7.486,195552,741,300906
7.491,195566,740,300910
7.496,195560,741,300897
7.501,195549,744,300891
7.506,195555,746,300882
7.511,195559,745,300895
7.516,195552,748,300877
7.521,195541,749,300879
7.526,195562,735,300866
7.531,195544,734,300859
7.536,195551,735,300847
7.541,195553,735,300827
7.546,195540,738,300846
7.551,195539,744,300882
7.556,195540,746,300845
7.561,195549,731,300875
7.566,195546,732,300869
7.571,195560,733,300855
7.576,195548,734,300859
7.581,195537,733,300855
7.585,195538,734,300842
7.590,195542,734,300835
7.595,195554,737,300862
7.600,195550,726,300851
7.605,195552,725,300849
7.610,195546,725,300839
7.615,195547,725,300827
7.620,195542,724,300842
7.625,195535,725,300828
7.630,195556,723,300841
7.635,195529,725,300823
7.640,195543,725,300827
7.645,195519,731,300798
7.650,195514,732,300763
7.655,195508,734,300751
7.660,195479,734,300731
7.665,195458,720,300687
7.670,195443,719,300680
7.675,195436,720,300633
7.680,195402,722,300609
7.685,195380,723,300605
7.690,195354,721,300574
7.695,195340,738,300530
7.700,195349,719,300541
7.705,195328,721,300521
7.710,195318,719,300512
7.715,195312,722,300509
7.720,195306,723,300506
7.725,195325,724,300499
7.730,195301,724,300531
7.734,195308,726,300516
7.739,195320,728,300540
7.744,195328,720,300538
7.749,195337,722,300549
7.754,195323,725,300526
7.759,195335,727,300565
7.764,195336,713,300565
7.769,195333,714,300587
7.774,195340,717,300577
7.779,195343,720,300584
7.784,195345,723,300608
7.789,195344,724,300577
7.794,195353,715,300609
7.799,195340,715,300607
7.804,195360,718,300605
7.809,195345,717,300612
7.814,195344,720,300596
7.819,195341,720,300599
7.824,195356,722,300590
7.829,195329,722,300622
7.834,195341,707,300603
7.839,195331,732,300601
7.844,195321,716,300612
7.849,195330,713,300629
7.854,195357,716,300607
7.859,195343,716,300597
7.864,195337,718,300619
7.869,195327,717,300636
7.874,195354,720,300605
7.879,195331,719,300618
7.884,195338,720,300597
7.888,195327,709,300606
7.893,195319,710,300614
7.898,195318,713,300593
7.903,195326,715,300602
7.908,195319,714,300626
7.913,195320,717,300617
7.918,195306,716,300601
7.923,195313,717,300612
7.928,195339,717,300604
7.933,195319,718,300608
7.938,195311,709,300592
7.943,195311,712,300579
7.948,195315,709,300593
7.953,195314,712,300583
7.958,195294,712,300563
7.963,195303,712,300556
7.968,195304,712,300558
7.973,195301,715,300575
7.978,195300,716,300544
7.983,195275,716,300532
7.988,195274,707,300526
7.993,195296,709,300555
7.998,195289,708,300521
8.003,195284,709,300527
8.008,195270,710,300537
8.013,195269,710,300541
8.018,195286,710,300550
8.023,195272,713,300524
8.028,195272,712,300539
8.033,195289,714,300519
8.037,195275,709,300527
8.042,195283,712,300520
8.047,195278,714,300522
8.052,195297,716,300537
8.057,195291,718,300544
8.062,195306,705,300559
8.067,195306,704,300552
8.072,195294,706,300561
8.077,195299,707,300571
8.082,195297,719,300552
8.087,195304,715,300574
8.092,195313,716,300558
8.097,195302,717,300552
8.102,195286,702,300547
8.107,195313,703,300575
8.112,195306,704,300561
8.117,195315,706,300587
8.122,195302,707,300568
8.127,195305,707,300564
8.132,195308,720,300585
8.137,195315,704,300569
8.142,195326,705,300580
8.147,195310,705,300561
8.152,195299,704,300578
8.157,195309,704,300581
8.162,195307,707,300534
8.167,195329,707,300588
8.172,195331,707,300556
8.177,195319,709,300576
8.182,195330,716,300566
8.187,195323,716,300574
8.191,195322,701,300575
8.196,195332,702,300578
8.201,195342,704,300579
8.206,195324,707,300582
8.211,195320,707,300595
8.216,195336,709,300572
8.221,195343,708,300597
8.226,195354,711,300591
8.231,195336,701,300569
8.236,195350,699,300591
8.241,195345,379,300577
8.246,195323,437,300578
8.251,195349,460,300572
8.256,195325,478,300569
8.261,195330,491,300575
8.266,195339,502,300542
8.271,195335,510,300567
8.276,195318,521,300530
8.281,195282,516,300523
8.286,195281,522,300504
8.291,195299,528,300483
8.296,195276,534,300504
8.301,195268,541,300455
8.306,195268,546,300488
8.311,195271,551,300467
8.316,195251,558,300457
8.321,195242,543,300478
8.326,195233,552,300453
8.331,195237,550,300454
8.336,195219,557,300450
8.340,195219,562,300426
8.345,195203,934,300421
8.350,195220,852,300424
8.355,195221,827,300419
8.360,195231,813,300429
8.365,195217,801,300438
8.370,195199,793,300430
8.375,195217,783,300430
8.380,195204,788,300419
8.385,195196,785,300430
8.390,195206,765,300430
8.395,195207,763,300406
8.400,195196,759,300410
8.405,195183,757,300416
8.410,195186,752,300408
8.415,195183,752,300411
8.420,195182,750,300386
8.425,195160,755,300400
8.430,195156,754,300395
8.435,195175,751,300395
8.440,195172,752,300389
8.445,195170,751,300386
8.450,195154,749,300378
8.455,195168,748,300413
8.460,195163,746,300417
8.465,195170,745,300397
8.470,195182,741,300428
8.475,195200,742,300448
8.480,195173,740,300432
8.485,195171,740,300426
8.490,195176,737,300437
8.494,195198,736,300422
8.499,195192,734,300426
8.504,195196,734,300435
8.509,195190,731,300451
8.514,195205,732,300445
8.519,195196,730,300450
8.524,195192,721,300459
8.529,195175,720,300425
8.534,195190,719,300420
8.539,195180,718,300435
8.544,195185,718,300413
8.549,195189,717,300434
8.554,195184,718,300433
8.559,195149,717,300431
8.564,195167,718,300412
8.569,195167,716,300411
8.574,195170,722,300428
8.579,195166,724,300433
8.584,195165,725,300446
8.589,195178,725,300441
8.594,195174,709,300431
8.599,195185,710,300428
8.604,195185,711,300434
8.609,195176,710,300459
8.614,195198,711,300460
8.619,195234,707,300492
8.624,195220,717,300452
8.629,195215,715,300475
8.634,195224,716,300501
8.639,195214,714,300505
8.643,195223,715,300511
8.648,195217,714,300510
8.653,195239,714,300511
8.658,195240,714,300518
8.663,195252,715,300529
8.668,195252,704,300555
8.673,195262,703,300521
8.678,195254,702,300573
8.683,195247,704,300551
8.688,195259,702,300548
8.693,195257,702,300576
8.698,195281,703,300594
8.703,195289,702,300578
8.708,195294,700,300599
8.713,195305,700,300604
8.718,195289,706,300626
8.723,195300,707,300621
8.728,195311,706,300627
8.733,195320,706,300641
8.738,195313,705,300650
8.743,195321,708,300658
8.748,195326,706,300673
8.753,195345,704,300665
8.758,195350,705,300668
8.763,195356,705,300693
8.768,195358,699,300691
8.773,195353,700,300710
8.778,195365,701,300695
8.783,195354,701,300709
8.788,195355,702,300728
8.792,195375,703,300737
8.797,195390,703,300744
8.802,195409,704,300727
8.807,195393,703,300760
8.812,195410,707,300768
8.817,195396,699,300751
8.822,195416,701,300765
8.827,195402,702,300793
8.832,195401,703,300757
8.837,195408,704,300772
8.842,195432,705,300756
8.847,195411,705,300767
8.852,195416,702,300791
8.857,195427,705,300761
8.862,195395,707,300767
8.867,195425,695,300754
8.872,195400,695,300746
8.877,195404,697,300735
8.882,195378,697,300692
8.887,195363,699,300714
8.892,195375,701,300694
8.897,195350,701,300709
8.902,195350,702,300672
8.907,195351,702,300663
8.912,195358,700,300673
8.917,195316,699,300664
8.922,195309,701,300673
8.927,195330,701,300652
8.932,195324,701,300677
8.937,195312,701,300667
8.942,195317,702,300649
8.946,195285,703,300660
8.951,195295,703,300657
8.956,195314,704,300634
8.961,195299,694,300654
8.966,195296,694,300658
8.971,195289,694,300651
8.976,195304,696,300662
8.981,195272,696,300653
8.986,195279,695,300628
8.991,195283,693,300623
8.996,195263,697,300594
9.001,195268,694,300625
9.006,195248,695,300641
9.011,195267,702,300624
9.016,195267,703,300618
9.021,195261,690,300590
9.026,195238,692,300594
9.031,195223,692,300606
9.036,195235,693,300587
9.041,195224,694,300602
9.046,195239,697,300597
9.051,195230,697,300599
9.056,195231,700,300602
9.061,195238,691,300619
9.066,195245,692,300622
9.071,195246,694,300618
9.076,195250,695,300609
9.081,195255,695,300644
9.086,195262,698,300628
9.091,195259,697,300648
9.095,195231,700,300643
9.100,195256,685,300619
9.105,195256,698,300712
9.110,195240,695,300626
9.115,195241,698,300634
9.120,195230,700,300625
9.125,195255,686,300618
9.130,195243,685,300642
9.135,195255,690,300620
9.140,195239,689,300653
9.145,195229,693,300619
9.150,195232,693,300604
9.155,195213,692,300637
9.160,195234,694,300605
9.165,195240,696,300621
9.170,195235,696,300595
9.175,195230,697,300601
9.180,195239,696,300616
9.185,195252,695,300625
9.190,195246,695,300642
9.195,195240,695,300635
9.200,195241,694,300648
9.205,195255,686,300645
9.210,195247,685,300643
9.215,195254,688,300655
9.220,195256,687,300657
9.225,195255,688,300656
9.230,195247,688,300640
9.235,195228,689,300648
9.240,195258,357,300652
9.245,195252,426,300632
9.249,195230,453,300634
9.254,195240,461,300635
9.259,195235,471,300648
9.264,195238,480,300631
9.269,195247,485,300649
9.274,195221,496,300630
9.279,195246,501,300643
9.284,195252,507,300643
9.289,195262,511,300635
9.294,195251,517,300650
9.299,195240,520,300660
9.304,195259,532,300672
9.309,195255,534,300671
9.314,195261,537,300641
9.319,195245,539,300672
9.324,195295,543,300666
9.329,195264,543,300686
9.334,195293,548,300661
9.339,195289,552,300686
9.344,195269,987,300699
9.349,195286,847,300724
9.354,195296,810,300711
9.359,195297,793,300733
9.364,195304,784,300740
9.369,195318,774,300732
9.374,195298,768,300731
9.379,195308,761,300742
9.384,195311,757,300742
9.389,195329,750,300727
9.394,195290,746,300725
9.398,195267,739,300725
9.403,195322,745,300743
9.408,195326,740,300748
9.413,195319,741,300747
9.418,195340,740,300759
9.423,195332,739,300766
9.428,195324,738,300765
9.433,195340,721,300748
9.438,195322,720,300739
9.443,195325,721,300747
9.448,195323,733,300723
9.453,195308,717,300711
9.458,195268,717,300705
9.463,195316,718,300697
9.468,195285,716,300711
9.473,195278,716,300692
9.478,195263,713,300668
9.483,195261,712,300646
9.488,195241,710,300642
9.493,195230,710,300660
9.498,195246,694,300644
9.503,195223,707,300630
9.508,195216,708,300643
9.513,195193,707,300633
9.518,195218,707,300616
9.523,195207,710,300638
9.528,195218,707,300616
9.533,195206,708,300610
9.538,195201,707,300643
9.543,195200,711,300640
9.548,195220,695,300648
9.552,195208,696,300637
9.557,195205,697,300660
9.562,195197,698,300655
9.567,195205,696,300632
9.572,195204,697,300642
9.577,195200,698,300628
9.582,195216,699,300657
9.587,195214,699,300669
9.592,195215,701,300675
9.597,195226,706,300631
9.602,195218,707,300649
9.607,195222,706,300668
9.612,195202,691,300675
9.617,195209,692,300660
9.622,195211,692,300666
9.627,195205,690,300700
9.632,195214,690,300685
9.637,195217,690,300705
9.642,195231,713,300689
9.647,195241,695,300693
9.652,195232,695,300695
9.657,195229,696,300699
9.662,195255,696,300704
9.667,195244,696,300709
9.672,195236,696,300731
9.677,195233,697,300727
9.682,195270,696,300714
9.687,195261,693,300744
9.692,195263,685,300741
9.697,195259,684,300742
9.701,195259,685,300739
9.706,195259,685,300750
9.711,195264,686,300747
9.716,195269,685,300755
9.721,195266,685,300758
9.726,195258,685,300763
9.731,195281,687,300753
9.736,195269,687,300747
9.741,195266,693,300758
9.746,195279,696,300767
9.751,195278,679,300768
9.756,195256,683,300769
9.761,195273,684,300777
9.766,195268,684,300773
9.771,195276,686,300794
9.776,195269,687,300769
9.781,195275,690,300765
9.786,195289,691,300752
9.791,195293,686,300801
9.796,195274,689,300800
9.801,195292,692,300796
9.806,195274,693,300808
9.811,195268,692,300790
9.816,195279,677,300776
9.821,195281,680,300780
9.826,195304,679,300797
9.831,195303,681,300796
9.836,195279,683,300797
9.841,195310,681,300766
9.846,195285,683,300795
9.851,195306,682,300801
9.855,195298,685,300811
9.860,195284,684,300796
9.865,195312,685,300810
9.870,195296,684,300835
9.875,195298,685,300801
9.880,195307,685,300812
9.885,195307,696,300783
9.890,195303,675,300815
9.895,195304,676,300816
9.900,195322,675,300806
9.905,195317,673,300826
9.910,195321,674,300849
9.915,195331,676,300822
9.920,195314,674,300835
9.925,195322,676,300841
9.930,195324,677,300852
9.935,195338,684,300856
9.940,195354,684,300871
9.945,195350,686,300873
9.950,195341,688,300871
9.955,195372,673,300861
9.960,195356,672,300875
9.965,195365,674,300898
9.970,195362,673,300912
9.975,195392,676,300904
9.980,195385,675,300913
9.985,195385,683,300920
9.990,195408,681,300942
9.995,195409,683,300918
10.000,195398,684,300940
10.004,195403,685,300927
10.009,195392,685,300914
10.014,195382,686,300906
10.019,195381,687,300921
10.024,195385,671,300908
10.029,195372,670,300892
10.034,195352,678,300865
10.039,195350,677,300904
10.044,195344,680,300872
10.049,195351,678,300874
10.054,195336,679,300875
10.059,195332,677,300870
10.064,195338,678,300882
10.069,195324,674,300858
10.074,195319,676,300867
10.079,195323,674,300858
10.084,195323,684,300856
10.089,195312,681,300866
10.094,195303,683,300840
10.099,195313,681,300836
10.104,195321,679,300864
10.109,195322,679,300854
10.114,195319,681,300898
10.119,195336,679,300870
10.124,195329,681,300890
10.129,195335,683,300899
10.134,195333,672,300893
10.139,195331,671,300898
10.144,195346,674,300895
10.149,195342,673,300909
10.154,195358,676,300957
10.158,195353,676,300933
10.163,195347,676,300920
10.168,195351,676,300950
10.173,195345,676,300947
10.178,195375,666,300943
10.183,195351,671,300957
10.188,195354,672,300962
10.193,195364,676,300956
10.198,195357,674,300951
10.203,195374,677,300968
10.208,195361,678,300958
10.213,195367,680,300981
10.218,195355,681,300966
10.223,195376,681,300980
10.228,195372,671,300986
10.233,195369,674,300983
10.238,195393,301,300992
10.243,195374,410,300993
10.248,195377,444,301004
10.253,195387,461,300989
10.258,195370,476,301011
10.263,195388,468,301017
10.268,195388,476,301026
10.273,195396,485,301026
10.278,195397,493,301030
10.283,195396,493,301009
10.288,195393,498,301016
10.293,195400,504,301009
10.298,195397,507,301021
10.303,195389,512,301026
10.307,195385,516,301027
10.312,195399,522,301015
10.317,195383,526,301041
10.322,195381,526,301003
10.327,195393,539,301012
10.332,195385,526,301019
10.337,195389,528,301034
10.342,195400,534,300978
10.347,195409,832,301020
10.352,195410,798,301050
10.357,195411,781,301056
10.362,195425,773,301065
10.367,195411,764,301045
10.372,195421,760,301044
10.377,195426,752,301047
10.382,195412,746,301079
10.387,195431,744,301059
10.392,195440,741,301064
10.397,195426,723,301062
10.402,195425,722,301047
10.407,195426,719,301074
10.412,195450,717,301060
10.417,195433,716,301077
10.422,195452,702,301069
10.427,195441,717,301080
10.432,195436,717,301067
10.437,195439,717,301071
10.442,195457,716,301098
10.447,195434,713,301097
10.452,195456,711,301086
10.457,195450,709,301075
10.461,195442,707,301072
10.466,195439,704,301073
10.471,195447,694,301094
10.476,195446,695,301101
10.481,195464,693,301095
10.486,195459,692,301075
10.491,195470,691,301085
10.496,195469,691,301106
10.501,195467,691,301123
10.506,195483,690,301110
10.511,195486,691,301135
10.516,195496,692,301107
10.521,195484,697,301115
10.526,195492,697,301128
10.531,195479,697,301132
10.536,195486,697,301136
10.541,195500,695,301143
10.546,195482,680,301139
10.551,195488,681,301149
10.556,195497,682,301114
10.561,195474,683,301123
10.566,195484,683,301137
10.571,195476,679,301112
10.576,195477,682,301078
10.581,195483,682,301081
10.586,195439,682,301066
10.591,195452,684,301065
10.596,195443,684,301058
10.601,195444,685,301052
10.606,195430,688,301023
10.610,195428,689,301058
10.615,195411,674,301003
10.620,195409,680,301030
10.625,195408,681,301030
10.630,195401,681,301023
10.635,195405,682,301004
10.640,195403,683,301011
10.645,195387,683,301013
10.650,195396,683,300996
10.655,195377,685,301001
10.660,195387,686,301003
10.665,195379,664,300969
10.670,195375,677,300979
10.675,195375,677,300996
10.680,195369,677,300975
10.685,195383,677,300998
10.690,195388,675,301008
10.695,195377,673,300994
10.700,195380,673,301016
10.705,195382,672,301006
10.710,195372,671,301006
10.715,195381,677,300982
10.720,195362,676,300994
10.725,195379,676,300996
10.730,195361,674,300969
10.735,195357,674,300988
10.740,195369,674,300973
10.745,195368,674,300990
10.750,195367,673,300992
10.755,195362,674,300999
10.760,195374,673,301001
10.764,195382,681,300989
10.769,195388,681,301011
10.774,195379,682,300999
10.779,195387,680,301039
10.784,195381,682,301033
10.789,195399,665,301023
10.794,195385,667,301030
10.799,195384,667,301014
10.804,195400,669,301044
10.809,195383,668,301036
10.814,195378,665,301056
10.819,195401,668,301016
10.824,195406,670,301010
10.829,195397,670,301058
10.834,195399,672,301054
10.839,195396,673,301030
10.844,195407,672,301032
10.849,195393,671,301045
10.854,195405,673,301047
10.859,195400,672,301052
10.864,195415,664,301031
10.869,195405,662,301060
10.874,195385,663,301056
10.879,195409,665,301048
10.884,195406,665,301068
10.889,195419,664,301053
10.894,195402,667,301083
10.899,195415,664,301069
10.904,195405,665,301083
10.909,195429,666,301094
10.913,195439,671,301078
10.918,195416,672,301081
10.923,195452,673,301063
10.928,195442,672,301110
10.933,195440,671,301112
10.938,195442,671,301100
10.943,195450,671,301106
10.948,195451,671,301116
10.953,195443,674,301122
10.958,195456,666,301150
10.963,195461,674,301108
10.968,195453,674,301109
10.973,195477,675,301114
10.978,195464,673,301145
10.983,195472,674,301134
10.988,195463,675,301125
10.993,195462,674,301125
10.998,195480,658,301115
11.003,195490,658,301119
11.008,195460,662,301127
11.013,195472,664,301122
11.018,195471,665,301129
11.023,195471,669,301143
11.028,195482,669,301133
11.033,195461,672,301137
11.038,195498,658,301156
11.043,195493,659,301159
11.048,195498,658,301148
11.053,195487,661,301159
11.058,195504,667,301152
11.063,195509,670,301158
11.067,195509,672,301153
11.072,195508,658,301151
11.077,195491,656,301168
11.082,195503,661,301169
11.087,195517,660,301170
11.092,195521,661,301168
11.097,195519,662,301175
11.102,195506,664,301184
11.107,195533,672,301174
11.112,195515,657,301180
11.117,195521,657,301190
11.122,195521,658,301168
11.127,195507,659,301158
11.132,195521,660,301169
11.137,195499,663,301123
11.142,195496,665,301132
11.147,195499,666,301143
11.152,195484,670,301144
11.157,195467,660,301125
11.162,195484,662,301113
11.167,195474,662,301126
11.172,195466,664,301141
11.177,195480,664,301138
11.182,195469,666,301123
11.187,195459,668,301144
11.192,195485,669,301128
11.197,195455,670,301132
11.202,195438,651,301145
11.207,195465,661,301150
11.212,195462,662,301094
11.216,195463,662,301145
11.221,195478,666,301122
11.226,195474,668,301130
11.231,195460,669,301132
11.236,195460,655,300839
11.241,195464,386,301148
11.246,195458,421,301139
11.251,195468,455,301143
11.256,195470,452,301146
11.261,195458,460,301138
11.266,195456,468,301127
11.271,195459,478,301127
11.276,195443,485,301117
11.281,195446,491,301144
11.286,195451,497,301130
11.291,195474,502,301129
11.296,195456,508,301154
11.301,195492,521,301137
11.306,195499,506,301148
11.311,195472,512,301180
11.316,195490,517,301187
11.321,195510,521,301182
11.326,195510,527,301214
11.331,195515,531,301221
11.336,195502,518,301225
11.341,195512,524,301221
11.346,195526,824,301199
11.351,195528,795,301227
11.356,195532,761,301232
11.361,195520,753,301227
11.365,195515,748,301243
11.370,195532,742,301256
11.375,195537,741,301252
11.380,195537,724,301237
11.385,195557,722,301260
11.390,195531,719,301249
11.395,195549,720,301281
11.400,195541,710,301263
11.405,195538,708,301247
11.410,195543,708,301277
11.415,195546,709,301260
11.420,195544,710,301253
11.425,195549,711,301267
11.430,195565,696,301286
11.435,195556,696,301289
11.440,195569,694,301301
11.445,195563,668,301284
11.450,195587,699,301295
11.455,195570,699,301296
11.460,195574,699,301274
11.465,195589,683,301330
11.470,195586,683,301315
11.475,195589,684,301336
11.480,195604,683,301333
11.485,195602,684,301323
11.490,195597,682,301328
11.495,195598,689,301374
11.500,195603,687,301349
11.505,195614,689,301355
11.510,195618,689,301352
11.515,195603,675,301353
11.519,195609,673,301361
11.524,195643,674,301358
11.529,195617,674,301358
11.534,195635,678,301357
11.539,195634,678,301400
11.544,195642,686,301377
11.549,195642,670,301371
11.554,195649,672,301373
11.559,195655,672,301369
11.564,195644,671,301380
11.569,195639,670,301374
11.574,195657,671,301394
11.579,195650,671,301389
11.584,195653,673,301384
11.589,195650,671,301403
11.594,195648,667,301406
11.599,195663,666,301392
11.604,195658,666,301403
11.609,195657,665,301395
11.614,195662,666,301418
11.619,195658,666,301401
11.624,195669,666,301418
11.629,195678,664,301408
11.634,195662,665,301408
11.639,195679,665,301431
11.644,195677,661,301426
11.649,195692,662,301423
11.654,195698,664,301445
11.659,195701,664,301440
11.664,195691,667,301457
11.668,195711,666,301449
11.673,195711,666,301424
11.678,195694,666,301436
11.683,195682,668,301434
11.688,195682,669,301422
11.693,195690,660,301432
11.698,195703,660,301431
11.703,195667,663,301437
11.708,195674,660,301433
11.713,195679,662,301411
11.718,195675,664,301423
11.723,195668,666,301433
11.728,195675,665,301420
11.733,195668,668,301429
11.738,195676,657,301432
11.743,195671,661,301414
11.748,195676,662,301435
11.753,195665,665,301425
11.758,195670,664,301453
11.763,195665,666,301407
11.768,195666,665,301434
11.773,195670,665,301436
11.778,195665,669,301413
11.783,195664,670,301408
11.788,195670,658,301421
11.793,195646,660,301404
11.798,195661,661,301411
11.803,195647,664,301411
11.808,195672,665,301398
11.813,195651,669,301416
11.818,195637,669,301396
11.822,195651,671,301365
11.827,195634,654,301377
11.832,195625,655,301354
11.837,195619,661,301373
11.842,195631,663,301337
11.847,195627,664,301358
11.852,195621,667,301375
11.857,195603,666,301338
11.862,195628,654,301363
11.867,195630,655,301392
11.872,195615,657,301396
11.877,195630,657,301387
11.882,195631,660,301396
11.887,195637,658,301399
11.892,195640,662,301379
11.897,195623,664,301382
11.902,195643,666,301424
11.907,195623,652,301382
11.912,195631,652,301421
11.917,195639,655,301393
11.922,195634,657,301419
11.927,195659,660,301414
11.932,195633,668,301416
11.937,195644,654,301389
11.942,195639,657,301376
11.947,195654,657,301386
11.952,195627,659,301412
11.957,195626,660,301411
11.962,195629,662,301377
11.967,195630,664,301384
11.971,195644,666,301379
11.976,195629,652,301381
11.981,195666,659,301396
11.986,195632,661,301376
11.991,195629,663,301395
11.996,195632,651,301407
12.001,195642,652,301384
12.006,195632,654,301403
12.011,195644,656,301421
12.016,195641,657,301420
12.021,195649,659,301421
12.026,195640,660,301427
12.031,195651,651,301429
12.036,195656,652,301411
12.041,195656,656,301421
12.046,195648,657,301409
12.051,195672,658,301431
12.056,195661,662,301436
12.061,195655,665,301420
12.066,195671,649,301422
12.071,195671,651,301435
12.076,195676,655,301443
12.081,195673,651,301426
12.086,195692,654,301453
12.091,195667,656,301439
12.096,195677,659,301444
12.101,195687,663,301432
12.106,195665,650,301432
12.111,195669,653,301448
12.116,195674,654,301448
12.121,195673,655,301455
12.125,195696,656,301433
12.130,195677,652,301468
12.135,195684,657,301426
12.140,195682,660,301458
12.145,195689,662,301449
12.150,195686,649,301431
12.155,195705,653,301448
12.160,195703,653,301464
12.165,195700,657,301441
12.170,195698,659,301459
12.175,195709,648,301453
12.180,195714,653,301473
12.185,195702,655,301469
12.190,195708,656,301448
12.195,195721,659,301463
12.200,195717,658,301479
12.205,195715,660,301460
12.210,195718,647,301480
12.215,195735,648,301485
12.220,195734,648,301469
12.225,195764,647,301474
12.230,195733,658,301471
12.235,195721,661,301497
12.240,195755,373,301496
12.245,195729,412,301480
12.250,195745,433,301480
12.255,195719,450,301479
12.260,195727,462,301481
12.265,195709,473,301460
12.270,195712,482,301439
12.274,195697,479,301429
12.279,195708,486,301416
12.284,195688,492,301394
12.289,195679,498,301421
12.294,195677,504,301420
12.299,195663,509,301416
12.304,195662,497,301396
12.309,195660,501,301401
12.314,195647,506,301408
12.319,195657,509,301365
12.324,195657,519,301395
12.329,195666,520,301398
12.334,195647,525,301359
12.339,195650,529,301384
12.344,195627,848,301395
12.349,195644,775,301375
12.354,195643,756,301382
12.359,195639,742,301362
12.364,195629,735,301370
12.369,195644,727,301370
12.374,195619,724,301368
12.379,195662,720,301368
12.384,195637,717,301352
12.389,195630,714,301358
12.394,195619,712,301353
12.399,195621,709,301376
12.404,195613,709,301340
12.409,195626,692,301355
12.414,195618,694,301362
12.419,195614,694,301366
12.424,195604,699,301333
12.428,195623,697,301335
12.433,195609,683,301331
12.438,195618,683,301344
12.443,195613,684,301329
12.448,195605,683,301357
12.453,195608,686,301379
12.458,195616,686,301365
12.463,195618,687,301339
12.468,195578,668,301420
12.473,195628,681,301346
12.478,195632,681,301361
12.483,195617,682,301350
12.488,195621,680,301353
12.493,195617,683,301358
12.498,195614,667,301360
12.503,195627,669,301379
12.508,195625,669,301367
12.513,195606,671,301365
12.518,195622,676,301369
12.523,195603,677,301369
12.528,195641,662,301369
12.533,195627,665,301377
12.538,195629,666,301375
12.543,195624,667,301368
12.548,195610,665,301368
12.553,195620,667,301353
12.558,195628,669,301370
12.563,195616,670,301368
12.568,195621,658,301360
12.573,195611,662,301386
12.577,195621,662,301376
12.582,195645,663,301400
12.587,195631,663,301403
12.592,195636,666,301389
12.597,195627,666,301397
12.602,195638,667,301380
12.607,195651,667,301401
12.612,195653,657,301394
12.617,195642,661,301388
12.622,195649,663,301408
12.627,195634,662,301398
12.632,195650,663,301412
12.637,195646,663,301403
12.642,195653,665,301395
12.647,195637,664,301407
12.652,195660,665,301404
12.657,195636,664,301400
12.662,195648,665,301395
12.667,195640,654,301390
12.672,195652,654,301422
12.677,195661,652,301413
12.682,195651,652,301416
12.687,195636,650,301406
12.692,195654,650,301404
12.697,195652,649,301414
12.702,195654,650,301414
12.707,195663,649,301421
12.712,195669,686,301406
12.717,195653,655,301425
12.722,195666,656,301402
12.727,195660,654,301410
12.731,195668,654,301440
12.736,195678,654,301431
12.741,195674,655,301436
12.746,195665,652,301429
12.751,195684,655,301450
12.756,195675,655,301435
12.761,195633,670,301446
12.766,195700,645,301462
12.771,195695,648,301440
12.776,195677,648,301454
12.781,195688,649,301427
12.786,195700,649,301459
12.791,195706,650,301441
12.796,195701,650,301453
12.801,195718,650,301451
12.806,195717,651,301460
12.811,195708,660,301472
12.816,195717,659,301469
12.821,195702,659,301444
12.826,195708,659,301486
12.831,195716,659,301503
12.836,195729,659,301492
12.841,195735,659,301478
12.846,195735,658,301502
12.851,195740,655,301500
12.856,195756,657,301527
12.861,195746,648,301516
12.866,195757,646,301515
12.871,195764,646,301508
12.876,195759,646,301530
12.880,195750,648,301512
12.885,195773,648,301510
12.890,195741,650,301488
12.895,195744,650,301464
12.900,195725,650,301459
12.905,195701,650,301417
12.910,195685,657,301421
12.915,195698,658,301410
12.920,195676,642,301405
12.925,195665,642,301365
12.930,195660,643,301376
12.935,195666,645,301353
12.940,195650,647,301352
12.945,195632,647,301372
12.950,195636,649,301357
12.955,195633,663,301311
12.960,195645,642,301336
12.965,195630,642,301325
12.970,195618,643,301340
12.975,195625,645,301316
12.980,195612,646,301322
12.985,195591,646,301290
12.990,195591,648,301292
12.995,195599,651,301287
13.000,195593,650,301301
13.005,195591,640,301272
13.010,195588,641,301280
13.015,195583,642,301261
13.020,195578,640,301278
13.025,195568,639,301280
13.030,195563,640,301261
13.034,195543,641,301268
13.039,195547,639,301257
13.044,195549,641,301225
13.049,195546,641,301231
13.054,195529,648,301227
13.059,195533,650,301206
13.064,195514,650,301199
13.069,195527,649,301196
13.074,195522,652,301207
13.079,195521,651,301174
13.084,195505,652,301149
13.089,195506,651,301175
13.094,195510,653,301165
13.099,195481,652,301162
13.104,195495,642,301166
13.109,195491,643,301180
13.114,195501,644,301151
13.119,195485,643,301160
13.124,195483,645,301126
13.129,195488,645,301139
13.134,195499,646,301141
13.139,195492,646,301119
13.144,195483,648,301144
13.149,195486,648,301150
13.154,195481,641,301133
13.159,195477,641,301151
13.164,195492,640,301137
13.169,195483,641,301147
13.174,195500,642,301127
13.179,195479,641,301141
13.183,195490,642,301162
13.188,195480,643,301163
13.193,195495,645,301143
13.198,195500,647,301132
13.203,195483,644,301142
13.208,195495,642,301158
13.213,195494,645,301160
13.218,195492,644,301143
13.223,195480,644,301176
13.228,195486,643,301165
13.233,195505,646,301168
13.238,195502,362,301167
13.243,195477,410,301177
13.248,195591,433,301154
13.253,195518,436,301161
13.258,195499,445,301195
13.263,195513,456,301195
13.268,195510,462,301204
13.273,195496,470,301194
13.278,195505,475,301181
13.283,195503,480,301177
13.288,195516,483,301180
13.293,195519,489,301184
13.298,195517,500,301169
13.303,195531,504,301181
13.308,195503,491,301161
13.313,195519,496,301186
13.318,195502,498,301179
13.323,195515,502,301187
13.328,195518,502,301189
13.333,195520,506,301190
13.337,195530,507,301187
13.342,195518,854,301187
13.347,195517,787,301180
13.352,195525,748,301193
13.357,195523,734,301204
13.362,195531,723,301193
13.367,195534,715,301184
13.372,195512,713,301189
13.377,195533,708,301191
13.382,195530,705,301204
13.387,195531,701,301204
13.392,195536,700,301213
13.397,195525,688,301189
13.402,195534,687,301200
13.407,195541,684,301171
13.412,195539,685,301193
13.417,195545,684,301179
13.422,195541,684,301190
13.427,195553,680,301210
13.432,195536,681,301201
13.437,195537,680,301201
13.442,195565,681,301194
13.447,195530,667,301186
13.452,195549,667,301172
13.457,195547,667,301194
13.462,195571,667,301201
13.467,195554,664,301219
13.472,195566,665,301215
13.477,195586,666,301225
13.482,195565,667,301217
13.486,195564,668,301222
13.491,195595,667,301230
13.496,195583,665,301234
13.501,195593,668,301222
13.506,195594,669,301259
13.511,195610,656,301259
13.516,195587,656,301242
13.521,195600,659,301259
13.526,195604,658,301241
13.531,195607,662,301266
13.536,195596,661,301263
13.541,195607,653,301282
13.546,195611,651,301279
13.551,195608,652,301273
13.556,195601,654,301288
13.561,195608,655,301249
13.566,195599,653,301248
13.571,195582,656,301223
13.576,195576,657,301212
13.581,195571,658,301216
13.586,195560,659,301189
13.591,195543,650,301164
13.596,195537,652,301178
13.601,195544,653,301184
13.606,195534,653,301154
13.611,195514,654,301164
13.616,195518,654,301154
13.621,195509,656,301141
13.626,195509,657,301127
13.631,195481,658,301135
13.635,195477,645,301147
13.640,195501,650,301125
13.645,195501,649,301142
13.650,195491,649,301135
13.655,195495,650,301147
13.660,195501,651,301152
13.665,195473,651,301095
13.670,195484,653,301102
13.675,195478,652,301098
13.680,195483,652,301130
13.685,195455,653,301106
13.690,195493,645,301118
13.695,195466,647,301090
13.700,195468,648,301109
13.705,195477,650,301124
13.710,195454,651,301117
13.715,195471,652,301112
13.720,195459,651,301110
13.725,195463,655,301098
13.730,195457,638,301112
13.735,195445,640,301105
13.740,195447,648,301111
13.745,195463,648,301095
13.750,195462,648,301111
13.755,195468,650,301110
13.760,195460,651,301132
13.765,195449,652,301118
13.770,195470,652,301150
13.775,195489,639,301129
13.780,195466,639,301144
13.785,195499,645,301133
13.789,195492,647,301146
13.794,195497,648,301157
13.799,195491,650,301163
13.804,195491,651,301148
13.809,195476,651,301173
13.814,195505,638,301166
13.819,195501,637,301173
13.824,195503,639,301184
13.829,195492,639,301195
13.834,195505,648,301184
13.839,195511,649,301188
13.844,195514,651,301205
13.849,195522,635,301214
13.854,195524,638,301222
13.859,195517,635,301213
13.864,195518,639,301214
13.869,195526,639,301201
13.874,195517,642,301235
13.879,195516,641,301200
13.884,195565,635,301218
13.889,195530,641,301247
13.894,195545,644,301226
13.899,195550,643,301196
13.904,195552,644,301238
13.909,195542,643,301222
13.914,195552,645,301260
13.919,195529,647,301234
13.924,195542,647,301232
13.929,195539,646,301252
13.934,195558,641,301244
13.938,195550,642,301240
13.943,195531,642,301221
13.948,195533,643,301234
13.953,195538,646,301230
13.958,195536,645,301232
13.963,195541,646,301216
13.968,195518,646,301232
13.973,195532,649,301214
13.978,195542,634,301166
13.983,195512,638,301223
13.988,195521,639,301199
13.993,195543,641,301197
13.998,195534,638,301211
14.003,195532,641,301196
14.008,195548,640,301218
14.013,195523,641,301193
14.018,195526,643,301216
14.023,195523,644,301209
14.028,195560,632,301202
14.033,195528,637,301185
14.038,195542,639,301208
14.043,195527,639,301207
14.048,195531,640,301204
14.053,195525,643,301215
14.058,195535,644,301217
14.063,195536,645,301221
14.068,195545,643,301216
14.073,195544,645,301212
14.078,195541,636,301221
14.083,195544,636,301237
14.088,195552,636,301209
14.092,195536,638,301215
14.097,195544,637,301203
14.102,195556,639,301198
14.107,195536,639,301203
14.112,195552,642,301174
14.117,195547,641,301185
14.122,195551,643,301210
14.127,195527,632,301181
14.132,195543,633,301178
14.137,195544,632,301163
14.142,195537,635,301181
14.147,195549,634,301171
14.152,195527,636,301171
14.157,195540,637,301200
14.162,195548,638,301202
14.167,195551,638,301198
14.172,195558,641,301197
14.177,195553,637,301181
14.182,195576,640,301186
14.187,195540,639,301204
14.192,195560,641,301216
14.197,195574,642,301206
14.202,195555,645,301200
14.207,195572,627,301221
14.212,195578,632,301220
14.217,195577,634,301239
14.222,195578,637,301244
14.227,195569,632,301228
14.232,195574,636,301205
14.237,195582,337,301193
14.241,195559,400,301222
14.246,195555,424,301193
14.251,195537,442,301163
14.256,195535,437,301171
14.261,195535,447,301145
14.266,195519,454,301135
14.271,195538,476,301146
14.276,195510,467,301115
14.281,195503,472,301138
14.286,195504,478,301107
14.291,195494,484,301136
14.296,195482,488,301133
14.301,195467,492,301107
14.306,195462,495,301116
14.311,195473,499,301117
14.316,195467,503,301078
14.321,195456,497,301096
14.326,195449,501,301096
14.331,195457,505,301076
14.336,195438,509,301074
14.341,195441,909,301069
14.346,195429,778,301049
14.351,195444,751,301090
14.356,195428,737,301048
14.361,195430,729,301049
14.366,195431,707,301032
14.371,195429,708,301041
14.376,195411,704,301060
14.381,195444,701,301044
14.386,195400,698,301020
14.391,195399,694,301024
14.395,195387,693,301025
14.400,195403,691,301012
14.405,195412,674,301031
14.410,195401,674,300991
14.415,195394,673,300994
14.420,195392,679,301017
14.425,195382,678,300995
14.430,195381,680,300985
14.435,195387,662,301015
14.440,195397,663,301012
14.445,195389,662,301048
14.450,195410,662,301026
14.455,195390,661,301017
14.460,195386,663,301012
14.465,195391,662,301013
14.470,195390,668,300987
14.475,195396,667,301015
14.480,195387,668,301005
14.485,195367,667,301022
14.490,195369,651,301015
14.495,195381,653,301022
14.500,195388,652,301001
14.505,195374,652,301001
14.510,195380,650,300985
14.515,195391,635,301008
14.520,195370,657,300990
14.525,195379,657,301003
14.530,195359,658,300996
14.535,195363,659,300955
14.540,195350,661,300965
14.544,195357,660,300964
14.549,195327,659,300932
14.554,195343,643,300935
14.559,195331,644,300907
14.564,195379,639,300884
14.569,195321,647,300922
14.574,195333,648,300910
14.579,195306,648,300880
14.584,195296,650,300901
14.589,195302,650,300856
14.594,195297,654,300848
14.599,195282,654,300841
14.604,195300,655,300827
14.609,195286,654,300844
14.614,195285,645,300830
14.619,195273,648,300813
14.624,195274,651,300794
14.629,195259,651,300810
14.634,195278,654,300796
14.639,195277,638,300808
14.644,195267,640,300809
14.649,195274,640,300794
14.654,195255,644,300805
14.659,195273,643,300774
14.664,195240,651,300795
14.669,195253,651,300796
14.674,195250,653,300781
14.679,195258,636,300789
14.684,195266,637,300793
14.689,195256,639,300801
14.694,195258,639,300793
14.698,195274,641,300761
14.703,195275,643,300796
14.708,195262,643,300800
14.713,195275,637,300799
14.718,195282,637,300804
14.723,195285,640,300798
14.728,195291,640,300823
14.733,195284,643,300797
14.738,195278,643,300812
14.743,195285,646,300832
14.748,195284,633,300831
14.753,195302,636,300856
14.758,195318,641,300839
14.763,195314,648,300872
14.768,195331,635,300866
14.773,195339,639,300866
14.778,195348,640,300857
14.783,195348,645,300886
14.788,195336,644,300902
14.793,195354,632,300864
14.798,195338,632,300895
14.803,195356,633,300911
14.808,195351,638,300884
14.813,195358,641,300901
14.818,195364,642,300924
14.823,195371,642,300931
14.828,195374,642,300925
14.833,195369,643,300928
14.838,195367,645,300915
14.843,195379,647,300914
14.847,195365,630,300928
14.852,195365,632,300929
14.857,195391,645,300930
14.862,195383,633,300922
14.867,195394,633,300921
14.872,195372,636,300917
14.877,195372,637,300923
14.882,195364,638,300930
14.887,195372,639,300926
14.892,195355,641,300891
14.897,195342,641,300885
14.902,195344,642,300869
14.907,195334,638,300882
14.912,195334,641,300851
14.917,195314,641,300832
14.922,195298,642,300840
14.927,195300,643,300834
14.932,195296,646,300831
14.937,195283,630,300832
14.942,195282,631,300796
14.947,195273,631,300803
14.952,195271,634,300799
14.957,195270,630,300795
14.962,195264,631,300790
14.967,195276,630,300790
14.972,195276,630,300790
14.977,195253,631,300781
14.982,195248,632,300772
14.987,195258,631,300788
14.992,195241,633,300776
14.997,195262,634,300795
15.001,195241,643,300772
15.006,195235,636,300779
15.011,195227,638,300781
15.016,195243,640,300779
15.021,195239,639,300776
15.026,195230,639,300779
15.031,195239,642,300788
15.036,195225,642,300787
15.041,195228,628,300777
15.046,195221,627,300787
15.051,195201,634,300776
15.056,195211,634,300766
15.061,195213,634,300777
15.066,195217,635,300779
15.071,195207,637,300761
15.076,195204,635,300765
15.081,195207,637,300777
15.086,195218,635,300772
15.091,195216,637,300771
15.096,195225,639,300780
15.101,195218,630,300781
15.106,195234,629,300772
15.111,195224,629,300784
15.116,195217,632,300771
15.121,195240,632,300774
15.126,195226,632,300781
15.131,195236,637,300784
15.136,195235,639,300779
15.141,195206,640,300784
15.146,195225,640,300742
15.150,195222,632,300795
15.155,195236,633,300796
15.160,195230,634,300810
15.165,195218,633,300781
15.170,195234,634,300774
15.175,195207,636,300786
15.180,195199,637,300794
15.185,195216,637,300771
15.190,195221,640,300760
15.195,195213,642,300762
15.200,195226,633,300777
15.205,195223,634,300768
15.210,195203,636,300755
15.215,195221,638,300781
15.220,195200,642,300751
15.225,195228,625,300770
15.230,195215,627,300761
15.235,195235,294,300785
15.240,195220,386,300772
15.245,195199,415,300717
15.250,195222,435,300783
15.255,195212,451,300785
15.260,195203,459,300798
15.265,195210,467,300765
15.270,195217,456,300779
15.275,195213,463,300766
15.280,195207,469,300788
15.285,195221,475,300787
15.290,195212,479,300768
15.295,195275,498,300764
15.300,195213,486,300769
15.304,195207,491,300756
15.309,195220,495,300757
15.314,195213,501,300761
15.319,195222,503,300759
15.324,195213,506,300768
15.329,195215,510,300760
15.334,195220,516,300785
15.339,195213,525,300718
15.344,195210,779,300741
15.349,195234,745,300742
15.354,195220,733,300764
15.359,195223,723,300739
15.364,195210,717,300787
15.369,195240,711,300766
15.374,195224,708,300778
15.379,195231,687,300773
15.384,195244,685,300807
15.389,195250,682,300806
15.394,195267,688,300791
15.399,195240,684,300780
15.404,195247,684,300772
15.409,195251,683,300792
15.414,195247,682,300788
15.419,195256,664,300817
15.424,195261,665,300800
15.429,195275,665,300823
15.434,195268,666,300819
15.439,195263,668,300813
15.444,195257,661,300837
15.449,195271,660,300836
15.453,195253,662,300838
15.458,195263,661,300850
15.463,195285,664,300826
15.468,195306,664,300848
15.473,195288,665,300876
15.478,195295,649,300831
15.483,195306,650,300834
15.488,195338,652,300857
15.493,195302,659,300864
15.498,195327,660,300867
15.503,195318,645,300872
15.508,195349,645,300886
15.513,195326,648,300881
15.518,195340,649,300920
15.523,195337,651,300883
15.528,195314,649,300891
15.533,195311,654,300882
15.538,195340,634,300873
15.543,195314,646,300872
15.548,195298,645,300860
15.553,195299,647,300850
15.558,195278,648,300840
15.563,195303,650,300825
15.568,195268,651,300829
15.573,195266,639,300824
15.578,195268,639,300814
15.583,195254,641,300844
15.588,195242,646,300812
15.593,195241,647,300817
15.598,195232,649,300804
15.603,195247,650,300808
15.607,195228,635,300810
15.612,195223,639,300792
15.617,195245,638,300792
15.622,195226,640,300794
15.627,195221,639,300802
15.632,195226,642,300798
15.637,195235,632,300776
15.642,195224,634,300785
15.647,195211,634,300797
15.652,195214,635,300801
15.657,195212,636,300796
15.662,195221,638,300780
15.667,195223,636,300800
15.672,195207,641,300800
15.677,195222,642,300806
15.682,195201,652,300819
15.687,195207,638,300791
15.692,195208,640,300774
15.697,195215,641,300801
15.702,195195,643,300795
15.707,195192,627,300790
15.712,195208,630,300795
15.717,195216,632,300797
15.722,195219,635,300787
15.727,195227,637,300811
15.732,195227,640,300815
15.737,195227,635,300821
15.742,195216,640,300822
15.747,195213,626,300813
15.752,195216,632,300840
15.756,195230,634,300839
15.761,195234,638,300837
15.766,195231,639,300825
15.771,195215,627,300825
15.776,195228,627,300825
15.781,195239,637,300831
15.786,195235,637,300842
15.791,195226,626,300826
15.796,195221,627,300847
15.801,195234,629,300863
15.806,195244,627,300846
15.811,195230,634,300832
15.816,195237,635,300839
15.821,195218,639,300820
15.826,195246,625,300812
15.831,195226,634,300838
15.836,195230,633,300835
15.841,195239,636,300835
15.846,195221,637,300821
15.851,195235,640,300837
15.856,195207,625,300821
15.861,195222,627,300842
15.866,195219,626,300855
15.871,195236,629,300814
15.876,195230,630,300828
15.881,195221,624,300822
15.886,195207,623,300807
15.891,195233,627,300816
15.896,195227,629,300817
15.901,195217,633,300831
15.905,195218,635,300816
15.910,195219,622,300818
15.915,195221,622,300824
15.920,195222,624,300839
15.925,195215,624,300793
15.930,195231,632,300793
15.935,195202,634,300814
15.940,195215,635,300815
15.945,195212,631,300823
15.950,195207,634,300799
15.955,195220,637,300803
15.960,195210,622,300833
15.965,195232,624,300824
15.970,195225,625,300837
15.975,195214,627,300807
15.980,195233,624,300827
15.985,195211,623,300805
15.990,195213,627,300807
15.995,195218,630,300820
16.000,195222,632,300805
16.005,195210,631,300828
16.010,195226,633,300817
16.015,195226,633,300820
16.020,195226,633,300803
16.025,195226,610,300821
16.030,195216,625,300805
16.035,195242,627,300828
16.040,195217,627,300819
16.045,195228,630,300820
16.050,195227,632,300820
16.055,195220,634,300815
16.059,195216,619,300830
16.064,195233,621,300829
16.069,195228,624,300833
16.074,195247,631,300850
16.079,195235,634,300839
16.084,195246,620,300835
16.089,195238,621,300861
16.094,195258,624,300847
16.099,195244,624,300855
16.104,195269,626,300843
16.109,195267,628,300846
16.114,195271,631,300851
16.119,195266,632,300830
16.124,195258,623,300821
16.129,195260,626,300819
16.134,195242,629,300821
16.139,195252,629,300815
16.144,195228,630,300806
16.149,195223,617,300782
16.154,195211,621,300769
16.159,195189,624,300747
16.164,195181,625,300742
16.169,195159,626,300708
16.174,195142,618,300702
16.179,195154,619,300699
16.184,195141,620,300681
16.189,195133,620,300667
16.194,195128,623,300691
16.199,195124,624,300669
16.204,195126,626,300670
16.208,195113,628,300664
16.213,195108,630,300646
16.218,195107,631,300664
16.223,195106,621,300680
16.228,195106,621,300661
16.233,195097,219,300677
16.238,195105,380,300653
16.243,195109,411,300668
16.248,195103,429,300663
16.253,195108,445,300682
16.258,195107,437,300657
16.263,195118,446,300689
16.268,195098,460,300657
16.273,195119,471,300687
16.278,195118,461,300693
16.283,195116,468,300690
16.288,195098,472,300677
16.293,195093,478,300690
16.298,195118,482,300653
16.303,195106,488,300691
16.308,195113,492,300697
16.313,195091,500,300656
16.318,195085,491,300678
16.323,195109,498,300701
16.328,195110,502,300702
16.333,195114,508,300675
16.338,195112,495,300715
16.343,195128,776,300724
16.348,195131,737,300719
16.353,195124,722,300695
16.358,195133,715,300690
16.362,195109,707,300675
16.367,195111,684,300700
16.372,195109,697,300730
16.377,195125,693,300707
16.382,195122,675,300704
16.387,195122,672,300696
16.392,195107,673,300703
16.397,195111,670,300701
16.402,195124,670,300726
16.407,195108,668,300710
16.412,195118,669,300724
16.417,195141,664,300708
16.422,195128,655,300704
16.427,195125,655,300727
16.432,195119,655,300720
16.437,195120,657,300737
16.442,195129,660,300723
16.447,195133,660,300733
16.452,195138,644,300755
16.457,195146,646,300737
16.462,195124,647,300738
16.467,195147,650,300767
16.472,195159,652,300747
16.477,195157,651,300778
16.482,195165,653,300781
16.487,195169,637,300791
16.492,195178,639,300791
16.497,195172,640,300801
16.502,195188,640,300804
16.507,195180,641,300832
16.511,195179,652,300895
16.516,195206,635,300811
16.521,195201,636,300848
16.526,195215,636,300846
16.531,195202,641,300842
16.536,195215,642,300824
16.541,195219,645,300857
16.546,195229,628,300851
16.551,195216,633,300866
16.556,195216,633,300862
16.561,195228,640,300874
16.566,195234,641,300888
16.571,195237,628,300891
16.576,195242,631,300890
16.581,195231,634,300897
16.586,195242,635,300883
16.591,195234,639,300912
16.596,195257,625,300894
16.601,195244,630,300911
16.606,195251,628,300900
16.611,195250,636,300890
16.616,195255,639,300919
16.621,195267,623,300902
16.626,195261,623,300907
16.631,195262,627,300925
16.636,195248,627,300908
16.641,195261,630,300905
16.646,195262,632,300929
16.651,195273,637,300937
16.656,195284,621,300921
16.661,195291,633,300944
16.665,195284,633,300920
16.670,195290,635,300926
16.675,195300,619,300934
16.680,195304,621,300957
16.685,195302,622,300938
16.690,195285,624,300957
16.695,195281,625,300945
16.700,195300,628,300950
16.705,195320,627,300954
16.710,195301,621,300944
16.715,195301,621,300947
16.720,195279,624,300944
16.725,195297,624,300947
16.730,195303,626,300925
16.735,195268,626,300909
16.740,195270,628,300897
16.745,195262,627,300920
16.750,195255,628,300902
16.755,195243,615,300826
16.760,195253,619,300877
16.765,195227,619,300869
16.770,195225,620,300844
16.775,195205,619,300851
16.780,195215,622,300851
16.785,195201,622,300824
16.790,195188,624,300814
16.795,195166,626,300824
16.800,195168,615,300811
16.805,195223,625,300790
16.810,195157,612,300824
16.814,195169,616,300785
16.819,195160,618,300806
16.824,195158,616,300785
16.829,195177,618,300812
16.834,195152,619,300805
16.839,195153,621,300817
16.844,195166,621,300828
16.849,195139,626,300802
16.854,195153,614,300798
16.859,195140,616,300787
16.864,195145,618,300806
16.869,195154,620,300784
16.874,195147,620,300795
16.879,195139,620,300792
16.884,195131,620,300804
16.889,195141,619,300773
16.894,195157,619,300766
16.899,195144,620,300816
16.904,195140,611,300814
16.909,195139,610,300789
16.914,195137,611,300805
16.919,195150,610,300806
16.924,195153,611,300825
16.929,195158,611,300824
16.934,195168,613,300818
16.939,195147,614,300824
16.944,195155,613,300827
16.949,195146,613,300833
16.954,195151,622,300805
16.959,195165,621,300813
16.964,195159,623,300816
16.968,195166,623,300824
16.973,195168,625,300816
16.978,195174,623,300808
16.983,195155,623,300830
16.988,195163,625,300845
16.993,195154,624,300823
16.998,195157,609,300832
17.003,195169,616,300838
17.008,195179,615,300837
17.013,195180,616,300845
17.018,195167,617,300830
17.023,195146,615,300844
17.028,195159,614,300830
17.033,195146,615,300809
17.038,195150,614,300842
17.043,195147,615,300827
17.048,195177,600,300834
17.053,195153,608,300852
17.058,195162,606,300836
17.063,195167,609,300848
17.068,195174,607,300828
17.073,195171,610,300828
17.078,195196,611,300839
17.083,195177,612,300847
17.088,195193,611,300846
17.093,195170,613,300844
17.098,195187,624,300848
17.103,195171,609,300846
17.108,195153,607,300877
17.113,195176,608,300842
17.117,195185,608,300846
17.122,195178,610,300858
17.127,195190,609,300857
17.132,195181,611,300859
17.137,195199,610,300854
17.142,195200,611,300877
17.147,195192,617,300875
17.152,195199,617,300910
17.157,195212,616,300881
17.162,195214,616,300899
17.167,195214,614,300886
17.172,195227,616,300901
17.177,195217,613,300915
17.182,195229,615,300924
17.187,195244,613,300903
17.192,195209,613,300911
17.197,195227,622,300926
17.202,195230,620,300929
17.207,195251,618,300938
17.212,195248,619,300932
17.217,195244,618,300943
17.222,195240,617,300964
17.227,195246,618,300956
17.232,195260,618,300945
17.237,195271,373,300969
17.242,195263,406,300958
17.247,195266,416,300944
17.252,195259,428,300965
17.257,195248,436,300974
17.262,195275,444,300974
17.267,195272,448,300958
17.271,195271,455,300954
17.276,195268,459,300968
17.281,195264,462,300937
17.286,195277,466,300948
17.291,195256,477,300935
17.296,195241,480,300949
17.301,195243,485,300928
17.306,195246,485,300915
17.311,195223,489,300904
17.316,195217,490,300903
17.321,195217,493,300884
17.326,195225,494,300876
17.331,195186,500,300864
17.336,195210,483,300895
17.341,195161,494,300857
17.346,195192,496,300854
17.351,195186,774,300867
17.356,195171,732,300865
17.361,195172,717,300846
17.366,195169,704,300845
17.371,195166,699,300869
17.376,195163,692,300852
17.381,195185,687,300868
17.386,195166,682,300854
17.391,195178,673,300875
17.396,195162,671,300858
17.401,195171,670,300849
17.406,195172,667,300883
17.411,195159,668,300888
17.416,195171,648,300865
17.420,195164,649,300849
17.425,195155,647,300869
17.430,195151,645,300846
17.435,195156,641,300885
17.440,195172,647,300861
17.445,195153,643,300869
17.450,195160,645,300881
17.455,195148,643,300877
17.460,195166,644,300863
17.465,195169,643,300874
17.470,195177,645,300880
17.475,195186,643,300885
17.480,195155,631,300894
17.485,195164,631,300900
17.490,195182,627,300902
17.495,195198,627,300925
17.500,195193,629,300912
17.505,195206,627,300916
17.510,195205,629,300921
17.515,195202,630,300940
17.520,195208,634,300924
17.525,195209,634,300915
17.530,195207,622,300933
17.535,195209,631,301010
17.540,195215,633,300969
17.545,195210,620,300944
17.550,195213,623,300965
17.555,195225,625,300978
17.560,195228,626,300940
17.565,195234,629,300979
17.570,195222,631,300966
17.574,195233,619,300990
17.579,195230,620,300976
17.584,195224,628,300987
17.589,195235,631,300976
17.594,195227,617,301019
17.599,195222,621,301004
17.604,195241,622,301010
17.609,195243,624,301020
17.614,195249,624,301024
17.619,195258,628,301036
17.624,195271,614,301047
17.629,195278,614,301058
17.634,195275,621,301082
17.639,195262,622,301080
17.644,195282,621,301106
17.649,195282,623,301074
17.654,195297,624,301098
17.659,195305,626,301111
17.664,195304,625,301127
17.669,195307,611,301123
17.674,195318,613,301129
17.679,195314,614,301133
17.684,195313,623,301141
17.689,195291,610,301163
17.694,195336,612,301168
17.699,195328,614,301156
17.704,195331,615,301151
17.709,195357,616,301179
17.714,195346,617,301198
17.719,195353,619,301196
17.723,195354,621,301209
17.728,195380,620,301227
17.733,195381,612,301216
17.738,195378,613,301230
17.743,195393,614,301240
17.748,195390,613,301231
17.753,195394,614,301261
17.758,195395,616,301255
17.763,195392,618,301273
17.768,195391,619,301255
17.773,195396,620,301254
17.778,195417,622,301253
17.783,195400,623,301263
17.788,195395,606,301246
17.793,195403,623,301251
17.798,195435,621,301275
17.803,195410,607,301275
17.808,195415,608,301270
17.813,195413,611,301269
17.818,195417,610,301270
17.823,195432,613,301253
17.828,195434,626,301252
17.833,195368,614,301231
17.838,195378,614,301223
17.843,195379,615,301193
17.848,195371,615,301182
17.853,195356,618,301178
17.858,195333,619,301159
17.863,195335,619,301170
17.868,195326,620,301141
17.873,195303,606,301141
17.877,195309,619,301142
17.882,195315,620,301152
17.887,195301,621,301154
17.892,195295,606,301163
17.897,195307,607,301128
17.902,195320,610,301167
17.907,195311,609,301140
17.912,195321,611,301132
17.917,195307,611,301141
17.922,195312,612,301190
17.927,195328,618,301169
17.932,195334,620,301187
17.937,195320,621,301178
17.942,195341,606,301210
17.947,195348,607,301204
17.952,195343,609,301223
17.957,195367,610,301223
17.962,195352,612,301206
17.967,195357,614,301234
17.972,195354,616,301220
17.977,195377,608,301231
17.982,195326,608,301237
17.987,195334,606,301218
17.992,195336,610,301217
17.997,195326,610,301224
18.002,195339,611,301196
18.007,195335,611,301209
18.012,195330,614,301216
18.017,195332,614,301201
18.022,195338,617,301251
18.026,195336,606,301252
18.031,195355,608,301224
18.036,195354,610,301206
18.041,195347,611,301229
18.046,195333,612,301220
18.051,195345,616,301229
18.056,195344,617,301213
18.061,195350,619,301238
18.066,195352,604,301207
18.071,195352,606,301228
18.076,195325,613,301232
18.081,195329,614,301226
18.086,195350,616,301202
18.091,195336,619,301213
18.096,195341,605,301212
18.101,195325,609,301202
18.106,195334,611,301201
18.111,195333,617,301207
18.116,195318,619,301201
18.121,195335,611,301200
18.126,195351,611,301211
18.131,195335,614,301212
18.136,195330,615,301216
18.141,195331,618,301196
18.146,195328,618,301180
18.151,195323,606,301196
18.156,195326,605,301197
18.161,195337,607,301216
18.166,195328,606,301205
18.171,195341,617,301215
18.175,195348,616,301226
18.180,195335,618,301213
18.185,195339,618,301200
18.190,195330,605,301208
18.195,195331,605,301207
18.200,195330,607,301194
18.205,195328,607,301185
18.210,195332,608,301195
18.215,195324,615,301168
18.220,195328,607,301204
18.225,195316,608,301190
18.230,195329,611,301199
18.235,195334,357,301177
18.240,195322,398,301177
18.245,195319,416,301181
18.250,195303,429,301141
18.255,195311,439,301152
18.260,195317,449,301143
18.265,195308,454,301149
18.270,195316,450,301137
18.275,195302,453,301122
18.280,195294,458,301117
18.285,195290,460,301126
18.290,195293,465,301117
18.295,195280,468,301107
18.300,195288,472,301093
18.305,195274,473,301086
18.310,195271,479,301112
18.315,195270,482,301047
18.320,195280,490,301083
18.325,195262,492,301087
18.329,195263,494,301092
18.334,195261,496,301081
18.339,195262,799,301080
18.344,195263,735,301061
18.349,195265,713,301077
18.354,195248,700,301044
18.359,195242,691,301014
18.364,195240,688,301036
18.369,195221,683,301010
18.374,195209,677,300990
18.379,195213,673,300977
18.384,195194,667,300973
18.389,195173,664,300959
18.394,195166,662,300930
18.399,195144,658,300937
18.404,195134,655,300917
18.409,195154,653,300919
18.414,195147,656,300910
18.419,195129,655,300890
18.424,195126,651,300884
18.429,195125,650,300894
18.434,195098,649,300916
18.439,195122,649,300904
18.444,195097,646,300877
18.449,195102,647,300877
18.454,195088,645,300886
18.459,195099,644,300876
18.464,195085,636,300869
18.469,195091,636,300880
18.474,195095,636,300878
18.478,195085,634,300869
18.483,195103,634,300865
18.488,195080,634,300900
18.493,195067,634,300867
18.498,195068,634,300869
18.503,195080,635,300890
18.508,195102,634,300862
18.513,195071,629,300883
18.518,195073,628,300861
18.523,195073,628,300863
18.528,195076,630,300843
18.533,195055,629,300864
18.538,195071,629,300866
18.543,195063,629,300852
18.548,195048,627,300879
18.553,195054,628,300870
18.558,195072,635,300962
18.563,195066,617,300895
18.568,195072,616,300882
18.573,195061,617,300890
18.578,195078,616,300926
18.583,195074,618,300895
18.588,195080,617,300899
18.593,195069,619,300896
18.598,195085,617,300916
18.603,195081,618,300925
18.608,195097,612,300884
18.613,195082,618,300928
18.618,195077,617,300912
18.623,195095,618,300899
18.628,195090,617,300911
18.632,195081,617,300925
18.637,195075,617,300910
18.642,195068,615,300911
18.647,195071,615,300906
18.652,195055,617,300897
18.657,195121,633,300887
18.662,195067,620,300897
18.667,195048,618,300910
18.672,195055,620,300894
18.677,195073,619,300890
18.682,195064,619,300922
18.687,195062,619,300913
18.692,195062,621,300913
18.697,195063,620,300911
18.702,195058,623,300911
18.707,195077,613,300917
18.712,195061,615,300921
18.717,195069,614,300901
18.722,195072,615,300909
18.727,195064,614,300899
18.732,195065,616,300918
18.737,195070,616,300888
18.742,195060,616,300876
18.747,195063,615,300891
18.752,195073,617,300893
18.757,195041,614,300913
18.762,195077,617,300898
18.767,195061,615,300916
18.772,195055,619,300902
18.777,195059,618,300891
18.781,195056,620,300899
18.786,195068,618,300900
18.791,195074,619,300930
18.796,195086,617,300915
18.801,195072,619,300933
18.806,195078,608,300939
18.811,195085,610,300930
18.816,195097,607,300943
18.821,195095,608,300953
18.826,195082,606,300956
18.831,195073,607,300964
18.836,195098,608,300936
18.841,195096,606,300955
18.846,195111,605,300938
18.851,195052,605,300935
18.856,195082,611,300959
18.861,195107,611,300955
18.866,195121,609,300965
18.871,195111,611,300969
18.876,195113,610,300965
18.881,195114,611,300954
18.886,195097,610,300969
18.891,195120,613,300970
18.896,195122,611,300973
18.901,195111,610,300964
18.906,195102,608,300948
18.911,195095,610,300940
18.916,195083,611,300924
18.921,195068,613,300887
18.926,195058,612,300875
18.931,195049,614,300864
18.935,195042,612,300859
18.940,195029,615,300849
18.945,195009,614,300839
18.950,195006,605,300839
18.955,195001,604,300838
18.960,195006,606,300806
18.965,194998,604,300801
18.970,194981,604,300816
18.975,194978,604,300803
18.980,194985,606,300786
18.985,194962,605,300797
18.990,194979,607,300797
18.995,194956,613,300787
19.000,194947,616,300763
19.005,194942,598,300775
19.010,194928,603,300772
19.015,194921,604,300764
19.020,194920,605,300738
19.025,194919,603,300753
19.030,194932,606,300753
19.035,194910,606,300722
19.040,194911,609,300742
19.045,194916,607,300709
19.050,194926,600,300751
19.055,194908,600,300731
19.060,194896,601,300728
19.065,194895,601,300703
19.070,194890,603,300715
19.075,194883,603,300716
19.080,194877,604,300712
19.084,194878,604,300722
19.089,194873,607,300683
19.094,194888,632,300722
19.099,194877,598,300714
19.104,194890,597,300718
19.109,194869,598,300729
19.114,194883,599,300710
19.119,194871,600,300708
19.124,194880,601,300735
19.129,194878,602,300689
19.134,194867,603,300726
19.139,194862,604,300718
19.144,194854,610,300690
19.149,194871,612,300699
19.154,194863,598,300700
19.159,194858,600,300677
19.164,194848,600,300714
19.169,194857,600,300717
19.174,194856,602,300698
19.179,194849,604,300703
19.184,194860,603,300686
19.189,194855,603,300699
19.194,194839,609,300679
19.199,194844,610,300666
19.204,194838,611,300686
19.209,194832,609,300674
19.214,194830,609,300677
19.219,194831,609,300683
19.224,194824,609,300658
19.229,194840,609,300668
19.234,194820,338,300663
19.238,194829,391,300643
19.243,194834,402,300662
19.248,194823,418,300645
19.253,194822,430,300661
19.258,194816,440,300639
19.263,194827,449,300661
19.268,194828,455,300661
19.273,194832,462,300649
19.278,194825,449,300632
19.283,194830,453,300658
19.288,194823,460,300638
19.293,194807,473,300632
19.298,194804,477,300644
19.303,194819,483,300647
19.308,194797,484,300627
19.313,194806,472,300644
19.318,194799,474,300629
19.323,194806,477,300628
19.328,194804,479,300639
19.333,194810,484,300637
19.338,194805,842,300601
19.343,194813,739,300585
19.348,194809,700,300642
19.353,194821,687,300651
19.358,194807,678,300640
19.363,194817,672,300651
19.368,194826,667,300662
19.373,194828,663,300658
19.378,194823,660,300679
19.383,194830,657,300675
19.387,194826,659,300669
19.392,194820,657,300674
19.397,194847,654,300691
19.402,194857,652,300675
19.407,194855,650,300732
19.412,194852,650,300731
19.417,194848,631,300700
19.422,194858,630,300721
19.427,194874,628,300727
19.432,194864,628,300733
19.437,194866,631,300734
19.442,194854,631,300722
19.447,194877,630,300733
19.452,194863,630,300716
19.457,194890,629,300741
19.462,194880,628,300740
19.467,194879,628,300730
19.472,194886,630,300753
19.477,194890,629,300742
19.482,194887,630,300761
19.487,194892,618,300736
19.492,194895,621,300787
19.497,194904,623,300800
19.502,194887,625,300775
19.507,194907,626,300768
19.512,194895,612,300746
19.517,194878,612,300731
19.522,194869,614,300717
19.527,194856,613,300707
19.532,194839,614,300681
19.537,194843,619,300705
19.541,194827,622,300682
19.546,194817,620,300661
19.551,194825,622,300659
19.556,194810,607,300666
19.561,194809,610,300626
19.566,194795,609,300676
19.571,194804,614,300659
19.576,194782,615,300645
19.581,194788,618,300611
19.586,194791,606,300640
19.591,194777,609,300645
19.596,194786,609,300627
19.601,194775,610,300639
19.606,194772,609,300643
19.611,194757,612,300625
19.616,194758,612,300627
19.621,194753,614,300618
19.626,194737,614,300605
19.631,194768,612,300656
19.636,194736,607,300598
19.641,194754,607,300601
19.646,194727,605,300613
19.651,194720,606,300581
19.656,194709,606,300590
19.661,194728,607,300579
19.666,194723,605,300571
19.671,194713,607,300575
19.676,194698,608,300569
19.681,194693,616,300579
19.686,194712,599,300565
19.690,194714,603,300562
19.695,194699,605,300581
19.700,194711,605,300594
19.705,194707,606,300609
19.710,194707,608,300598
19.715,194718,608,300614
19.720,194723,612,300605
19.725,194714,612,300637
19.730,194709,615,300624
19.735,194719,614,300608
19.740,194717,599,300621
19.745,194722,602,300609
19.750,194723,606,300623
19.755,194720,608,300595
19.760,194712,611,300585
19.765,194701,596,300618
19.770,194720,599,300589
19.775,194710,599,300626
19.780,194719,608,300631
19.785,194714,608,300645
19.790,194709,596,300643
19.795,194718,598,300638
19.800,194706,599,300613
19.805,194716,600,300624
19.810,194707,603,300630
19.815,194703,605,300633
19.820,194726,607,300621
19.825,194717,609,300643
19.830,194708,601,300638
19.835,194733,602,300633
19.840,194730,604,300634
19.844,194722,607,300620
19.849,194710,610,300632
19.854,194711,595,300633
19.859,194716,599,300659
19.864,194724,600,300659
19.869,194724,605,300667
19.874,194688,590,300670
19.879,194725,599,300682
19.884,194738,599,300655
19.889,194730,602,300689
19.894,194733,602,300686
19.899,194745,607,300682
19.904,194747,609,300672
19.909,194749,597,300693
19.914,194750,599,300679
19.919,194755,602,300699
19.924,194750,593,300698
19.929,194752,597,300696
19.934,194767,600,300714
19.939,194774,603,300716
19.944,194749,606,300716
19.949,194769,595,300720
19.954,194755,596,300742
19.959,194764,598,300745
19.964,194783,601,300731
19.969,194753,604,300734
19.974,194792,596,300714
19.979,194780,596,300752
19.984,194786,599,300768
19.989,194783,603,300761
19.993,194795,605,300754
19.998,194792,608,300765
20.003,194781,593,300772
20.008,194822,595,300762
20.013,194803,599,300787
20.018,194809,595,300779
20.023,194813,593,300780
20.028,194802,594,300783
20.033,194811,596,300801
20.038,194820,597,300791
20.043,194830,598,300798
20.048,194824,598,300780
20.053,194826,600,300823
20.058,194823,601,300797
20.063,194819,603,300801
20.068,194820,605,300831
20.073,194825,604,300821
20.078,194843,603,300828
20.083,194836,605,300808
20.088,194849,591,300822
20.093,194849,593,300847
20.098,194865,593,300849
20.103,194857,593,300822
20.108,194854,593,300849
20.113,194853,596,300848
20.118,194883,577,300860
20.123,194865,602,300852
20.128,194879,605,300851
20.133,194873,591,300882
20.138,194866,590,300868
20.143,194876,591,300888
20.147,194875,591,300873
20.152,194878,594,300880
20.157,194891,593,300894
20.162,194887,594,300887
20.167,194883,602,300916
20.172,194900,602,300887
20.177,194892,603,300878
20.182,194887,602,300872
20.187,194880,602,300861
20.192,194866,603,300865
20.197,194848,602,300829
20.202,194841,603,300820
20.207,194832,601,300803
20.212,194830,605,300786
20.217,194815,599,300807
20.222,194808,601,300772
20.227,194800,599,300752
20.232,194782,311,300766
20.237,194770,379,300750
20.242,194786,403,300748
20.247,194775,416,300771
20.252,194769,425,300744
20.257,194770,431,300758
20.262,194746,439,300747
20.267,194758,434,300759
20.272,194751,441,300750
20.277,194745,445,300737
20.282,194750,449,300743
20.287,194753,448,300732
20.292,194762,453,300733
20.296,194753,455,300722
20.301,194741,460,300734
20.306,194754,462,300770
20.311,194748,465,300735
20.316,194761,474,300754
20.321,194754,477,300754
20.326,194759,478,300734
20.331,194758,482,300751
20.336,194711,912,300750
20.341,194742,731,300770
20.346,194752,701,300759
20.351,194741,689,300729
20.356,194748,680,300757
20.361,194741,660,300789
20.366,194745,660,300762
20.371,194734,657,300756
20.376,194753,652,300777
20.381,194744,650,300779
20.386,194746,645,300783
20.391,194755,645,300786
20.396,194772,640,300812
20.401,194761,640,300807
20.406,194781,636,300801
20.411,194782,633,300809
20.416,194758,632,300791
20.421,194763,630,300780
20.426,194760,627,300821
20.431,194770,629,300794
20.436,194763,627,300811
20.441,194760,625,300829
20.446,194773,624,300833
20.450,194769,626,300838
20.455,194780,625,300837
20.460,194782,615,300845
20.465,194778,612,300859
20.470,194785,612,300836
20.475,194779,611,300837
20.480,194777,610,300838
20.485,194767,609,300863
20.490,194800,612,300855
20.495,194814,609,300875
20.500,194800,612,300836
20.505,194791,610,300875
20.510,194784,620,300852
20.515,194808,603,300875
20.520,194788,604,300870
20.525,194788,603,300855
20.530,194810,605,300873
20.535,194796,603,300907
20.540,194802,607,300883
20.545,194802,606,300899
20.550,194798,610,300893
20.555,194790,608,300887
20.560,194810,617,300886
20.565,194803,600,300895
20.570,194825,601,300889
20.575,194830,600,300885
20.580,194831,601,300905
20.585,194821,600,300895
20.590,194813,602,300899
20.595,194808,603,300893
20.599,194817,604,300917
20.604,194827,604,300861
20.609,194801,612,300888
20.614,194811,596,300909
20.619,194817,597,300894
20.624,194822,596,300915
20.629,194827,598,300916
20.634,194838,597,300910
20.639,194826,598,300904
20.644,194819,597,300926
20.649,194827,598,300927
20.654,194871,604,300915
20.659,194834,605,300928
20.664,194813,605,300912
20.669,194837,604,300941
20.674,194836,606,300910
20.679,194834,606,300950
20.684,194835,604,300939
20.689,194863,607,300948
20.694,194843,605,300934
20.699,194839,607,300951
20.704,194861,605,300943
20.709,194834,606,300947
20.714,194880,605,300940
20.719,194866,604,300939
20.724,194853,605,300963
20.729,194874,606,300965
20.734,194880,604,300955
20.739,194869,603,300979
20.744,194871,602,301002
20.748,194880,603,300972
20.753,194874,593,300970
20.758,194907,592,300970
20.763,194885,591,300981
20.768,194901,593,301018
20.773,194908,594,301013
20.778,194920,597,301023
20.783,194921,597,301015
20.788,194917,601,301042
20.793,194912,605,301035
20.798,194928,589,301040
20.803,194932,602,301052
20.808,194941,589,301067
20.813,194931,589,301038
20.818,194937,593,301060
20.823,194934,593,301033
20.828,194935,594,301069
20.833,194970,597,301055
20.838,194928,602,301048
20.843,194945,589,301077
20.848,194928,594,301011
20.853,194918,602,301012
20.858,194908,589,301022
20.863,194907,593,301008
20.868,194902,595,300997
20.873,194886,598,301003
20.878,194871,599,300979
20.883,194880,586,300978
20.888,194860,589,300984
20.893,194860,593,300970
20.898,194819,593,301000
20.902,194869,587,300975
20.907,194867,590,300975
20.912,194850,594,300980
20.917,194845,595,300982
20.922,194850,596,300993
20.927,194855,594,300998
20.932,194849,595,300968
20.937,194855,594,300966
20.942,194864,594,300979
20.947,194848,599,300971
20.952,194849,599,300970
20.957,194853,598,300966
20.962,194855,598,300960
20.967,194829,596,300979
20.972,194850,599,300977
20.977,194851,598,300959
20.982,194836,597,300946
20.987,194831,595,300949
20.992,194827,596,300947
20.997,194819,585,300931
21.002,194822,584,300923
21.007,194832,584,300939
21.012,194804,586,300940
21.017,194808,585,300955
21.022,194827,588,300941
21.027,194820,588,300957
21.032,194819,591,300954
21.037,194839,592,300944
21.042,194817,601,300944
21.047,194850,584,300975
21.051,194841,588,300976
21.056,194841,587,300991
21.061,194835,588,300994
21.066,194848,586,300978
21.071,194857,588,300977
21.076,194838,586,300982
21.081,194828,586,300986
21.086,194849,585,300982
21.091,194853,586,300982
21.096,194821,592,301002
21.101,194822,592,300948
21.106,194833,594,300992
21.111,194837,594,300985
21.116,194829,594,300971
21.121,194849,596,300993
21.126,194819,594,301003
21.131,194839,595,300987
21.136,194843,593,300975
21.141,194829,597,300987
21.146,194836,590,301016
21.151,194825,592,300985
21.156,194841,590,301018
21.161,194854,591,301035
21.166,194854,590,301028
21.171,194854,590,301036
21.176,194864,587,301064
21.181,194909,588,301096
21.186,194893,587,301086
21.191,194921,579,301089
21.196,194905,578,301084
21.201,194895,580,301101
21.205,194931,578,301122
21.210,194903,579,301125
21.215,194919,577,301124
21.220,194911,578,301144
21.225,194906,578,301150
21.230,194915,577,301112
21.235,194911,578,301185
21.240,194921,355,301141
21.245,194917,380,301114
21.250,194913,395,301140
21.255,194933,404,301137
21.260,194920,411,301129
21.265,194944,417,301149
21.270,194934,422,301148
21.275,194951,426,301175
21.280,194951,447,301183
21.285,194947,448,301155
21.290,194945,442,301180
21.295,194957,443,301174
21.300,194934,445,301171
21.305,194951,463,301209
21.310,194970,449,301222
21.315,194961,452,301218
21.320,194964,456,301219
21.325,194986,456,301207
21.330,194978,460,301233
21.335,194986,459,301236
21.340,194973,468,301251
21.345,194999,730,301261
21.350,194985,688,301232
21.354,195003,670,301238
21.359,195000,661,301241
21.364,194986,650,301253
21.369,194995,646,301243
21.374,194992,639,301255
21.379,194993,636,301244
21.384,195014,641,301336
21.389,195007,641,301236
21.394,195008,636,301281
21.399,195009,633,301249
21.404,195010,630,301258
21.409,195017,629,301245
21.414,195013,625,301264
21.419,195016,624,301274
21.424,195032,619,301259
21.429,195017,618,301263
21.434,195037,628,301277
21.439,195023,608,301276
21.444,195032,606,301273
21.449,195035,603,301283
21.454,195051,602,301308
21.459,195043,617,301277
21.464,195035,614,301306
21.469,195030,613,301304
21.474,195054,612,301310
21.479,195060,611,301303
21.484,195043,599,301297
21.489,195018,598,301267
21.494,195040,595,301265
21.499,195005,596,301241
21.504,195023,593,301249
21.508,195004,592,301238
21.513,195008,593,301225
21.518,194996,607,301232
21.523,194962,604,301223
21.528,194974,602,301202
21.533,194976,596,301205
21.538,194953,600,301187
21.543,194948,599,301200
21.548,194970,597,301202
21.553,194945,597,301208
21.558,194955,596,301190
21.563,194964,596,301193
21.568,194956,594,301161
21.573,194942,594,301159
21.578,194947,592,301188
21.583,194941,598,301169
21.588,194941,596,301158
21.593,194932,596,301167
21.598,194939,595,301179
21.603,194927,595,301168
21.608,194928,595,301176
21.613,194942,596,301193
21.618,194916,596,301173
21.623,194928,596,301186
21.628,194912,596,301170
21.633,194905,586,301149
21.638,194909,583,301182
21.643,194912,584,301170
21.648,194922,581,301160
21.653,194921,583,301141
21.657,194900,582,301146
21.662,194908,581,301172
21.667,194897,581,301151
21.672,194900,599,301159
21.677,194935,578,301174
21.682,194922,585,301153
21.687,194941,584,301182
21.692,194934,584,301190
21.697,194947,581,301196
21.702,194947,581,301206
21.707,194933,579,301182
21.712,194936,579,301221
21.717,194943,593,301204
21.722,194945,593,301212
21.727,194928,587,301223
21.732,194947,589,301221
21.737,194940,590,301214
21.742,194959,589,301236
21.747,194958,586,301214
21.752,194965,585,301248
21.757,194961,584,301242
21.762,194964,584,301237
21.767,194970,581,301259
21.772,194988,580,301244
21.777,194957,585,301273
21.782,194963,582,301244
21.787,194983,579,301260
21.792,194977,581,301295
21.797,194981,580,301279
21.802,194979,578,301248
21.807,194990,577,301274
21.811,194999,592,301287
21.816,195010,590,301285
21.821,195003,589,301295
21.826,195031,584,301298
21.831,195012,586,301329
21.836,195018,584,301340
21.841,195029,584,301342
21.846,195010,580,301360
21.851,195041,580,301336
21.856,195023,579,301369
21.861,195047,580,301367
21.866,195028,579,301360
21.871,195035,580,301368
21.876,195051,584,301353
21.881,195053,583,301343
21.886,195056,582,301390
21.891,195041,582,301379
21.896,195054,580,301367
21.901,195050,579,301375
21.906,195048,576,301369
21.911,195063,575,301369
21.916,195058,573,301388
21.921,195064,585,301347
21.926,195074,573,301368
21.931,195057,576,301384
21.936,195054,573,301341
21.941,195054,587,301368
21.946,195048,585,301380
21.951,195050,584,301373
21.956,195061,582,301370
21.960,195057,581,301362
21.965,195073,578,301373
21.970,195071,584,301361
21.975,195078,585,301364
21.980,195061,584,301361
21.985,195062,582,301368
21.990,195055,580,301371
21.995,195062,577,301384
22.000,195072,576,301387
22.005,195065,574,301375
22.010,195084,575,301366
22.015,195061,573,301370
22.020,195075,579,301367
22.025,195070,577,301351
22.030,195080,578,301372
22.035,195081,577,301377
22.040,195072,576,301368
22.045,195098,574,301374
22.050,195091,573,301378
22.055,195100,571,301392
22.060,195090,572,301374
22.065,195109,568,301388
22.070,195085,577,301405
22.075,195091,575,301421
22.080,195111,573,301421
22.085,195099,571,301391
22.090,195101,586,301402
22.095,195089,583,301396
22.100,195094,581,301357
22.105,195082,579,301363
22.110,195081,579,301355
22.114,195055,578,301323
22.119,195045,584,301340
22.124,195041,581,301297
22.129,195015,582,301317
22.134,195018,581,301319
22.139,195014,583,301269
22.144,195004,581,301292
22.149,195001,581,301252
22.154,195008,581,301276
22.159,195007,579,301281
22.164,194989,578,301261
22.169,194987,569,301252
22.174,194981,568,301242
22.179,194970,583,301248
22.184,194975,581,301239
22.189,194979,582,301253
22.194,194982,581,301243
22.199,194966,580,301239
22.204,194968,576,301242
22.209,194966,579,301224
22.214,194986,591,301240
22.219,194975,576,301220
22.224,194954,573,301245
22.229,194950,573,301223
22.234,194956,340,301232
22.239,194945,373,301209
22.244,194938,384,301206
22.249,194929,395,301226
22.254,194936,418,301202
22.259,194944,424,301190
22.263,194944,417,301208
22.268,194934,422,301181
22.273,194924,425,301203
22.278,194937,427,301183
22.283,194946,450,301206
22.288,194929,450,301180
22.293,194951,453,301202
22.298,194937,453,301206
22.303,194942,455,301209
22.308,194924,455,301197
22.313,194930,430,301201
22.318,194936,458,301235
22.323,194942,459,301240
22.328,194948,461,301213
22.333,194945,463,301195
22.338,194941,738,301221
22.343,194949,681,301201
22.348,194945,663,301201
22.353,194936,652,301203
22.358,194947,641,301192
22.363,194946,641,301215
22.368,194952,634,301204
22.373,194946,630,301224
22.378,194965,625,301225
22.383,194955,619,301205
22.388,194938,615,301216
22.393,194948,613,301211
22.398,194927,609,301198
22.403,194927,622,301173
22.408,194943,617,301209
22.413,194937,607,301196
22.417,194942,604,301229
22.422,194944,604,301205
22.427,194942,601,301248
22.432,194960,601,301204
22.437,194973,599,301243
22.442,194953,599,301218
22.447,194951,598,301224
22.452,194968,597,301218
22.457,194961,599,301257
22.462,194974,600,301251
22.467,194962,597,301261
22.472,194975,599,301228
22.477,194966,596,301264
22.482,194975,591,301249
22.487,194967,592,301233
22.492,194962,593,301247
22.497,194971,591,301242
22.502,194969,591,301233
22.507,194981,601,301224
22.512,194968,587,301231
22.517,194987,586,301241
22.522,194985,585,301251
22.527,194978,584,301263
22.532,195000,584,301270
22.537,194996,582,301273
22.542,194996,580,301290
22.547,194988,594,301263
22.552,194998,595,301293
22.557,195024,583,301304
22.562,195006,581,301311
22.566,195007,580,301311
22.571,195011,580,301296
22.576,195014,579,301298
22.581,195029,579,301335
22.586,195013,577,301321
22.591,195035,592,301326
22.596,195030,590,301331
22.601,195027,590,301326
22.606,195025,581,301335
22.611,195041,582,301308
22.616,195031,580,301307
22.621,195040,580,301349
22.626,195049,577,301370
22.631,195043,577,301335
22.636,195050,575,301343
22.641,195043,576,301343
22.646,195074,573,301359
22.651,195069,575,301362
22.656,195043,579,301369
22.661,195070,581,301337
22.666,195064,577,301351
22.671,195076,578,301329
22.676,195061,575,301332
22.681,195064,575,301320
22.686,195047,574,301316
22.691,195053,574,301334
22.696,195042,588,301293
22.701,195041,588,301288
22.706,195023,575,301259
22.711,195018,577,301267
22.716,195008,574,301244
22.720,194981,574,301239
22.725,194996,574,301257
22.730,194980,576,301253
22.735,194980,574,301226
22.740,194969,574,301224
22.745,194959,573,301216
22.750,194944,579,301197
22.755,194956,578,301198
22.760,194934,576,301189
22.765,194934,579,301195
22.770,194927,580,301174
22.775,194942,580,301150
22.780,194925,582,301167
22.785,194922,580,301159
22.790,194924,582,301159
22.795,194913,582,301149
22.800,194914,575,301140
22.805,194910,571,301143
22.810,194916,573,301150
22.815,194915,573,301139
22.820,194907,573,301143
22.825,194916,572,301143
22.830,194908,574,301124
22.835,194890,573,301117
22.840,194909,572,301126
22.845,194898,570,301136
22.850,194880,577,301124
22.855,194878,575,301105
22.860,194878,574,301101
22.865,194885,572,301123
22.869,194895,573,301120
22.874,194888,570,301110
22.879,194888,570,301108
22.884,194895,567,301123
22.889,194907,568,301132
22.894,194887,569,301120
22.899,194886,575,301125
22.904,194894,570,301119
22.909,194892,571,301119
22.914,194895,570,301106
22.919,194872,569,301126
22.924,194891,567,301109
22.929,194882,569,301127
22.934,194875,568,301135
22.939,194906,568,301140
22.944,194879,565,301132
22.949,194895,578,301104
22.954,194887,576,301111
22.959,194882,575,301132
22.964,194895,573,301131
22.969,194882,573,301134
22.974,194888,572,301135
22.979,194888,573,301123
22.984,194891,572,301135
22.989,194895,569,301117
22.994,194888,576,301134
22.999,194887,574,301120
23.004,194899,572,301152
23.009,194897,572,301140
23.014,194888,571,301148
23.018,194892,570,301146
23.023,194903,568,301151
23.028,194906,566,301153
23.033,194913,581,301186
23.038,194923,578,301174
23.043,194922,569,301182
23.048,194916,568,301192
23.053,194919,569,301181
23.058,194937,569,301191
23.063,194916,569,301191
23.068,194929,568,301192
23.073,194922,569,301176
23.078,194921,568,301171
23.083,194917,568,301175
23.088,194937,567,301159
23.093,194936,575,301162
23.098,194920,574,301170
23.103,194929,573,301180
23.108,194939,571,301156
23.113,194929,573,301176
23.118,194922,571,301190
23.123,194929,571,301188
23.128,194945,569,301176
23.133,194923,570,301198
23.138,194955,570,301186
23.143,194935,579,301193
23.148,194939,564,301209
23.153,194928,566,301193
23.158,194952,565,301211
23.163,194957,564,301202
23.168,194940,564,301184
23.172,194952,564,301188
23.177,194944,562,301203
23.182,194952,563,301190
23.187,194951,577,301202
23.192,194957,575,301216
23.197,194953,574,301219
23.202,194968,572,301212
23.207,194975,570,301214
23.212,194972,570,301197
23.217,194981,568,301238
23.222,194970,567,301230
23.227,194973,566,301220
23.232,194987,312,301214
23.237,194986,366,301229
23.242,194978,380,301212
23.247,194999,390,301238
23.252,195006,398,301226
23.257,195001,406,301232
23.262,194991,413,301241
23.267,194980,416,301249
23.272,194977,422,301222
23.277,194959,424,301199
23.282,194971,428,301172
23.287,194895,436,301161
23.292,194935,442,301136
23.297,194917,443,301138
23.302,194918,447,301127
23.307,194894,448,301140
23.312,194905,452,301094
23.317,194909,453,301120
23.321,194882,456,301110
23.326,194888,457,301094
23.331,194882,462,301104
23.336,194883,795,301073
23.341,194868,687,301082
23.346,194879,660,301067
23.351,194857,651,301062
23.356,194860,642,301072
23.361,194842,635,301062
23.366,194835,629,301070
23.371,194850,626,301065
23.376,194843,621,301030
23.381,194839,619,301032
23.386,194817,621,301059
23.391,194839,620,301039
23.396,194834,616,301042
23.401,194820,616,301040
23.406,194821,612,301023
23.411,194823,613,301001
23.416,194808,611,301032
23.421,194805,611,300991
23.426,194809,607,300982
23.431,194800,606,301004
23.436,194807,594,301006
23.441,194796,593,301008
23.446,194800,592,300997
23.451,194798,592,300991
23.456,194799,589,300995
23.461,194802,590,301002
23.466,194798,587,301005
23.471,194815,586,301029
23.475,194805,600,301025
23.480,194813,599,301036
23.485,194819,586,301028
23.490,194821,585,301036
23.495,194793,583,301043
23.500,194817,583,301039
23.505,194820,579,301045
23.510,194827,579,301022
23.515,194830,578,301037
23.520,194821,594,301035
23.525,194830,590,301036
23.530,194843,588,300988
23.535,194829,581,301072
23.540,194848,580,301057
23.545,194836,577,301061
23.550,194825,577,301069
23.555,194843,577,301076
23.560,194856,575,301074
23.565,194854,574,301058
23.570,194850,575,301069
23.575,194835,589,301065
23.580,194841,579,301063
23.585,194832,579,301091
23.590,194852,581,301094
23.595,194865,581,301096
23.600,194844,582,301082
23.605,194853,580,301100
23.610,194851,580,301101
23.615,194865,579,301101
23.620,194862,580,301101
23.624,194857,579,301095
23.629,194874,557,301117
23.634,194889,579,301115
23.639,194858,579,301128
23.644,194869,576,301125
23.649,194886,577,301111
23.654,194870,576,301115
23.659,194869,576,301113
23.664,194882,573,301109
23.669,194877,573,301128
23.674,194857,571,301123
23.679,194893,577,301111
23.684,194868,576,301117
23.689,194884,577,301121
23.694,194872,577,301148
23.699,194887,575,301104
23.704,194886,574,301119
23.709,194901,575,301125
23.714,194884,574,301133
23.719,194904,574,301126
23.724,194890,575,301139
23.729,194891,566,301135
23.734,194893,565,301167
23.739,194889,565,301144
23.744,194888,565,301140
23.749,194913,566,301129
23.754,194908,566,301147
23.759,194898,566,301167
23.764,194901,564,301140
23.769,194920,566,301166
23.774,194914,569,301192
23.778,194918,575,301138
23.783,194928,575,301172
23.788,194945,576,301149
23.793,194927,580,301154
23.798,194934,563,301157
23.803,194935,564,301163
23.808,194929,562,301187
23.813,194937,563,301170
23.818,194933,563,301172
23.823,194965,571,301181
23.828,194945,575,301186
23.833,194949,576,301174
23.838,194951,574,301196
23.843,194962,574,301175
23.848,194964,575,301196
23.853,194944,577,301206
23.858,194965,576,301204
23.863,194965,576,301215
23.868,194973,575,301191
23.873,194973,566,301204
23.878,194962,567,301194
23.883,194955,565,301172
23.888,194923,564,301176
23.893,194931,565,301143
23.898,194933,564,301132
23.903,194922,565,301120
23.908,194896,565,301117
23.913,194896,567,301111
23.918,194876,566,301101
23.923,194880,573,301070
23.927,194867,572,301065
23.932,194855,574,301052
23.937,194851,573,301041
23.942,194864,572,301055
23.947,194854,570,301038
23.952,194836,572,301054
23.957,194823,569,301055
23.962,194837,569,301020
23.967,194815,567,301019
23.972,194813,559,301021
23.977,194833,558,301032
23.982,194793,558,301017
23.987,194812,573,301019
23.992,194797,572,301012
23.997,194787,571,301007
24.002,194778,571,300974
24.007,194786,570,300978
24.012,194795,572,300978
24.017,194782,574,300916
24.022,194773,562,300974
24.027,194780,559,300969
24.032,194769,560,300951
24.037,194749,559,300955
24.042,194761,559,300961
24.047,194759,558,300942
24.052,194739,558,300948
24.057,194740,556,300942
24.062,194735,573,300909
24.067,194791,565,300919
24.072,194735,570,300917
24.077,194728,568,300916
24.081,194755,567,300927
24.086,194751,565,300940
24.091,194763,565,300943
24.096,194743,566,300941
24.101,194749,568,300963
24.106,194764,566,300967
24.111,194756,566,300948
24.116,194742,556,300957
24.121,194753,557,300949
24.126,194767,556,300943
24.131,194750,557,300948
24.136,194749,572,300958
24.141,194756,571,300946
24.146,194745,568,300962
24.151,194738,567,300966
24.156,194738,567,300952
24.161,194765,568,300940
24.166,194753,556,300945
24.171,194760,556,300960
24.176,194754,554,300927
24.181,194759,557,300933
24.186,194745,555,300943
24.191,194753,557,300929
24.196,194759,555,300944
24.201,194741,555,300954
24.206,194747,554,300945
24.211,194738,564,300931
24.216,194748,560,300944
24.221,194721,560,300934
24.226,194746,558,300947
24.230,194518,257,300950
24.235,194740,350,300922
24.240,194736,370,300927
24.245,194767,398,300956
24.250,194747,406,300925
24.255,194750,412,300944
24.260,194755,417,300964
24.265,194743,408,300936
24.270,194754,411,300963
24.275,194752,432,300970
24.280,194744,434,300962
24.285,194763,434,300956
24.290,194765,437,300963
24.295,194748,441,300926
24.300,194750,441,300959
24.305,194772,441,300952
24.310,194766,456,301003
24.315,194773,454,300951
24.320,194763,455,300965
24.325,194783,456,300971
24.330,194758,458,300981
24.335,194769,458,300652
24.340,194791,690,300957
24.345,194785,655,300988
24.350,194790,641,300965
24.355,194785,631,300975
24.360,194790,628,300970
24.365,194794,623,300977
24.370,194787,619,300976
24.375,194801,615,300978
24.380,194794,611,300968
24.384,194775,606,300987
24.389,194786,603,300969
24.394,194807,599,300968
24.399,194789,597,300987
24.404,194812,594,300972
24.409,194815,601,300996
24.414,194798,597,300965
24.419,194792,595,301019
24.424,194806,592,300990
24.429,194824,593,300992
24.434,194814,590,301000
24.439,194807,588,300979
24.444,194819,585,300998
24.449,194840,584,301003
24.454,194818,582,301008
24.459,194832,583,300998
24.464,194824,580,300990
24.469,194831,579,301015
24.474,194826,578,301024
24.479,194832,575,301018
24.484,194821,575,301037
24.489,194840,572,301036
24.494,194834,571,301027
24.499,194830,585,301024
24.504,194837,584,301036
24.509,194819,573,300987
24.514,194826,574,300990
24.519,194796,572,300969
24.524,194800,571,300948
24.529,194800,569,300922
24.533,194771,568,300925
24.538,194765,568,300909
24.543,194764,567,300875
24.548,194740,568,300912
24.553,194732,574,300922
24.558,194742,574,300861
24.563,194717,575,300861
24.568,194716,572,300855
24.573,194724,574,300849
24.578,194711,575,300865
24.583,194714,573,300863
24.588,194714,572,300834
24.593,194705,574,300838
24.598,194689,576,300825
24.603,194657,565,300833
24.608,194696,563,300813
24.613,194685,565,300817
24.618,194695,563,300811
24.623,194682,564,300820
24.628,194655,562,300828
24.633,194667,564,300839
24.638,194645,562,300803
24.643,194668,562,300799
24.648,194675,561,300810
24.653,194672,569,300795
24.658,194667,569,300802
24.663,194654,569,300783
24.668,194653,567,300784
24.673,194636,570,300769
24.678,194624,571,300776
24.683,194632,571,300777
24.687,194632,570,300775
24.692,194632,572,300754
24.697,194612,570,300776
24.702,194621,564,300771
24.707,194604,564,300767
24.712,194622,568,300763
24.717,194610,566,300779
24.722,194616,567,300787
24.727,194618,565,300783
24.732,194628,567,300781
24.737,194618,565,300797
24.742,194619,564,300793
24.747,194612,563,300770
24.752,194629,562,300790
24.757,194638,560,300790
24.762,194638,561,300787
24.767,194629,560,300750
24.772,194615,561,300776
24.777,194615,561,300775
24.782,194614,561,300776
24.787,194623,561,300789
24.792,194598,563,300778
24.797,194604,563,300753
24.802,194596,555,300760
24.807,194627,555,300756
24.812,194615,555,300752
24.817,194610,556,300759
24.822,194620,557,300771
24.827,194593,556,300735
24.832,194602,556,300754
24.836,194607,555,300742
24.841,194620,555,300766
24.846,194612,556,300746
24.851,194590,561,300767
24.856,194612,560,300758
24.861,194608,560,300771
24.866,194612,557,300765
24.871,194614,559,300771
24.876,194623,560,300794
24.881,194617,560,300771
24.886,194618,559,300791
24.891,194609,562,300771
24.896,194627,566,300807
24.901,194619,568,300772
24.906,194628,566,300790
24.911,194624,568,300786
24.916,194616,566,300789
24.921,194633,566,300774
24.926,194626,565,300767
24.931,194617,567,300778
24.936,194617,567,300770
24.941,194621,552,300786
24.946,194621,557,300751
24.951,194619,559,300785
24.956,194610,559,300764
24.961,194633,561,300760
24.966,194636,560,300768
24.971,194622,562,300768
24.976,194631,563,300784
24.981,194637,566,300763
24.986,194624,563,300782
24.990,194635,552,300786
24.995,194642,557,300764
25.000,194629,559,300781
25.005,194645,560,300763
25.010,194626,561,300775
25.015,194624,562,300770
25.020,194620,564,300753
25.025,194616,565,300762
25.030,194639,551,300755
25.035,194619,551,300753
25.040,194623,554,300762
25.045,194626,560,300738
25.050,194630,561,300733
25.055,194622,562,300749
25.060,194627,563,300741
25.065,194612,563,300727
25.070,194614,565,300720
25.075,194626,566,300713
25.080,194610,551,300728
25.085,194619,549,300709
25.090,194613,548,300702
25.095,194618,558,300718
25.100,194601,559,300711
25.105,194609,559,300712
25.110,194613,562,300707
25.115,194604,562,300700
25.120,194628,563,300695
25.125,194628,561,300699
25.130,194594,564,300689
25.135,194608,548,300659
25.139,194614,536,300666
25.144,194615,563,300698
25.149,194615,565,300690
25.154,194606,549,300690
25.159,194603,549,300661
25.164,194601,549,300623
25.169,194581,550,300633
25.174,194561,550,300601
25.179,194545,551,300592
25.184,194528,550,300580
25.189,194512,557,300587
25.194,194505,558,300541
25.199,194492,558,300525
25.204,194490,558,300509
25.209,194474,557,300504
25.214,194469,556,300489
25.219,194450,556,300514
25.224,194430,557,300483
25.229,194435,557,300456
25.234,194434,346,300453
25.239,194421,362,300458
25.244,194409,375,300437
25.249,194395,384,300435
25.254,194384,391,300409
25.259,194407,396,300386
25.264,194394,418,300391
25.269,194365,422,300414
25.274,194377,426,300434
25.279,194371,430,300376
25.284,194356,434,300361
25.288,194363,431,300365
25.293,194370,437,300352
25.298,194348,437,300362
25.303,194345,439,300384
25.308,194341,439,300366
25.313,194336,440,300343
25.318,194341,439,300344
25.323,194331,440,300344
25.328,194319,440,300329
25.333,194327,448,300427
25.338,194316,700,300312
25.343,194329,655,300328
25.348,194330,638,300323
25.353,194307,627,300329
25.358,194325,618,300320
25.363,194317,609,300312
25.368,194323,603,300325
25.373,194300,600,300369
25.378,194331,611,300336
25.383,194315,590,300347
25.388,194316,594,300358
25.393,194334,593,300357
25.398,194330,591,300340
25.403,194328,586,300356
25.408,194330,584,300355
25.413,194326,585,300348
25.418,194333,581,300331
25.423,194324,580,300349
25.428,194307,577,300357
25.433,194337,588,300359
25.438,194342,588,300348
25.442,194333,587,300354
25.447,194319,584,300361
25.452,194322,583,300371
25.457,194323,580,300339
25.462,194343,577,300361
25.467,194329,576,300364
25.472,194321,575,300359
25.477,194321,572,300349
25.482,194329,579,300372
25.487,194342,576,300370
25.492,194331,577,300388
25.497,194330,574,300367
25.502,194340,573,300345
25.507,194343,569,300375
25.512,194373,567,300376
25.517,194337,565,300382
25.522,194349,564,300389
25.527,194354,560,300396
25.532,194347,568,300378
25.537,194375,566,300406
25.542,194372,565,300417
25.547,194361,563,300427
25.552,194364,564,300436
25.557,194379,563,300456
25.562,194379,564,300414
25.567,194387,560,300419
25.572,194373,561,300440
25.577,194378,558,300442
25.582,194391,567,300442
25.587,194393,563,300472
25.591,194392,565,300465
25.596,194389,564,300478
25.601,194399,565,300483
25.606,194427,562,300476
25.611,194415,563,300478
25.616,194419,560,300491
25.621,194430,560,300491
25.626,194428,575,300515
25.631,194426,554,300473
25.636,194444,552,300503
25.641,194434,552,300527
25.646,194444,568,300507
25.651,194432,553,300536
25.656,194452,569,300516
25.661,194439,568,300530
25.666,194458,552,300529
25.671,194457,553,300526
25.676,194458,558,300527
25.681,194464,560,300537
25.686,194488,557,300576
25.691,194471,557,300574
25.696,194469,557,300569
25.701,194477,558,300573
25.706,194456,557,300566
25.711,194483,557,300586
25.716,194492,556,300588
25.721,194507,556,300603
25.726,194493,562,300579
25.731,194500,564,300578
25.736,194507,562,300604
25.741,194519,563,300608
25.745,194513,560,300619
25.750,194515,561,300609
25.755,194518,561,300629
25.760,194531,562,300608
25.765,194536,560,300610
25.770,194520,562,300641
25.775,194546,550,300630
25.780,194550,551,300659
25.785,194543,552,300670
25.790,194542,553,300655
25.795,194565,553,300650
25.800,194552,555,300671
25.805,194559,553,300663
25.810,194557,554,300656
25.815,194544,554,300634
25.820,194542,554,300632
25.825,194522,560,300608
25.830,194521,561,300600
25.835,194512,561,300581
25.840,194485,562,300581
25.845,194494,561,300575
25.850,194479,561,300576
25.855,194476,560,300548
25.860,194452,563,300539
25.865,194466,562,300553
25.870,194441,557,300533
25.875,194450,559,300536
25.880,194447,560,300523
25.885,194471,560,300520
25.890,194437,545,300531
25.894,194422,545,300506
25.899,194449,546,300512
25.904,194442,543,300527
25.909,194427,561,300516
25.914,194409,545,300522
25.919,194427,550,300499
25.924,194440,550,300510
25.929,194423,550,300505
25.934,194423,550,300508
25.939,194424,550,300522
25.944,194429,549,300511
25.949,194413,550,300502
25.954,194419,551,300524
25.959,194414,548,300521
25.964,194418,549,300508
25.969,194399,555,300514
25.974,194413,555,300506
25.979,194408,555,300524
25.984,194399,555,300502
25.989,194405,557,300520
25.994,194406,558,300528
25.999,194404,558,300500
26.004,194416,559,300553
26.009,194388,558,300542
26.014,194425,559,300544
26.019,194424,548,300566
26.024,194427,547,300542
26.029,194423,546,300555
26.034,194463,544,300546
26.039,194425,559,300542
26.044,194425,558,300577
26.048,194434,555,300551
26.053,194429,557,300561
26.058,194428,557,300545
26.063,194437,555,300579
26.068,194440,544,300576
26.073,194434,545,300558
26.078,194438,544,300571
26.083,194440,544,300574
26.088,194444,544,300575
26.093,194452,545,300581
26.098,194453,541,300599
26.103,194442,544,300571
26.108,194436,545,300590
26.113,194433,549,300578
26.118,194453,554,300594
26.123,194429,556,300593
26.128,194458,557,300579
26.133,194445,543,300615
26.138,194452,544,300598
26.143,194458,546,300603
26.148,194454,546,300612
26.153,194446,550,300603
26.158,194469,552,300622
26.163,194474,548,300636
26.168,194463,550,300633
26.173,194467,555,300646
26.178,194480,557,300661
26.183,194477,545,300664
26.188,194470,546,300649
26.193,194473,550,300673
26.197,194502,555,300673
26.202,194485,559,300681
26.207,194494,544,300679
26.212,194487,554,300674
26.217,194509,556,300677
26.222,194503,543,300710
26.227,194498,543,300694
26.232,194517,318,300703
26.237,194527,358,300751
26.242,194530,377,300744
26.247,194538,389,300723
26.252,194518,399,300727
26.257,194542,408,300753
26.262,194568,402,300754
26.267,194561,418,300799
26.272,194571,407,300798
26.277,194605,412,300839
26.282,194573,419,300847
26.287,194591,422,300847
26.292,194638,427,300858
26.297,194638,432,300909
26.302,194647,437,300939
26.307,194643,442,300943
26.312,194671,434,300942
26.317,194673,437,300984
26.322,194698,443,301022
26.327,194701,446,301008
26.332,194721,451,301055
26.337,194744,729,301081
26.342,194773,650,301129
26.347,194793,629,301150
26.351,194806,621,301171
26.356,194824,613,301185
26.361,194836,615,301215
26.366,194851,610,301246
26.371,194867,611,301235
26.376,194887,593,301297
26.381,194879,591,301308
26.386,194912,588,301313
26.391,194922,589,301330
26.396,194908,587,301348
26.401,194916,588,301359
26.406,194949,594,301375
26.411,194933,578,301372
26.416,194950,577,301387
26.421,194978,579,301417
26.426,194973,579,301420
26.431,194976,581,301422
26.436,194978,581,301425
26.441,194985,582,301424
26.446,194970,566,301425
26.451,194995,569,301437
26.456,194982,576,301415
26.461,194962,579,301403
26.466,194977,563,301423
26.471,194962,567,301395
26.476,194943,567,301400
26.481,194952,570,301387
26.486,194937,571,301405
26.491,194964,574,301432
26.496,194954,560,301438
26.500,194947,563,301441
26.505,194947,571,301461
26.510,194972,559,301460
26.515,194983,560,301461
26.520,194981,563,301512
26.525,195006,566,301511
26.530,195005,569,301546
26.535,195040,554,301584
26.540,195043,556,301621
26.545,195080,556,301634
26.550,195077,552,301658
26.555,195092,554,301681
26.560,195142,558,301709
26.565,195141,556,301734
26.570,195147,558,301749
26.575,195156,561,301782
26.580,195159,563,301768
26.585,195187,564,301763
26.590,195157,568,301789
26.595,195155,553,301783
26.600,195160,556,301754
26.605,195146,562,301759
26.610,195139,569,301782
26.615,195144,553,301756
26.620,195141,556,301762
26.625,195150,556,301740
26.630,195145,561,301749
26.635,195159,561,301735
26.640,195126,565,301742
26.645,195153,565,301763
26.650,195158,529,301735
26.654,195156,556,301750
26.659,195162,562,301719
26.664,195145,561,301737
26.669,195160,565,301725
26.674,195151,568,301720
26.679,195145,553,301731
26.684,195147,556,301708
26.689,195140,559,301701
26.694,195103,560,301700
26.699,195131,553,301681
26.704,195105,556,301675
26.709,195122,559,301683
26.714,195122,561,301660
26.719,195110,566,301682
26.724,195117,568,301668
26.729,195091,555,301632
26.734,195098,557,301638
26.739,195110,559,301633
26.744,195087,560,301621
26.749,195088,552,301596
26.754,195082,556,301641
26.759,195086,558,301622
26.764,195069,561,301605
26.769,195083,564,301619
26.774,195058,566,301598
26.779,195072,553,301581
26.784,195086,555,301573
26.789,195071,560,301581
26.794,195060,563,301593
26.799,195068,562,301535
26.803,195046,564,301561
26.808,195066,566,301548
26.813,195037,552,301544
26.818,195052,557,301554
26.823,195039,561,301550
26.828,195048,564,301511
26.833,195021,552,301520
26.838,195037,556,301503
26.843,195024,558,301521
26.848,195014,557,301514
26.853,195039,563,301486
26.858,195035,565,301484
26.863,195020,553,301491
26.868,195004,556,301481
26.873,195013,562,301480
26.878,194998,564,301464
26.883,194987,551,301464
26.888,195009,554,301427
26.893,194993,593,301434
26.898,195009,554,301463
26.903,194998,555,301420
26.908,194988,558,301420
26.913,194988,563,301394
26.918,194961,565,301398
26.923,194968,552,301391
26.928,194969,555,301399
26.933,194963,557,301407
26.938,194957,562,301394
26.943,194985,558,301356
26.948,194959,562,301376
26.953,194965,566,301390
26.957,194964,550,301378
26.962,194979,554,301373
26.967,194970,556,301379
26.972,194969,561,301371
26.977,194966,562,301375
26.982,194966,566,301363
26.987,194975,550,301345
26.992,194959,559,301368
26.997,194967,560,301366
27.002,194981,565,301360
27.007,194965,550,301343
27.012,194964,555,301362
27.017,194963,558,301345
27.022,194970,561,301323
27.027,194951,562,301314
27.032,194960,567,301317
27.037,194930,550,301304
27.042,194967,557,301297
27.047,194944,558,301269
27.052,194931,563,301260
27.057,194930,563,301250
27.062,194913,549,301244
27.067,194876,550,301197
27.072,194872,552,301186
27.077,194833,555,301140
27.082,194843,559,301133
27.087,194832,559,301108
27.092,194817,552,301103
27.097,194801,553,301102
27.102,194794,554,301089
27.106,194793,556,301069
27.111,194785,560,301075
27.116,194784,562,301049
27.121,194776,565,301054
27.126,194761,549,301055
27.131,194753,553,301057
27.136,194757,553,301019
27.141,194758,565,301017
27.146,194749,549,301027
27.151,194746,551,301043
27.156,194752,552,301008
27.161,194753,555,301037
27.166,194758,557,301010
27.171,194753,559,301019
27.176,194751,560,301008
27.181,194746,564,301012
27.186,194731,554,301017
27.191,194745,559,301010
27.196,194718,560,300989
27.201,194731,564,300982
27.206,194722,548,300993
27.211,194721,554,300957
27.216,194734,552,300986
27.221,194712,554,300984
27.226,194734,555,300974
27.231,194720,318,300964
27.236,194728,362,300959
27.241,194709,384,300970
27.246,194733,395,300991
27.251,194727,408,300978
27.256,194730,397,301002
27.260,194737,404,300978
27.265,194726,409,300983
27.270,194747,416,300972
27.275,194724,420,300999
27.280,194726,423,300995
27.285,194740,433,301003
27.290,194738,440,300984
27.295,194730,443,300981
27.300,194726,430,300988
27.305,194735,435,301006
27.310,194741,441,300986
27.315,194747,445,300999
27.320,194727,451,300995
27.325,194737,453,300989
27.330,194733,444,300981
27.335,194713,759,300964
27.340,194726,675,300972
27.345,194707,652,300966
27.350,194707,641,300967
27.355,194718,619,300935
27.360,194699,616,300967
27.365,194700,611,300944
27.370,194690,610,300945
27.375,194699,607,300941
27.380,194696,618,300960
27.385,194710,601,300956
27.390,194699,602,300922
27.395,194696,602,300920
27.400,194695,585,300949
27.405,194703,585,300932
27.409,194691,585,300925
27.414,194689,585,300914
27.419,194683,587,300922
27.424,194685,588,300920
27.429,194686,579,300908
27.434,194668,579,300907
27.439,194677,582,300881
27.444,194648,581,300881
27.449,194667,585,300883
27.454,194658,569,300849
27.459,194646,571,300856
27.464,194650,570,300862
27.469,194649,574,300842
27.474,194643,575,300849
27.479,194630,566,300825
27.484,194631,567,300825
27.489,194634,566,300814
27.494,194629,571,300803
27.499,194621,573,300803
27.504,194620,574,300786
27.509,194610,562,300797
27.514,194630,563,300780
27.519,194611,564,300762
27.524,194605,566,300788
27.529,194582,564,300786
27.534,194602,568,300745
27.539,194586,571,300759
27.544,194610,557,300756
27.549,194610,561,300764
27.554,194615,563,300755
27.558,194614,567,300756
27.563,194588,567,300762
27.568,194610,566,300754
27.573,194623,567,300753
27.578,194622,556,300744
27.583,194606,554,300763
27.588,194618,554,300769
27.593,194609,553,300739
27.598,194625,554,300754
27.603,194625,552,300747
27.608,194617,554,300760
27.613,194611,554,300733
27.618,194632,554,300767
27.623,194606,560,300822
27.628,194618,559,300757
27.633,194603,560,300744
27.638,194591,560,300703
27.643,194586,557,300715
27.648,194585,558,300707
27.653,194575,556,300643
27.658,194559,556,300657
27.663,194533,554,300639
27.668,194538,556,300618
27.673,194495,567,300627
27.678,194519,561,300623
27.683,194502,546,300591
27.688,194483,547,300621
27.693,194497,547,300592
27.698,194484,548,300607
27.703,194491,547,300598
27.708,194483,547,300594
27.712,194480,547,300599
27.717,194476,545,300606
27.722,194494,551,300590
27.727,194491,551,300598
27.732,194493,551,300609
27.737,194489,550,300597
27.742,194490,549,300623
27.747,194489,547,300614
27.752,194493,547,300600
27.757,194492,545,300609
27.762,194505,544,300621
27.767,194498,543,300626
27.772,194483,550,300635
27.777,194495,549,300621
27.782,194471,548,300628
27.787,194513,547,300634
27.792,194488,548,300647
27.797,194504,546,300644
27.802,194501,545,300638
27.807,194501,544,300652
27.812,194497,544,300650
27.817,194495,543,300662
27.822,194511,548,300645
27.827,194507,546,300670
27.832,194517,547,300673
27.837,194523,544,300678
27.842,194526,544,300688
27.847,194535,542,300693
27.852,194549,542,300705
27.857,194540,541,300722
27.861,194541,539,300726
27.866,194560,554,300721
27.871,194545,544,300723
27.876,194554,542,300733
27.881,194559,542,300729
27.886,194552,541,300735
27.891,194552,542,300722
27.896,194562,539,300763
27.901,194571,538,300744
27.906,194562,552,300758
27.911,194563,554,300757
27.916,194573,535,300752
27.921,194559,541,300755
27.926,194572,538,300752
27.931,194555,538,300770
27.936,194565,537,300776
27.941,194555,537,300757
27.946,194574,554,300787
27.951,194569,554,300734
27.956,194566,552,300743
27.961,194558,552,300766
27.966,194571,540,300741
27.971,194568,542,300783
27.976,194559,541,300760
27.981,194574,541,300775
27.986,194580,540,300798
27.991,194575,541,300790
27.996,194578,540,300776
28.001,194600,540,300784
28.006,194590,538,300785
28.011,194591,538,300811
28.015,194584,543,300795
28.020,194589,543,300791
28.025,194597,543,300795
28.030,194585,545,300770
28.035,194587,546,300823
28.040,194577,545,300808
28.045,194596,542,300815
28.050,194594,546,300824
28.055,194607,543,300835
28.060,194615,545,300827
28.065,194609,540,300837
28.070,194620,542,300844
28.075,194627,543,300836
28.080,194636,544,300858
28.085,194636,543,300863
28.090,194650,547,300859
28.095,194648,546,300870
28.100,194637,548,300859
28.105,194673,547,300892
28.110,194668,550,300881
28.115,194666,539,300906
28.120,194667,539,300910
28.125,194651,536,300921
28.130,194687,539,300945
28.135,194685,538,300920
28.140,194687,537,300949
28.145,194709,535,300960
28.150,194717,536,300938
28.155,194709,536,300964
28.160,194713,538,300985
28.164,194718,542,300979
28.169,194727,542,300999
28.174,194744,541,300997
28.179,194746,542,300997
28.184,194746,539,301024
28.189,194751,542,300973
28.194,194745,542,301006
28.199,194752,541,300984
28.204,194743,541,300998
28.209,194728,546,300955
28.214,194714,546,300953
28.219,194720,546,300951
28.224,194710,545,300944
28.229,194710,285,300952
28.234,194687,350,300938
28.239,194682,373,300941
28.244,194678,384,300927
28.249,194678,391,300940
28.254,194674,397,300945
28.259,194666,394,300960
28.264,194676,396,300935
28.269,194679,402,300945
28.274,194673,403,300964
28.279,194679,407,300956
28.284,194681,409,300941
28.289,194677,413,300964
28.294,194673,417,300973
28.299,194677,419,300955
28.304,194691,437,300982
28.309,194669,430,300965
28.314,194692,433,300976
28.318,194685,435,300986
28.323,194684,436,301002
28.328,194687,441,300973
28.333,194693,441,300997
28.338,194702,674,300959
28.343,194689,640,301015
28.348,194698,625,300988
28.353,194676,615,300989
28.358,194698,613,301020
28.363,194692,595,300973
28.368,194664,589,301001
28.373,194674,602,300978
28.378,194681,598,300991
28.383,194704,595,300988
28.388,194703,591,300988
28.393,194710,586,300986
28.398,194722,583,301008
28.403,194706,581,300945
28.408,194704,584,301022
28.413,194726,584,301019
28.418,194725,582,301026
28.423,194721,579,301000
28.428,194710,577,301011
28.433,194708,577,301022
28.438,194717,576,301028
28.443,194725,574,301023
28.448,194716,571,301035
28.453,194773,561,301031
28.458,194722,560,301040
28.463,194719,557,301034
28.467,194725,556,301022
28.472,194717,571,301054
28.477,194724,569,301038
28.482,194712,567,301015
28.487,194717,563,301044
28.492,194698,563,301037
28.497,194717,561,301051
28.502,194713,566,301028
28.507,194700,565,301020
28.512,194722,565,301031
28.517,194712,562,301052
28.522,194723,560,301064
28.527,194730,558,301064
28.532,194744,557,301066
28.537,194730,557,301067
28.542,194734,556,301074
28.547,194734,555,301060
28.552,194733,549,301094
28.557,194754,549,301074
28.562,194744,549,301087
28.567,194759,548,301097
28.572,194749,551,301120
28.577,194748,550,301121
28.582,194748,550,301096
28.587,194759,549,301100
28.592,194772,551,301122
28.597,194768,544,301127
28.602,194777,557,301122
28.607,194768,555,301147
28.612,194785,557,301133
28.617,194797,557,301163
28.621,194791,557,301177
28.626,194782,556,301115
28.631,194794,557,301167
28.636,194806,556,301160
28.641,194813,555,301166
28.646,194801,554,301155
28.651,194796,545,301148
28.656,194791,544,301149
28.661,194815,543,301164
28.666,194815,545,301169
28.671,194825,545,301198
28.676,194827,544,301190
28.681,194812,545,301169
28.686,194812,544,301183
28.691,194829,546,301188
28.696,194818,582,301185
28.701,194841,551,301198
28.706,194832,549,301186
28.711,194844,550,301201
28.716,194837,551,301206
28.721,194829,551,301197
28.726,194859,549,301218
28.731,194839,550,301208
28.736,194847,549,301182
28.741,194832,550,301180
28.746,194766,531,301170
28.751,194818,542,301164
28.756,194812,541,301148
28.761,194789,541,301169
28.766,194790,538,301110
28.770,194791,541,301120
28.775,194775,540,301091
28.780,194780,541,301134
28.785,194770,541,301112
28.790,194769,544,301072
28.795,194766,542,301117
28.800,194763,544,301094
28.805,194769,545,301116
28.810,194755,550,301106
28.815,194746,548,301094
28.820,194755,549,301117
28.825,194774,550,301119
28.830,194750,551,301130
28.835,194767,551,301106
28.840,194786,552,301147
28.845,194776,541,301133
28.850,194782,539,301151
28.855,194785,539,301145
28.860,194785,538,301127
28.865,194780,536,301158
28.870,194787,537,301192
28.875,194798,535,301179
28.880,194788,536,301158
28.885,194775,536,301182
28.890,194792,537,301177
28.895,194794,551,301163
28.900,194800,552,301166
28.905,194788,549,301159
28.910,194776,552,301158
28.915,194790,549,301161
28.920,194796,550,301156
28.924,194791,547,301142
28.929,194782,550,301141
28.934,194797,550,301154
28.939,194785,559,301124
28.944,194801,538,301162
28.949,194800,538,301150
28.954,194802,537,301137
28.959,194811,555,301131
28.964,194809,552,301135
28.969,194807,554,301150
28.974,194823,553,301130
28.979,194806,552,301154
28.984,194805,552,301145
28.989,194792,543,301148
28.994,194817,545,301156
28.999,194818,545,301173
29.004,194812,546,301198
29.009,194807,546,301162
29.014,194813,546,301161
