df_hash,22ZHK4.Z5RDGQ
device,HZ2X61
project_hash,29R7
project_name,istanbul_aydin_university
person_hash,29R7.F750
person_label,V82(2)
date_time_start,2025-11-03_16-41-10.212000_+03
date_time_start_unix,1762173670.212
date_time_end,2025-11-03_16-49-55.970000_+03
length_difference_noticed,no

time,ppg_ir,ppg_ambient,ppg_red
5.235,188260,198,104495
5.240,188225,200,104474
5.245,188145,195,104475
5.250,188095,196,104461
5.255,188009,198,104439
5.260,187963,200,104433
5.265,187896,201,104417
5.270,187850,193,104395
5.275,187798,195,104382
5.280,187747,196,104376
5.285,187704,198,104366
5.290,187658,200,104355
5.295,187621,194,104338
5.300,187588,196,104348
5.305,187542,198,104327
5.310,187549,199,104324
5.315,187502,201,104314
5.320,187486,192,104307
5.325,187469,192,104312
5.330,187455,193,104305
5.334,187428,194,104299
5.339,187432,196,104298
5.344,187408,201,104274
5.349,187401,191,104287
5.354,187392,193,104292
5.359,187380,194,104286
5.364,187365,195,104278
5.369,187367,196,104274
5.374,187367,198,104277
5.379,187355,200,104278
5.384,187331,202,104262
5.389,187334,194,104266
5.394,187322,191,104269
5.399,187318,193,104276
5.404,187312,195,104261
5.409,187302,198,104265
5.414,187296,199,104262
5.419,187306,201,104261
5.424,187302,193,104261
5.429,187312,194,104252
5.434,187319,195,104255
5.439,187333,201,104254
5.444,187342,194,104270
5.449,187345,196,104263
5.454,187358,198,104268
5.459,187357,201,104262
5.464,187351,191,104263
5.469,187350,194,104261
5.474,187349,195,104263
5.478,187317,197,104261
5.483,187355,199,104251
5.488,187347,194,104262
5.493,187348,195,104264
5.498,187310,197,104269
5.503,187332,198,104254
5.508,187320,200,104241
5.513,187319,200,104264
5.518,187315,201,104255
5.523,187305,192,104260
5.528,187319,192,104246
5.533,187310,194,104248
5.538,187311,199,104249
5.543,187308,201,104247
5.548,187317,192,104247
5.553,187323,192,104248
5.558,187298,194,104253
5.563,187304,195,104259
5.568,187297,196,104260
5.573,187306,197,104252
5.578,187302,201,104270
5.583,187317,201,104259
5.588,187326,196,104263
5.593,187316,197,104262
5.598,187329,200,104265
5.603,187360,201,104278
5.608,187361,192,104266
5.613,187376,193,104271
5.618,187396,194,104279
5.623,187405,195,104283
5.627,187401,197,104276
5.632,187413,200,104300
5.637,187417,200,104291
5.642,187420,200,104295
5.647,187443,199,104282
5.652,187464,198,104291
5.657,187458,198,104295
5.662,187477,197,104294
5.667,187482,197,104303
5.672,187518,195,104304
5.677,187504,195,104295
5.682,187526,198,104321
5.687,187536,193,104314
5.692,187539,191,104309
5.697,187554,201,104316
5.702,187567,199,104315
5.707,187575,199,104322
5.712,187583,197,104324
5.717,187611,197,104325
5.722,187619,197,104340
5.727,187640,198,104344
5.732,187671,193,104335
5.737,187668,193,104351
5.742,187679,193,104361
5.747,187701,193,104354
5.752,187734,193,104371
5.757,187743,194,104369
5.762,187752,193,104375
5.767,187777,195,104374
5.771,187796,193,104382
5.776,187814,194,104400
5.781,187829,197,104395
5.786,187836,197,104386
5.791,187857,197,104401
5.796,187873,197,104411
5.801,187887,196,104410
5.806,187906,196,104418
5.811,187915,195,104433
5.816,187929,195,104425
5.821,187942,195,104423
5.826,187963,196,104434
5.831,187976,199,104439
5.836,188000,199,104448
5.841,188010,198,104439
5.846,188024,199,104448
5.851,188039,198,104452
5.856,188043,198,104460
5.861,188029,197,104469
5.866,188029,197,104465
5.871,187992,197,104459
5.876,187956,198,104421
5.881,187929,201,104441
5.886,187871,201,104430
5.891,187783,201,104409
5.896,187723,201,104411
5.901,187646,201,104371
5.906,187602,200,104383
5.911,187535,200,104358
5.916,187488,200,104349
5.920,187437,199,104335
5.925,187443,192,104326
5.930,187354,192,104298
5.935,187301,192,104294
5.940,187247,191,104291
5.945,187226,201,104280
5.950,187215,201,104272
5.955,187187,201,104267
5.960,187146,201,104265
5.965,187130,200,104257
5.970,187119,200,104246
5.975,187093,193,104253
5.980,187071,193,104241
5.985,187089,192,104248
5.990,187061,192,104243
5.995,187038,192,104238
6.000,187048,192,104231
6.005,187035,192,104225
6.010,187031,191,104227
6.015,187026,191,104225
6.020,187007,202,104220
6.025,187022,195,104227
6.030,187006,195,104216
6.035,187005,194,104223
6.040,186983,194,104224
6.045,186980,195,104217
6.050,186814,187,104225
6.055,186984,195,104220
6.060,186952,196,104211
6.064,186965,196,104209
6.069,186968,194,104215
6.074,186980,195,104207
6.079,186999,200,104211
6.084,186981,200,104223
6.089,186994,200,104212
6.094,186994,201,104218
6.099,187009,202,104214
6.104,187001,191,104227
6.109,186994,192,104217
6.114,186990,193,104232
6.119,187000,194,104220
6.124,186995,199,104227
6.129,186980,200,104225
6.134,186974,201,104221
6.139,186979,192,104219
6.144,186978,193,104220
6.149,186979,193,104218
6.154,186978,193,104254
6.159,186980,194,104209
6.164,186961,195,104210
6.169,186966,200,104203
6.174,186954,201,104212
6.179,186947,202,104214
6.184,186943,201,104208
6.189,186944,192,104207
6.194,186936,191,104198
6.199,186945,192,104214
6.204,186943,192,104209
6.209,186949,192,104218
6.213,186953,192,104217
6.218,186966,197,104224
6.223,186962,196,104225
6.228,186972,198,104226
6.233,186976,198,104230
6.238,186976,199,104226
6.243,186998,199,104228
6.248,187012,200,104235
6.253,187028,199,104233
6.258,187029,200,104243
6.263,187033,200,104239
6.268,187038,193,104251
6.273,187064,193,104249
6.278,187056,195,104243
6.283,187073,194,104268
6.288,187071,193,104263
6.293,187085,192,104255
6.298,187091,192,104256
6.303,187119,192,104264
6.308,187121,192,104269
6.313,187144,192,104269
6.318,187152,197,104272
6.323,187184,197,104283
6.328,187193,198,104270
6.333,187201,196,104289
6.338,187209,197,104296
6.343,187228,197,104284
6.348,187237,197,104301
6.353,187250,196,104300
6.357,187269,196,104307
6.362,187297,196,104310
6.367,187298,195,104315
6.372,187324,196,104317
6.377,187336,197,104323
6.382,187343,197,104335
6.387,187354,197,104321
6.392,187377,197,104339
6.397,187382,199,104356
6.402,187396,199,104342
6.407,187409,201,104346
6.412,187433,191,104356
6.417,187433,194,104365
6.422,187467,194,104363
6.427,187494,195,104371
6.432,187497,195,104375
6.437,187507,196,104383
6.442,187546,195,104386
6.447,187530,196,104399
6.452,187556,195,104388
6.457,187585,196,104388
6.462,187609,201,104391
6.467,187609,202,104414
6.472,187623,201,104414
6.477,187667,201,104425
6.482,187673,201,104411
6.487,187701,202,104420
6.492,187695,201,104434
6.497,187726,201,104427
6.502,187729,201,104441
6.506,187753,201,104447
6.511,187758,193,104453
6.516,187773,194,104450
6.521,187785,195,104467
6.526,187778,195,104456
6.531,187817,195,104465
6.536,187792,196,104474
6.541,187761,195,104472
6.546,187735,196,104470
6.551,187688,196,104465
6.556,187636,196,104465
6.561,187599,201,104446
6.566,187531,202,104440
6.571,187450,191,104426
6.576,187388,192,104407
6.581,187327,191,104389
6.586,187259,202,104367
6.591,187213,202,104359
6.596,187150,202,104351
6.601,187115,201,104348
6.606,187086,201,104341
6.611,187023,194,104316
6.616,187004,194,104321
6.621,186992,193,104320
6.626,186976,194,104307
6.631,186941,193,104301
6.636,186927,193,104287
6.641,186913,194,104289
6.646,186887,195,104278
6.650,186860,194,104280
6.655,186859,197,104332
6.660,186836,197,104281
6.665,186830,197,104278
6.670,186824,196,104277
6.675,186823,196,104276
6.680,186819,196,104274
6.685,186802,195,104276
6.690,186810,194,104277
6.695,186797,195,104263
6.700,186775,194,104272
6.705,186740,198,104277
6.710,186763,199,104258
6.715,186775,198,104262
6.720,186755,197,104257
6.725,186762,197,104258
6.730,186745,195,104260
6.735,186743,195,104258
6.740,186756,195,104254
6.745,186768,194,104253
6.750,186772,194,104250
6.755,186783,197,104260
6.760,186801,197,104238
6.765,186791,197,104263
6.770,186814,196,104257
6.775,186802,195,104265
6.780,186786,195,104272
6.785,186797,194,104265
6.790,186796,193,104255
6.795,186813,192,104260
6.799,186783,192,104257
6.804,186792,198,104267
6.809,186783,198,104253
6.814,186785,196,104256
6.819,186779,196,104257
6.824,186764,195,104251
6.829,186774,193,104254
6.834,186767,192,104261
6.839,186770,201,104264
6.844,186760,199,104248
6.849,186751,198,104255
6.854,186748,192,104258
6.859,186760,192,104249
6.864,186754,201,104256
6.869,186753,201,104245
6.874,186768,200,104262
6.879,186769,199,104267
6.884,186759,199,104258
6.889,186774,197,104258
6.894,186776,197,104263
6.899,186776,196,104267
6.904,186793,199,104267
6.909,186789,199,104258
6.914,186790,197,104271
6.919,186813,197,104278
6.924,186812,196,104281
6.929,186834,196,104281
6.934,186834,193,104279
6.939,186834,193,104284
6.944,186850,192,104287
6.948,186875,195,104296
6.953,186857,198,104299
6.958,186883,198,104294
6.963,186895,196,104308
6.968,186915,196,104303
6.973,186921,195,104317
6.978,186935,195,104321
6.983,186935,194,104324
6.988,186958,193,104319
6.993,186981,192,104325
6.998,186974,196,104339
7.003,187006,195,104350
7.008,187011,194,104340
7.013,187025,193,104337
7.018,187045,193,104340
7.023,187035,192,104353
7.028,187055,192,104363
7.033,187069,192,104361
7.038,187083,202,104353
7.043,187101,202,104361
7.048,187104,194,104387
7.053,187132,193,104387
7.058,187158,193,104393
7.063,187180,192,104392
7.068,187192,192,104399
7.073,187198,192,104399
7.078,187217,191,104401
7.083,187242,191,104401
7.088,187247,191,104409
7.092,187265,191,104431
7.097,187277,195,104429
7.102,187284,194,104427
7.107,187300,193,104431
7.112,187329,193,104432
7.117,187335,193,104437
7.122,187342,194,104440
7.127,187364,195,104453
7.132,187382,194,104448
7.137,187392,194,104464
7.142,187393,193,104462
7.147,187401,197,104462
7.152,187421,196,104468
7.157,187427,197,104472
7.162,187448,196,104479
7.167,187466,196,104482
7.172,187480,195,104490
7.177,187471,195,104493
7.182,187461,193,104486
7.187,187431,192,104494
7.192,187405,196,104498
7.197,187364,196,104463
7.202,187307,196,104470
7.207,187254,196,104459
7.212,187194,195,104437
7.217,187146,196,104415
7.222,187079,194,104417
7.227,187015,194,104401
7.232,186974,194,104383
7.237,186903,194,104373
7.241,186875,198,104373
7.246,186822,193,104356
7.251,186783,193,104329
7.256,186750,193,104322
7.261,186721,193,104316
7.266,186688,194,104316
7.271,186681,193,104324
7.276,186641,194,104304
7.281,186626,193,104293
7.286,186617,194,104305
7.291,186590,197,104296
7.296,186579,198,104293
7.301,186595,197,104302
7.306,186580,198,104282
7.311,186574,197,104285
7.316,186581,198,104271
7.321,186554,197,104282
7.326,186562,198,104290
7.331,186548,197,104276
7.336,186539,197,104278
7.341,186535,201,104275
7.346,186526,201,104280
7.351,186533,200,104271
7.356,186506,200,104267
7.361,186510,200,104259
7.366,186514,200,104258
7.371,186506,200,104260
7.376,186496,199,104263
7.381,186511,199,104260
7.385,186521,199,104270
7.390,186529,192,104263
7.395,186550,192,104267
7.400,186543,191,104277
7.405,186550,191,104281
7.410,186567,192,104283
7.415,186565,192,104279
7.420,186572,192,104277
7.425,186565,192,104283
7.430,186565,192,104277
7.435,186565,194,104235
7.440,186568,197,104275
7.445,186544,198,104278
7.450,186541,198,104281
7.455,186548,199,104262
7.460,186534,199,104286
7.465,186543,199,104275
7.470,186536,199,104264
7.475,186549,200,104277
7.480,186560,200,104273
7.485,186587,194,104265
7.490,186520,199,104279
7.495,186532,200,104270
7.500,186533,199,104269
7.505,186541,200,104282
7.510,186535,200,104277
7.515,186537,200,104287
7.520,186536,200,104270
7.525,186528,201,104271
7.530,186542,201,104278
7.534,186572,195,104283
7.539,186574,198,104284
7.544,186580,198,104289
7.549,186575,198,104295
7.554,186587,198,104283
7.559,186597,198,104287
7.564,186606,197,104293
7.569,186606,198,104301
7.574,186620,197,104296
7.579,186644,197,104306
7.584,186634,201,104306
7.589,186635,191,104303
7.594,186652,191,104314
7.599,186667,191,104316
7.604,186691,191,104321
7.609,186701,192,104326
7.614,186702,192,104326
7.619,186738,193,104336
7.624,186728,192,104330
7.629,186757,192,104347
7.634,186771,196,104345
7.639,186775,196,104347
7.644,186786,197,104360
7.649,186814,196,104356
7.654,186827,195,104369
7.659,186835,196,104362
7.664,186857,196,104383
7.669,186871,196,104369
7.674,186875,195,104383
7.678,186895,196,104372
7.683,186929,199,104382
7.688,186927,200,104391
7.693,186938,200,104391
7.698,186966,200,104385
7.703,186974,199,104404
7.708,187006,199,104406
7.713,187008,200,104419
7.718,187016,200,104410
7.723,187037,201,104420
7.728,187081,190,104426
7.733,187074,195,104430
7.738,187097,196,104447
7.743,187123,195,104438
7.748,187143,195,104443
7.753,187141,196,104449
7.758,187178,196,104456
7.763,187175,197,104469
7.768,187204,197,104462
7.773,187211,198,104468
7.778,187253,193,104473
7.783,187250,193,104492
7.788,187282,193,104494
7.793,187283,193,104486
7.798,187312,195,104485
7.803,187311,195,104493
7.808,187327,195,104510
7.813,187345,194,104513
7.818,187356,196,104514
7.823,187374,196,104516
7.827,187366,201,104525
7.832,187386,200,104532
7.837,187360,202,104525
7.842,187330,191,104519
7.847,187302,192,104518
7.852,187266,191,104510
7.857,187225,193,104492
7.862,187146,192,104494
7.867,187077,193,104472
7.872,187025,192,104462
7.877,186956,197,104439
7.882,186909,197,104421
7.887,186851,197,104423
7.892,186813,197,104404
7.897,186754,198,104386
7.902,186707,198,104374
7.907,186656,198,104373
7.912,186642,198,104353
7.917,186616,198,104350
7.922,186582,198,104339
7.927,186554,196,104334
7.932,186536,196,104322
7.937,186522,196,104333
7.942,186503,196,104325
7.947,186501,196,104323
7.952,186479,195,104320
7.957,186475,195,104315
7.962,186463,194,104312
7.967,186446,194,104318
7.971,186438,194,104308
7.976,186437,198,104301
7.981,186450,197,104307
7.986,186417,198,104304
7.991,186436,198,104307
7.996,186424,199,104294
8.001,186419,198,104302
8.006,186401,198,104310
8.011,186413,197,104303
8.016,186404,198,104287
8.021,186381,191,104299
8.026,186407,202,104287
8.031,186381,201,104298
8.036,186393,201,104298
8.041,186389,202,104293
8.046,186397,201,104290
8.051,186415,200,104292
8.056,186416,200,104290
8.061,186430,201,104300
8.066,186437,201,104288
8.071,186434,194,104300
8.076,186437,194,104303
8.081,186457,194,104297
8.086,186453,194,104304
8.091,186454,193,104301
8.096,186448,193,104292
8.101,186441,193,104310
8.106,186451,193,104303
8.111,186434,192,104295
8.116,186447,193,104295
8.120,186442,197,104314
8.125,186429,197,104298
8.130,186434,196,104292
8.135,186437,197,104311
8.140,186437,196,104297
8.145,186421,196,104301
8.150,186434,195,104311
8.155,186435,196,104306
8.160,186423,196,104301
8.165,186443,196,104297
8.170,186431,200,104300
8.175,186444,200,104309
8.180,186434,199,104316
8.185,186443,198,104303
8.190,186464,197,104320
8.195,186450,196,104316
8.200,186475,197,104319
8.205,186499,197,104315
8.210,186482,197,104314
8.215,186484,201,104320
8.220,186506,192,104321
8.225,186516,191,104333
8.230,186510,191,104328
8.235,186528,201,104340
8.240,186541,200,104339
8.245,186573,200,104365
8.250,186577,199,104346
8.255,186587,197,104355
8.260,186591,197,104360
8.264,186611,200,104360
8.269,186618,201,104374
8.274,186652,200,104383
8.279,186663,199,104381
8.284,186671,197,104376
8.289,186695,195,104390
8.294,186715,195,104399
8.299,186731,194,104385
8.304,186743,193,104399
8.309,186756,192,104408
8.314,186765,198,104408
8.319,186769,200,104399
8.324,186805,199,104419
8.329,186809,201,104417
8.334,186820,192,104427
8.339,186836,193,104426
8.344,186854,194,104439
8.349,186871,196,104432
8.354,186893,198,104443
8.359,186919,201,104443
8.364,186929,195,104447
8.369,186947,197,104455
8.374,186966,199,104452
8.379,186983,202,104477
8.384,187007,192,104472
8.389,187011,196,104479
8.394,187052,196,104487
8.399,187064,198,104488
8.404,187059,199,104496
8.409,187094,200,104496
8.413,187090,194,104503
8.418,187114,196,104511
8.423,187131,196,104511
8.428,187153,198,104522
8.433,187186,200,104512
8.438,187186,202,104524
8.443,187194,192,104538
8.448,187202,195,104537
8.453,187244,196,104533
8.458,187262,202,104546
8.463,187283,199,104549
8.468,187294,201,104553
8.473,187309,192,104564
8.478,187315,193,104561
8.483,187363,194,104570
8.488,187367,195,104582
8.493,187401,196,104590
8.498,187411,197,104583
8.503,187430,197,104580
8.508,187499,192,104597
8.513,187454,193,104595
8.518,187474,196,104604
8.523,187457,197,104609
8.528,187454,199,104611
8.533,187421,200,104607
8.538,187395,192,104596
8.543,187360,193,104585
8.548,187302,195,104581
8.553,187232,196,104567
8.557,187159,192,104557
8.562,187109,192,104546
8.567,187052,194,104518
8.572,186985,196,104526
8.577,186933,197,104505
8.582,186885,198,104492
8.587,186841,199,104472
8.592,186798,198,104473
8.597,186763,197,104461
8.602,186721,196,104460
8.607,186724,194,104448
8.612,186674,195,104434
8.617,186648,195,104432
8.622,186628,193,104433
8.627,186602,193,104423
8.632,186578,191,104416
8.637,186570,202,104418
8.642,186558,200,104414
8.647,186552,199,104407
8.652,186536,197,104417
8.657,186535,201,104411
8.662,186521,200,104406
8.667,186531,199,104401
8.672,186520,197,104391
8.677,186520,196,104410
8.682,186515,195,104406
8.687,186504,194,104405
8.692,186505,193,104405
8.697,186512,192,104397
8.702,186501,191,104405
8.706,186496,194,104402
8.711,186482,194,104396
8.716,186480,192,104395
8.721,186473,202,104400
8.726,186489,200,104397
8.731,186487,197,104390
8.736,186500,195,104396
8.741,186512,192,104394
8.746,186519,192,104400
8.751,186523,189,104403
8.756,186535,194,104414
8.761,186534,192,104405
8.766,186534,202,104410
8.771,186536,200,104406
8.776,186562,198,104414
8.781,186532,195,104424
8.786,186560,194,104414
8.791,186552,192,104427
8.796,186547,202,104416
8.801,186546,194,104419
8.806,186532,193,104413
8.811,186556,193,104402
8.816,186524,194,104405
8.821,186530,193,104401
8.826,186523,193,104397
8.831,186524,192,104397
8.836,186524,202,104409
8.841,186507,200,104388
8.846,186503,199,104400
8.850,186513,191,104391
8.855,186501,201,104397
8.860,186507,199,104392
8.865,186515,198,104395
8.870,186514,197,104389
8.875,186522,196,104401
8.880,186533,195,104395
8.885,186534,195,104406
8.890,186535,194,104406
8.895,186555,192,104420
8.900,186562,196,104414
8.905,186575,196,104425
8.910,186587,196,104425
8.915,186600,196,104430
8.920,186609,197,104424
8.925,186614,196,104429
8.930,186619,196,104428
8.935,186634,197,104435
8.940,186654,198,104448
8.945,186670,199,104440
8.950,186659,192,104445
8.955,186690,193,104454
8.960,186699,194,104456
8.965,186713,195,104460
8.970,186724,196,104474
8.975,186735,197,104477
8.980,186757,197,104471
8.985,186769,198,104479
8.990,186786,198,104484
8.995,186807,204,104427
8.999,186812,200,104503
9.004,186862,201,104497
9.009,186869,200,104507
9.014,186871,201,104507
9.019,186884,200,104516
9.024,186898,200,104513
9.029,186915,200,104522
9.034,186936,199,104527
9.039,186948,199,104521
9.044,186966,191,104524
9.049,186990,195,104548
9.054,186988,194,104533
9.059,187019,194,104537
9.064,187038,193,104550
9.069,187037,193,104547
9.074,187059,192,104556
9.079,187068,193,104563
9.084,187083,192,104561
9.089,187108,192,104560
9.094,187140,197,104544
9.099,187145,200,104579
9.104,187145,199,104576
9.109,187186,198,104581
9.114,187182,197,104590
9.119,187199,197,104601
9.124,187226,196,104622
9.129,187264,196,104590
9.134,187274,196,104600
9.139,187275,196,104612
9.144,187317,193,104632
9.148,187321,194,104629
9.153,187332,196,104625
9.158,187348,194,104642
9.163,187365,194,104651
9.168,187392,194,104651
9.173,187420,194,104644
9.178,187414,195,104653
9.183,187446,193,104654
9.188,187455,193,104665
9.193,187484,196,104666
9.198,187509,196,104667
9.203,187506,196,104678
9.208,187520,196,104685
9.213,187544,196,104690
9.218,187552,197,104694
9.223,187554,195,104694
9.228,187564,195,104704
9.233,187546,194,104703
9.238,187540,196,104678
9.243,187539,198,104697
9.248,187494,198,104693
9.253,187436,197,104690
9.258,187403,198,104666
9.263,187319,197,104664
9.268,187263,197,104648
9.273,187202,196,104632
9.278,187150,196,104620
9.283,187087,195,104603
9.288,187076,198,104591
9.292,186979,199,104569
9.297,186938,200,104562
9.302,186894,200,104551
9.307,186847,202,104537
9.312,186825,191,104530
9.317,186789,192,104518
9.322,186770,192,104527
9.327,186746,193,104514
9.332,186713,193,104516
9.337,186724,199,104503
9.342,186711,201,104510
9.347,186677,193,104497
9.352,186684,193,104505
9.357,186675,196,104502
9.362,186670,198,104495
9.367,186654,200,104496
9.372,186665,191,104484
9.377,186647,194,104499
9.382,186635,195,104490
9.387,186666,201,104487
9.392,186662,193,104490
9.397,186641,194,104497
9.402,186637,196,104498
9.407,186630,199,104491
9.412,186641,191,104495
9.417,186633,195,104497
9.422,186627,197,104490
9.427,186629,199,104491
9.432,186631,201,104494
9.437,186633,201,104490
9.441,186638,191,104489
9.446,186652,193,104498
9.451,186664,194,104500
9.456,186675,196,104511
9.461,186681,198,104504
9.466,186699,200,104510
9.471,186693,201,104504
9.476,186715,193,104514
9.481,186697,194,104533
9.486,186691,200,104507
9.491,186710,191,104502
9.496,186698,193,104505
9.501,186688,194,104508
9.506,186687,196,104502
9.511,186691,198,104508
9.516,186671,200,104513
9.521,186690,192,104508
9.526,186676,193,104508
9.531,186682,196,104516
9.536,186670,201,104501
9.541,186671,192,104515
9.546,186682,195,104484
9.551,186671,196,104500
9.556,186670,199,104506
9.561,186681,201,104507
9.566,186683,192,104499
9.571,186668,194,104498
9.576,186680,195,104516
9.581,186685,200,104510
9.585,186692,202,104501
9.590,186703,192,104508
9.595,186710,193,104513
9.600,186715,196,104515
9.605,186698,198,104519
9.610,186733,202,104511
9.615,186735,192,104524
9.620,186731,193,104524
9.625,186763,195,104522
9.630,186758,200,104540
9.635,186761,201,104535
9.640,186783,192,104535
9.645,186789,193,104537
9.650,186824,195,104536
9.655,186826,196,104540
9.660,186843,198,104543
9.665,186862,200,104550
9.670,186878,202,104542
9.675,186889,191,104561
9.680,186881,198,104551
9.685,186904,199,104566
9.690,186920,199,104566
9.695,186925,200,104571
9.700,186963,192,104571
9.705,186952,193,104569
9.710,186979,194,104575
9.715,186995,196,104583
9.720,187002,198,104583
9.725,187020,200,104595
9.730,187031,199,104595
9.734,187049,201,104592
9.739,187072,192,104610
9.744,187089,192,104617
9.749,187118,194,104618
9.754,187112,196,104616
9.759,187150,197,104625
9.764,187170,199,104632
9.769,187175,201,104630
9.774,187167,191,104644
9.779,187206,197,104647
9.784,187230,199,104651
9.789,187240,200,104647
9.794,187260,202,104650
9.799,187273,192,104661
9.804,187298,193,104656
9.809,187312,195,104669
9.814,187337,197,104663
9.819,187325,198,104689
9.824,187367,193,104677
9.829,187378,194,104682
9.834,187413,195,104691
9.839,187413,197,104691
9.844,187449,198,104693
9.849,187449,200,104701
9.854,187469,200,104706
9.859,187483,192,104714
9.864,187494,193,104714
9.869,187525,194,104725
9.874,187536,199,104716
9.878,187540,200,104722
9.883,187579,201,104728
9.888,187582,202,104744
9.893,187596,192,104737
9.898,187614,194,104754
9.903,187609,194,104759
9.908,187618,196,104754
9.913,187590,196,104757
9.918,187571,196,104762
9.923,187554,192,104757
9.928,187533,192,104745
9.933,187475,193,104738
9.938,187406,194,104726
9.943,187372,194,104706
9.948,187295,195,104694
9.953,187242,196,104680
9.958,187211,197,104676
9.963,187119,198,104654
9.968,187083,201,104647
9.973,187043,198,104640
9.978,187002,200,104608
9.983,186957,201,104616
9.988,186931,192,104605
9.993,186904,193,104606
9.998,186861,194,104598
10.003,186866,195,104584
10.008,186833,196,104580
10.013,186826,197,104572
10.018,186815,195,104573
10.023,186799,192,104560
10.027,186796,194,104556
10.032,186791,194,104564
10.037,186787,196,104561
10.042,186781,196,104552
10.047,186802,195,104571
10.052,186791,196,104561
10.057,186787,197,104549
10.062,186792,198,104553
10.067,186777,192,104555
10.072,186779,193,104551
10.077,186792,195,104562
10.082,186780,195,104545
10.087,186780,195,104546
10.092,186775,195,104556
10.097,186761,196,104557
10.102,186773,197,104553
10.107,186776,199,104549
10.112,186783,200,104541
10.117,186798,197,104539
10.122,186807,201,104548
10.127,186820,201,104549
10.132,186836,202,104546
10.137,186840,201,104549
10.142,186851,201,104549
10.147,186853,202,104552
10.152,187058,209,104551
10.157,186856,203,104567
10.162,186867,192,104550
10.167,186859,196,104556
10.171,186866,195,104561
10.176,186855,197,104559
10.181,186841,197,104552
10.186,186853,198,104548
10.191,186847,198,104551
10.196,186842,200,104556
10.201,186848,200,104555
10.206,186847,200,104554
10.211,186827,200,104549
10.216,186849,194,104548
10.221,186835,195,104541
10.226,186832,195,104550
10.231,186833,195,104539
10.236,186832,195,104550
10.241,186827,196,104531
10.246,186839,196,104534
10.251,186825,196,104552
10.256,186838,197,104540
10.261,186846,198,104542
10.266,186850,192,104544
10.271,186860,192,104554
10.276,186852,194,104549
10.281,186868,194,104553
10.286,186870,195,104558
10.291,186884,196,104550
10.296,186884,196,104558
10.301,186923,196,104563
10.306,186921,198,104563
10.311,186920,201,104556
10.316,186938,192,104562
10.320,186957,192,104567
10.325,186943,193,104566
10.330,186965,193,104567
10.335,186976,194,104569
10.340,186990,195,104582
10.345,187027,197,104571
10.350,187018,199,104585
10.355,187038,200,104579
10.360,187046,193,104578
10.365,187047,194,104577
10.370,187061,194,104587
10.375,187075,196,104591
10.380,187101,197,104588
10.385,187088,199,104599
10.390,187107,201,104608
10.395,187129,191,104598
10.400,187134,192,104613
10.405,187182,195,104605
10.410,187177,190,104622
10.415,187188,197,104619
10.420,187210,198,104619
10.425,187234,200,104619
10.430,187241,201,104628
10.435,187256,192,104636
10.440,187259,194,104638
10.445,187292,196,104647
10.450,187302,198,104653
10.455,187329,199,104650
10.460,187331,194,104664
10.464,187350,195,104657
10.469,187376,196,104658
10.474,187386,198,104675
10.479,187407,199,104663
10.484,187431,199,104672
10.489,187444,200,104681
10.494,187468,201,104678
10.499,187480,191,104674
10.504,187490,196,104695
10.509,187517,201,104682
10.514,187528,201,104703
10.519,187537,202,104683
10.524,187549,192,104711
10.529,187582,194,104704
10.534,187591,195,104704
10.539,187582,197,104707
10.544,187601,199,104715
10.549,187605,200,104724
10.554,187597,194,104724
10.559,187587,196,104721
10.564,187541,197,104722
10.569,187528,200,104712
10.574,187454,192,104700
10.579,187406,195,104676
10.584,187345,198,104673
10.589,187284,200,104653
10.594,187222,192,104646
10.599,187168,194,104623
10.604,187106,199,104614
10.609,187056,201,104591
10.613,187015,192,104585
10.618,186969,193,104562
10.623,186922,193,104556
10.628,186888,195,104552
10.633,186859,196,104541
10.638,186821,198,104528
10.643,186811,200,104527
10.648,186792,192,104501
10.653,186762,197,104497
10.658,186754,199,104501
10.663,186727,200,104504
10.668,186720,200,104504
10.673,186705,199,104490
10.678,186718,197,104501
10.683,186714,197,104485
10.688,186714,196,104496
10.693,186706,195,104489
10.698,186712,194,104494
10.703,186699,197,104483
10.708,186703,196,104482
10.713,186698,194,104489
10.718,186706,194,104481
10.723,186689,192,104484
10.728,186677,192,104479
10.733,186674,201,104479
10.738,186679,202,104469
10.743,186682,201,104470
10.748,186699,203,104522
10.753,186689,193,104470
10.757,186692,193,104477
10.762,186705,192,104466
10.767,186708,191,104466
10.772,186731,191,104474
10.777,186736,202,104477
10.782,186740,201,104473
10.787,186756,202,104471
10.792,186759,200,104481
10.797,186718,194,104476
10.802,186774,193,104465
10.807,186789,193,104472
10.812,186791,192,104466
10.817,186789,193,104488
10.822,186780,193,104478
10.827,186786,193,104488
10.832,186785,192,104471
10.837,186770,193,104481
10.842,186774,192,104474
10.847,186759,199,104469
10.852,186745,191,104470
10.857,186763,192,104460
10.862,186754,192,104466
10.867,186763,193,104469
10.872,186742,192,104457
10.877,186764,193,104461
10.882,186761,194,104462
10.887,186762,194,104463
10.892,186757,193,104466
10.897,186748,197,104467
10.902,186755,197,104455
10.906,186769,197,104476
10.911,186775,196,104470
10.916,186786,196,104469
10.921,186783,195,104474
10.926,186802,195,104471
10.931,186819,193,104484
10.936,186813,195,104463
10.941,186824,194,104483
10.946,186833,198,104482
10.951,186847,197,104476
10.956,186863,197,104492
10.961,186882,196,104485
10.966,186882,196,104486
10.971,186915,194,104486
10.976,186915,195,104487
10.981,186922,195,104495
10.986,186938,194,104507
10.991,186954,193,104511
10.996,186970,196,104506
11.001,186982,195,104514
11.006,186997,194,104525
11.011,187012,193,104511
11.016,187017,193,104522
11.021,187018,192,104523
11.026,187058,202,104531
11.031,187064,201,104526
11.036,187072,201,104543
11.041,187097,189,104539
11.046,186905,185,104539
11.051,187115,192,104548
11.055,187149,192,104554
11.060,187154,191,104539
11.065,187159,201,104556
11.070,187186,201,104553
11.075,187181,200,104569
11.080,187210,199,104565
11.085,187231,199,104570
11.090,187260,192,104572
11.095,187276,192,104580
11.100,187301,192,104578
11.105,187287,192,104581
11.110,187304,202,104595
11.115,187329,200,104595
11.120,187354,199,104599
11.125,187365,198,104596
11.130,187394,197,104606
11.135,187412,196,104604
11.140,187426,200,104618
11.145,187437,199,104608
11.150,187437,198,104590
11.155,187463,198,104632
11.160,187497,197,104632
11.165,187509,196,104634
11.170,187526,195,104641
11.175,187534,195,104655
11.180,187548,194,104647
11.185,187589,194,104657
11.190,187573,198,104650
11.195,187617,197,104661
11.199,187616,197,104660
11.204,187640,196,104669
11.209,187659,195,104692
11.214,187666,194,104685
11.219,187680,193,104685
11.224,187711,192,104693
11.229,187684,192,104697
11.234,187681,201,104689
11.239,187667,199,104676
11.244,187621,198,104675
11.249,187588,197,104682
11.254,187529,195,104662
11.259,187447,195,104643
11.264,187389,195,104631
11.269,187337,194,104618
11.274,187253,194,104593
11.279,187202,194,104588
11.284,187148,196,104596
11.289,187091,197,104564
11.294,187032,198,104550
11.299,186985,197,104537
11.304,186935,196,104517
11.309,186911,196,104515
11.314,186880,196,104498
11.319,186835,196,104491
11.324,186806,196,104477
11.329,186767,195,104481
11.334,186773,199,104473
11.339,186720,199,104462
11.344,186721,199,104465
11.348,186709,198,104461
11.353,186710,198,104449
11.358,186694,198,104446
11.363,186685,197,104441
11.368,186672,196,104431
11.373,186675,196,104436
11.378,186655,195,104432
11.383,186661,198,104435
11.388,186686,198,104442
11.393,186682,197,104426
11.398,186677,197,104431
11.403,186671,195,104431
11.408,186668,195,104441
11.413,186656,195,104433
11.418,186651,195,104422
11.423,186652,195,104434
11.428,186667,195,104418
11.433,186647,192,104415
11.438,186656,192,104415
11.443,186658,192,104414
11.448,186667,202,104407
11.453,186660,201,104421
11.458,186673,202,104413
11.463,186690,200,104430
11.468,186698,201,104420
11.473,186707,200,104429
11.478,186682,200,104424
11.483,186690,193,104425
11.488,186699,193,104427
11.492,186692,193,104421
11.497,186704,193,104431
11.502,186686,193,104415
11.507,186705,193,104415
11.512,186681,193,104408
11.517,186702,193,104411
11.522,186680,193,104419
11.527,186671,194,104366
11.532,186687,191,104411
11.537,186668,192,104408
11.542,186670,192,104415
11.547,186660,193,104394
11.552,186662,193,104409
11.557,186659,193,104414
11.562,186670,192,104405
11.567,186659,193,104409
11.572,186644,193,104404
11.577,186680,196,104407
11.582,186668,197,104398
11.587,186663,199,104398
11.592,186669,199,104410
11.597,186670,201,104407
11.602,186691,200,104400
11.607,186687,201,104402
11.612,186677,200,104408
11.617,186715,201,104410
11.622,186715,200,104408
11.627,186725,194,104406
11.632,186733,192,104425
11.637,186748,192,104421
11.641,186749,192,104414
11.646,186770,193,104416
11.651,186763,192,104416
11.656,186773,192,104432
11.661,186786,202,104429
11.666,186797,191,104423
11.671,186801,191,104436
11.676,186800,195,104433
11.681,186841,195,104446
11.686,186856,195,104431
11.691,186863,194,104444
11.696,186876,195,104449
11.701,186888,194,104435
11.706,186924,194,104459
11.711,186925,194,104450
11.716,186916,194,104457
11.721,186943,191,104456
11.726,186974,197,104458
11.731,186977,196,104465
11.736,186994,196,104465
11.741,187003,196,104474
11.746,187019,195,104482
11.751,187027,194,104487
11.756,187064,195,104474
11.761,187069,195,104489
11.766,187097,195,104482
11.771,187092,194,104487
11.776,187120,199,104491
11.781,187129,199,104509
11.785,187147,199,104505
11.790,187168,198,104507
11.795,187171,198,104520
11.800,187198,197,104516
11.805,187200,197,104520
11.810,187242,195,104527
11.815,187241,195,104532
11.820,187266,190,104539
11.825,187273,196,104540
11.830,187314,195,104548
11.835,187318,194,104545
11.840,187328,193,104566
11.845,187351,193,104559
11.850,187365,191,104566
11.855,187382,201,104566
11.860,187390,200,104563
11.865,187412,200,104584
11.870,187436,193,104578
11.875,187437,193,104584
11.880,187457,193,104589
11.885,187475,192,104597
11.890,187474,192,104598
11.895,187505,192,104599
11.900,187485,192,104604
11.905,187525,191,104622
11.910,187515,192,104620
11.915,187527,192,104613
11.920,187527,199,104617
11.925,187512,199,104617
11.930,187445,198,104598
11.934,187393,198,104592
11.939,187352,197,104586
11.944,187286,197,104578
11.949,187219,197,104555
11.954,187147,196,104546
11.959,187079,196,104534
11.964,187038,195,104521
11.969,186951,199,104495
11.974,186918,199,104480
11.979,186839,199,104463
11.984,186798,199,104449
11.989,186739,198,104434
11.994,186695,197,104426
11.999,186672,197,104416
12.004,186623,196,104418
12.009,186603,196,104406
12.014,186570,197,104390
12.019,186554,196,104384
12.024,186543,195,104378
12.029,186527,195,104380
12.034,186500,194,104390
12.039,186510,194,104371
12.044,186499,192,104377
12.049,186494,193,104455
12.054,186480,192,104366
12.059,186479,191,104372
12.064,186500,195,104362
12.069,186471,201,104356
12.074,186490,199,104349
12.078,186476,199,104348
12.083,186460,197,104356
12.088,186486,197,104344
12.093,186476,196,104358
12.098,186486,196,104345
12.103,186465,196,104350
12.108,186470,196,104351
12.113,186462,200,104345
12.118,186479,201,104349
12.123,186482,201,104347
12.128,186500,201,104349
12.133,186492,200,104347
12.138,186504,201,104354
12.143,186510,201,104351
12.148,186520,201,104353
12.153,186528,200,104351
12.158,186530,201,104340
12.163,186533,194,104358
12.168,186527,193,104355
12.173,186550,192,104350
12.178,186523,192,104359
12.183,186552,191,104357
12.188,186530,192,104335
12.193,186527,202,104346
12.198,186540,192,104344
12.203,186532,202,104351
12.208,186533,202,104345
12.213,186532,194,104348
12.218,186523,195,104346
12.223,186518,194,104339
12.227,186509,194,104351
12.232,186512,192,104343
12.237,186513,192,104341
12.242,186519,201,104342
12.247,186511,201,104341
12.252,186512,200,104343
12.257,186523,199,104345
12.262,186522,191,104340
12.267,186506,201,104337
12.272,186529,199,104352
12.277,186538,198,104344
12.282,186535,197,104343
12.287,186534,197,104357
12.292,186553,196,104343
12.297,186562,195,104349
12.302,186548,194,104354
12.307,186588,195,104343
12.312,186591,197,104361
12.317,186599,198,104357
12.322,186593,196,104366
12.327,186617,196,104363
12.332,186638,196,104364
12.337,186646,197,104368
12.342,186636,196,104374
12.347,186650,196,104379
12.352,186668,195,104380
12.357,186696,199,104385
12.362,186695,192,104384
12.367,186710,192,104382
12.371,186717,191,104398
12.376,186731,192,104397
12.381,186750,191,104392
12.386,186753,201,104392
12.391,186769,200,104399
12.396,186803,199,104407
12.401,186811,197,104403
12.406,186827,201,104431
12.411,186838,200,104421
12.416,186853,200,104423
12.421,186873,199,104423
12.426,186890,198,104420
12.431,186895,197,104428
12.436,186916,197,104434
12.441,186927,196,104431
12.446,186953,195,104436
12.451,186964,193,104450
12.456,186984,196,104444
12.461,186988,194,104450
12.466,187024,193,104454
12.471,187035,191,104468
12.476,187061,200,104465
12.481,187090,198,104467
12.486,187094,197,104487
12.491,187112,196,104480
12.496,187137,195,104488
12.501,187136,196,104489
12.506,187148,197,104497
12.511,187194,196,104509
12.516,187210,194,104510
12.520,187222,193,104512
12.525,187245,192,104513
12.530,187262,201,104520
12.535,187278,200,104530
12.540,187273,198,104538
12.545,187298,198,104533
12.550,187303,197,104550
12.555,187319,201,104539
12.560,187305,199,104549
12.565,187311,198,104544
12.570,187294,196,104539
12.575,187258,194,104533
12.580,187205,194,104529
12.585,187166,193,104521
12.590,187103,192,104505
12.595,187052,191,104503
12.600,186988,189,104474
12.605,186923,193,104462
12.610,186856,192,104452
12.615,186793,191,104429
12.620,186728,202,104426
12.625,186682,200,104413
12.630,186648,200,104393
12.635,186586,199,104375
12.640,186561,198,104373
12.645,186537,197,104368
12.650,186513,201,104351
12.655,186479,194,104342
12.660,186442,193,104352
12.664,186427,192,104345
12.669,186411,191,104339
12.674,186412,201,104333
12.679,186398,200,104333
12.684,186382,197,104333
12.689,186364,196,104319
12.694,186365,195,104321
12.699,186349,199,104314
12.704,186356,198,104319
12.709,186364,197,104313
12.714,186383,196,104315
12.719,186380,195,104325
12.724,186366,194,104317
12.729,186369,194,104314
12.734,186367,193,104308
12.739,186373,193,104332
12.744,186367,192,104328
12.749,186366,196,104305
12.754,186370,195,104318
12.759,186375,195,104309
12.764,186391,193,104320
12.769,186383,193,104314
12.774,186394,191,104319
12.779,186412,191,104313
12.784,186425,191,104319
12.789,186437,191,104308
12.794,186429,191,104330
12.799,186447,195,104316
12.804,186440,194,104313
12.809,186440,194,104331
12.813,186455,192,104332
12.818,186458,192,104334
12.823,186473,201,104308
12.828,186449,200,104321
12.833,186462,198,104320
12.838,186457,197,104322
12.843,186438,197,104301
12.848,186445,200,104315
12.853,186434,198,104315
12.858,186427,198,104322
12.863,186435,196,104308
12.868,186428,195,104305
12.873,186425,194,104311
12.878,186432,194,104321
12.883,186421,193,104316
12.888,186409,193,104309
12.893,186469,195,104314
12.898,186412,200,104311
12.903,186443,200,104316
12.908,186425,199,104310
12.913,186446,199,104305
12.918,186431,198,104314
12.923,186443,197,104312
12.928,186450,196,104311
12.933,186442,195,104310
12.938,186444,194,104309
12.943,186471,200,104271
12.948,186470,192,104322
12.953,186478,200,104312
12.957,186496,200,104323
12.962,186491,199,104330
12.967,186494,199,104326
12.972,186530,199,104325
12.977,186521,199,104328
12.982,186518,198,104331
12.987,186542,199,104330
12.992,186577,194,104327
12.997,186570,197,104338
13.002,186575,196,104346
13.007,186585,196,104346
13.012,186605,195,104350
13.017,186645,195,104358
13.022,186630,195,104363
13.027,186654,196,104361
13.032,186665,195,104366
13.037,186692,194,104367
13.042,186693,193,104366
13.047,186703,193,104375
13.052,186708,192,104373
13.057,186728,192,104378
13.062,186736,192,104387
13.067,186762,192,104391
13.072,186772,192,104386
13.077,186779,192,104391
13.082,186798,191,104399
13.087,186830,191,104402
13.092,186829,194,104405
13.097,186861,192,104413
13.102,186878,191,104428
13.106,186894,201,104416
13.111,186909,200,104432
13.116,186944,200,104436
13.121,186946,199,104427
13.126,186971,199,104433
13.131,186987,198,104423
13.136,187016,196,104455
13.141,187014,201,104451
13.146,187029,202,104460
13.151,187048,201,104451
13.156,187059,200,104478
13.161,187094,198,104473
13.166,187095,198,104468
13.171,187123,197,104470
13.176,187129,197,104472
13.181,187159,196,104479
13.186,187141,201,104485
13.191,187166,200,104480
13.196,187147,199,104491
13.201,187116,198,104481
13.206,187100,197,104492
13.211,187026,196,104464
13.216,186984,196,104454
13.221,186919,195,104440
13.226,186848,195,104422
13.231,186770,194,104398
13.236,186713,197,104390
13.241,186657,197,104379
13.246,186592,196,104356
13.251,186524,195,104356
13.255,186467,195,104325
13.260,186414,193,104308
13.265,186383,192,104303
13.270,186328,191,104294
13.275,186273,201,104297
13.280,186247,201,104278
13.285,186218,194,104274
13.290,186191,193,104261
13.295,186193,191,104255
13.300,186168,202,104256
13.305,186150,201,104243
13.310,186169,200,104249
13.315,186137,199,104236
13.320,186118,200,104239
13.325,186109,199,104223
13.330,186114,199,104236
13.335,186110,196,104236
13.340,186088,195,104223
13.345,186088,195,104225
13.350,186117,194,104216
13.355,186105,194,104233
13.360,186100,193,104219
13.365,186087,193,104213
13.370,186094,192,104227
13.375,186092,202,104216
13.380,186059,194,104200
13.385,186092,193,104227
13.390,186084,192,104210
13.395,186082,191,104211
13.399,186090,202,104221
13.404,186109,200,104217
13.409,186123,199,104215
13.414,186120,198,104213
13.419,186140,198,104219
13.424,186147,196,104227
13.429,186170,200,104225
13.434,186148,199,104234
13.439,186168,198,104210
13.444,186155,198,104219
13.449,186169,197,104226
13.454,186152,196,104228
13.459,186154,197,104214
13.464,186159,195,104223
13.469,186159,195,104206
13.474,186165,194,104218
13.479,186150,198,104213
13.484,186139,201,104218
13.489,186139,200,104220
13.494,186145,198,104216
13.499,186155,197,104213
13.504,186130,196,104213
13.509,186135,195,104219
13.514,186134,195,104214
13.519,186139,194,104222
13.524,186125,193,104205
13.529,186145,199,104211
13.534,186136,192,104222
13.539,186129,192,104220
13.544,186120,191,104214
13.548,186143,202,104226
13.553,186151,202,104221
13.558,186136,201,104228
13.563,186172,199,104218
13.568,186148,198,104223
13.573,186168,197,104234
13.578,186177,200,104230
13.583,186185,199,104236
13.588,186195,198,104231
13.593,186198,195,104229
13.598,186233,195,104239
13.603,186239,193,104245
13.608,186220,194,104245
13.613,186254,192,104247
13.618,186268,192,104255
13.623,186282,192,104285
13.628,186305,195,104254
13.633,186308,193,104258
13.638,186326,192,104261
13.643,186321,191,104270
13.648,186339,201,104263
13.653,186361,201,104270
13.658,186365,200,104280
13.663,186386,199,104285
13.668,186381,199,104286
13.673,186391,189,104290
13.678,186439,192,104303
13.683,186451,191,104305
13.688,186466,201,104293
13.692,186480,200,104308
13.697,186501,200,104311
13.702,186508,199,104313
13.707,186521,198,104321
13.712,186548,199,104320
13.717,186576,199,104329
13.722,186577,192,104329
13.727,186588,198,104333
13.732,186614,196,104335
13.737,186635,197,104344
13.742,186656,196,104352
13.747,186668,196,104359
13.752,186692,195,104364
13.757,186706,195,104363
13.762,186722,194,104373
13.767,186718,194,104369
13.772,186774,197,104379
13.777,186792,198,104386
13.782,186798,197,104395
13.787,186794,197,104393
13.792,186828,196,104405
13.797,186843,195,104411
13.802,186877,195,104422
13.807,186879,195,104412
13.812,186907,193,104423
13.817,186915,195,104420
13.822,186914,195,104426
13.827,186934,194,104439
13.832,186960,193,104432
13.837,186969,193,104438
13.841,186987,192,104443
13.846,186971,192,104440
13.851,186965,191,104443
13.856,186927,201,104445
13.861,186883,200,104436
13.866,186823,199,104418
13.871,186748,195,104411
13.876,186712,194,104397
13.881,186604,193,104375
13.886,186549,193,104367
13.891,186476,192,104344
13.896,186412,192,104327
13.901,186329,191,104303
13.906,186289,201,104285
13.911,186223,199,104278
13.916,186157,199,104258
13.921,186114,192,104255
13.926,186081,192,104231
13.931,186027,201,104229
13.936,186015,199,104215
13.941,185985,197,104221
13.946,185959,196,104210
13.951,185927,194,104202
13.956,185912,193,104198
13.961,185884,192,104193
13.966,185891,195,104179
13.971,185874,194,104180
13.976,185870,193,104188
13.981,185842,192,104165
13.985,185858,192,104180
13.990,185832,201,104179
13.995,185841,201,104170
14.000,185844,200,104174
14.005,185829,200,104167
14.010,185824,199,104168
14.015,185813,192,104170
14.020,185815,191,104160
14.025,185806,201,104162
14.030,185791,201,104173
14.035,185793,200,104159
14.040,185782,199,104161
14.045,185802,195,104154
14.050,185802,197,104158
14.055,185803,196,104154
14.060,185817,195,104184
14.065,185824,200,104164
14.070,185849,199,104166
14.075,185840,198,104168
14.080,185841,197,104160
14.085,185850,195,104168
14.090,185857,194,104165
14.095,185873,194,104172
14.100,185861,193,104166
14.105,185832,192,104174
14.110,185821,191,104161
14.115,185825,195,104162
14.120,185827,194,104158
14.125,185827,192,104162
14.130,185828,191,104158
14.134,185822,201,104158
14.139,185806,200,104164
14.144,185791,199,104160
14.149,185808,199,104143
14.154,185800,198,104151
14.159,185805,199,104112
14.164,185820,196,104165
14.169,185787,195,104153
14.174,185811,193,104155
14.179,185792,193,104153
14.184,185784,191,104157
14.189,185797,192,104162
14.194,185799,191,104157
14.199,185798,191,104155
14.204,185810,191,104172
14.209,185819,195,104171
14.214,185798,195,104158
14.219,185819,195,104172
14.224,185807,194,104166
14.229,185817,194,104168
14.234,185826,193,104176
14.239,185855,193,104176
14.244,185834,193,104178
14.249,185864,193,104191
14.254,185849,191,104182
14.259,185875,195,104172
14.264,185886,195,104191
14.269,185915,193,104204
14.274,185903,192,104199
14.278,185914,192,104197
14.283,185939,201,104201
14.288,185930,201,104191
14.293,185943,199,104199
14.298,185984,199,104206
14.303,185979,199,104205
14.308,185985,193,104218
14.313,186010,192,104222
14.318,186038,193,104233
14.323,186041,191,104240
14.328,186075,202,104239
14.333,186071,200,104238
14.338,186085,200,104240
14.343,186105,199,104249
14.348,186107,200,104252
14.353,186124,197,104248
14.358,186130,193,104245
14.363,186160,191,104261
14.368,186174,192,104255
14.373,186185,201,104268
14.378,186205,201,104272
14.383,186218,200,104272
14.388,186238,199,104289
14.393,186246,200,104280
14.398,186263,199,104291
14.403,186290,199,104293
14.408,186319,197,104292
14.413,186324,196,104315
14.418,186345,196,104309
14.423,186360,195,104307
14.427,186372,194,104318
14.432,186402,193,104322
14.437,186414,191,104331
14.442,186425,201,104336
14.447,186441,200,104338
14.452,186465,207,104344
14.457,186482,196,104355
14.462,186517,195,104351
14.467,186524,195,104355
14.472,186546,192,104367
14.477,186553,192,104377
14.482,186558,201,104376
14.487,186558,200,104378
14.492,186587,199,104378
14.497,186578,198,104383
14.502,186555,192,104378
14.507,186535,202,104390
14.512,186502,200,104376
14.517,186461,201,104360
14.522,186408,200,104350
14.527,186332,199,104335
14.532,186273,198,104331
14.537,186197,197,104310
14.542,186133,196,104286
14.547,186048,195,104282
14.552,185989,199,104251
14.557,185933,199,104252
14.562,185886,198,104227
14.567,185817,198,104220
14.571,185784,198,104211
14.576,185736,197,104195
14.581,185704,196,104182
14.586,185679,196,104181
14.591,185659,196,104182
14.596,185628,195,104169
14.601,185605,199,104165
14.606,185589,199,104155
14.611,185590,198,104154
14.616,185562,198,104149
14.621,185554,198,104151
14.626,185548,197,104148
14.631,185549,195,104147
14.636,185536,195,104144
14.641,185519,194,104137
14.646,185516,193,104137
14.651,185520,197,104128
14.656,185511,195,104132
14.661,185511,194,104140
14.666,185510,194,104143
14.671,185512,192,104134
14.676,185498,192,104122
14.681,185486,202,104115
14.686,185486,201,104131
14.691,185482,201,104115
14.696,185483,203,104134
14.701,185474,195,104130
14.706,185489,195,104122
14.711,185501,193,104127
14.716,185523,193,104132
14.720,185513,192,104133
14.725,185527,192,104133
14.730,185541,192,104127
14.735,185525,192,104135
14.740,185539,192,104131
14.745,185556,195,104126
14.750,185555,195,104140
14.755,185546,196,104135
14.760,185547,196,104146
14.765,185545,197,104135
14.770,185523,198,104143
14.775,185546,197,104139
14.780,185539,197,104136
14.785,185534,197,104140
14.790,185532,196,104138
14.795,185533,201,104142
14.800,185512,200,104140
14.805,185515,199,104138
14.810,185509,198,104136
14.815,185514,197,104144
14.820,185509,197,104147
14.825,185523,196,104144
14.830,185511,195,104143
14.835,185524,194,104143
14.840,185501,194,104136
14.845,185518,188,104149
14.850,185513,192,104152
14.855,185530,192,104141
14.860,185527,202,104151
14.864,185533,200,104160
14.869,185543,198,104154
14.874,185561,197,104155
14.879,185562,196,104160
14.884,185571,196,104164
14.889,185597,194,104165
14.894,185599,197,104171
14.899,185605,196,104162
14.904,185624,195,104171
14.909,185613,195,104172
14.914,185638,193,104177
14.919,185639,192,104189
14.924,185657,191,104189
14.929,185686,201,104190
14.934,185679,200,104199
14.939,185708,200,104199
14.944,185715,191,104205
14.949,185728,201,104213
14.954,185749,200,104211
14.959,185771,200,104222
14.964,185763,198,104234
14.969,185804,198,104233
14.974,185821,197,104239
14.979,185829,197,104237
14.984,185826,195,104250
14.989,185846,199,104268
14.994,185881,195,104262
14.999,185885,196,104252
15.004,185921,195,104273
15.009,185925,196,104273
15.013,185929,195,104280
15.018,185953,194,104281
15.023,185966,193,104288
15.028,185976,193,104289
15.033,185999,192,104288
15.038,186017,197,104293
15.043,186033,195,104316
15.048,186057,195,104294
15.053,186094,193,104312
15.058,186090,192,104315
15.063,186115,191,104323
15.068,186124,201,104337
15.073,186162,199,104325
15.078,186168,199,104344
15.083,186180,198,104344
15.088,186207,191,104360
15.093,186230,201,104360
15.098,186241,201,104363
15.103,186261,199,104376
15.108,186282,200,104357
15.113,186300,198,104387
15.118,186318,197,104391
15.123,186338,197,104399
15.128,186343,197,104382
15.133,186369,196,104402
15.138,186397,200,104407
15.143,186400,198,104414
15.148,186415,197,104416
15.153,186430,197,104423
15.158,186439,196,104427
15.162,186448,194,104424
15.167,186441,193,104435
15.172,186412,202,104437
15.177,186382,200,104432
15.182,186327,198,104425
15.187,186289,193,104413
15.192,186224,201,104398
15.197,186162,199,104381
15.202,186095,197,104374
15.207,186029,195,104340
15.212,185965,193,104334
15.217,185910,193,104322
15.222,185837,192,104312
15.227,185814,202,104294
15.232,185759,192,104284
15.237,185726,194,104275
15.242,185677,192,104273
15.247,185652,192,104272
15.252,185623,191,104244
15.257,185603,201,104243
15.262,185586,199,104236
15.267,185575,198,104234
15.272,185536,196,104239
15.277,185549,195,104231
15.282,185555,199,104229
15.287,185520,193,104221
15.292,185523,192,104225
15.297,185529,192,104235
15.302,185534,191,104229
15.306,185518,201,104221
15.311,185509,201,104229
15.316,185519,199,104222
15.321,185511,197,104218
15.326,185522,196,104229
15.331,185517,201,104191
15.336,185533,192,104223
15.341,185535,191,104227
15.346,185520,202,104221
15.351,185521,201,104218
15.356,185509,200,104209
15.361,185517,199,104229
15.366,185520,199,104216
15.371,185534,198,104224
15.376,185552,199,104224
15.381,185552,192,104232
15.386,185568,192,104229
15.391,185583,192,104230
15.396,185584,192,104238
15.401,185614,192,104242
15.406,185611,192,104234
15.411,185620,191,104236
15.416,185603,191,104249
15.421,185620,201,104237
15.426,185620,201,104241
15.431,185619,194,104245
15.436,185599,193,104242
15.441,185612,193,104249
15.446,185617,192,104241
15.451,185611,192,104252
15.455,185607,200,104248
15.460,185602,200,104231
15.465,185601,200,104243
15.470,185620,199,104251
15.475,185603,199,104223
15.480,185602,192,104241
15.485,185596,191,104254
15.490,185618,201,104253
15.495,185602,201,104241
15.500,185620,201,104248
15.505,185608,200,104249
15.510,185613,199,104245
15.515,185628,198,104262
15.520,185634,196,104269
15.525,185694,199,104267
15.530,185660,199,104265
15.535,185662,199,104270
15.540,185658,197,104268
15.545,185679,196,104273
15.550,185697,196,104279
15.555,185697,195,104274
15.560,185707,194,104287
15.565,185713,192,104293
15.570,185716,191,104301
15.575,185743,194,104286
15.580,185747,192,104299
15.585,185776,201,104302
15.590,185764,200,104307
15.595,185773,198,104311
15.599,185791,198,104322
15.604,185815,196,104310
15.609,185822,196,104316
15.614,185845,193,104328
15.619,185853,193,104325
15.624,185869,195,104322
15.629,185880,196,104325
15.634,185883,195,104337
15.639,185910,196,104343
15.644,185925,195,104339
15.649,185931,196,104353
15.654,185950,197,104353
15.659,185967,198,104346
15.664,185984,198,104377
15.669,186012,195,104371
15.674,186016,199,104373
15.679,186037,199,104375
15.684,186049,198,104377
15.689,186064,197,104385
15.694,186099,196,104398
15.699,186114,196,104403
15.704,186131,195,104402
15.709,186144,195,104415
15.714,186156,194,104416
15.719,186165,195,104408
15.724,186204,199,104421
15.729,186212,199,104423
15.734,186241,199,104423
15.739,186253,199,104427
15.744,186250,197,104440
15.748,186278,196,104450
15.753,186292,195,104452
15.758,186320,195,104461
15.763,186328,194,104471
15.768,186332,202,104469
15.773,186348,197,104472
15.778,186340,196,104475
15.783,186338,195,104469
15.788,186332,196,104469
15.793,186306,196,104455
15.798,186266,196,104469
15.803,186230,196,104439
15.808,186155,196,104444
15.813,186106,196,104423
15.818,186054,200,104418
15.823,185989,199,104410
15.828,185942,199,104388
15.833,185894,198,104376
15.838,185832,197,104354
15.843,185787,195,104344
15.848,185733,194,104338
15.853,185700,193,104330
15.858,185675,192,104329
15.863,185655,201,104320
15.868,185633,197,104307
15.873,185583,198,104307
15.878,185580,199,104300
15.883,185562,197,104291
15.888,185554,196,104283
15.892,185552,195,104291
15.897,185550,195,104285
15.902,185527,193,104290
15.907,185521,193,104297
15.912,185540,191,104275
15.917,185542,195,104288
15.922,185532,194,104293
15.927,185537,193,104289
15.932,185537,192,104279
15.937,185528,192,104288
15.942,185538,201,104286
15.947,185542,201,104289
15.952,185521,201,104293
15.957,185516,201,104285
15.962,185527,200,104285
15.967,185529,197,104289
15.972,185546,196,104300
15.977,185551,196,104289
15.982,185555,196,104280
15.987,185562,194,104292
15.992,185579,194,104296
15.997,185606,193,104302
16.002,185609,193,104306
16.007,185628,192,104309
16.012,185629,194,104279
16.017,185649,196,104309
16.022,185640,196,104315
16.027,185639,195,104321
16.032,185654,195,104317
16.037,185644,196,104320
16.041,185648,195,104310
16.046,185652,194,104315
16.051,185651,195,104314
16.056,185630,195,104318
16.061,185632,198,104320
16.066,185649,198,104311
16.071,185638,198,104305
16.076,185647,198,104314
16.081,185641,198,104301
16.086,185633,198,104310
16.091,185650,197,104311
16.096,185637,197,104301
16.101,185646,196,104304
16.106,185627,196,104297
16.111,185639,200,104302
16.116,185653,201,104310
16.121,185650,201,104305
16.126,185654,191,104306
16.131,185666,192,104311
16.136,185667,192,104319
16.141,185678,193,104305
16.146,185690,193,104311
16.151,185686,195,104314
16.156,185715,195,104316
16.161,185719,200,104319
16.166,185724,200,104321
16.171,185734,200,104336
16.176,185736,200,104333
16.181,185762,199,104342
16.185,185775,200,104333
16.190,185787,200,104347
16.195,185800,199,104340
16.200,185822,199,104347
16.205,185838,200,104347
16.210,185844,194,104344
16.215,185845,193,104367
16.220,185891,193,104372
16.225,185887,193,104363
16.230,185898,194,104377
16.235,185919,193,104374
16.240,185934,193,104373
16.245,185938,193,104374
16.250,185978,195,104384
16.255,185999,197,104412
16.260,186006,192,104393
16.265,186033,193,104405
16.270,186036,195,104392
16.275,186067,196,104409
16.280,186076,198,104427
16.285,186090,200,104419
16.290,186111,192,104421
16.295,186118,193,104435
16.300,186143,195,104427
16.305,186195,198,104433
16.310,186182,202,104443
16.315,186196,192,104439
16.320,186203,193,104443
16.325,186212,194,104458
16.330,186256,196,104456
16.334,186262,196,104469
16.339,186288,198,104472
16.344,186304,198,104474
16.349,186315,200,104472
16.354,186348,194,104492
16.359,186361,196,104482
16.364,186381,198,104491
16.369,186403,199,104499
16.374,186409,200,104500
16.379,186446,192,104514
16.384,186461,193,104523
16.389,186485,195,104521
16.394,186497,196,104517
16.399,186515,198,104532
16.404,186561,194,104541
16.409,186543,198,104539
16.414,186562,199,104531
16.419,186560,201,104543
16.424,186565,192,104541
16.429,186566,193,104547
16.434,186572,195,104544
16.439,186534,197,104541
16.444,186491,198,104538
16.449,186471,199,104526
16.454,186409,194,104527
16.459,186345,196,104505
16.464,186275,198,104496
16.469,186211,199,104486
16.474,186163,202,104473
16.478,186099,192,104455
16.483,186051,193,104442
16.488,185998,195,104412
16.493,185963,195,104426
16.498,185911,198,104421
16.503,185878,195,104400
16.508,185843,196,104395
16.513,185814,197,104380
16.518,185785,200,104370
16.523,185770,202,104368
16.528,185745,193,104364
16.533,185718,195,104359
16.538,185711,197,104348
16.543,185692,199,104343
16.548,185670,191,104332
16.553,185676,195,104345
16.558,185670,197,104342
16.563,185667,198,104345
16.568,185652,200,104331
16.573,185661,200,104334
16.578,185645,202,104341
16.583,185669,192,104330
16.588,185660,194,104334
16.593,185652,194,104324
16.598,185617,200,104332
16.603,185641,201,104326
16.608,185645,192,104326
16.613,185638,192,104325
16.618,185622,194,104321
16.623,185626,195,104316
16.627,185628,197,104326
16.632,185631,198,104324
16.637,185630,200,104326
16.642,185649,191,104336
16.647,185673,202,104340
16.652,185681,191,104328
16.657,185686,192,104338
16.662,185695,193,104334
16.667,185696,194,104333
16.672,185699,195,104332
16.677,185695,196,104325
16.682,185679,197,104324
16.687,185683,199,104325
16.692,185682,198,104328
16.697,185691,196,104333
16.702,185677,196,104329
16.707,185677,199,104320
16.712,185687,200,104323
16.717,185685,201,104332
16.722,185670,192,104328
16.727,185677,194,104324
16.732,185660,196,104318
16.737,185655,198,104320
16.742,185664,200,104319
16.747,185658,194,104317
16.752,185672,195,104323
16.757,185665,196,104308
16.762,185654,198,104308
16.767,185661,200,104321
16.771,185673,190,104331
16.776,185662,193,104306
16.781,185675,194,104319
16.786,185686,195,104321
16.791,185695,198,104322
16.796,185694,193,104328
16.801,185713,194,104329
16.806,185724,195,104330
16.811,185731,196,104336
16.816,185726,198,104338
16.821,185737,200,104328
16.826,185748,192,104327
16.831,185762,192,104340
16.836,185762,192,104339
16.841,185780,197,104353
16.846,185784,199,104358
16.851,185799,199,104351
16.856,185798,200,104353
16.861,185809,191,104361
16.866,185828,194,104362
16.871,185853,195,104369
16.876,185872,197,104372
16.881,185876,199,104365
16.886,185881,200,104376
16.891,185911,194,104386
16.896,185932,196,104386
16.901,185924,198,104376
16.906,185946,200,104395
16.911,185968,201,104403
16.916,185961,192,104394
16.920,185985,194,104396
16.925,186000,196,104399
16.930,186018,199,104409
16.935,186027,190,104413
16.940,186037,198,104407
16.945,186069,201,104412
16.950,186065,193,104422
16.955,186101,196,104421
16.960,186105,199,104418
16.965,186118,192,104430
16.970,186130,195,104443
16.975,186149,198,104436
16.980,186185,201,104438
16.985,186209,192,104452
16.990,186212,196,104456
16.995,186226,199,104459
17.000,186246,201,104455
17.005,186260,191,104475
17.010,186275,193,104471
17.015,186304,195,104476
17.020,186311,196,104488
17.025,186330,197,104477
17.030,186351,199,104494
17.035,186398,189,104490
17.040,186375,196,104507
17.045,186407,197,104511
17.050,186431,199,104508
17.055,186431,201,104511
17.060,186432,192,104518
17.064,186449,193,104524
17.069,186449,195,104527
17.074,186455,196,104533
17.079,186459,199,104528
17.084,186441,193,104524
17.089,186406,195,104524
17.094,186360,197,104522
17.099,186313,200,104499
17.104,186256,191,104486
17.109,186183,194,104472
17.114,186124,195,104448
17.119,186059,198,104434
17.124,186018,199,104438
17.129,185955,191,104410
17.134,185909,195,104399
17.139,185856,192,104398
17.144,185817,195,104384
17.149,185789,198,104370
17.154,185747,199,104367
17.159,185699,201,104353
17.164,185671,192,104347
17.169,185649,194,104332
17.174,185620,195,104331
17.179,185597,198,104318
17.184,185607,193,104326
17.189,185572,194,104327
17.194,185553,196,104309
17.199,185551,198,104310
17.204,185544,199,104295
17.209,185545,200,104300
17.213,185528,201,104306
17.218,185524,191,104304
17.223,185518,193,104299
17.228,185516,195,104296
17.233,185518,191,104306
17.238,185504,193,104293
17.243,185506,194,104300
17.248,185487,196,104301
17.253,185502,197,104293
17.258,185489,199,104291
17.263,185472,201,104292
17.268,185480,192,104288
17.273,185467,192,104290
17.278,185467,196,104296
17.283,185475,200,104283
17.288,185497,201,104291
17.293,185499,192,104285
17.298,185503,195,104287
17.303,185505,196,104291
17.308,185525,200,104295
17.313,185523,201,104302
17.318,185521,192,104295
17.323,185519,194,104291
17.328,185521,199,104297
17.333,185508,191,104302
17.338,185510,193,104292
17.343,185522,194,104296
17.348,185525,196,104298
17.353,185513,197,104301
17.358,185502,199,104286
17.362,185509,200,104278
17.367,185507,192,104292
17.372,185515,194,104282
17.377,185509,187,104279
17.382,185476,194,104281
17.387,185481,197,104286
17.392,185493,199,104278
17.397,185491,202,104282
17.402,185471,191,104276
17.407,185494,194,104286
17.412,185496,194,104273
17.417,185497,196,104285
17.422,185485,201,104281
17.427,185502,194,104286
17.432,185496,195,104283
17.437,185507,199,104279
17.442,185515,201,104282
17.447,185525,193,104294
17.452,185537,194,104289
17.457,185550,197,104303
17.462,185538,197,104297
17.467,185561,199,104300
17.472,185561,200,104302
17.477,185581,199,104300
17.482,185576,201,104310
17.487,185616,192,104306
17.492,185599,193,104304
17.497,185624,196,104308
17.502,185614,195,104310
17.506,185634,195,104309
17.511,185643,194,104318
17.516,185650,195,104322
17.521,185668,199,104327
17.526,185684,199,104335
17.531,185702,197,104334
17.536,185706,197,104339
17.541,185715,195,104348
17.546,185741,194,104347
17.551,185748,192,104344
17.556,185777,192,104349
17.561,185794,191,104364
17.566,185795,201,104355
17.571,185826,193,104371
17.576,185830,193,104380
17.581,185833,192,104374
17.586,185869,191,104383
17.591,185863,201,104384
17.596,185880,200,104391
17.601,185891,199,104394
17.606,185919,199,104395
17.611,185925,197,104392
17.616,185953,196,104417
17.621,185951,199,104435
17.626,185962,199,104410
17.631,185991,198,104421
17.636,186022,196,104420
17.641,186024,195,104433
17.646,186052,195,104437
17.651,186056,194,104433
17.655,186075,193,104435
17.660,186097,193,104451
17.665,186118,192,104451
17.670,186144,198,104456
17.675,186155,198,104475
17.680,186163,198,104465
17.685,186179,196,104474
17.690,186202,194,104483
17.695,186198,193,104480
17.700,186200,192,104482
17.705,186234,191,104487
17.710,186253,202,104494
17.715,186247,200,104493
17.720,186241,193,104504
17.725,186260,193,104509
17.730,186245,193,104499
17.735,186213,194,104499
17.740,186175,194,104488
17.745,186121,193,104500
17.750,186088,192,104485
17.755,186008,191,104457
17.760,185952,201,104450
17.765,185905,193,104406
17.770,185823,198,104413
17.775,185787,198,104398
17.780,185717,197,104369
17.785,185673,198,104374
17.790,185628,198,104359
17.795,185592,199,104352
17.799,185555,200,104353
17.804,185506,201,104334
17.809,185481,201,104321
17.814,185466,194,104314
17.819,185441,193,104313
17.824,185423,192,104310
17.829,185389,193,104298
17.834,185378,192,104301
17.839,185373,193,104290
17.844,185354,192,104291
17.849,185344,192,104286
17.854,185337,191,104291
17.859,185350,192,104283
17.864,185329,195,104285
17.869,185336,195,104280
17.874,185327,195,104281
17.879,185341,194,104277
17.884,185327,193,104289
17.889,185313,193,104263
17.894,185309,192,104282
17.899,185305,192,104275
17.904,185312,192,104280
17.909,185266,192,104280
17.914,185287,196,104263
17.919,185272,195,104271
17.924,185280,195,104262
17.929,185277,194,104272
17.934,185282,194,104272
17.939,185308,195,104275
17.944,185311,195,104276
17.948,185317,195,104274
17.953,185339,194,104285
17.958,185346,195,104283
17.963,185329,191,104289
17.968,185340,192,104282
17.973,185339,192,104295
17.978,185336,192,104282
17.983,185345,191,104286
17.988,185333,191,104288
17.993,185345,191,104294
17.998,185332,192,104287
18.003,185350,191,104284
18.008,185321,192,104278
18.013,185306,195,104282
18.018,185332,197,104281
18.023,185331,196,104285
18.028,185295,197,104288
18.033,185299,197,104276
18.038,185311,198,104279
18.043,185309,196,104286
18.048,185296,196,104294
18.053,185310,195,104277
18.058,185285,196,104280
18.063,185310,198,104279
18.068,185308,198,104295
18.073,185321,198,104283
18.078,185310,196,104283
18.083,185317,195,104296
18.088,185324,195,104296
18.092,185333,194,104298
18.097,185343,193,104300
18.102,185353,192,104296
18.107,185365,196,104303
18.112,185364,195,104310
18.117,185364,194,104305
18.122,185396,193,104312
18.127,185392,192,104317
18.132,185403,201,104320
18.137,185406,200,104318
18.142,185439,199,104324
18.147,185358,205,104319
18.152,185436,197,104329
18.157,185471,192,104333
18.162,185490,201,104345
18.167,185488,201,104336
18.172,185510,199,104337
18.177,185502,199,104352
18.182,185517,197,104365
18.187,185542,197,104361
18.192,185548,195,104352
18.197,185564,195,104364
18.202,185577,196,104361
18.207,185581,199,104364
18.212,185599,197,104372
18.217,185624,196,104379
18.222,185622,195,104378
18.227,185648,195,104385
18.232,185654,195,104385
18.237,185682,195,104393
18.241,185701,194,104395
18.246,185717,194,104403
18.251,185723,193,104401
18.256,185722,192,104410
18.261,185758,191,104412
18.266,185777,192,104421
18.271,185795,191,104418
18.276,185814,192,104433
18.281,185826,191,104429
18.286,185846,191,104434
18.291,185855,201,104440
18.296,185873,200,104449
18.301,185886,199,104445
18.306,185925,196,104456
18.311,185918,195,104452
18.316,185947,195,104463
18.321,185952,194,104470
18.326,185966,194,104473
18.331,186003,194,104489
18.336,185981,193,104497
18.341,186009,193,104485
18.346,186025,193,104485
18.351,186037,196,104500
18.356,186031,198,104500
18.361,186056,197,104501
18.366,186031,198,104508
18.371,186019,199,104506
18.376,185975,199,104504
18.381,185963,198,104496
18.385,185896,199,104473
18.390,185859,198,104464
18.395,185790,197,104450
18.400,185718,191,104447
18.405,185655,201,104435
18.410,185602,201,104414
18.415,185547,201,104402
18.420,185503,200,104387
18.425,185446,200,104375
18.430,185399,199,104363
18.435,185363,199,104354
18.440,185334,198,104346
18.445,185289,198,104335
18.450,185261,195,104334
18.455,185262,195,104341
18.460,185216,196,104327
18.465,185211,196,104319
18.470,185204,196,104304
18.475,185187,197,104313
18.480,185171,197,104316
18.485,185184,198,104302
18.490,185171,197,104306
18.495,185164,198,104296
18.500,185166,191,104294
18.505,185146,191,104295
18.510,185144,201,104296
18.515,185140,200,104304
18.520,185123,201,104289
18.525,185127,200,104291
18.530,185121,200,104294
18.534,185109,201,104290
18.539,185116,202,104287
18.544,185114,193,104222
18.549,185106,195,104283
18.554,185107,194,104279
18.559,185099,195,104282
18.564,185118,195,104272
18.569,185118,196,104292
18.574,185129,195,104298
18.579,185160,195,104288
18.584,185163,195,104270
18.589,185159,196,104289
18.594,185180,197,104267
18.599,185164,201,104281
18.604,185161,201,104293
18.609,185164,201,104290
18.614,185148,200,104292
18.619,185151,200,104300
18.624,185146,199,104287
18.629,185162,200,104297
18.634,185165,200,104299
18.639,185132,200,104291
18.644,185144,193,104291
18.649,185136,192,104295
18.654,185123,192,104292
18.659,185131,192,104279
18.664,185132,192,104287
18.669,185126,193,104282
18.674,185136,192,104283
18.678,185109,193,104282
18.683,185103,192,104281
18.688,185136,194,104291
18.693,185121,197,104275
18.698,185134,198,104292
18.703,185116,198,104280
18.708,185124,198,104290
18.713,185133,198,104294
18.718,185136,198,104299
18.723,185133,199,104286
18.728,185140,200,104296
18.733,185145,200,104296
18.738,185168,200,104291
18.743,185169,193,104304
18.748,185166,195,104303
18.753,185181,194,104295
18.758,185193,195,104307
18.763,185213,194,104310
18.768,185204,195,104305
18.773,185220,195,104313
18.778,185248,196,104321
18.783,185240,196,104318
18.788,185256,197,104340
18.793,185274,201,104334
18.798,185273,201,104332
18.803,185303,192,104347
18.808,185297,192,104342
18.813,185314,192,104346
18.818,185323,193,104338
18.823,185321,192,104344
18.827,185332,193,104350
18.832,185339,193,104347
18.837,185376,197,104357
18.842,185376,197,104363
18.847,185399,199,104360
18.852,185415,198,104371
18.857,185429,200,104373
18.862,185439,200,104370
18.867,185449,200,104387
18.872,185457,200,104397
18.877,185487,200,104393
18.882,185510,200,104399
18.887,185522,195,104346
18.892,185535,199,104401
18.897,185542,200,104413
18.902,185562,198,104413
18.907,185591,199,104422
18.912,185604,199,104416
18.917,185618,201,104428
18.922,185629,201,104434
18.927,185645,191,104434
18.932,185669,191,104433
18.937,185666,199,104450
18.942,185678,192,104440
18.947,185718,194,104454
18.952,185702,193,104465
18.957,185745,193,104458
18.962,185773,193,104469
18.967,185774,193,104470
18.971,185775,193,104473
18.976,185786,193,104475
18.981,185819,192,104482
18.986,185810,192,104491
18.991,185810,191,104496
18.996,185813,191,104496
19.001,185785,191,104487
19.006,185746,192,104490
19.011,185717,192,104476
19.016,185681,191,104469
19.021,185620,191,104450
19.026,185552,191,104447
19.031,185489,191,104443
19.036,185433,195,104408
19.041,185339,184,104400
19.046,185305,195,104386
19.051,185248,195,104370
19.056,185225,196,104360
19.061,185156,195,104350
19.066,185124,196,104337
19.071,185075,197,104326
19.076,185050,197,104317
19.081,185053,195,104304
19.086,185008,191,104296
19.091,184971,191,104302
19.096,184958,192,104298
19.101,184935,192,104285
19.106,184939,193,104285
19.111,184912,193,104274
19.116,184902,193,104283
19.120,184884,192,104284
19.125,184874,192,104263
19.130,184864,196,104271
19.135,184853,195,104277
19.140,184855,195,104272
19.145,184848,196,104263
19.150,184846,196,104258
19.155,184842,195,104265
19.160,184838,194,104265
19.165,184827,193,104264
19.170,184808,193,104258
19.175,184808,193,104258
19.180,184813,197,104255
19.185,184804,197,104256
19.190,184800,196,104244
19.195,184800,197,104259
19.200,184812,197,104258
19.205,184803,197,104257
19.210,184823,197,104260
19.215,184833,197,104263
19.220,184863,196,104268
19.225,184872,196,104253
19.230,184864,201,104267
19.235,184883,201,104265
19.240,184872,202,104274
19.245,184868,201,104273
19.250,184876,192,104263
19.255,184844,191,104266
19.260,184867,192,104272
19.265,184849,191,104268
19.269,184853,191,104253
19.274,184850,192,104269
19.279,184847,196,104267
19.284,184843,195,104265
19.289,184856,195,104258
19.294,184848,194,104274
19.299,184826,195,104265
19.304,184843,193,104258
19.309,184833,194,104262
19.314,184831,193,104260
19.319,184829,192,104266
19.324,184831,194,104269
19.329,184835,201,104260
19.334,184840,201,104257
19.339,184841,200,104263
19.344,184839,200,104266
19.349,184862,201,104270
19.354,184852,200,104273
19.359,184864,200,104273
19.364,184886,199,104279
19.369,184872,199,104276
19.374,184899,192,104291
19.379,184895,196,104286
19.384,184913,195,104296
19.389,184911,195,104284
19.394,184924,195,104294
19.399,184950,196,104295
19.404,184952,195,104295
19.409,184967,196,104301
19.413,184970,195,104311
19.418,184989,196,104312
19.423,185010,199,104313
19.428,185009,200,104324
19.433,185037,200,104328
19.438,185037,201,104325
19.443,185064,200,104329
19.448,185068,200,104333
19.453,185091,199,104348
19.458,185095,199,104349
19.463,185111,198,104340
19.468,185137,198,104367
19.473,185158,195,104377
19.478,185146,197,104357
19.483,185186,196,104358
19.488,185193,196,104368
19.493,185198,195,104365
19.498,185222,196,104369
19.503,185251,194,104380
19.508,185254,193,104383
19.513,185290,192,104389
19.518,185286,192,104400
19.523,185293,195,104397
19.528,185323,195,104413
19.533,185355,193,104412
19.538,185359,194,104416
19.543,185363,193,104413
19.548,185386,192,104431
19.553,185411,201,104441
19.558,185423,201,104437
19.562,185436,199,104450
19.567,185451,200,104421
19.572,185487,196,104457
19.577,185478,196,104460
19.582,185513,195,104472
19.587,185544,195,104471
19.592,185567,194,104473
19.597,185562,194,104476
19.602,185588,194,104491
19.607,185613,194,104486
19.612,185629,193,104507
19.617,185649,197,104508
19.622,185667,196,104507
19.627,185660,195,104519
19.632,185708,193,104512
19.637,185717,193,104529
19.642,185722,192,104526
19.647,185738,202,104533
19.652,185751,201,104539
19.657,185749,200,104542
19.662,185759,200,104543
19.667,185723,193,104548
19.672,185714,192,104542
19.677,185680,191,104539
19.682,185604,201,104522
19.687,185568,201,104528
19.692,185504,199,104518
19.697,185441,200,104486
19.702,185379,199,104483
19.706,185310,199,104456
19.711,185247,197,104453
19.716,185209,191,104441
19.721,185139,201,104417
19.726,185116,201,104413
19.731,185070,200,104416
19.736,185031,200,104393
19.741,184986,200,104391
19.746,184958,201,104387
19.751,184929,200,104373
19.756,184912,201,104366
19.761,184882,199,104364
19.766,184873,197,104356
19.771,184852,196,104350
19.776,184848,196,104347
19.781,184848,196,104346
19.786,184795,197,104342
19.791,184810,196,104351
19.796,184797,196,104344
19.801,184776,195,104346
19.806,184793,196,104340
19.811,184794,196,104342
19.816,184773,201,104340
19.821,184755,202,104330
19.826,184749,202,104337
19.831,184752,201,104331
19.836,184744,191,104319
19.841,184727,191,104328
19.846,184740,192,104325
19.851,184734,201,104329
19.855,184707,202,104315
19.860,184729,189,104322
19.865,184709,195,104328
19.870,184724,194,104327
19.875,184723,194,104323
19.880,184738,193,104333
19.885,184752,192,104321
19.890,184773,192,104339
19.895,184749,192,104335
19.900,184758,191,104344
19.905,184760,201,104341
19.910,184776,194,104340
19.915,184764,193,104337
19.920,184761,193,104335
19.925,184773,194,104334
19.930,184780,194,104338
19.935,184777,194,104338
19.940,184759,194,104329
19.945,184752,194,104337
19.950,184763,193,104339
19.955,184756,192,104342
19.960,184758,196,104346
19.965,184757,196,104336
19.970,184769,196,104342
19.975,184753,196,104353
19.980,184774,197,104343
19.985,184754,196,104339
19.990,184765,196,104339
19.995,184765,196,104349
19.999,184758,196,104356
20.004,184774,196,104359
20.009,184771,193,104351
20.014,184788,194,104344
20.019,184790,193,104361
20.024,184802,192,104357
20.029,184810,193,104367
20.034,184813,193,104366
20.039,184835,193,104376
20.044,184841,193,104365
20.049,184864,194,104386
20.054,184855,195,104390
20.059,184881,201,104390
20.064,184899,192,104398
20.069,184910,193,104403
20.074,184939,195,104406
20.079,184932,196,104405
20.084,184952,196,104426
20.089,184974,199,104421
20.094,184996,201,104422
20.099,185015,192,104438
20.104,185023,194,104433
20.109,185059,199,104455
20.114,185078,201,104448
20.119,185085,192,104449
20.124,185089,192,104457
20.129,185126,194,104479
20.134,185124,196,104464
20.139,185159,198,104478
20.144,185170,200,104480
20.148,185179,192,104498
20.153,185244,196,104495
20.158,185221,199,104504
20.163,185248,201,104511
20.168,185275,192,104515
20.173,185298,192,104544
20.178,185305,195,104530
20.183,185340,196,104533
20.188,185362,197,104541
20.193,185377,199,104550
20.198,185384,200,104559
20.203,185423,195,104560
20.208,185429,196,104570
20.213,185458,197,104573
20.218,185483,199,104581
20.223,185494,201,104580
20.228,185530,193,104592
20.233,185546,194,104597
20.238,185556,197,104610
20.243,185579,197,104605
20.248,185587,200,104627
20.253,185624,195,104622
20.258,185655,198,104623
20.263,185656,198,104636
20.268,185671,201,104636
20.273,185662,201,104644
20.278,185709,193,104649
20.283,185743,194,104663
20.288,185741,196,104669
20.292,185767,198,104668
20.297,185801,200,104668
20.302,185807,194,104670
20.307,185814,196,104687
20.312,185848,197,104697
20.317,185871,198,104703
20.322,185865,198,104704
20.327,185882,200,104714
20.332,185915,202,104708
20.337,185908,193,104717
20.342,185919,193,104725
20.347,185900,199,104733
20.352,185870,192,104718
20.357,185817,194,104712
20.362,185765,195,104700
20.367,185708,197,104693
20.372,185640,198,104678
20.377,185604,200,104664
20.382,185530,200,104645
20.387,185483,192,104645
20.392,185428,193,104636
20.397,185407,199,104615
20.402,185326,192,104598
20.407,185294,193,104601
20.412,185252,194,104581
20.417,185229,195,104576
20.422,185203,195,104561
20.427,185172,197,104560
20.432,185144,198,104556
20.437,185139,199,104566
20.441,185108,201,104561
20.446,185098,195,104545
20.451,185087,196,104545
20.456,185095,197,104545
20.461,185080,198,104540
20.466,185058,199,104538
20.471,185066,201,104527
20.476,185065,192,104539
20.481,185065,193,104541
20.486,185054,195,104546
20.491,185051,196,104551
20.496,185046,191,104537
20.501,185038,193,104522
20.506,185052,195,104518
20.511,185016,196,104531
20.516,185026,198,104529
20.521,185017,199,104532
20.526,185018,200,104533
20.531,185008,191,104520
20.536,185021,193,104526
20.541,185020,195,104528
20.546,185018,200,104527
20.551,185037,201,104531
20.556,185052,191,104541
20.561,185069,192,104536
20.566,185090,193,104537
20.571,185087,194,104539
20.576,185082,196,104544
20.581,185113,197,104550
20.585,185111,198,104541
20.590,185102,201,104537
20.595,185105,193,104552
20.600,185104,193,104549
20.605,185098,195,104551
20.610,185106,196,104541
20.615,185105,196,104556
20.620,185109,197,104554
20.625,185116,199,104550
20.630,185111,200,104563
20.635,185102,192,104547
20.640,185118,197,104557
20.645,185118,199,104548
20.650,185102,201,104555
20.655,185112,193,104545
20.660,185113,195,104560
20.665,185106,197,104563
20.670,185120,200,104573
20.675,185129,192,104553
20.680,185123,192,104559
20.685,185139,194,104559
20.690,185119,205,104572
20.695,185136,195,104565
20.700,185146,196,104570
20.705,185138,198,104564
20.710,185160,199,104578
20.715,185184,201,104578
20.720,185198,192,104587
20.725,185189,193,104581
20.730,185223,194,104588
20.734,185215,196,104610
20.739,185247,201,104590
20.744,185262,192,104595
20.749,185265,193,104594
20.754,185281,196,104610
20.759,185315,198,104609
20.764,185294,200,104608
20.769,185304,192,104616
20.774,185328,194,104622
20.779,185353,196,104610
20.784,185352,198,104633
20.789,185376,192,104633
20.794,185396,194,104625
20.799,185413,195,104637
20.804,185420,195,104651
20.809,185448,197,104658
20.814,185464,199,104649
20.819,185491,202,104670
20.824,185506,192,104658
20.829,185528,194,104669
20.834,185548,197,104730
20.839,185549,199,104683
20.844,185574,200,104679
20.849,185570,201,104683
20.854,185620,192,104694
20.859,185635,193,104698
20.864,185641,193,104711
20.869,185655,195,104714
20.874,185680,195,104720
20.878,185714,196,104730
20.883,185738,202,104724
20.888,185730,193,104729
20.893,185775,195,104747
20.898,185779,197,104733
20.903,185813,199,104748
20.908,185803,191,104750
20.913,185833,192,104754
20.918,185853,195,104760
20.923,185869,198,104759
20.928,185886,192,104768
20.933,185907,198,104774
20.938,185929,192,104788
20.943,185955,193,104790
20.948,185963,197,104780
20.953,185992,198,104808
20.958,185998,200,104801
20.963,186012,191,104809
20.968,186043,193,104821
20.973,186061,194,104811
20.978,186077,196,104838
20.983,186088,200,104827
20.988,186113,192,104830
20.993,186129,192,104846
20.998,186140,194,104839
21.003,186169,195,104841
21.008,186184,196,104862
21.013,186202,197,104859
21.018,186233,198,104858
21.023,186240,199,104871
21.027,186258,200,104881
21.032,186278,195,104883
21.037,186281,196,104892
21.042,186321,197,104894
21.047,186319,200,104881
21.052,186314,191,104898
21.057,186331,193,104906
21.062,186312,194,104909
21.067,186280,195,104889
21.072,186232,195,104900
21.077,186189,196,104906
21.082,186151,197,104893
21.087,186077,198,104863
21.092,186031,196,104848
21.097,185964,197,104818
21.102,185906,194,104822
21.107,185885,194,104803
21.112,185828,193,104795
21.117,185788,194,104784
21.122,185751,192,104779
21.127,185703,196,104767
21.132,185677,200,104762
21.137,185644,200,104753
21.142,185624,199,104745
21.147,185601,200,104730
21.152,185585,199,104736
21.157,185571,198,104734
21.162,185579,197,104734
21.167,185548,196,104729
21.171,185529,196,104726
21.176,185529,202,104715
21.181,185538,195,104719
21.186,185540,195,104728
21.191,185511,194,104720
21.196,185534,195,104723
21.201,185509,195,104714
21.206,185516,195,104708
21.211,185551,194,104719
21.216,185537,194,104720
21.221,185548,193,104725
21.226,185515,197,104713
21.231,185527,196,104702
21.236,185524,196,104713
21.241,185535,195,104707
21.246,185519,196,104709
21.251,185520,196,104708
21.256,185520,196,104709
21.261,185545,195,104703
21.266,185525,196,104709
21.271,185528,195,104712
21.276,185554,200,104711
21.281,185560,199,104713
21.286,185588,199,104721
21.291,185585,197,104722
21.296,185595,196,104715
21.301,185589,196,104716
21.306,185587,196,104713
21.311,185593,197,104724
21.316,185587,197,104727
21.320,185605,197,104717
21.325,185610,201,104711
21.330,185596,201,104724
21.335,185601,191,104720
21.340,185594,191,104720
21.345,185581,191,104723
21.350,185582,201,104721
21.355,185587,201,104731
21.360,185603,200,104721
21.365,185588,201,104703
21.370,185602,189,104718
21.375,185586,194,104715
21.380,185586,194,104718
21.385,185610,194,104723
21.390,185613,194,104725
21.395,185594,194,104719
21.400,185605,195,104732
21.405,185609,196,104724
21.410,185625,197,104733
21.415,185635,198,104732
21.420,185642,191,104732
21.425,185639,192,104726
21.430,185650,192,104737
21.435,185673,201,104725
21.440,185665,200,104734
21.445,185699,200,104748
21.450,185687,199,104747
21.455,185692,199,104753
21.460,185708,197,104747
21.465,185742,197,104755
21.469,185744,201,104755
21.474,185747,200,104756
21.479,185769,198,104760
21.484,185765,198,104755
21.489,185791,198,104761
21.494,185787,197,104766
21.499,185821,198,104778
21.504,185828,197,104763
21.509,185839,196,104773
21.514,185847,197,104776
21.519,185876,195,104779
21.524,185882,196,104782
21.529,185897,195,104786
21.534,185916,194,104804
21.539,185943,193,104802
21.544,185954,193,104809
21.549,185980,192,104812
21.554,185997,191,104810
21.559,186014,191,104817
21.564,186033,191,104824
21.569,186028,196,104822
21.574,186058,196,104827
21.579,186062,196,104825
21.584,186079,195,104831
21.589,186093,194,104844
21.594,186126,194,104840
21.599,186124,193,104848
21.604,186158,193,104861
21.609,186160,193,104848
21.613,186187,193,104853
21.618,186217,196,104865
21.623,186220,195,104869
21.628,186252,195,104874
21.633,186236,194,104879
21.638,186281,192,104891
21.643,186280,192,104865
21.648,186311,191,104888
21.653,186321,201,104888
21.658,186333,201,104894
21.663,186375,193,104908
21.668,186389,193,104904
21.673,186390,193,104907
21.678,186422,193,104915
21.683,186423,192,104920
21.688,186439,193,104923
21.693,186463,192,104938
21.698,186466,193,104933
21.703,186496,191,104940
21.708,186496,191,104937
21.713,186520,194,104946
21.718,186527,194,104960
21.723,186523,193,104958
21.728,186546,193,104965
21.733,186523,192,104960
21.738,186509,201,104965
21.743,186483,200,104955
21.748,186457,199,104947
21.753,186400,197,104946
21.758,186355,197,104937
21.762,186311,201,104917
21.767,186257,200,104905
21.772,186198,197,104896
21.777,186158,196,104891
21.782,186099,196,104871
21.787,186047,195,104845
21.792,186007,193,104845
21.797,185989,192,104846
21.802,185966,190,104836
21.807,185933,201,104828
21.812,185905,194,104829
21.817,185902,193,104817
21.822,185867,191,104811
21.827,185863,201,104790
21.832,185833,199,104796
21.837,185834,198,104805
21.842,185821,197,104799
21.847,185825,197,104793
21.852,185815,196,104792
21.857,185811,198,104786
21.862,185816,195,104782
21.867,185804,195,104788
21.872,185826,194,104790
21.877,185803,193,104785
21.882,185829,192,104784
21.887,185821,192,104791
21.892,185822,201,104777
21.897,185816,200,104784
21.902,185817,198,104777
21.906,185833,202,104768
21.911,185807,190,104771
21.916,185816,201,104782
21.921,185829,199,104761
21.926,185823,199,104775
21.931,185835,198,104768
21.936,185842,197,104774
21.941,185841,195,104784
21.946,185884,195,104785
21.951,185881,193,104777
21.956,185882,197,104787
21.961,185903,196,104777
21.966,185910,196,104784
21.971,185917,194,104785
21.976,185911,193,104789
21.981,185913,192,104779
21.986,185914,191,104784
21.991,185918,201,104787
21.996,185907,200,104785
22.001,185897,198,104781
22.006,185902,201,104785
22.011,185904,199,104787
22.016,185900,197,104791
22.021,185928,196,104779
22.026,185904,194,104781
22.031,185910,192,104787
22.036,185892,191,104778
22.041,185912,201,104780
22.046,185895,200,104780
22.051,185913,201,104779
22.055,185901,193,104777
22.060,185910,191,104783
22.065,185909,191,104778
22.070,185918,201,104780
22.075,185929,200,104783
22.080,185906,198,104777
22.085,185926,198,104779
22.090,185924,196,104785
22.095,185951,196,104780
22.100,185933,195,104780
22.105,185955,198,104788
22.110,185959,197,104793
22.115,185970,195,104791
22.120,185977,195,104785
22.125,186008,193,104807
22.130,186002,191,104791
22.135,185998,201,104789
22.140,186022,200,104808
22.145,186018,200,104787
22.150,186027,197,104761
22.155,186050,192,104800
22.160,186062,191,104811
22.165,186080,200,104808
22.170,186079,198,104811
22.175,186110,197,104807
22.180,186107,196,104814
22.185,186111,194,104817
22.190,186148,192,104834
22.195,186169,190,104844
22.199,186211,194,104785
22.204,186191,198,104817
22.209,186188,196,104827
22.214,186202,195,104824
22.219,186227,193,104838
22.224,186237,192,104845
22.229,186240,201,104843
22.234,186262,200,104845
22.239,186291,198,104852
22.244,186293,196,104850
22.249,186311,192,104864
22.254,186325,192,104858
22.259,186316,191,104866
22.264,186359,200,104873
22.269,186372,198,104885
22.274,186380,196,104877
22.279,186393,195,104879
22.284,186413,194,104890
22.289,186430,192,104897
22.294,186457,201,104911
22.299,186469,193,104887
22.304,186465,191,104898
22.309,186489,200,104901
22.314,186502,197,104910
22.319,186528,196,104908
22.324,186541,194,104920
22.329,186563,193,104912
22.334,186595,190,104928
22.339,186578,201,104917
22.344,186578,199,104931
22.348,186624,193,104936
22.353,186629,192,104937
22.358,186619,201,104940
22.363,186642,200,104951
22.368,186639,199,104948
22.373,186638,196,104946
22.378,186624,195,104954
22.383,186599,193,104938
22.388,186564,193,104940
22.393,186517,192,104887
22.398,186480,194,104913
22.403,186416,193,104907
22.408,186367,192,104891
22.413,186312,200,104890
22.418,186235,199,104867
22.423,186205,197,104858
22.428,186145,195,104844
22.433,186114,194,104831
22.438,186052,193,104819
22.443,186028,195,104806
22.448,185992,201,104802
22.453,185954,199,104791
22.458,185939,198,104779
22.463,185909,196,104788
22.468,185903,195,104766
22.473,185882,193,104775
22.478,185861,193,104766
22.483,185870,192,104768
22.488,185844,191,104761
22.492,185846,194,104764
22.497,185848,194,104755
22.502,185833,192,104749
22.507,185820,202,104753
22.512,185814,200,104748
22.517,185809,200,104746
22.522,185813,197,104744
22.527,185803,197,104743
22.532,185816,196,104727
22.537,185801,195,104731
22.542,185809,198,104731
22.547,185797,197,104720
22.552,185804,196,104730
22.557,185782,195,104732
22.562,185779,193,104718
22.567,185782,193,104729
22.572,185798,191,104720
22.577,185790,201,104717
22.582,185817,197,104721
22.587,185829,199,104717
22.592,185814,198,104712
22.597,185825,198,104717
22.602,185849,195,104720
22.607,185845,195,104726
22.612,185858,193,104720
22.617,185847,194,104717
22.622,185824,193,104726
22.627,185859,192,104713
22.632,185837,201,104718
22.637,185853,199,104712
22.641,185849,198,104712
22.646,185846,197,104722
22.651,185835,195,104711
22.656,185844,194,104710
22.661,185845,192,104700
22.666,185829,192,104706
22.671,185826,200,104706
22.676,185842,199,104705
22.681,185834,197,104695
22.686,185829,197,104692
22.691,185824,199,104706
22.696,185825,198,104694
22.701,185824,197,104699
22.706,185815,197,104699
22.711,185831,195,104706
22.716,185815,195,104707
22.721,185833,194,104702
22.726,185832,193,104701
22.731,185837,191,104705
22.736,185854,195,104706
22.741,185823,195,104708
22.746,185847,193,104706
22.751,185861,191,104715
22.756,185882,201,104695
22.761,185880,199,104709
22.766,185877,199,104704
22.771,185913,197,104709
22.776,185911,195,104714
22.781,185921,194,104715
22.785,185919,197,104719
22.790,185929,195,104711
22.795,185940,195,104722
22.800,185948,195,104721
22.805,185961,193,104718
22.810,185956,191,104727
22.815,185987,201,104721
22.820,185984,200,104724
22.825,186002,199,104728
22.830,186017,199,104747
22.835,186028,192,104733
22.840,186039,192,104742
22.845,186062,191,104733
22.850,186059,201,104741
22.855,186082,200,104737
22.860,186095,198,104751
22.865,186102,198,104758
22.870,186119,196,104747
22.875,186147,195,104758
22.880,186155,195,104762
22.885,186179,198,104774
22.890,186172,198,104755
22.895,186200,196,104779
22.900,186209,195,104769
22.905,186232,194,104776
22.910,186242,193,104781
22.915,186265,192,104779
22.920,186285,191,104781
22.925,186286,192,104801
22.930,186322,191,104771
22.934,186313,199,104794
22.939,186346,198,104803
22.944,186363,197,104816
22.949,186377,197,104813
22.954,186401,196,104821
22.959,186416,196,104816
22.964,186417,194,104822
22.969,186449,194,104825
22.974,186460,192,104839
22.979,186520,194,104843
22.984,186490,199,104832
22.989,186492,198,104844
22.994,186519,196,104845
22.999,186526,196,104855
23.004,186563,194,104850
23.009,186568,193,104860
23.014,186575,191,104860
23.019,186579,201,104867
23.024,186582,199,104870
23.029,186577,193,104864
23.034,186532,191,104855
23.039,186545,185,104861
23.044,186479,201,104851
23.049,186414,201,104843
23.054,186361,198,104822
23.059,186289,197,104823
23.064,186217,195,104789
23.069,186154,194,104769
23.074,186095,193,104771
23.078,186041,196,104747
23.083,185985,195,104728
23.088,185943,194,104723
23.093,185891,192,104710
23.098,185867,192,104705
23.103,185832,190,104697
23.108,185778,201,104668
23.113,185753,199,104670
23.118,185729,199,104666
23.123,185712,195,104663
23.128,185703,201,104652
23.133,185663,199,104643
23.138,185648,198,104649
23.143,185645,196,104550
23.148,185627,195,104631
23.153,185617,193,104622
23.158,185590,193,104624
23.163,185591,191,104624
23.168,185589,202,104619
23.173,185570,200,104612
23.178,185567,194,104606
23.183,185555,193,104618
23.188,185570,193,104604
23.193,185549,191,104612
23.198,185556,201,104594
23.203,185557,199,104599
23.208,185547,197,104598
23.213,185534,196,104585
23.218,185522,195,104589
23.223,185527,200,104598
23.227,185552,197,104587
23.232,185537,195,104597
23.237,185541,194,104590
23.242,185548,192,104592
23.247,185564,192,104591
23.252,185596,190,104593
23.257,185561,201,104598
23.262,185599,199,104588
23.267,185619,198,104585
23.272,185601,190,104595
23.277,185591,201,104594
23.282,185593,199,104588
23.287,185605,199,104587
23.292,185581,197,104570
23.297,185575,197,104584
23.302,185589,195,104578
23.307,185573,194,104589
23.312,185561,192,104577
23.317,185562,192,104574
23.322,185571,200,104564
23.327,185565,194,104584
23.332,185545,193,104564
23.337,185551,192,104562
23.342,185555,191,104569
23.347,185560,200,104569
23.352,185559,198,104570
23.357,185555,197,104567
23.362,185555,196,104567
23.367,185553,196,104553
23.371,185548,199,104570
23.376,185554,199,104565
23.381,185560,197,104563
23.386,185546,197,104554
23.391,185562,196,104581
23.396,185579,195,104571
23.401,185568,194,104583
23.406,185583,193,104576
23.411,185605,192,104572
23.416,185608,191,104579
23.421,185611,195,104578
23.426,185625,194,104583
23.431,185637,192,104580
23.436,185637,192,104587
23.441,185654,201,104587
23.446,185655,199,104600
23.451,185676,198,104585
23.456,185679,196,104600
23.461,185672,196,104591
23.466,185693,197,104636
23.471,185715,193,104594
23.476,185735,192,104596
23.481,185736,191,104607
23.486,185756,201,104607
23.491,185762,199,104605
23.496,185765,197,104613
23.501,185785,196,104619
23.506,185803,195,104622
23.511,185805,193,104616
23.516,185836,196,104636
23.520,185845,201,104629
23.525,185865,199,104628
23.530,185862,198,104639
23.535,185898,197,104639
23.540,185904,197,104647
23.545,185907,196,104647
23.550,185933,195,104660
23.555,185954,192,104655
23.560,185960,192,104660
23.565,185975,195,104671
23.570,186014,193,104676
23.575,186023,192,104670
23.580,186037,201,104673
23.585,186051,200,104678
23.590,186082,200,104684
23.595,186081,199,104691
23.600,186110,198,104695
23.605,186124,198,104699
23.610,186148,196,104702
23.615,186166,193,104667
23.620,186183,197,104705
23.625,186180,196,104712
23.630,186201,195,104714
23.635,186223,193,104727
23.640,186226,192,104727
23.645,186244,202,104735
23.650,186262,201,104729
23.655,186270,199,104739
23.660,186286,197,104746
23.665,186312,201,104747
23.669,186313,199,104748
23.674,186312,199,104756
23.679,186300,199,104767
23.684,186280,197,104754
23.689,186230,196,104742
23.694,186177,195,104732
23.699,186143,195,104722
23.704,186063,193,104707
23.709,186002,193,104695
23.714,185943,195,104676
23.719,185871,195,104661
23.724,185815,193,104659
23.729,185757,193,104637
23.734,185709,191,104616
23.739,185651,201,104597
23.744,185602,199,104590
23.749,185571,198,104587
23.754,185535,196,104573
23.759,185491,196,104572
23.764,185452,198,104558
23.769,185460,198,104561
23.774,185429,196,104539
23.779,185389,195,104532
23.784,185382,193,104544
23.789,185362,193,104532
23.794,185348,191,104532
23.799,185342,201,104518
23.804,185328,199,104530
23.809,185337,193,104521
23.813,185334,191,104514
23.818,185321,201,104520
23.823,185313,199,104520
23.828,185319,199,104522
23.833,185308,197,104517
23.838,185318,196,104509
23.843,185309,195,104509
23.848,185321,194,104515
23.853,185276,193,104513
23.858,185295,196,104506
23.863,185298,194,104520
23.868,185280,194,104490
23.873,185284,193,104507
23.878,185284,192,104506
23.883,185300,191,104499
23.888,185315,202,104513
23.893,185309,200,104507
23.898,185321,199,104509
23.903,185342,198,104501
23.908,185332,196,104502
23.913,185335,194,104507
23.918,185345,193,104504
23.923,185348,191,104520
23.928,185344,201,104510
23.933,185370,200,104504
23.938,185351,199,104502
23.943,185338,198,104508
23.948,185332,197,104504
23.953,185340,196,104522
23.958,185349,200,104497
23.962,185344,199,104506
23.967,185338,198,104501
23.972,185333,197,104503
23.977,185332,197,104503
23.982,185328,196,104507
23.987,185332,196,104515
23.992,185330,196,104509
23.997,185308,197,104500
24.002,185324,200,104430
24.007,185318,192,104497
24.012,185308,191,104512
24.017,185323,201,104506
24.022,185318,199,104503
24.027,185317,198,104512
24.032,185333,196,104510
24.037,185325,194,104505
24.042,185328,193,104515
24.047,185340,193,104498
24.052,185371,195,104501
24.057,185355,191,104508
24.062,185371,200,104512
24.067,185378,200,104519
24.072,185377,198,104526
24.077,185396,197,104528
24.082,185408,195,104532
24.087,185412,193,104529
24.092,185428,192,104522
24.097,185437,192,104527
24.102,185450,196,104538
24.106,185442,195,104535
24.111,185462,195,104542
24.116,185478,194,104549
24.121,185490,193,104553
24.126,185500,193,104564
24.131,185524,191,104562
24.136,185524,201,104557
24.141,185564,199,104566
24.146,185564,200,104563
24.151,185589,193,104566
24.156,185584,197,104564
24.161,185620,197,104583
24.166,185611,197,104585
24.171,185638,197,104581
24.176,185645,197,104582
24.181,185664,197,104591
24.186,185664,196,104601
24.191,185698,195,104599
24.196,185709,194,104606
24.201,185746,198,104616
24.206,185750,197,104609
24.211,185766,197,104620
24.216,185795,196,104628
24.221,185810,196,104623
24.226,185830,196,104633
24.231,185843,195,104644
24.236,185859,194,104654
24.241,185872,194,104663
24.246,185901,194,104687
24.251,185908,196,104664
24.255,185913,196,104666
24.260,185957,195,104675
24.265,185958,195,104670
24.270,185974,195,104681
24.275,185991,194,104682
24.280,186015,193,104695
24.285,186016,193,104678
24.290,186036,193,104691
24.295,186026,193,104700
24.300,186065,196,104712
24.305,186060,197,104711
24.310,186103,197,104718
24.315,186092,196,104716
24.320,186062,196,104714
24.325,186047,195,104717
24.330,186012,195,104712
24.335,185959,193,104712
24.340,185909,193,104696
24.345,185854,196,104684
24.350,185801,195,104676
24.355,185741,194,104653
24.360,185663,193,104634
24.365,185603,192,104626
24.370,185550,191,104601
24.375,185501,201,104579
24.380,185436,199,104572
24.385,185396,198,104564
24.390,185348,196,104566
24.395,185326,199,104543
24.399,185285,199,104536
24.404,185262,198,104531
24.409,185237,198,104521
24.414,185222,197,104528
24.419,185205,195,104520
24.424,185184,196,104515
24.429,185168,195,104518
24.434,185174,194,104505
24.439,185166,195,104507
24.444,185141,191,104510
24.449,185156,191,104503
24.454,185135,200,104494
24.459,185128,199,104497
24.464,185130,198,104503
24.469,185139,197,104495
24.474,185133,196,104498
24.479,185140,196,104490
24.484,185146,195,104480
24.489,185142,195,104487
24.494,185142,198,104501
24.499,185132,198,104490
24.504,185128,197,104497
24.509,185134,197,104490
24.514,185134,195,104481
24.519,185143,195,104489
24.524,185159,194,104493
24.529,185158,195,104493
24.534,185162,195,104502
24.539,185169,195,104457
24.544,185182,201,104500
24.548,185202,200,104487
24.553,185190,198,104495
24.558,185200,197,104515
24.563,185194,196,104489
24.568,185192,195,104489
24.573,185200,193,104497
24.578,185193,193,104508
24.583,185204,192,104507
24.588,185184,196,104507
24.593,185197,196,104505
24.598,185190,196,104494
24.603,185183,195,104504
24.608,185187,195,104504
24.613,185178,193,104502
24.618,185174,194,104502
24.623,185162,191,104495
24.628,185159,192,104500
24.633,185161,190,104505
24.638,185154,195,104492
24.643,185144,194,104505
24.648,185166,194,104495
24.653,185149,193,104507
24.658,185156,192,104494
24.663,185163,191,104499
24.668,185169,191,104505
24.673,185171,190,104500
24.678,185175,200,104498
24.683,185186,199,104521
24.688,185196,192,104505
24.692,185180,190,104516
24.697,185205,200,104505
24.702,185207,198,104524
24.707,185215,199,104510
24.712,185211,197,104525
24.717,185231,197,104525
24.722,185240,194,104517
24.727,185257,194,104532
24.732,185257,193,104526
24.737,185266,201,104527
24.742,185281,199,104539
24.747,185297,197,104536
24.752,185314,196,104540
24.757,185327,194,104541
24.762,185327,192,104548
24.767,185350,191,104540
24.772,185363,200,104553
24.777,185371,198,104560
24.782,185376,198,104515
24.787,185400,194,104559
24.792,185401,192,104568
24.797,185425,192,104571
24.802,185442,201,104577
24.807,185443,199,104579
24.812,185456,198,104570
24.817,185480,196,104586
24.822,185501,195,104591
24.827,185508,194,104597
24.832,185590,197,104597
24.837,185531,193,104605
24.841,185563,191,104608
24.846,185587,200,104606
24.851,185592,198,104608
24.856,185619,197,104616
24.861,185626,195,104616
24.866,185660,193,104621
24.871,185663,191,104622
24.876,185688,201,104638
24.881,185704,199,104635
24.886,185710,197,104642
24.891,185727,197,104644
24.896,185753,195,104655
24.901,185755,195,104649
24.906,185780,193,104654
24.911,185778,192,104664
24.916,185799,191,104674
24.921,185793,200,104675
24.926,185801,198,104676
24.931,185795,191,104684
24.936,185793,201,104676
24.941,185768,200,104679
24.946,185727,199,104671
24.951,185690,198,104658
24.956,185617,197,104659
24.961,185562,196,104644
24.966,185497,195,104620
24.971,185447,195,104611
24.976,185387,194,104598
24.981,185315,197,104578
24.985,185249,196,104558
24.990,185211,195,104557
24.995,185165,194,104538
25.000,185123,193,104530
25.005,185058,192,104520
25.010,185033,191,104516
25.015,185008,190,104504
25.020,184975,201,104495
25.025,184963,200,104481
25.030,184919,193,104487
25.035,184910,191,104483
25.040,184914,190,104467
25.045,184872,199,104471
25.050,184861,198,104459
25.055,184864,196,104471
25.060,184859,196,104469
25.065,184864,195,104455
25.070,184852,194,104456
25.075,184848,198,104460
25.080,184840,197,104459
25.085,184855,196,104453
25.090,184845,195,104452
25.095,184845,194,104456
25.100,184834,193,104453
25.105,184810,191,104438
25.110,184820,201,104444
25.115,184812,196,104445
25.120,184820,196,104443
25.125,184815,199,104450
25.130,184811,191,104446
25.134,184835,200,104444
25.139,184846,198,104441
25.144,184846,197,104448
25.149,184852,194,104451
25.154,184850,193,104454
25.159,184865,191,104455
25.164,184878,200,104450
25.169,184873,199,104456
25.174,184878,191,104454
25.179,184871,191,104460
25.184,184880,200,104454
25.189,184871,199,104467
25.194,184867,197,104445
25.199,184890,197,104457
25.204,184880,195,104461
25.209,184871,195,104458
25.214,184881,192,104458
25.219,184873,191,104458
25.224,184854,194,104450
25.229,184861,193,104455
25.234,184872,200,104467
25.239,184874,199,104445
25.244,184850,196,104451
25.249,184857,194,104456
25.254,184852,192,104469
25.259,184866,192,104450
25.264,184854,200,104453
25.269,184839,199,104449
25.274,184835,191,104452
25.278,184858,200,104460
25.283,184863,197,104454
25.288,184839,195,104465
25.293,184863,193,104458
25.298,184866,193,104455
25.303,184878,192,104461
25.308,184904,192,104469
25.313,184903,200,104471
25.318,184910,200,104424
25.323,184906,191,104469
25.328,184926,200,104471
25.333,184924,198,104476
25.338,184946,198,104476
25.343,184945,196,104482
25.348,184960,196,104487
25.353,184971,193,104492
25.358,185005,193,104488
25.363,184984,192,104490
25.368,185053,194,104486
25.373,185032,194,104496
25.378,185028,194,104505
25.383,185052,192,104508
25.388,185057,191,104513
25.393,185071,200,104514
25.398,185081,199,104520
25.403,185111,197,104519
25.408,185119,197,104535
25.413,185130,196,104535
25.418,185175,201,104508
25.423,185163,194,104531
25.427,185184,193,104540
25.432,185208,191,104544
25.437,185229,191,104558
25.442,185222,201,104558
25.447,185255,200,104570
25.452,185267,199,104567
25.457,185300,198,104567
25.462,185296,197,104574
25.467,185333,194,104590
25.472,185333,195,104591
25.477,185355,194,104584
25.482,185358,193,104610
25.487,185388,193,104600
25.492,185387,191,104612
25.497,185405,191,104603
25.502,185428,200,104608
25.507,185472,199,104614
25.512,185458,197,104627
25.517,185484,191,104629
25.522,185506,190,104638
25.527,185517,201,104640
25.532,185552,199,104652
25.537,185568,198,104645
25.542,185555,197,104672
25.547,185562,195,104664
25.552,185548,195,104667
25.557,185511,193,104666
25.562,185484,192,104655
25.567,185439,201,104642
25.572,185396,199,104631
25.576,185330,198,104625
25.581,185266,197,104614
25.586,185204,196,104595
25.591,185142,196,104585
25.596,185080,195,104569
25.601,185025,194,104552
25.606,184985,193,104540
25.611,184919,203,104516
25.616,184886,197,104512
25.621,184847,197,104500
25.626,184801,197,104496
25.631,184774,197,104489
25.636,184743,195,104476
25.641,184719,195,104471
25.646,184685,194,104465
25.651,184667,193,104462
25.656,184674,193,104457
25.661,184631,197,104453
25.666,184630,195,104451
25.671,184614,194,104456
25.676,184604,194,104438
25.681,184610,192,104440
25.686,184589,190,104442
25.691,184591,199,104451
25.696,184585,197,104438
25.701,184578,195,104440
25.706,184567,193,104443
25.711,184562,198,104443
25.716,184566,197,104422
25.720,184551,195,104443
25.725,184539,194,104428
25.730,184542,195,104431
25.735,184556,193,104420
25.740,184555,193,104428
25.745,184539,191,104421
25.750,184533,201,104427
25.755,184564,200,104414
25.760,184558,193,104419
25.765,184566,193,104430
25.770,184593,192,104439
25.775,184593,191,104436
25.780,184599,201,104435
25.785,184591,199,104437
25.790,184607,198,104439
25.795,184604,196,104440
25.800,184598,195,104439
25.805,184611,193,104444
25.810,184600,197,104439
25.815,184621,195,104446
25.820,184594,194,104442
25.825,184617,192,104427
25.830,184600,191,104441
25.835,184601,200,104448
25.840,184586,197,104445
25.845,184588,196,104442
25.850,184588,195,104443
25.855,184585,196,104488
25.860,184586,201,104434
25.865,184578,199,104439
25.869,184584,198,104434
25.874,184590,195,104437
25.879,184599,195,104429
25.884,184580,193,104440
25.889,184587,192,104434
25.894,184587,200,104442
25.899,184605,199,104442
25.904,184541,201,104448
25.909,184613,200,104448
25.914,184611,197,104450
25.919,184620,196,104455
25.924,184627,193,104462
25.929,184647,192,104460
25.934,184659,190,104458
25.939,184662,199,104452
25.944,184689,197,104470
25.949,184695,196,104482
25.954,184703,200,104474
25.959,184707,198,104476
25.964,184717,197,104482
25.969,184722,196,104482
25.974,184743,195,104482
25.979,184734,195,104484
25.984,184753,193,104487
25.989,184785,192,104485
25.994,184792,190,104488
25.999,184802,200,104499
26.004,184808,192,104500
26.009,184824,192,104507
26.013,184862,200,104510
26.018,184861,199,104522
26.023,184892,197,104517
26.028,184900,196,104522
26.033,184923,194,104527
26.038,184738,184,104535
26.043,184936,192,104534
26.048,184954,188,104535
26.053,184982,192,104536
26.058,184986,191,104539
26.063,185009,200,104540
26.068,185035,199,104553
26.073,185053,196,104556
26.078,185074,194,104569
26.083,185097,192,104581
26.088,185116,191,104582
26.093,185132,200,104589
26.098,185159,199,104579
26.103,185169,195,104600
26.108,185196,193,104596
26.113,185212,191,104604
26.118,185246,201,104616
26.123,185267,197,104629
26.128,185280,196,104630
26.133,185308,194,104632
26.138,185315,193,104625
26.143,185342,191,104637
26.148,185359,199,104659
26.153,185384,196,104655
26.158,185392,195,104653
26.162,185431,193,104661
26.167,185440,191,104668
26.172,185460,200,104677
26.177,185469,199,104677
26.182,185501,197,104686
26.187,185485,195,104678
26.192,185507,195,104702
26.197,185494,197,104702
26.202,185488,195,104698
26.207,185458,194,104694
26.212,185406,191,104694
26.217,185361,200,104685
26.222,185314,198,104673
26.227,185260,196,104661
26.232,185193,194,104630
26.237,185141,192,104619
26.242,185096,191,104615
26.247,185041,196,104585
26.252,184985,198,104587
26.257,184943,196,104567
26.262,184905,195,104571
26.267,184870,194,104557
26.272,184829,193,104554
26.277,184800,191,104542
26.282,184780,201,104534
26.287,184770,199,104526
26.292,184749,198,104534
26.297,184743,195,104529
26.302,184715,194,104515
26.306,184713,193,104524
26.311,184694,192,104498
26.316,184701,191,104503
26.321,184682,201,104505
26.326,184690,198,104503
26.331,184688,197,104493
26.336,184682,195,104493
26.341,184683,194,104492
26.346,184681,197,104482
26.351,184694,195,104486
26.356,184702,193,104493
26.361,184697,191,104487
26.366,184699,200,104493
26.371,184693,199,104490
26.376,184706,198,104498
26.381,184696,196,104496
26.386,184715,195,104500
26.391,184721,196,104498
26.396,184735,197,104491
26.401,184733,196,104498
26.406,184731,194,104491
26.411,184775,193,104496
26.416,184790,192,104497
26.421,184813,201,104499
26.426,184828,199,104505
26.431,184823,198,104508
26.436,184843,197,104500
26.441,184892,200,104506
26.446,184860,199,104502
26.451,184846,199,104506
26.455,184841,197,104506
26.460,184860,196,104506
26.465,184862,194,104505
26.470,184877,193,104505
26.475,184865,190,104502
26.480,184897,200,104507
26.485,184865,197,104502
26.490,184876,191,104508
26.495,184867,199,104501
26.500,184887,199,104514
26.505,184875,196,104526
26.510,184902,196,104492
26.515,184900,194,104505
26.520,184897,193,104514
26.525,184905,192,104514
26.530,184907,202,104508
26.535,184903,199,104504
26.540,184904,193,104512
26.545,184910,191,104507
26.550,184927,201,104517
26.555,184924,199,104524
26.560,184948,197,104523
26.565,184949,195,104525
26.570,184957,193,104525
26.575,184978,191,104528
26.580,184987,201,104534
26.585,184999,200,104536
26.590,184992,192,104537
26.595,185024,191,104552
26.599,185031,201,104551
26.604,185054,198,104555
26.609,185066,198,104558
26.614,185077,195,104569
26.619,185101,195,104575
26.624,185099,192,104577
26.629,185124,191,104581
26.634,185140,200,104580
26.639,185160,195,104585
26.644,185157,192,104597
26.649,185179,192,104603
26.654,185200,200,104596
26.659,185207,199,104608
26.664,185228,197,104617
26.669,185256,196,104615
26.674,185279,194,104628
26.679,185299,194,104632
26.684,185320,195,104607
26.689,185331,199,104640
26.694,185348,196,104647
26.699,185357,194,104663
26.704,185392,191,104659
26.709,185394,201,104668
26.714,185425,198,104673
26.719,185422,196,104677
26.724,185447,193,104678
26.729,185464,192,104695
26.734,185519,194,104661
26.739,185505,192,104702
26.744,185537,191,104709
26.748,185544,201,104717
26.753,185577,199,104717
26.758,185578,198,104742
26.763,185613,196,104741
26.768,185632,195,104734
26.773,185669,193,104758
26.778,185684,192,104751
26.783,185690,195,104769
26.788,185719,194,104765
26.793,185732,193,104777
26.798,185764,193,104781
26.803,185775,190,104795
26.808,185797,201,104801
26.813,185812,199,104801
26.818,185826,198,104812
26.823,185866,197,104822
26.828,185877,194,104835
26.833,185882,196,104825
26.838,185891,195,104836
26.843,185924,193,104841
26.848,185945,192,104850
26.853,185962,201,104849
26.858,185972,199,104865
26.863,186008,198,104864
26.868,186014,197,104872
26.873,186055,195,104874
26.878,186054,194,104874
26.883,186083,197,104882
26.888,186092,196,104897
26.892,186075,195,104899
26.897,186080,193,104895
26.902,186083,192,104901
26.907,186055,191,104899
26.912,186040,191,104900
26.917,185993,201,104884
26.922,185938,200,104883
26.927,185870,200,104826
26.932,185819,201,104803
26.937,185764,192,104837
26.942,185688,191,104831
26.947,185638,201,104821
26.952,185585,201,104803
26.957,185527,200,104783
26.962,185475,200,104797
26.967,185450,198,104778
26.972,185408,198,104788
26.977,185350,201,104769
26.982,185346,201,104762
26.987,185326,199,104752
26.992,185287,198,104752
26.997,185268,197,104753
27.002,185260,195,104747
27.007,185246,193,104747
27.012,185217,191,104737
27.017,185205,200,104728
27.022,185211,198,104735
27.027,185212,191,104733
27.032,185190,201,104736
27.037,185181,200,104737
27.041,185183,199,104737
27.046,185158,198,104735
27.051,185171,197,104728
27.056,185152,195,104733
27.061,185137,194,104738
27.066,185147,194,104748
27.071,185123,192,104741
27.076,185130,195,104735
27.081,185109,194,104737
27.086,185118,191,104728
27.091,185093,200,104725
27.096,185098,197,104737
27.101,185085,197,104729
27.106,185095,195,104743
27.111,185107,194,104740
27.116,185122,192,104758
27.121,185129,190,104745
27.126,185139,194,104747
27.131,185149,193,104756
27.136,185147,191,104750
27.141,185158,202,104755
27.146,185152,200,104773
27.151,185155,200,104755
27.156,185127,198,104764
27.161,185156,198,104773
27.166,185153,196,104771
27.171,185131,196,104754
27.176,185133,201,104763
27.181,185127,200,104761
27.185,185132,198,104769
27.190,185118,196,104758
27.195,185124,193,104759
27.200,185117,192,104771
27.205,185102,200,104749
27.210,185104,199,104755
27.215,185112,196,104758
27.220,185101,200,104755
27.225,185096,197,104757
27.230,185087,196,104751
27.235,185068,194,104745
27.240,185090,193,104749
27.245,185090,191,104765
27.250,185095,201,104749
27.255,185093,199,104753
27.260,185081,199,104765
27.265,185112,197,104761
27.270,185109,201,104768
27.275,185124,198,104784
27.280,185140,197,104789
27.285,185134,194,104789
27.290,185148,193,104782
27.295,185141,191,104785
27.300,185157,202,104796
27.305,185166,200,104799
27.310,185163,199,104796
27.315,185162,196,104796
27.320,185169,200,104800
27.325,185200,198,104814
27.330,185193,198,104796
27.334,185211,195,104822
27.339,185212,194,104827
27.344,185220,192,104826
27.349,185239,192,104833
27.354,185244,201,104836
27.359,185262,200,104856
27.364,185283,198,104867
27.369,185285,192,104862
27.374,185305,196,104866
27.379,185311,194,104876
27.384,185311,193,104874
27.389,185338,192,104878
27.394,185350,202,104888
27.399,185373,201,104892
27.404,185356,200,104910
27.409,185379,199,104909
27.414,185399,197,104909
27.419,185399,196,104914
27.424,185406,194,104930
27.429,185417,194,104933
27.434,185412,192,104924
27.439,185441,192,104941
27.444,185467,191,104943
27.449,185469,201,104943
27.454,185461,199,104946
27.459,185484,198,104950
27.464,185487,198,104991
27.469,185509,201,104957
27.474,185519,200,104969
27.478,185533,198,104979
27.483,185550,197,104983
27.488,185568,196,104990
27.493,185593,196,104991
27.498,185592,194,105002
27.503,185614,193,105002
27.508,185637,192,105001
27.513,185693,196,105040
27.518,185672,196,105020
27.523,185667,194,105020
27.528,185709,192,105007
27.533,185725,201,105020
27.538,185741,198,105032
27.543,185745,198,105020
27.548,185754,196,105039
27.553,185773,195,105032
27.558,185783,194,105044
27.563,185779,196,105044
27.568,185787,195,105050
27.573,185771,193,105053
27.578,185776,192,105052
27.583,185750,201,105052
27.588,185746,199,105044
27.593,185691,196,105042
27.598,185669,195,105037
27.603,185593,193,105020
27.608,185548,191,105020
27.613,185488,194,104995
27.618,185432,192,104988
27.623,185371,192,104971
27.627,185336,192,104953
27.632,185275,201,104950
27.637,185246,200,104930
27.642,185200,198,104919
27.647,185155,196,104908
27.652,185109,194,104893
27.657,185102,192,104889
27.662,185063,201,104877
27.667,185045,199,104881
27.672,185035,198,104871
27.677,185019,196,104863
27.682,185001,196,104855
27.687,184977,194,104859
27.692,184989,193,104858
27.697,184983,192,104858
27.702,184992,192,104862
27.707,184970,202,104846
27.712,184971,194,104853
27.717,184964,192,104850
27.722,184962,191,104852
27.727,184956,200,104847
27.732,184954,198,104839
27.737,184945,196,104848
27.742,184965,196,104847
27.747,184937,194,104840
27.752,184933,193,104842
27.757,184957,199,104849
27.762,184937,195,104833
27.767,184941,193,104835
27.772,184943,192,104840
27.776,184966,201,104841
27.781,184959,199,104838
27.786,184956,196,104847
27.791,184982,195,104839
27.796,184999,193,104850
27.801,185006,193,104853
27.806,185058,197,104850
27.811,185018,192,104853
27.816,185042,191,104858
27.821,185024,201,104859
27.826,185043,201,104848
27.831,185022,201,104852
27.836,185033,200,104862
27.841,185037,199,104862
27.846,185050,197,104864
27.851,185041,196,104863
27.856,185036,190,104851
27.861,185020,192,104859
27.866,185034,201,104866
27.871,185032,200,104861
27.876,185029,198,104857
27.881,185009,197,104858
27.886,185020,194,104860
27.891,185014,193,104853
27.896,185004,191,104861
27.901,185008,200,104865
27.906,185003,192,104851
27.911,185020,201,104847
27.916,185016,198,104857
27.920,185016,197,104859
27.925,185027,196,104854
27.930,185027,195,104865
27.935,185050,192,104872
27.940,185047,192,104872
27.945,185059,201,104868
27.950,185067,200,104871
27.955,185078,192,104874
27.960,185083,192,104882
27.965,185106,191,104882
27.970,185107,201,104879
27.975,185128,199,104881
27.980,185127,198,104890
27.985,185142,197,104888
27.990,185162,195,104893
27.995,185142,194,104885
28.000,185154,196,104918
28.005,185178,196,104886
28.010,185181,196,104896
28.015,185202,193,104908
28.020,185206,193,104901
28.025,185236,191,104900
28.030,185238,201,104920
28.035,185255,198,104921
28.040,185264,198,104920
28.045,185279,195,104924
28.050,185283,198,104927
28.055,185289,195,104928
28.060,185325,194,104940
28.065,185327,192,104934
28.069,185354,191,104945
28.074,185371,200,104949
28.079,185375,200,104951
28.084,185390,199,104957
28.089,185419,198,104947
28.094,185435,195,104962
28.099,185455,203,104951
28.104,185469,192,104975
28.109,185485,191,104971
28.114,185501,200,104985
28.119,185517,199,104982
28.124,185539,197,104991
28.129,185538,195,104992
28.134,185563,193,104993
28.139,185575,202,105003
28.144,185590,199,104998
28.149,185618,197,105000
28.154,185631,197,105012
28.159,185658,194,105018
28.164,185666,191,105019
28.169,185678,199,105021
28.174,185727,197,105035
28.179,185717,195,105025
28.184,185735,193,105042
28.189,185747,191,105046
28.194,185760,200,105060
28.199,185775,191,105052
28.204,185771,200,105053
28.209,185781,197,105058
28.213,185760,195,105057
28.218,185758,192,105073
28.223,185742,200,105060
28.228,185700,197,105063
28.233,185674,195,105046
28.238,185622,193,105041
28.243,185575,201,105026
28.248,185493,193,105023
28.253,185453,192,105002
28.258,185390,199,104987
28.263,185339,195,104984
28.268,185318,193,104972
28.273,185251,191,104948
28.278,185226,198,104949
28.283,185177,196,104928
28.288,185156,194,104929
28.293,185122,191,104906
28.298,185101,194,104912
28.303,185094,191,104902
28.308,185052,198,104903
28.313,185051,194,104912
28.318,185043,191,104877
28.323,185024,200,104897
28.328,185024,196,104894
28.333,185031,193,104883
28.338,185013,192,104895
28.343,185030,194,104897
28.348,185028,201,104897
28.353,185004,198,104887
28.358,185012,195,104885
28.362,185009,193,104879
28.367,185017,191,104884
28.372,185002,199,104890
28.377,184997,196,104891
28.382,185001,194,104887
28.387,185008,191,104879
28.392,185025,196,104878
28.397,184993,196,104882
28.402,184992,193,104877
28.407,185011,201,104870
28.412,185000,197,104885
28.417,185018,193,104887
28.422,185015,201,104889
28.427,185032,197,104893
28.432,185043,195,104887
28.437,185066,202,104887
28.442,185070,193,104894
28.447,185059,200,104884
28.452,185065,196,104893
28.457,185063,193,104890
28.462,185093,201,104890
28.467,185082,198,104897
28.472,185084,196,104898
28.477,185092,193,104899
28.482,185068,191,104881
28.487,185055,200,104880
28.492,185059,197,104890
28.497,185048,193,104891
28.502,185058,192,104883
28.506,185049,200,104885
28.511,185042,198,104898
28.516,185047,196,104871
28.521,185036,194,104887
28.526,185039,191,104873
28.531,185050,199,104883
28.536,185057,195,104879
28.541,185034,197,104882
28.546,185043,194,104884
28.551,185035,192,104879
28.556,185057,199,104882
28.561,185049,196,104872
28.566,185050,193,104873
28.571,185057,191,104883
28.576,185060,198,104882
28.581,185065,196,104885
28.586,185087,191,104878
28.591,185091,195,104899
28.596,185097,192,104871
28.601,185107,202,104894
28.606,185131,198,104889
28.611,185130,197,104895
28.616,185151,194,104906
28.621,185157,192,104902
28.626,185170,199,104906
28.631,185174,196,104899
28.636,185176,198,104909
28.641,185197,196,104909
28.646,185205,194,104919
28.651,185221,192,104920
28.655,185235,198,104926
28.660,185233,196,104920
28.665,185236,192,104930
28.670,185277,201,104934
28.675,185269,197,104935
28.680,185264,197,104931
28.685,185304,191,104941
28.690,185304,200,104928
28.695,185329,197,104943
28.700,185340,195,104957
28.705,185340,192,104950
28.710,185377,200,104953
28.715,185385,197,104960
28.720,185387,194,104963
28.725,185408,201,104971
28.730,185456,198,104982
28.735,185453,201,104971
28.740,185459,197,104980
28.745,185489,194,104981
28.750,185489,192,104993
28.755,185516,199,104987
28.760,185524,197,104995
28.765,185547,195,104996
28.770,185561,193,105000
28.775,185585,201,105002
28.780,185583,198,105019
28.785,185606,197,105011
28.790,185608,194,105020
28.795,185620,192,105020
28.799,185646,201,105029
28.804,185667,198,105018
28.809,185670,195,105020
28.814,185706,191,105030
28.819,185694,199,105038
28.824,185700,195,105034
28.829,185701,194,105005
28.834,185684,192,105038
28.839,185659,199,105037
28.844,185628,196,105033
28.849,185587,193,105028
28.854,185541,200,105017
28.859,185482,197,105009
28.864,185426,195,104985
28.869,185370,191,104985
28.874,185305,199,104954
28.879,185295,199,104951
28.884,185213,199,104942
28.889,185157,196,104910
28.894,185121,193,104907
28.899,185077,201,104902
28.904,185046,198,104901
28.909,185020,194,104882
28.914,184961,192,104884
28.919,184957,198,104873
28.924,184932,195,104867
28.929,184917,197,104870
28.934,184896,194,104862
28.939,184886,191,104845
28.944,184877,198,104847
28.948,184863,194,104844
28.953,184850,192,104836
28.958,184844,200,104846
28.963,184849,198,104838
28.968,184845,194,104841
28.973,184842,192,104831
28.978,184829,194,104831
28.983,184828,193,104837
28.988,184820,191,104828
28.993,184829,200,104829
28.998,184811,198,104828
29.003,184805,195,104812
29.008,184804,192,104842
29.013,184805,200,104816
29.018,184785,197,104824
29.023,184792,195,104818
29.028,184801,196,104822
29.033,184793,194,104828
29.038,184795,192,104817
29.043,184817,199,104829
29.048,184837,196,104817
29.053,184830,193,104831
29.058,184854,191,104823
29.063,184848,198,104821
29.068,184862,195,104825
29.073,184845,192,104822
29.078,184843,194,104828
29.083,184850,191,104824
29.088,184846,198,104821
29.092,184852,195,104820
29.097,184838,191,104832
29.102,184839,199,104836
29.107,184856,195,104834
29.112,184860,193,104824
29.117,184830,200,104831
29.122,184851,200,104825
29.127,184831,198,104824
29.132,184827,195,104826
29.137,184828,190,104821
29.142,184835,198,104827
29.147,184831,195,104818
29.152,184838,192,104816
29.157,184818,199,104833
29.162,184840,197,104827
29.167,184827,194,104821
29.172,184806,198,104819
29.177,184819,201,104814
29.182,184823,199,104815
29.187,184826,195,104824
29.192,184845,193,104823
