df_hash,22ZHK4.Z5RDGQ
device,HZ2X61
project_hash,29R7
project_name,istanbul_aydin_university
person_hash,29R7.F750
person_label,V82(2)
date_time_start,2025-11-03_16-41-10.212000_+03
date_time_start_unix,1762173670.212
date_time_end,2025-11-03_16-49-55.970000_+03
length_difference_noticed,no

time,ppg_med
5.540,530
5.565,609
5.590,735
5.615,803
5.640,776
5.665,748
5.690,821
5.715,955
5.740,1006
5.765,923
5.790,836
5.815,882
5.840,1006
5.865,1014
5.890,837
5.915,651
5.940,641
5.965,734
5.990,667
6.015,353
6.040,24
6.065,-67
6.090,-24
6.115,-190
6.140,-679
6.165,-1182
6.190,-1371
6.215,-1377
6.240,-1649
6.265,-2330
6.290,-3017
6.315,-3289
6.340,-3313
6.365,-3663
6.390,-4521
6.415,-5369
6.440,-5669
6.465,-5635
6.490,-5994
6.515,-6972
6.540,-7914
6.565,-8140
6.590,-7923
6.615,-8173
6.640,-9174
6.665,-10102
6.690,-10108
6.715,-9533
6.740,-9517
6.765,-10411
6.790,-11190
6.815,-10795
6.840,-9652
6.865,-9184
6.890,-9833
6.915,-10322
6.940,-9328
6.965,-7388
6.990,-6281
7.015,-6570
7.040,-6655
7.065,-4878
7.090,-1909
7.115,-1
7.140,124
7.165,485
7.190,3200
7.215,7420
7.240,10246
7.265,10721
7.290,11449
7.315,15213
7.340,20928
7.365,24734
7.390,25293
7.415,26096
7.440,31012
7.465,32767
7.490,32767
7.515,32767
7.540,32767
7.565,32767
7.590,32767
7.615,32767
7.640,32767
7.665,32767
7.690,32767
7.715,32767
7.740,32767
7.765,32767
7.790,13844
7.815,-32768
7.840,-32768
7.865,-32768
7.890,-32768
7.915,-32768
7.940,-32768
7.965,-32768
7.990,-32768
8.015,-32768
8.040,-32768
8.065,-32768
8.090,-32768
8.115,-32768
8.140,-32768
8.165,-27159
8.190,-25021
8.215,-25014
8.240,-22693
8.265,-17367
8.290,-12527
8.315,-10839
8.340,-10783
8.365,-9103
8.390,-5218
8.415,-1666
8.440,-416
8.465,-319
8.490,1063
8.515,4080
8.540,6671
8.565,7267
8.590,6816
8.615,7324
8.640,9142
8.665,10668
8.690,10658
8.715,9855
8.740,9847
8.765,10898
8.790,11708
8.815,11270
8.840,10184
8.865,9741
8.890,10167
8.915,10422
8.940,9706
8.965,8506
8.990,7856
9.015,7918
9.040,7847
9.065,7015
9.090,5874
9.115,5317
9.140,5494
9.165,5663
9.190,5204
9.215,4370
9.240,3838
9.265,3774
9.290,3677
9.315,3123
9.340,2341
9.365,1862
9.390,1802
9.415,1750
9.440,1356
9.465,778
9.490,419
9.515,367
9.540,312
9.565,-4
9.590,-451
9.615,-714
9.640,-727
9.665,-740
9.690,-962
9.715,-1279
9.740,-1404
9.765,-1231
9.790,-933
9.815,-723
9.840,-630
9.865,-537
9.890,-390
9.915,-268
9.940,-252
9.965,-299
9.990,-298
10.015,-210
10.040,-106
10.065,-63
10.090,-71
10.115,-62
10.140,-12
10.165,29
10.190,10
10.215,-54
10.240,-102
10.265,-104
10.290,-97
10.315,-138
10.340,-227
10.365,-329
10.390,-415
10.415,-391
10.440,-222
10.465,35
10.490,277
10.515,425
10.540,481
10.565,499
10.590,518
10.615,536
10.640,531
10.665,503
10.690,482
10.715,489
10.740,512
10.765,512
10.790,469
10.815,402
10.840,339
10.865,287
10.890,225
10.915,137
10.940,36
10.965,-46
10.990,-105
11.015,-171
11.040,-278
11.065,-405
11.090,-478
11.115,-419
11.140,-220
11.165,45
11.190,275
11.215,412
11.240,469
11.265,490
11.290,505
11.315,513
11.340,503
11.365,485
11.390,481
11.415,499
11.440,524
11.465,525
11.490,490
11.515,429
11.540,365
11.565,307
11.590,246
11.615,170
11.640,82
11.665,0
11.690,-67
11.715,-130
11.740,-215
11.765,-327
11.790,-425
11.815,-436
11.840,-311
11.865,-75
11.890,185
11.915,379
11.940,470
11.965,491
11.990,494
12.015,502
12.040,503
12.065,486
12.090,466
12.115,468
12.140,494
12.165,510
12.190,487
12.215,429
12.240,367
12.265,318
12.290,267
12.315,191
12.340,95
12.365,7
12.390,-57
12.415,-124
12.440,-223
12.465,-339
12.490,-393
12.515,-314
12.540,-106
12.565,143
12.590,335
12.615,428
12.640,452
12.665,453
12.690,446
12.715,422
12.740,386
12.765,364
12.790,375
12.815,406
12.840,419
12.865,394
12.890,345
12.915,296
12.940,249
12.965,189
12.990,114
13.015,36
13.040,-32
13.065,-108
13.090,-209
13.115,-314
13.140,-353
13.165,-256
13.190,-29
13.215,236
13.240,434
13.265,520
13.290,535
13.315,536
13.340,543
13.365,535
13.390,497
13.415,455
13.440,445
13.465,469
13.490,488
13.515,463
13.540,397
13.565,326
13.590,275
13.615,229
13.640,159
13.665,62
13.690,-35
13.715,-112
13.740,-184
13.765,-283
13.790,-402
13.815,-479
13.840,-430
13.865,-233
13.890,48
13.915,302
13.940,452
13.965,501
13.990,502
14.015,502
14.040,506
14.065,497
14.090,474
14.115,457
14.140,465
14.165,486
14.190,487
14.215,451
14.240,390
14.265,331
14.290,280
14.315,219
14.340,132
14.365,30
14.390,-55
14.415,-120
14.440,-195
14.465,-305
14.490,-419
14.515,-451
14.540,-329
14.565,-72
14.590,219
14.615,433
14.640,532
14.665,552
14.690,549
14.715,543
14.740,524
14.765,491
14.790,463
14.815,462
14.840,476
14.865,476
14.890,445
14.915,395
14.940,344
14.965,289
14.990,216
15.015,126
15.040,39
15.065,-36
15.090,-121
15.115,-237
15.140,-357
15.165,-401
15.190,-299
15.215,-64
15.240,205
15.265,404
15.290,493
15.315,505
15.340,493
15.365,476
15.390,447
15.415,408
15.440,380
15.465,380
15.490,393
15.515,391
15.540,364
15.565,322
15.590,272
15.615,212
15.640,135
15.665,51
15.690,-24
15.715,-100
15.740,-202
15.765,-328
15.790,-417
15.815,-376
15.840,-173
15.865,121
15.890,382
15.915,524
15.940,559
15.965,555
15.990,554
16.015,546
16.040,511
16.065,462
16.090,438
16.115,452
16.140,469
16.165,451
16.190,395
16.215,329
16.240,272
16.265,209
16.290,118
16.315,9
16.340,-86
16.365,-166
16.390,-260
16.415,-390
16.440,-508
16.465,-516
16.490,-350
16.515,-57
16.540,238
16.565,429
16.590,502
16.615,515
16.640,520
16.665,522
16.690,503
16.715,467
16.740,446
16.765,456
16.790,476
16.815,471
16.840,431
16.865,376
16.890,325
16.915,268
16.940,186
16.965,85
16.990,-5
17.015,-78
17.040,-159
17.065,-279
17.090,-407
17.115,-452
17.140,-334
17.165,-71
17.190,223
17.215,432
17.240,520
17.265,537
17.290,547
17.315,561
17.340,554
17.365,517
17.390,483
17.415,485
17.440,513
17.465,522
17.490,486
17.515,422
17.540,362
17.565,313
17.590,248
17.615,151
17.640,47
17.665,-33
17.690,-96
17.715,-183
17.740,-314
17.765,-432
17.790,-441
17.815,-290
17.840,-29
17.865,227
17.890,393
17.915,460
17.940,471
17.965,466
17.990,451
18.015,424
18.040,394
18.065,379
18.090,383
18.115,387
18.140,375
18.165,345
18.190,304
18.215,254
18.240,191
18.265,122
18.290,54
18.315,-14
18.340,-101
18.365,-209
18.390,-295
18.415,-284
18.440,-136
18.465,107
18.490,343
18.515,487
18.540,532
18.565,527
18.590,516
18.615,503
18.640,473
18.665,435
18.690,418
18.715,432
18.740,450
18.765,438
18.790,390
18.815,330
18.840,273
18.865,211
18.890,126
18.915,30
18.940,-54
18.965,-123
18.990,-207
19.015,-324
19.040,-432
19.065,-440
19.090,-294
19.115,-37
19.140,218
19.165,380
19.190,443
19.215,459
19.240,472
19.265,478
19.290,460
19.315,428
19.340,415
19.365,432
19.390,453
19.415,443
19.440,398
19.465,344
19.490,298
19.515,247
19.540,172
19.565,80
19.590,-1
19.615,-69
19.640,-151
19.665,-267
19.690,-378
19.715,-398
19.740,-267
19.765,-20
19.790,232
19.815,398
19.840,466
19.865,488
19.890,505
19.915,517
19.940,502
19.965,469
19.990,451
20.015,463
20.040,480
20.065,470
20.090,424
20.115,369
20.140,321
20.165,268
20.190,191
20.215,96
20.240,11
20.265,-55
20.290,-132
20.315,-244
20.340,-359
20.365,-389
20.390,-270
20.415,-32
20.440,219
20.465,388
20.490,459
20.515,481
20.540,497
20.565,504
20.590,487
20.615,452
20.640,430
20.665,438
20.690,455
20.715,448
20.740,410
20.765,359
20.790,308
20.815,249
20.840,168
20.865,78
20.890,-1
20.915,-72
20.940,-163
20.965,-281
20.990,-377
21.015,-368
21.040,-215
21.065,31
21.090,261
21.115,398
21.140,444
21.165,452
21.190,455
21.215,449
21.240,426
21.265,397
21.290,388
21.315,402
21.340,413
21.365,394
21.390,349
21.415,295
21.440,242
21.465,180
21.490,104
21.515,23
21.540,-52
21.565,-134
21.590,-239
21.615,-347
21.640,-387
21.665,-295
21.690,-77
21.715,181
21.740,377
21.765,472
21.790,501
21.815,517
21.840,532
21.865,526
21.890,493
21.915,461
21.940,460
21.965,482
21.990,490
22.015,455
22.040,390
22.065,326
22.090,273
22.115,210
22.140,121
22.165,21
22.190,-61
22.215,-127
22.240,-210
22.265,-329
22.290,-444
22.315,-469
22.340,-341
22.365,-92
22.390,174
22.415,363
22.440,453
22.465,489
22.490,521
22.515,553
22.540,563
22.565,543
22.590,522
22.615,527
22.640,551
22.665,559
22.690,524
22.715,457
22.740,389
22.765,328
22.790,258
22.815,162
22.840,53
22.865,-39
22.890,-108
22.915,-181
22.940,-288
22.965,-406
22.990,-459
23.015,-379
23.040,-169
23.065,88
23.090,298
23.115,416
23.140,463
23.165,486
23.190,506
23.215,515
23.240,505
23.265,487
23.290,483
23.315,499
23.340,518
23.365,514
23.390,477
23.415,419
23.440,360
23.465,306
23.490,246
23.515,170
23.540,80
23.565,-6
23.590,-75
23.615,-133
23.640,-207
23.665,-307
23.690,-405
23.715,-432
23.740,-332
23.765,-117
23.790,133
23.815,326
23.840,418
23.865,439
23.890,442
23.915,455
23.940,465
23.965,456
23.990,439
24.015,439
24.040,461
24.065,478
24.090,463
24.115,417
24.140,365
24.165,324
24.190,278
24.215,208
24.240,118
24.265,38
24.290,-18
24.315,-77
24.340,-167
24.365,-271
24.390,-319
24.415,-244
24.440,-51
24.465,177
24.490,349
24.515,429
24.540,446
24.565,446
24.590,441
24.615,423
24.640,392
24.665,369
24.690,372
24.715,390
24.740,394
24.765,371
24.790,331
24.815,289
24.840,241
24.865,177
24.890,98
24.915,25
24.940,-33
24.965,-96
24.990,-189
25.015,-292
25.040,-332
25.065,-246
25.090,-39
25.115,201
25.140,377
25.165,454
25.190,470
25.215,476
25.240,484
25.265,475
25.290,442
25.315,412
25.340,412
25.365,432
25.390,437
25.415,406
25.440,354
25.465,305
25.490,262
25.515,203
25.540,118
25.565,25
25.590,-51
25.615,-123
25.640,-220
25.665,-342
25.690,-424
25.715,-379
25.740,-184
25.765,85
25.790,316
25.815,444
25.840,492
25.865,513
25.890,530
25.915,527
25.940,492
25.965,452
25.990,443
26.015,465
26.040,481
26.065,458
26.090,404
26.115,351
26.140,307
26.165,251
26.190,166
26.215,68
26.240,-14
26.265,-85
26.290,-178
26.315,-302
26.340,-400
26.365,-381
26.390,-205
26.415,65
26.440,312
26.465,456
26.490,506
26.515,519
26.540,527
26.565,522
26.590,492
26.615,455
26.640,440
26.665,452
26.690,463
26.715,447
26.740,406
26.765,359
26.790,309
26.815,243
26.840,154
26.865,62
26.890,-16
26.915,-94
26.940,-199
26.965,-323
26.990,-401
27.015,-351
27.040,-159
27.065,103
27.090,326
27.115,449
27.140,483
27.165,475
27.190,459
27.215,435
27.240,405
27.265,380
27.290,372
27.315,377
27.340,379
27.365,364
27.390,329
27.415,275
27.440,205
27.465,126
27.490,50
27.515,-23
27.540,-110
27.565,-225
27.590,-341
27.615,-389
27.640,-305
27.665,-92
27.690,166
27.715,369
27.740,470
27.765,492
27.790,484
27.815,474
27.840,456
27.865,426
27.890,396
27.915,382
27.940,384
27.965,382
27.990,362
28.015,318
28.040,255
28.065,178
28.090,97
28.115,19
28.140,-56
28.165,-146
28.190,-263
28.215,-376
28.240,-414
28.265,-314
28.290,-86
28.315,178
28.340,377
28.365,474
28.390,503
28.415,516
28.440,528
28.465,522
28.490,494
28.515,470
28.540,475
28.565,501
28.590,510
28.615,482
28.640,430
28.665,379
28.690,336
28.715,282
28.740,208
28.765,122
28.790,36
28.815,-57
28.840,-171
28.865,-279
28.890,-315
28.915,-219
28.940,-1
28.965,254
28.990,448
29.015,539
29.040,557
29.065,550
29.090,540
29.115,518
29.140,479
29.165,440
29.190,426
29.215,439
29.240,451
29.265,434
29.290,383
29.315,319
29.340,260
29.365,205
29.390,136
29.415,45
29.440,-53
29.465,-140
29.490,-210
29.515,-288
29.540,-394
29.565,-511
29.590,-576
29.615,-519
29.640,-328
29.665,-66
29.690,163
29.715,301
29.740,355
29.765,380
29.790,409
29.815,433
29.840,432
29.865,410
29.890,402
29.915,427
29.940,463
29.965,470
29.990,435
30.015,382
30.040,340
30.065,305
30.090,254
30.115,179
30.140,106
30.165,56
30.190,14
30.215,-63
30.240,-180
30.265,-273
30.290,-253
30.315,-90
30.340,147
30.365,356
30.390,477
30.415,524
30.440,540
30.465,545
30.490,527
30.515,484
30.540,444
30.565,435
30.590,453
30.615,463
30.640,441
30.665,396
30.690,348
30.715,303
30.740,244
30.765,166
30.790,84
30.815,13
30.840,-59
30.865,-158
30.890,-271
30.915,-334
30.940,-276
30.965,-92
30.990,137
31.015,318
31.040,405
31.065,424
31.090,421
31.115,415
31.140,398
31.165,369
31.190,348
31.215,350
31.240,367
31.265,373
31.290,351
31.315,308
31.340,255
31.365,197
31.390,132
31.415,65
31.440,-3
31.465,-81
31.490,-181
31.515,-284
31.540,-330
31.565,-257
31.590,-63
31.615,177
31.640,367
31.665,460
31.690,482
31.715,485
31.740,490
31.765,482
31.790,453
31.815,421
31.840,411
31.865,422
31.890,428
31.915,405
31.940,357
31.965,297
31.990,231
32.015,153
32.040,66
32.065,-13
32.090,-86
32.115,-174
32.140,-292
32.165,-401
32.190,-421
32.215,-293
32.240,-47
32.265,211
32.290,389
32.315,467
32.340,492
32.365,507
32.390,515
32.415,497
32.440,460
32.465,436
32.490,442
32.515,457
32.540,447
32.565,402
32.590,346
32.615,296
32.640,241
32.665,162
32.690,64
32.715,-25
32.740,-96
32.765,-176
32.790,-287
32.815,-399
32.840,-430
32.865,-313
32.890,-69
32.915,196
32.940,385
32.965,470
32.990,498
33.015,520
33.040,539
33.065,536
33.090,506
33.115,478
33.140,480
33.165,503
33.190,509
33.215,477
33.240,419
33.265,363
33.290,313
33.315,249
33.340,159
33.365,58
33.390,-27
33.415,-94
33.440,-174
33.465,-286
33.490,-395
33.515,-421
33.540,-305
33.565,-71
33.590,185
33.615,373
33.640,462
33.665,489
33.690,501
33.715,509
33.740,500
33.765,472
33.790,447
33.815,450
33.840,473
33.865,481
33.890,452
33.915,398
33.940,342
33.965,291
33.990,230
34.015,148
34.040,58
34.065,-16
34.090,-81
34.115,-167
34.140,-283
34.165,-380
34.190,-374
34.215,-227
34.240,11
34.265,239
34.290,381
34.315,435
34.340,447
34.365,451
34.390,446
34.415,424
34.440,396
34.465,388
34.490,401
34.515,413
34.540,399
34.565,361
34.590,316
34.615,272
34.640,216
34.665,141
34.690,57
34.715,-18
34.740,-90
34.765,-179
34.790,-280
34.815,-340
34.840,-291
34.865,-118
34.890,112
34.915,307
34.940,416
34.965,455
34.990,471
35.015,482
35.040,475
35.065,445
35.090,413
35.115,410
35.140,433
35.165,449
35.190,429
35.215,379
35.240,322
35.265,270
35.290,208
35.315,127
35.340,38
35.365,-36
35.390,-102
35.415,-185
35.440,-294
35.465,-386
35.490,-384
35.515,-247
35.540,-16
35.565,213
35.590,365
35.615,432
35.640,458
35.665,481
35.690,501
35.715,499
35.740,477
35.765,459
35.790,468
35.815,491
35.840,496
35.865,461
35.890,402
35.915,346
35.940,299
35.965,245
35.990,165
36.015,72
36.040,-7
36.065,-66
36.090,-131
36.115,-232
36.140,-350
36.165,-414
36.190,-356
36.215,-171
36.240,71
36.265,281
36.290,413
36.315,476
36.340,507
36.365,526
36.390,534
36.415,529
36.440,522
36.465,524
36.490,537
36.515,548
36.540,543
36.565,518
36.590,476
36.615,421
36.640,360
36.665,296
36.690,228
36.715,150
36.740,61
36.765,-29
36.790,-104
36.815,-164
36.840,-232
36.865,-330
36.890,-440
36.915,-489
36.940,-409
36.965,-198
36.990,61
37.015,267
37.040,371
37.065,400
37.090,408
37.115,419
37.140,421
37.165,405
37.190,386
37.215,388
37.240,411
37.265,426
37.290,415
37.315,378
37.340,333
37.365,285
37.390,226
37.415,155
37.440,84
37.465,19
37.490,-54
37.515,-147
37.540,-231
37.565,-240
37.590,-124
37.615,91
37.640,315
37.665,462
37.690,517
37.715,524
37.740,524
37.765,519
37.790,491
37.815,445
37.840,415
37.865,422
37.890,446
37.915,444
37.940,399
37.965,336
37.990,280
38.015,227
38.040,154
38.065,58
38.090,-34
38.115,-105
38.140,-177
38.165,-281
38.190,-403
38.215,-465
38.240,-386
38.265,-166
38.290,102
38.315,311
38.340,416
38.365,453
38.390,473
38.415,489
38.440,481
38.465,446
38.490,414
38.515,414
38.540,436
38.565,446
38.590,424
38.615,379
38.640,333
38.665,284
38.690,216
38.715,128
38.740,43
38.765,-27
38.790,-103
38.815,-211
38.840,-328
38.865,-375
38.890,-279
38.915,-54
38.940,205
38.965,394
38.990,480
39.015,503
39.040,513
39.065,520
39.090,505
39.115,470
39.140,444
39.165,445
39.190,461
39.215,459
39.240,426
39.265,377
39.290,327
39.315,270
39.340,193
39.365,102
39.390,19
39.415,-50
39.440,-133
39.465,-248
39.490,-362
39.515,-393
39.540,-283
39.565,-54
39.590,195
39.615,375
39.640,457
39.665,473
39.690,464
39.715,444
39.740,415
39.765,384
39.790,367
39.815,368
39.840,374
39.865,367
39.890,341
39.915,300
39.940,246
39.965,180
39.990,112
40.015,51
40.040,-12
40.065,-99
40.090,-215
40.115,-314
40.140,-318
40.165,-184
40.190,48
40.215,284
40.240,441
40.265,507
40.290,522
40.315,520
40.340,505
40.365,472
40.390,432
40.415,409
40.440,411
40.465,419
40.490,408
40.515,370
40.540,317
40.565,253
40.590,180
40.615,100
40.640,21
40.665,-55
40.690,-148
40.715,-266
40.740,-374
40.765,-395
40.790,-277
40.815,-45
40.840,203
40.865,378
40.890,456
40.915,478
40.940,487
40.965,491
40.990,476
41.015,446
41.040,426
41.065,427
41.090,436
41.115,427
41.140,395
41.165,351
41.190,302
41.215,240
41.240,159
41.265,73
41.290,-1
41.315,-76
41.340,-175
41.365,-290
41.390,-360
41.415,-311
41.440,-127
41.465,120
41.490,328
41.515,440
41.540,474
41.565,477
41.590,473
41.615,459
41.640,432
41.665,411
41.690,410
41.715,422
41.740,420
41.765,393
41.790,349
41.815,300
41.840,246
41.865,178
41.890,100
41.915,25
41.940,-49
41.965,-140
41.990,-248
42.015,-326
42.040,-303
42.065,-149
42.090,84
42.115,299
42.140,423
42.165,455
42.190,442
42.215,426
42.240,415
42.265,399
42.290,381
42.315,372
42.340,375
42.365,379
42.390,368
42.415,334
42.440,280
42.465,214
42.490,143
42.515,75
42.540,10
42.565,-66
42.590,-168
42.615,-277
42.640,-332
42.665,-272
42.690,-91
42.715,143
42.740,339
42.765,445
42.790,476
42.815,480
42.840,479
42.865,469
42.890,445
42.915,420
42.940,414
42.965,423
42.990,423
43.015,395
43.040,342
43.065,279
43.090,214
43.115,147
43.140,74
43.165,0
43.190,-83
43.215,-185
43.240,-300
43.265,-377
43.290,-351
43.315,-194
43.340,43
43.365,263
43.390,398
43.415,450
43.440,470
43.465,488
43.490,498
43.515,481
43.540,449
43.565,435
43.590,450
43.615,469
43.640,458
43.665,411
43.690,353
43.715,301
43.740,246
43.765,170
43.790,79
43.815,-5
43.840,-77
43.865,-159
43.890,-266
43.915,-361
43.940,-368
43.965,-237
43.990,-5
44.015,228
44.040,381
44.065,445
44.090,467
44.115,488
44.140,503
44.165,496
44.190,470
44.215,455
44.240,468
44.265,489
44.290,483
44.315,441
44.340,385
44.365,334
44.390,282
44.415,209
44.440,119
44.465,34
44.490,-29
44.515,-95
44.540,-192
44.565,-306
44.590,-369
44.615,-312
44.640,-132
44.665,94
44.690,276
44.715,374
44.740,407
44.765,415
44.790,414
44.815,400
44.840,379
44.865,366
44.890,373
44.915,388
44.940,387
44.965,362
44.990,322
45.015,278
45.040,227
45.065,165
45.090,97
45.115,32
45.140,-33
45.165,-120
45.190,-223
45.215,-293
45.240,-264
45.265,-112
45.290,110
45.315,309
45.340,425
45.365,465
45.390,475
45.415,482
45.440,478
45.465,455
45.490,427
45.515,418
45.540,432
45.565,440
45.590,416
45.615,365
45.640,308
45.665,254
45.690,190
45.715,108
45.740,22
45.765,-50
45.790,-118
45.815,-208
45.840,-320
45.865,-399
45.890,-366
45.915,-196
45.940,46
45.965,255
45.990,372
46.015,415
46.040,440
46.065,469
46.090,484
46.115,466
46.140,437
46.165,431
46.190,456
46.215,478
46.240,463
46.265,413
46.290,358
46.315,315
46.340,268
46.365,195
46.390,103
46.415,23
46.440,-33
46.465,-93
46.490,-188
46.515,-301
46.540,-360
46.565,-297
46.590,-111
46.615,125
46.640,322
46.665,437
46.690,485
46.715,502
46.740,511
46.765,512
46.790,502
46.815,491
46.840,493
46.865,508
46.890,522
46.915,516
46.940,482
46.965,426
46.990,363
47.015,303
47.040,245
47.065,178
47.090,97
47.115,11
47.140,-62
47.165,-122
47.190,-186
47.215,-277
47.240,-379
47.265,-430
47.290,-361
47.315,-166
47.340,82
47.365,287
47.390,391
47.415,416
47.440,413
47.465,413
47.490,407
47.515,385
47.540,362
47.565,365
47.590,396
47.615,422
47.640,413
47.665,370
47.690,320
47.715,278
47.740,233
47.765,170
47.790,94
47.815,25
47.840,-34
47.865,-105
47.890,-197
47.915,-270
47.940,-251
47.965,-104
47.990,124
48.015,336
48.040,459
48.065,496
48.090,498
48.115,497
48.140,489
48.165,460
48.190,423
48.215,410
48.240,429
48.265,451
48.290,439
48.315,390
48.340,333
48.365,286
48.390,237
48.415,164
48.440,70
48.465,-17
48.490,-84
48.515,-157
48.540,-263
48.565,-378
48.590,-423
48.615,-327
48.640,-105
48.665,150
48.690,339
48.715,432
48.740,461
48.765,470
48.790,470
48.815,451
48.840,420
48.865,402
48.890,412
48.915,433
48.940,435
48.965,408
48.990,365
49.015,318
49.040,263
49.065,191
49.090,108
49.115,34
49.140,-33
49.165,-120
49.190,-236
49.215,-336
49.240,-337
49.265,-193
49.290,53
49.315,298
49.340,457
49.365,519
49.390,528
49.415,522
49.440,508
49.465,477
49.490,441
49.515,423
49.540,431
49.565,444
49.590,438
49.615,409
49.640,365
49.665,311
49.690,242
49.715,160
49.740,79
49.765,7
49.790,-70
49.815,-176
49.840,-297
49.865,-366
49.890,-311
49.915,-120
49.940,134
49.965,349
49.990,462
50.015,483
50.040,459
50.065,428
50.090,395
50.115,359
50.140,326
50.165,310
50.190,311
50.215,315
50.240,302
50.265,261
50.290,201
50.315,135
50.340,78
50.365,30
50.390,-23
50.415,-104
50.440,-212
50.465,-304
50.490,-313
50.515,-195
50.540,28
50.565,277
50.590,464
50.615,548
50.640,550
50.665,518
50.690,485
50.715,458
50.740,431
50.765,404
50.790,390
50.815,393
50.840,400
50.865,386
50.890,332
50.915,246
50.940,156
50.965,79
50.990,6
51.015,-90
51.040,-222
51.065,-347
51.090,-390
51.115,-297
51.140,-81
51.165,176
51.190,382
51.215,490
51.240,514
51.265,496
51.290,469
51.315,441
51.340,414
51.365,391
51.390,379
51.415,378
51.440,377
51.465,360
51.490,316
51.515,245
51.540,162
51.565,85
51.590,19
51.615,-51
51.640,-155
51.665,-284
51.690,-384
51.715,-377
51.740,-226
51.765,22
51.790,271
51.815,441
51.840,515
51.865,529
51.890,524
51.915,512
51.940,493
51.965,471
51.990,458
52.015,459
52.040,462
52.065,449
52.090,414
52.115,359
52.140,288
52.165,206
52.190,122
52.215,47
52.240,-23
52.265,-113
52.290,-232
52.315,-345
52.340,-377
52.365,-273
52.390,-52
52.415,197
52.440,383
52.465,470
52.490,485
52.515,473
52.540,458
52.565,440
52.590,418
52.615,401
52.640,397
52.665,400
52.690,395
52.715,369
52.740,321
52.765,259
52.790,191
52.815,127
52.840,64
52.865,-9
52.890,-110
52.915,-224
52.940,-303
52.965,-285
52.990,-146
53.015,71
53.040,280
53.065,413
53.090,458
53.115,451
53.140,431
53.165,412
53.190,390
53.215,367
53.240,351
53.265,347
53.290,350
53.315,345
53.340,322
53.365,275
53.390,209
53.415,135
53.440,67
53.465,5
53.490,-66
53.515,-163
53.540,-264
53.565,-307
53.590,-233
53.615,-44
53.640,185
53.665,364
53.690,451
53.715,471
53.740,468
53.765,464
53.790,448
53.815,418
53.840,393
53.865,395
53.890,413
53.915,417
53.940,389
53.965,336
53.990,277
54.015,218
54.040,151
54.065,76
54.090,3
54.115,-69
54.140,-160
54.165,-272
54.190,-360
54.215,-350
54.240,-204
54.265,32
54.290,255
54.315,388
54.340,435
54.365,448
54.390,460
54.415,466
54.440,446
54.465,415
54.490,402
54.515,417
54.540,432
54.565,420
54.590,379
54.615,331
54.640,285
54.665,229
54.690,155
54.715,76
54.740,7
54.765,-61
54.790,-157
54.815,-272
54.840,-345
54.865,-296
54.890,-111
54.915,133
54.940,334
54.965,439
54.990,471
55.015,479
55.040,484
55.065,475
55.090,448
55.115,426
55.140,427
55.165,443
55.190,444
55.215,417
55.240,374
55.265,329
55.290,278
55.315,209
55.340,127
55.365,52
55.390,-10
55.415,-84
55.440,-191
55.465,-302
55.490,-342
55.515,-252
55.540,-48
55.565,182
55.590,351
55.615,428
55.640,438
55.665,422
55.690,400
55.715,373
55.740,349
55.765,336
55.790,339
55.815,345
55.840,342
55.865,320
55.890,279
55.915,222
55.940,156
55.965,93
55.990,39
56.015,-19
56.040,-108
56.065,-220
56.090,-301
56.115,-277
56.140,-118
56.165,121
56.190,344
56.215,482
56.240,533
56.265,539
56.290,529
56.315,505
56.340,466
56.365,431
56.390,421
56.415,433
56.440,439
56.465,417
56.490,368
56.515,310
56.540,247
56.565,174
56.590,89
56.615,7
56.640,-70
56.665,-160
56.690,-277
56.715,-384
56.740,-402
56.765,-275
56.790,-31
56.815,226
56.840,400
56.865,470
56.890,483
56.915,486
56.940,484
56.965,461
56.990,424
57.015,406
57.040,419
57.065,441
57.090,435
57.115,393
57.140,337
57.165,283
57.190,224
57.215,145
57.240,55
57.265,-24
57.290,-95
57.315,-183
57.340,-299
57.365,-389
57.390,-363
57.415,-184
57.440,85
57.465,327
57.490,461
57.515,500
57.540,505
57.565,509
57.590,501
57.615,469
57.640,434
57.665,429
57.690,454
57.715,471
57.740,448
57.765,392
57.790,337
57.815,292
57.840,234
57.865,147
57.890,50
57.915,-27
57.940,-90
57.965,-175
57.990,-296
58.015,-399
58.040,-393
58.065,-236
58.090,15
58.115,252
58.140,398
58.165,452
58.190,458
58.215,448
58.240,429
58.265,401
58.290,380
58.315,383
58.340,405
58.365,421
58.390,415
58.415,387
58.440,343
58.465,284
58.490,211
58.515,135
58.540,69
58.565,6
58.590,-77
58.615,-189
58.640,-285
58.665,-289
58.690,-159
58.715,66
58.740,295
58.765,445
58.790,500
58.815,494
58.840,467
58.865,437
58.890,406
58.915,380
58.940,367
58.965,367
58.990,370
59.015,362
59.040,336
59.065,290
59.090,226
59.115,153
59.140,84
59.165,20
59.190,-52
59.215,-154
59.240,-268
59.265,-334
59.290,-284
59.315,-106
59.340,137
59.365,347
59.390,462
59.415,490
59.440,477
59.465,458
59.490,439
59.515,416
59.540,395
59.565,386
59.590,388
59.615,385
59.640,364
59.665,322
59.690,263
59.715,194
59.740,121
59.765,52
59.790,-12
59.815,-92
59.840,-200
59.865,-313
59.890,-366
59.915,-292
59.940,-89
59.965,163
59.990,366
60.015,469
60.040,496
60.065,492
60.090,480
60.115,457
60.140,422
60.165,395
60.190,391
60.215,403
60.240,404
60.265,380
60.290,337
60.315,286
60.340,226
60.365,150
60.390,67
60.415,-7
60.440,-80
60.465,-173
60.490,-286
60.515,-365
60.540,-327
60.565,-142
60.590,124
60.615,359
60.640,488
60.665,522
60.690,520
60.715,514
60.740,500
60.765,466
60.790,431
60.815,422
60.840,440
60.865,453
60.890,433
60.915,386
60.940,333
60.965,280
60.990,214
61.015,131
61.040,47
61.065,-21
61.090,-92
61.115,-190
61.140,-306
61.165,-370
61.190,-303
61.215,-95
61.240,173
61.265,390
61.290,498
61.315,512
61.340,485
61.365,452
61.390,419
61.415,384
61.440,358
61.465,350
61.490,356
61.515,360
61.540,343
61.565,304
61.590,248
61.615,184
61.640,119
61.665,55
61.690,-15
61.715,-108
61.740,-223
61.765,-325
61.790,-347
61.815,-237
61.840,-10
61.865,248
61.890,445
61.915,531
61.940,529
61.965,492
61.990,455
62.015,421
62.040,386
62.065,355
62.090,346
62.115,358
62.140,367
62.165,346
62.190,285
62.215,208
62.240,139
62.265,85
62.290,19
62.315,-83
62.340,-217
62.365,-329
62.390,-345
62.415,-227
62.440,1
62.465,259
62.490,458
62.515,555
62.540,565
62.565,531
62.590,490
62.615,455
62.640,422
62.665,393
62.690,377
62.715,375
62.740,376
62.765,355
62.790,299
62.815,216
62.840,133
62.865,64
62.890,-3
62.915,-101
62.940,-234
62.965,-362
62.990,-411
63.015,-322
63.040,-106
63.065,161
63.090,383
63.115,504
63.140,531
63.165,510
63.190,482
63.215,456
63.240,427
63.265,396
63.290,374
63.315,372
63.340,377
63.365,364
63.390,313
63.415,232
63.440,149
63.465,82
63.490,20
63.515,-68
63.540,-197
63.565,-329
63.590,-389
63.615,-312
63.640,-100
63.665,171
63.690,401
63.715,527
63.740,553
63.765,528
63.790,495
63.815,467
63.840,437
63.865,406
63.890,387
63.915,388
63.940,395
63.965,382
63.990,333
64.015,256
64.040,177
64.065,113
64.090,51
64.115,-35
64.140,-158
64.165,-284
64.190,-346
64.215,-286
64.240,-98
64.265,152
64.290,373
64.315,498
64.340,524
64.365,494
64.390,455
64.415,422
64.440,391
64.465,360
64.490,340
64.515,340
64.540,347
64.565,332
64.590,280
64.615,207
64.640,140
64.665,89
64.690,30
64.715,-62
64.740,-186
64.765,-287
64.790,-295
64.815,-175
64.840,41
64.865,275
64.890,444
64.915,512
64.940,501
64.965,460
64.990,423
65.015,396
65.040,370
65.065,347
65.090,337
65.115,343
65.140,342
65.165,307
65.190,234
65.215,152
65.240,89
65.265,39
65.290,-33
65.315,-150
65.340,-275
65.365,-327
65.390,-248
65.415,-51
65.440,183
65.465,375
65.490,481
65.515,511
65.540,495
65.565,459
65.590,421
65.615,393
65.640,381
65.665,383
65.690,386
65.715,378
65.740,354
65.765,307
65.790,239
65.815,160
65.840,89
65.865,31
65.890,-32
65.915,-130
65.940,-257
65.965,-352
65.990,-335
66.015,-175
66.040,73
66.065,306
66.090,446
66.115,490
66.140,484
66.165,469
66.190,453
66.215,432
66.240,411
66.265,403
66.290,411
66.315,417
66.340,403
66.365,366
66.390,313
66.415,252
66.440,184
66.465,112
66.490,41
66.515,-30
66.540,-121
66.565,-233
66.590,-325
66.615,-330
66.640,-203
66.665,22
66.690,258
66.715,419
66.740,484
66.765,491
66.790,481
66.815,471
66.840,457
66.865,439
66.890,428
66.915,429
66.940,431
66.965,417
66.990,382
67.015,329
67.040,266
67.065,194
67.090,120
67.115,48
67.140,-22
67.165,-111
67.190,-221
67.215,-318
67.240,-332
67.265,-220
67.290,-8
67.315,214
67.340,362
67.365,414
67.390,407
67.415,385
67.440,363
67.465,336
67.490,309
67.515,295
67.540,300
67.565,307
67.590,294
67.615,256
67.640,206
67.665,152
67.690,89
67.715,12
67.740,-70
67.765,-145
67.790,-218
67.815,-304
67.840,-387
67.865,-408
67.890,-301
67.915,-67
67.940,210
67.965,424
67.990,525
68.015,549
68.040,558
68.065,579
68.090,596
68.115,594
68.140,587
68.165,600
68.190,627
68.215,635
68.240,601
68.265,536
68.290,474
68.315,422
68.340,356
68.365,260
68.390,149
68.415,56
68.440,-17
68.465,-108
68.490,-240
68.515,-375
68.540,-424
68.565,-326
68.590,-107
68.615,134
68.640,308
68.665,392
68.690,424
68.715,446
68.740,464
68.765,464
68.790,446
68.815,435
68.840,449
68.865,479
68.890,491
68.915,464
68.940,411
68.965,357
68.990,310
69.015,257
69.040,182
69.065,95
69.090,16
69.115,-45
69.140,-115
69.165,-213
69.190,-324
69.215,-383
69.240,-327
69.265,-150
69.290,79
69.315,273
69.340,384
69.365,428
69.390,449
69.415,469
69.440,479
69.465,465
69.490,437
69.515,416
69.540,412
69.565,413
69.590,400
69.615,370
69.640,330
69.665,284
69.690,223
69.715,147
69.740,68
69.765,3
69.790,-52
69.815,-129
69.840,-240
69.865,-351
69.890,-387
69.915,-297
69.940,-100
69.965,127
69.990,303
70.015,390
70.040,404
70.065,380
70.090,349
70.115,326
70.140,317
70.165,320
70.190,323
70.215,315
70.240,293
70.265,260
70.290,216
70.315,159
70.340,89
70.365,20
70.390,-36
70.415,-86
70.440,-152
70.465,-243
70.490,-323
70.515,-324
70.540,-201
70.565,26
70.590,278
70.615,472
70.640,576
70.665,612
70.690,620
70.715,620
70.740,609
70.765,584
70.790,558
70.815,544
70.840,542
70.865,532
70.890,492
70.915,415
70.940,322
70.965,237
70.990,170
71.015,101
71.040,5
71.065,-124
71.090,-248
71.115,-300
71.140,-235
71.165,-65
71.190,143
71.215,315
71.240,411
71.265,439
71.290,431
71.315,414
71.340,396
71.365,375
71.390,353
71.415,338
71.440,333
71.465,332
71.490,319
71.515,279
71.540,212
71.565,137
71.590,73
71.615,22
71.640,-42
71.665,-143
71.690,-264
71.715,-340
71.740,-305
71.765,-146
71.790,77
71.815,279
71.840,406
71.865,462
71.890,481
71.915,487
71.940,481
71.965,464
71.990,443
72.015,430
72.040,426
72.065,419
72.090,400
72.115,364
72.140,313
72.165,243
72.190,162
72.215,82
72.240,12
72.265,-58
72.290,-156
72.315,-274
72.340,-361
72.365,-344
72.390,-197
72.415,28
72.440,240
72.465,373
72.490,422
72.515,426
72.540,415
72.565,397
72.590,375
72.615,357
72.640,353
72.665,358
72.690,358
72.715,345
72.740,324
72.765,300
72.790,269
72.815,223
72.840,165
72.865,105
72.890,39
72.915,-46
72.940,-152
72.965,-231
72.990,-216
73.015,-80
73.040,133
73.065,333
73.090,452
73.115,487
73.140,476
73.165,452
73.190,424
73.215,392
73.240,363
73.265,350
73.290,350
73.315,346
73.340,326
73.365,289
73.390,239
73.415,179
73.440,109
73.465,38
73.490,-30
73.515,-105
73.540,-200
73.565,-303
73.590,-357
73.615,-297
73.640,-109
73.665,138
73.690,345
73.715,453
73.740,482
73.765,485
73.790,490
73.815,485
73.840,458
73.865,426
73.890,417
73.915,432
73.940,441
73.965,414
73.990,358
74.015,297
74.040,239
74.065,173
74.090,91
74.115,6
74.140,-64
74.165,-134
74.190,-233
74.215,-357
74.240,-439
74.265,-392
74.290,-193
74.315,82
74.340,319
74.365,449
74.390,491
74.415,503
74.440,514
74.465,513
74.490,487
74.515,454
74.540,448
74.565,472
74.590,493
74.615,476
74.640,421
74.665,360
74.690,311
74.715,262
74.740,188
74.765,90
74.790,-3
74.815,-73
74.840,-136
74.865,-227
74.890,-342
74.915,-418
74.940,-377
74.965,-196
74.990,64
75.015,298
75.040,440
75.065,494
75.090,509
75.115,518
75.140,521
75.165,505
75.190,480
75.215,472
75.240,489
75.265,508
75.290,496
75.315,448
75.340,387
75.365,334
75.390,283
75.415,210
75.440,112
75.465,15
75.490,-58
75.515,-124
75.540,-217
75.565,-336
75.590,-418
75.615,-380
75.640,-195
75.665,66
75.690,297
75.715,428
75.740,471
75.765,471
75.790,461
75.815,439
75.840,404
75.865,374
75.890,370
75.915,388
75.940,399
75.965,381
75.990,342
76.015,300
76.040,256
76.065,196
76.090,117
76.115,39
76.140,-22
76.165,-81
76.190,-170
76.215,-284
76.240,-357
76.265,-307
76.290,-117
76.315,140
76.340,357
76.365,472
76.390,502
76.415,498
76.440,486
76.465,464
76.490,428
76.515,398
76.540,394
76.565,411
76.590,420
76.615,401
76.640,356
76.665,303
76.690,243
76.715,170
76.740,88
76.765,11
76.790,-56
76.815,-137
76.840,-245
76.865,-349
76.890,-370
76.915,-249
76.940,-8
76.965,251
76.990,430
77.015,500
77.040,508
77.065,504
77.090,502
77.115,482
77.140,444
77.165,417
77.190,424
77.215,450
77.240,455
77.265,418
77.290,357
77.315,299
77.340,250
77.365,190
77.390,107
77.415,15
77.440,-63
77.465,-135
77.490,-227
77.515,-345
77.540,-438
77.565,-425
77.590,-265
77.615,-3
77.640,256
77.665,428
77.690,498
77.715,508
77.740,505
77.765,502
77.790,486
77.815,458
77.840,438
77.865,449
77.890,479
77.915,495
77.940,470
77.965,414
77.990,353
78.015,301
78.040,245
78.065,165
78.090,66
78.115,-23
78.140,-92
78.165,-162
78.190,-264
78.215,-381
78.240,-438
78.265,-357
78.290,-134
78.315,145
78.340,372
78.365,490
78.390,521
78.415,515
78.440,499
78.465,472
78.490,435
78.515,409
78.540,411
78.565,432
78.590,442
78.615,424
78.640,385
78.665,341
78.690,291
78.715,223
78.740,138
78.765,57
78.790,-10
78.815,-85
78.840,-190
78.865,-303
78.890,-348
78.915,-258
78.940,-41
78.965,215
78.990,409
79.015,501
79.040,516
79.065,497
79.090,463
79.115,414
79.140,363
79.165,331
79.190,331
79.215,347
79.240,353
79.265,336
79.290,299
79.315,247
79.340,180
79.365,104
79.390,30
79.415,-38
79.440,-118
79.465,-227
79.490,-345
79.515,-400
79.540,-319
79.565,-100
79.590,174
79.615,395
79.640,507
79.665,529
79.690,508
79.715,477
79.740,440
79.765,401
79.790,373
79.815,364
79.840,368
79.865,367
79.890,351
79.915,320
79.940,276
79.965,216
79.990,144
80.015,69
80.040,-4
80.065,-93
80.090,-210
80.115,-324
80.140,-360
80.165,-253
80.190,-14
80.215,260
80.240,463
80.265,552
80.290,562
80.315,547
80.340,526
80.365,491
80.390,445
80.415,412
80.440,412
80.465,427
80.490,426
80.515,395
80.540,345
80.565,290
80.590,225
80.615,140
80.640,44
80.665,-39
80.690,-116
80.715,-215
80.740,-347
80.765,-456
80.790,-447
80.815,-270
80.840,17
80.865,293
80.890,464
80.915,526
80.940,533
80.965,525
80.990,503
81.015,460
81.040,416
81.065,400
81.090,414
81.115,431
81.140,421
81.165,384
81.190,336
81.215,282
81.240,210
81.265,122
81.290,36
81.315,-34
81.340,-110
81.365,-219
81.390,-347
81.415,-416
81.440,-342
81.465,-118
81.490,170
81.515,406
81.540,531
81.565,560
81.590,545
81.615,518
81.640,482
81.665,442
81.690,412
81.715,406
81.740,415
81.765,419
81.790,402
81.815,363
81.840,308
81.865,241
81.890,165
81.915,90
81.940,17
81.965,-65
81.990,-174
82.015,-292
82.040,-354
82.065,-294
82.090,-96
82.115,171
82.140,403
82.165,525
82.190,540
82.215,497
82.240,443
82.265,397
82.290,356
82.315,322
82.340,306
82.365,312
82.390,324
82.415,315
82.440,271
82.465,201
82.490,128
82.515,69
82.540,18
82.565,-51
82.590,-156
82.615,-277
82.640,-354
82.665,-321
82.690,-154
82.715,96
82.740,335
82.765,484
82.790,526
82.815,501
82.840,461
82.865,429
82.890,401
82.915,370
82.940,347
82.965,344
82.990,357
83.015,356
83.040,316
83.065,242
83.090,165
83.115,107
83.140,57
83.165,-19
83.190,-137
83.215,-262
83.240,-323
83.265,-263
83.290,-82
83.315,155
83.340,367
83.365,494
83.390,531
83.415,511
83.440,474
83.465,439
83.490,409
83.515,381
83.540,361
83.565,357
83.590,365
83.615,362
83.640,324
83.665,246
83.690,157
83.715,84
83.740,32
83.765,-33
83.790,-139
83.815,-265
83.840,-343
83.865,-301
83.890,-126
83.915,119
83.940,340
83.965,476
83.990,521
84.015,512
84.040,484
84.065,452
84.090,421
84.115,398
84.140,388
84.165,390
84.190,394
84.215,382
84.240,348
84.265,290
84.290,219
84.315,147
84.340,82
84.365,16
84.390,-68
84.415,-183
84.440,-298
84.465,-352
84.490,-283
84.515,-88
84.540,165
84.565,381
84.590,497
84.615,519
84.640,495
84.665,466
84.690,443
84.715,419
84.740,393
84.765,379
84.790,383
84.815,392
84.840,379
84.865,330
84.890,257
84.915,184
84.940,124
84.965,70
84.990,-3
85.015,-110
85.040,-232
85.065,-314
85.090,-297
85.115,-157
85.140,68
85.165,297
85.190,450
85.215,496
85.240,467
85.265,416
85.290,377
85.315,352
85.340,330
85.365,312
85.390,310
85.415,321
85.440,321
85.465,287
85.490,217
85.515,142
85.540,84
85.565,36
85.590,-36
85.615,-151
85.640,-273
85.665,-330
85.690,-261
85.715,-69
85.740,178
85.765,393
85.790,516
85.815,546
85.840,517
85.865,473
85.890,438
85.915,413
85.940,391
85.965,373
85.990,365
86.015,365
86.040,357
86.065,315
86.090,236
86.115,145
86.140,72
86.165,19
86.190,-45
86.215,-156
86.240,-298
86.265,-396
86.290,-370
86.315,-197
86.340,62
86.365,307
86.390,463
86.415,520
86.440,514
86.465,488
86.490,461
86.515,437
86.540,416
86.565,400
86.590,397
86.615,400
86.640,394
86.665,360
86.690,290
86.715,198
86.740,111
86.765,43
86.790,-21
86.815,-114
86.840,-245
86.865,-365
86.890,-395
86.915,-282
86.940,-50
86.965,212
86.990,411
87.015,509
87.040,525
87.065,507
87.090,483
87.115,462
87.140,443
87.165,429
87.190,422
87.215,421
87.240,415
87.265,389
87.290,335
87.315,257
87.340,170
87.365,91
87.390,25
87.415,-46
87.440,-148
87.465,-273
87.490,-367
87.515,-354
87.540,-203
87.565,41
87.590,287
87.615,452
87.640,517
87.665,517
87.690,493
87.715,467
87.740,444
87.765,424
87.790,416
87.815,419
87.840,423
87.865,411
87.890,373
87.915,312
87.940,240
87.965,168
87.990,102
88.015,37
88.040,-45
88.065,-155
88.090,-274
88.115,-343
88.140,-303
88.165,-137
88.190,100
88.215,319
88.240,450
88.265,482
88.290,456
88.315,420
88.340,394
88.365,377
88.390,361
88.415,349
88.440,346
88.465,349
88.490,340
88.515,305
88.540,241
88.565,169
88.590,105
88.615,52
88.640,-11
88.665,-107
88.690,-224
88.715,-308
88.740,-295
88.765,-160
88.790,57
88.815,277
88.840,430
88.865,494
88.890,494
88.915,467
88.940,439
88.965,416
88.990,399
89.015,389
89.040,384
89.065,382
89.090,371
89.115,340
89.140,285
89.165,210
89.190,135
89.215,70
89.240,8
89.265,-76
89.290,-192
89.315,-302
89.340,-334
89.365,-236
89.390,-27
89.415,207
89.440,384
89.465,471
89.490,496
89.515,495
89.540,481
89.565,452
89.590,418
89.615,401
89.640,410
89.665,425
89.690,416
89.715,376
89.740,320
89.765,262
89.790,199
89.815,120
89.840,33
89.865,-46
89.890,-122
89.915,-218
89.940,-337
89.965,-428
89.990,-411
90.015,-249
90.040,4
90.065,245
90.090,396
90.115,457
90.140,472
90.165,474
90.190,464
90.215,440
90.240,417
90.265,414
90.290,430
90.315,438
90.340,420
90.365,378
90.390,326
90.415,266
90.440,193
90.465,112
90.490,38
90.515,-31
90.540,-118
90.565,-232
90.590,-333
90.615,-341
90.640,-207
90.665,33
90.690,278
90.715,441
90.740,508
90.765,521
90.790,519
90.815,508
90.840,481
90.865,452
90.890,441
90.915,452
90.940,460
90.965,439
90.990,391
91.015,334
91.040,276
91.065,209
91.090,127
91.115,43
91.140,-32
91.165,-112
91.190,-218
91.215,-334
91.240,-391
91.265,-318
91.290,-110
91.315,148
91.340,352
91.365,453
91.390,474
91.415,463
91.440,445
91.465,419
91.490,389
91.515,374
91.540,382
91.565,398
91.590,393
91.615,359
91.640,309
91.665,257
91.690,198
91.715,124
91.740,45
91.765,-26
91.790,-96
91.815,-187
91.840,-299
91.865,-377
91.890,-340
91.915,-157
91.940,108
91.965,346
91.990,480
92.015,520
92.040,521
92.065,519
92.090,508
92.115,478
92.140,444
92.165,436
92.190,458
92.215,473
92.240,449
92.265,387
92.290,318
92.315,261
92.340,202
92.365,121
92.390,24
92.415,-61
92.440,-131
92.465,-211
92.490,-324
92.515,-439
92.540,-470
92.565,-353
92.590,-107
92.615,166
92.640,364
92.665,455
92.690,478
92.715,489
92.740,500
92.765,497
92.790,473
92.815,451
92.840,458
92.865,484
92.890,493
92.915,460
92.940,399
92.965,341
92.990,297
93.015,246
93.040,164
93.065,63
93.090,-21
93.115,-79
93.140,-139
93.165,-238
93.190,-362
93.215,-435
93.240,-377
93.265,-177
93.290,89
93.315,320
93.340,462
93.365,525
93.390,548
93.415,555
93.440,549
93.465,534
93.490,525
93.515,533
93.540,550
93.565,557
93.590,543
93.615,511
93.640,472
93.665,424
93.690,363
93.715,292
93.740,218
93.765,145
93.790,65
93.815,-21
93.840,-105
93.865,-172
93.890,-233
93.915,-315
93.940,-426
93.965,-512
93.990,-493
94.015,-325
94.040,-57
94.065,201
94.090,363
94.115,423
94.140,432
94.165,436
94.190,440
94.215,431
94.240,412
94.265,408
94.290,430
94.315,455
94.340,454
94.365,418
94.390,367
94.415,320
94.440,272
94.465,208
94.490,128
94.515,55
94.540,-2
94.565,-66
94.590,-158
94.615,-259
94.640,-303
94.665,-222
94.690,-20
94.715,223
94.740,412
94.765,502
94.790,515
94.815,503
94.840,491
94.865,476
94.890,451
94.915,430
94.940,431
94.965,450
94.990,460
95.015,436
95.040,383
95.065,325
95.090,277
95.115,224
95.140,146
95.165,48
95.190,-43
95.215,-109
95.240,-169
95.265,-256
95.290,-372
95.315,-459
95.340,-434
95.365,-262
95.390,1
95.415,253
95.440,413
95.465,476
95.490,488
95.515,488
95.540,484
95.565,467
95.590,444
95.615,437
95.640,456
95.665,480
95.690,475
95.715,434
95.740,377
95.765,326
95.790,279
95.815,211
95.840,118
95.865,21
95.890,-56
95.915,-124
95.940,-215
95.965,-334
95.990,-426
96.015,-405
96.040,-231
96.065,41
96.090,303
96.115,469
96.140,530
96.165,535
96.190,529
96.215,522
96.240,502
96.265,474
96.290,459
96.315,470
96.340,488
96.365,481
96.390,440
96.415,381
96.440,326
96.465,271
96.490,197
96.515,100
96.540,2
96.565,-80
96.590,-161
96.615,-267
96.640,-394
96.665,-474
96.690,-421
96.715,-211
96.740,83
96.765,339
96.790,480
96.815,518
96.840,515
96.865,513
96.890,506
96.915,478
96.940,441
96.965,428
96.990,448
97.015,468
97.040,451
97.065,396
97.090,335
97.115,288
97.140,238
97.165,157
97.190,50
97.215,-46
97.240,-116
97.265,-185
97.290,-292
97.315,-419
97.340,-476
97.365,-377
97.390,-125
97.415,175
97.440,403
97.465,512
97.490,539
97.515,540
97.540,536
97.565,516
97.590,485
97.615,464
97.640,472
97.665,489
97.690,485
97.715,451
97.740,404
97.765,358
97.790,301
97.815,218
97.840,118
97.865,31
97.890,-35
97.915,-111
97.940,-226
97.965,-352
97.990,-406
98.015,-312
98.040,-85
98.065,181
98.090,383
98.115,479
98.140,494
98.165,472
98.190,439
98.215,400
98.240,364
98.265,347
98.290,350
98.315,360
98.340,358
98.365,336
98.390,296
98.415,238
98.440,164
98.465,86
98.490,14
98.515,-54
98.540,-144
98.565,-263
98.590,-370
98.615,-389
98.640,-265
98.665,-26
98.690,234
98.715,421
98.740,502
98.765,511
98.790,493
98.815,473
98.840,449
98.865,423
98.890,405
98.915,399
98.940,400
98.965,390
98.990,361
99.015,311
99.040,245
99.065,170
99.090,98
99.115,30
99.140,-47
99.165,-155
99.190,-281
99.215,-368
99.240,-340
99.265,-167
99.290,92
99.315,332
99.340,478
99.365,530
99.390,539
99.415,540
99.440,533
99.465,510
99.490,482
99.515,471
99.540,483
99.565,493
99.590,477
99.615,433
99.640,375
99.665,314
99.690,244
99.715,165
99.740,86
99.765,8
99.790,-85
99.815,-203
99.840,-305
99.865,-315
99.890,-178
99.915,69
99.940,320
99.965,476
99.990,527
100.015,528
100.040,531
100.065,535
100.090,514
100.115,469
100.140,434
100.165,429
100.190,434
100.215,412
100.240,348
100.265,268
100.290,193
100.315,117
100.340,24
100.365,-84
100.390,-187
100.415,-282
100.440,-401
100.465,-560
100.490,-714
100.515,-761
100.540,-629
100.565,-344
100.590,-20
100.615,233
100.640,380
100.665,451
100.690,489
100.715,509
100.740,509
100.765,501
100.790,507
100.815,535
100.840,571
100.865,589
100.890,578
100.915,540
100.940,481
100.965,408
100.990,324
101.015,239
101.040,150
101.065,45
101.090,-73
101.115,-175
101.140,-204
101.165,-129
101.190,22
101.215,175
101.240,261
101.265,269
101.290,235
101.315,200
101.340,176
101.365,151
101.390,121
101.415,94
101.440,82
101.465,88
101.490,98
101.515,100
101.540,84
101.565,52
101.590,6
101.615,-54
101.640,-136
101.665,-242
101.690,-356
101.715,-431
101.740,-411
101.765,-269
101.790,-35
101.815,210
101.840,391
101.865,484
101.890,518
101.915,536
101.940,561
101.965,596
101.990,645
102.015,719
102.040,817
102.065,918
102.090,990
102.115,1022
102.140,1026
102.165,1019
102.190,999
102.215,954
102.240,873
102.265,757
102.290,602
102.315,398
102.340,151
102.365,-92
102.390,-257
102.415,-286
102.440,-190
102.465,-42
102.490,76
102.515,129
102.540,122
102.565,86
102.590,39
102.615,-7
102.640,-52
102.665,-96
102.690,-143
102.715,-188
102.740,-218
102.765,-213
102.790,-173
102.815,-124
102.840,-94
102.865,-90
102.890,-91
102.915,-82
102.940,-85
102.965,-131
102.990,-219
103.015,-291
103.040,-275
103.065,-146
103.090,41
103.115,206
103.140,298
103.165,329
103.190,339
103.215,352
103.240,363
103.265,361
103.290,355
103.315,361
103.340,386
103.365,410
103.390,407
103.415,370
103.440,316
103.465,267
103.490,226
103.515,178
103.540,102
103.565,5
103.590,-78
103.615,-100
103.640,-32
103.665,108
103.690,269
103.715,391
103.740,446
103.765,445
103.790,415
103.815,378
103.840,339
103.865,302
103.890,280
103.915,284
103.940,308
103.965,329
103.990,321
104.015,282
104.040,233
104.065,194
104.090,163
104.115,117
104.140,41
104.165,-46
104.190,-99
104.215,-67
104.240,58
104.265,242
104.290,417
104.315,532
104.340,575
104.365,573
104.390,563
104.415,563
104.440,566
104.465,557
104.490,530
104.515,490
104.540,439
104.565,372
104.590,282
104.615,177
104.640,76
104.665,-10
104.690,-93
104.715,-197
104.740,-323
104.765,-434
104.790,-468
104.815,-385
104.840,-203
104.865,10
104.890,181
104.915,275
104.940,301
104.965,295
104.990,282
105.015,272
105.040,264
105.065,264
105.090,277
105.115,297
105.140,309
105.165,293
105.190,248
105.215,190
105.240,138
105.265,95
105.290,41
105.315,-44
105.340,-151
105.365,-233
105.390,-231
105.415,-116
105.440,80
105.465,290
105.490,440
105.515,501
105.540,494
105.565,461
105.590,432
105.615,410
105.640,386
105.665,361
105.690,344
105.715,339
105.740,331
105.765,302
105.790,245
105.815,179
105.840,124
105.865,76
105.890,7
105.915,-97
105.940,-211
105.965,-271
105.990,-221
106.015,-59
106.040,156
106.065,348
106.090,463
106.115,495
106.140,471
106.165,427
106.190,383
106.215,348
106.240,324
106.265,309
106.290,304
106.315,304
106.340,299
106.365,274
106.390,228
106.415,172
106.440,128
106.465,99
106.490,61
106.515,-16
106.540,-129
106.565,-220
106.590,-216
106.615,-89
106.640,115
106.665,310
106.690,429
106.715,464
106.740,448
106.765,414
106.790,375
106.815,339
106.840,318
106.865,323
106.890,346
106.915,368
106.940,371
106.965,359
106.990,336
107.015,299
107.040,244
107.065,177
107.090,113
107.115,52
107.140,-28
107.165,-144
107.190,-260
107.215,-299
107.240,-198
107.265,21
107.290,269
107.315,450
107.340,537
107.365,564
107.390,568
107.415,557
107.440,520
107.465,469
107.490,432
107.515,423
107.540,417
107.565,381
107.590,310
107.615,232
107.640,168
107.665,112
107.690,42
107.715,-41
107.740,-128
107.765,-217
107.790,-329
107.815,-466
107.840,-575
107.865,-570
107.890,-410
107.915,-148
107.940,104
107.965,270
107.990,352
108.015,398
108.040,439
108.065,465
108.090,460
108.115,443
108.140,446
108.165,477
108.190,508
108.215,508
108.240,478
108.265,436
108.290,389
108.315,327
108.340,245
108.365,161
108.390,92
108.415,25
108.440,-68
108.465,-184
108.490,-258
108.515,-211
108.540,-29
108.565,213
108.590,410
108.615,509
108.640,531
108.665,522
108.690,504
108.715,470
108.740,424
108.765,390
108.790,386
108.815,399
108.840,398
108.865,368
108.890,320
108.915,269
108.940,213
108.965,140
108.990,57
109.015,-18
109.040,-85
109.065,-165
109.090,-272
109.115,-367
109.140,-373
109.165,-244
109.190,-13
109.215,220
109.240,376
109.265,441
109.290,454
109.315,451
109.340,436
109.365,405
109.390,373
109.415,360
109.440,371
109.465,383
109.490,372
109.515,337
109.540,290
109.565,239
109.590,177
109.615,103
109.640,30
109.665,-36
109.690,-113
109.715,-214
109.740,-314
109.765,-343
109.790,-241
109.815,-23
109.840,222
109.865,401
109.890,481
109.915,494
109.940,482
109.965,463
109.990,431
110.015,397
110.040,382
110.065,395
110.090,415
110.115,411
110.140,376
110.165,328
110.190,278
110.215,221
110.240,147
110.265,65
110.290,-14
110.315,-94
110.340,-196
110.365,-313
110.390,-385
110.415,-338
110.440,-148
110.465,113
110.490,337
110.515,458
110.540,490
110.565,486
110.590,476
110.615,457
110.640,426
110.665,404
110.690,412
110.715,439
110.740,451
110.765,426
110.790,376
110.815,328
110.840,285
110.865,226
110.890,142
110.915,53
110.940,-22
110.965,-96
110.990,-196
111.015,-309
111.040,-367
111.065,-291
111.090,-76
111.115,189
111.140,395
111.165,491
111.190,507
111.215,497
111.240,483
111.265,456
111.290,412
111.315,378
111.340,375
111.365,393
111.390,400
111.415,373
111.440,324
111.465,272
111.490,219
111.515,151
111.540,66
111.565,-14
111.590,-83
111.615,-157
111.640,-259
111.665,-368
111.690,-410
111.715,-314
111.740,-85
111.765,183
111.790,388
111.815,485
111.840,506
111.865,503
111.890,494
111.915,471
111.940,433
111.965,406
111.990,410
112.015,433
112.040,440
112.065,410
112.090,356
112.115,301
112.140,249
112.165,183
112.190,95
112.215,6
112.240,-66
112.265,-133
112.290,-225
112.315,-345
112.340,-438
112.365,-418
112.390,-248
112.415,20
112.440,281
112.465,451
112.490,518
112.515,526
112.540,517
112.565,501
112.590,475
112.615,447
112.640,440
112.665,459
112.690,483
112.715,482
112.740,447
112.765,394
112.790,344
112.815,292
112.840,223
112.865,133
112.890,44
112.915,-23
112.940,-80
112.965,-158
112.990,-269
113.015,-367
113.040,-374
113.065,-237
113.090,11
113.115,275
113.140,463
113.165,548
113.190,565
113.215,560
113.240,551
113.265,529
113.290,492
113.315,460
113.340,451
113.365,459
113.390,456
113.415,424
113.440,369
113.465,310
113.490,254
113.515,184
113.540,89
113.565,-15
113.590,-102
113.615,-169
113.640,-247
113.665,-359
113.690,-475
113.715,-510
113.740,-390
113.765,-126
113.790,183
113.815,423
113.840,539
113.865,560
113.890,544
113.915,526
113.940,504
113.965,473
113.990,449
114.015,452
114.040,477
114.065,495
114.090,484
114.115,452
114.140,418
114.165,386
114.190,335
114.215,249
114.240,140
114.265,39
114.290,-45
114.315,-140
114.340,-268
114.365,-399
114.390,-456
114.415,-372
114.440,-165
114.465,75
114.490,251
114.515,322
114.540,315
114.565,275
114.590,223
114.615,160
114.640,96
114.665,49
114.690,34
114.715,46
114.740,69
114.765,100
114.790,147
114.815,203
114.840,246
114.865,256
114.890,237
114.915,211
114.940,184
114.965,133
114.990,42
115.015,-56
115.040,-89
115.065,0
115.090,193
115.115,407
115.140,557
115.165,613
115.190,603
115.215,565
115.240,521
115.265,477
115.290,441
115.315,425
115.340,429
115.365,436
115.390,431
115.415,411
115.440,379
115.465,331
115.490,263
115.515,182
115.540,103
115.565,33
115.590,-45
115.615,-153
115.640,-265
115.665,-315
115.690,-237
115.715,-36
115.740,208
115.765,398
115.790,488
115.815,494
115.840,461
115.865,417
115.890,370
115.915,327
115.940,302
115.965,302
115.990,315
116.015,321
116.040,304
116.065,263
116.090,206
116.115,137
116.140,65
116.165,-2
116.190,-70
116.215,-157
116.240,-268
116.265,-373
116.290,-398
116.315,-289
116.340,-60
116.365,200
116.390,396
116.415,488
116.440,503
116.465,487
116.490,462
116.515,429
116.540,394
116.565,372
116.590,373
116.615,386
116.640,387
116.665,366
116.690,327
116.715,277
116.740,210
116.765,128
116.790,42
116.815,-36
116.840,-118
116.865,-223
116.890,-338
116.915,-396
116.940,-320
116.965,-100
116.990,182
117.015,411
117.040,523
117.065,542
117.090,525
117.115,503
117.140,471
117.165,426
117.190,390
117.215,387
117.240,411
117.265,427
117.290,411
117.315,369
117.340,320
117.365,264
117.390,190
117.415,98
117.440,11
117.465,-59
117.490,-136
117.515,-246
117.540,-365
117.565,-411
117.590,-304
117.615,-56
117.640,231
117.665,445
117.690,543
117.715,558
117.740,544
117.765,519
117.790,478
117.815,430
117.840,405
117.865,416
117.890,443
117.915,448
117.940,420
117.965,375
117.990,325
118.015,264
118.040,181
118.065,87
118.090,9
118.115,-54
118.140,-135
118.165,-258
118.190,-382
118.215,-415
118.240,-291
118.265,-41
118.290,223
118.315,399
118.340,463
118.365,459
118.390,438
118.415,410
118.440,367
118.465,311
118.490,271
118.515,268
118.540,292
118.565,314
118.590,308
118.615,270
118.640,210
118.665,141
118.690,75
118.715,13
118.740,-51
118.765,-135
118.790,-241
118.815,-338
118.840,-362
118.865,-262
118.890,-48
118.915,208
118.940,418
118.965,526
118.990,541
119.015,507
119.040,460
119.065,421
119.090,392
119.115,378
119.140,378
119.165,382
119.190,374
119.215,341
119.240,292
119.265,243
119.290,209
119.315,180
119.340,127
119.365,30
119.390,-100
119.415,-216
119.440,-252
119.465,-165
119.490,25
119.515,252
119.540,435
119.565,528
119.590,538
119.615,506
119.640,467
119.665,431
119.690,397
119.715,365
119.740,346
119.765,345
119.790,349
119.815,332
119.840,280
119.865,204
119.890,128
119.915,60
119.940,-14
119.965,-122
119.990,-260
120.015,-381
120.040,-413
120.065,-315
120.090,-108
120.115,129
120.140,313
120.165,404
120.190,417
120.215,397
120.240,378
120.265,366
120.290,354
120.315,340
120.340,336
120.365,350
120.390,371
120.415,367
120.440,320
120.465,237
120.490,149
120.515,76
120.540,12
120.565,-72
120.590,-189
120.615,-304
120.640,-350
120.665,-272
120.690,-75
120.715,171
120.740,384
120.765,509
120.790,546
120.815,529
120.840,487
120.865,432
120.890,368
120.915,309
120.940,273
120.965,271
120.990,287
121.015,292
121.040,265
121.065,214
121.090,163
121.115,126
121.140,86
121.165,18
121.190,-86
121.215,-192
121.240,-232
121.265,-151
121.290,52
121.315,315
121.340,550
121.365,692
121.390,729
121.415,698
121.440,646
121.465,604
121.490,573
121.515,546
121.540,517
121.565,485
121.590,448
121.615,395
121.640,317
121.665,219
121.690,121
121.715,40
121.740,-31
121.765,-120
121.790,-241
121.815,-369
121.840,-437
121.865,-384
121.890,-205
121.915,36
121.940,245
121.965,359
121.990,378
122.015,346
122.040,304
122.065,268
122.090,234
122.115,202
122.140,184
122.165,185
122.190,192
122.215,180
122.240,137
122.265,75
122.290,17
122.315,-26
122.340,-70
122.365,-139
122.390,-239
122.415,-339
122.440,-380
122.465,-310
122.490,-123
122.515,123
122.540,341
122.565,465
122.590,487
122.615,456
122.640,426
122.665,416
122.690,405
122.715,376
122.740,338
122.765,320
122.790,333
122.815,354
122.840,348
122.865,305
122.890,244
122.915,183
122.940,106
122.965,-10
122.990,-158
123.015,-271
123.040,-267
123.065,-113
123.090,136
123.115,384
123.140,547
123.165,605
123.190,593
123.215,554
123.240,515
123.265,479
123.290,445
123.315,416
123.340,399
123.365,395
123.390,392
123.415,367
123.440,307
123.465,221
123.490,134
123.515,66
123.540,3
123.565,-86
123.590,-212
123.615,-329
123.640,-360
123.665,-252
123.690,-32
123.715,211
123.740,392
123.765,477
123.790,490
123.815,470
123.840,439
123.865,402
123.890,366
123.915,341
123.940,337
123.965,345
123.990,349
124.015,332
124.040,288
124.065,220
124.090,139
124.115,62
124.140,-2
124.165,-63
124.190,-144
124.215,-252
124.240,-347
124.265,-357
124.290,-234
124.315,-4
124.340,245
124.365,425
124.390,504
124.415,510
124.440,487
124.465,458
124.490,424
124.515,389
124.540,366
124.565,364
124.590,376
124.615,381
124.640,365
124.665,325
124.690,268
124.715,203
124.740,136
124.765,71
124.790,3
124.815,-83
124.840,-190
124.865,-284
124.890,-305
124.915,-206
124.940,0
124.965,238
124.990,417
125.015,493
125.040,484
125.065,441
125.090,400
125.115,369
125.140,342
125.165,322
125.190,317
125.215,327
125.240,337
125.265,325
125.290,281
125.315,216
125.340,151
125.365,96
125.390,42
125.415,-32
125.440,-135
125.465,-236
125.490,-276
125.515,-204
125.540,-22
125.565,205
125.590,394
125.615,489
125.640,496
125.665,458
125.690,415
125.715,381
125.740,348
125.765,317
125.790,297
125.815,293
125.840,293
125.865,274
125.890,227
125.915,162
125.940,99
125.965,44
125.990,-18
126.015,-104
126.040,-207
126.065,-287
126.090,-289
126.115,-183
126.140,10
126.165,226
126.190,393
126.215,470
126.240,472
126.265,442
126.290,415
126.315,396
126.340,375
126.365,350
126.390,335
126.415,337
126.440,342
126.465,320
126.490,261
126.515,184
126.540,121
126.565,75
126.590,12
126.615,-99
126.640,-243
126.665,-346
126.690,-329
126.715,-169
126.740,78
126.765,319
126.790,479
126.815,541
126.840,532
126.865,495
126.890,457
126.915,426
126.940,401
126.965,382
126.990,370
127.015,367
127.040,362
127.065,337
127.090,277
127.115,191
127.140,104
127.165,36
127.190,-24
127.215,-112
127.240,-240
127.265,-365
127.290,-406
127.315,-306
127.340,-80
127.365,186
127.390,396
127.415,505
127.440,528
127.465,509
127.490,482
127.515,458
127.540,436
127.565,417
127.590,409
127.615,412
127.640,413
127.665,394
127.690,343
127.715,263
127.740,176
127.765,101
127.790,35
127.815,-44
127.840,-161
127.865,-290
127.890,-366
127.915,-319
127.940,-137
127.965,117
127.990,346
128.015,483
128.040,526
128.065,512
128.090,480
128.115,446
128.140,413
128.165,388
128.190,379
128.215,382
128.240,383
128.265,366
128.290,323
128.315,257
128.340,180
128.365,105
128.390,43
128.415,-16
128.440,-96
128.465,-210
128.490,-332
128.515,-394
128.540,-331
128.565,-137
128.590,119
128.615,338
128.640,460
128.665,487
128.690,465
128.715,434
128.740,407
128.765,383
128.790,363
128.815,354
128.840,356
128.865,359
128.890,347
128.915,312
128.940,252
128.965,180
128.990,109
129.015,46
129.040,-18
129.065,-105
129.090,-216
129.115,-309
129.140,-314
129.165,-189
129.190,34
129.215,268
129.240,426
129.265,489
129.290,493
129.315,482
129.340,466
129.365,440
129.390,406
129.415,387
129.440,392
129.465,404
129.490,394
129.515,355
129.540,301
129.565,247
129.590,189
129.615,119
129.640,41
129.665,-28
129.690,-93
129.715,-174
129.740,-278
129.765,-360
129.790,-345
129.815,-194
129.840,43
129.865,266
129.890,399
129.915,446
129.940,457
129.965,468
129.990,469
130.015,443
130.040,405
130.065,390
130.090,411
130.115,438
130.140,433
130.165,386
130.190,328
130.215,284
130.240,246
130.265,188
130.290,107
130.315,28
130.340,-27
130.365,-78
130.390,-158
130.415,-266
130.440,-339
130.465,-300
130.490,-131
130.515,101
130.540,296
130.565,400
130.590,428
130.615,431
130.640,436
130.665,434
130.690,415
130.715,392
130.740,389
130.765,409
130.790,425
130.815,412
130.840,371
130.865,327
130.890,291
130.915,249
130.940,184
130.965,103
130.990,31
131.015,-22
131.040,-82
131.065,-173
131.090,-275
131.115,-317
131.140,-236
131.165,-43
131.190,179
131.215,344
131.240,421
131.265,438
131.290,436
131.315,427
131.340,406
131.365,375
131.390,353
131.415,354
131.440,367
131.465,369
131.490,347
131.515,310
131.540,265
131.565,211
131.590,146
131.615,79
131.640,22
131.665,-30
131.690,-104
131.715,-206
131.740,-293
131.765,-292
131.790,-165
131.815,49
131.840,261
131.865,398
131.890,448
131.915,451
131.940,440
131.965,421
131.990,391
132.015,362
132.040,355
132.065,372
132.090,389
132.115,380
132.140,343
132.165,291
132.190,236
132.215,174
132.240,104
132.265,34
132.290,-31
132.315,-106
132.340,-205
132.365,-304
132.390,-337
132.415,-242
132.440,-24
132.465,232
132.490,424
132.515,510
132.540,522
132.565,513
132.590,503
132.615,480
132.640,441
132.665,412
132.690,417
132.715,443
132.740,451
132.765,417
132.790,355
132.815,295
132.840,242
132.865,174
132.890,83
132.915,-11
132.940,-88
132.965,-157
132.990,-254
133.015,-383
133.040,-480
133.065,-454
133.090,-272
133.115,0
133.140,246
133.165,392
133.190,446
133.215,460
133.240,464
133.265,456
133.290,429
133.315,403
133.340,405
133.365,433
133.390,454
133.415,439
133.440,393
133.465,341
133.490,293
133.515,232
133.540,148
133.565,55
133.590,-23
133.615,-95
133.640,-187
133.665,-305
133.690,-396
133.715,-374
133.740,-200
133.765,66
133.790,314
133.815,464
133.840,518
133.865,530
133.890,536
133.915,532
133.940,505
133.965,469
133.990,455
134.015,473
134.040,491
134.065,476
134.090,424
134.115,362
134.140,310
134.165,255
134.190,178
134.215,81
134.240,-9
134.265,-79
134.290,-153
134.315,-257
134.340,-370
134.365,-418
134.390,-332
134.415,-118
134.440,134
134.465,327
134.490,422
134.515,446
134.540,446
134.565,440
134.590,422
134.615,392
134.640,370
134.665,372
134.690,389
134.715,392
134.740,368
134.765,326
134.790,281
134.815,235
134.840,176
134.865,105
134.890,36
134.915,-23
134.940,-90
134.965,-181
134.990,-278
135.015,-317
135.040,-234
135.065,-35
135.090,202
135.115,384
135.140,468
135.165,480
135.190,471
135.215,466
135.240,455
135.265,429
135.290,405
135.315,403
135.340,422
135.365,431
135.390,406
135.415,353
135.440,297
135.465,253
135.490,207
135.515,141
135.540,57
135.565,-18
135.590,-76
135.615,-135
135.640,-221
135.665,-323
135.690,-379
135.715,-322
135.740,-144
135.765,89
135.790,285
135.815,392
135.840,424
135.865,426
135.890,429
135.915,429
135.940,417
135.965,401
135.990,401
136.015,422
136.040,441
136.065,430
136.090,387
136.115,333
136.140,290
136.165,251
136.190,196
136.215,120
136.240,40
136.265,-22
136.290,-74
136.315,-142
136.340,-237
136.365,-322
136.390,-334
136.415,-228
136.440,-30
136.465,186
136.490,345
136.515,422
136.540,442
136.565,446
136.590,453
136.615,456
136.640,447
136.665,434
136.690,432
136.715,446
136.740,458
136.765,446
136.790,406
136.815,352
136.840,303
136.865,262
136.890,214
136.915,147
136.940,68
136.965,-3
136.990,-59
137.015,-115
137.040,-197
137.065,-297
137.090,-368
137.115,-345
137.140,-201
137.165,21
137.190,238
137.215,380
137.240,435
137.265,438
137.290,434
137.315,437
137.340,439
137.365,431
137.390,425
137.415,434
137.440,453
137.465,459
137.490,436
137.515,390
137.540,343
137.565,301
137.590,252
137.615,178
137.640,88
137.665,8
137.690,-46
137.715,-98
137.740,-182
137.765,-291
137.790,-365
137.815,-327
137.840,-158
137.865,77
137.890,281
137.915,394
137.940,425
137.965,424
137.990,419
138.015,409
138.040,386
138.065,363
138.090,361
138.115,381
138.140,399
138.165,391
138.190,355
138.215,311
138.240,269
138.265,216
138.290,145
138.315,67
138.340,0
138.365,-59
138.390,-137
138.415,-244
138.440,-335
138.465,-331
138.490,-186
138.515,57
138.540,298
138.565,451
138.590,506
138.615,511
138.640,509
138.665,506
138.690,487
138.715,455
138.740,436
138.765,446
138.790,466
138.815,463
138.840,422
138.865,363
138.890,308
138.915,253
138.940,180
138.965,85
138.990,-7
139.015,-79
139.040,-144
139.065,-236
139.090,-361
139.115,-462
139.140,-452
139.165,-288
139.190,-21
139.215,239
139.240,408
139.265,475
139.290,488
139.315,493
139.340,495
139.365,482
139.390,454
139.415,434
139.440,442
139.465,463
139.490,466
139.515,433
139.540,377
139.565,320
139.590,266
139.615,200
139.640,113
139.665,22
139.690,-54
139.715,-120
139.740,-205
139.765,-321
139.790,-425
139.815,-436
139.840,-302
139.865,-52
139.890,214
139.915,404
139.940,488
139.965,501
139.990,496
140.015,492
140.040,480
140.065,456
140.090,436
140.115,436
140.140,451
140.165,454
140.190,424
140.215,368
140.240,312
140.265,263
140.290,209
140.315,132
140.340,41
140.365,-40
140.390,-104
140.415,-175
140.440,-276
140.465,-390
140.490,-444
140.515,-367
140.540,-154
140.565,112
140.590,328
140.615,439
140.640,467
140.665,464
140.690,460
140.715,449
140.740,424
140.765,399
140.790,398
140.815,422
140.840,439
140.865,425
140.890,383
140.915,338
140.940,299
140.965,253
140.990,186
141.015,111
141.040,50
141.065,1
141.090,-67
141.115,-172
141.140,-268
141.165,-274
141.190,-139
141.215,95
141.240,326
141.265,471
141.290,518
141.315,515
141.340,503
141.365,489
141.390,464
141.415,436
141.440,421
141.465,425
141.490,430
141.515,417
141.540,389
141.565,355
141.590,315
141.615,256
141.640,174
141.665,89
141.690,20
141.715,-42
141.740,-126
141.765,-227
141.790,-289
141.815,-242
141.840,-74
141.865,143
141.890,314
141.915,389
141.940,390
141.965,369
141.990,348
142.015,320
142.040,283
142.065,254
142.090,252
142.115,270
142.140,282
142.165,270
142.190,241
142.215,207
142.240,166
142.265,109
142.290,39
142.315,-31
142.340,-100
142.365,-182
142.390,-281
142.415,-355
142.440,-336
142.465,-189
142.490,37
142.515,245
142.540,366
142.565,402
142.590,403
142.615,401
142.640,392
142.665,365
142.690,334
142.715,324
142.740,341
142.765,355
142.790,341
142.815,302
142.840,259
142.865,221
142.890,176
142.915,114
142.940,49
142.965,-4
142.990,-58
143.015,-141
143.040,-247
143.065,-310
143.090,-251
143.115,-54
143.140,200
143.165,405
143.190,508
143.215,533
143.240,533
143.265,531
143.290,516
143.315,487
143.340,465
143.365,467
143.390,480
143.415,474
143.440,439
143.465,393
143.490,355
143.515,318
143.540,260
143.565,179
143.590,100
143.615,34
143.640,-40
143.665,-148
143.690,-262
143.715,-304
143.740,-207
143.765,12
143.790,261
143.815,442
143.840,525
143.865,544
143.890,539
143.915,521
143.940,483
143.965,438
143.990,411
144.015,415
144.040,431
144.065,427
144.090,385
144.115,318
144.140,244
144.165,170
144.190,95
144.215,13
144.240,-78
144.265,-191
144.290,-321
144.315,-438
144.340,-479
144.365,-395
144.390,-191
144.415,57
144.440,257
144.465,357
144.490,371
144.515,350
144.540,333
144.565,327
144.590,323
144.615,317
144.640,317
144.665,328
144.690,339
144.715,332
144.740,292
144.765,229
144.790,166
144.815,116
144.840,64
144.865,-18
144.890,-139
144.915,-255
144.940,-291
144.965,-194
144.990,13
145.015,249
145.040,430
145.065,520
145.090,543
145.115,533
145.140,507
145.165,468
145.190,425
145.215,393
145.240,383
145.265,382
145.290,368
145.315,335
145.340,285
145.365,226
145.390,155
145.415,74
145.440,-6
145.465,-83
145.490,-166
145.515,-271
145.540,-379
145.565,-427
145.590,-347
145.615,-136
145.640,128
145.665,341
145.690,451
145.715,480
145.740,478
145.765,471
145.790,453
145.815,418
145.840,386
145.865,380
145.890,394
145.915,402
145.940,387
145.965,351
145.990,307
146.015,256
146.040,191
146.065,117
146.090,48
146.115,-16
146.140,-98
146.165,-202
146.190,-283
146.215,-261
146.240,-95
146.265,164
146.290,407
146.315,552
146.340,598
146.365,601
146.390,600
146.415,588
146.440,548
146.465,495
146.490,467
146.515,480
146.540,502
146.565,489
146.590,434
146.615,365
146.640,308
146.665,256
146.690,189
146.715,103
146.740,12
146.765,-75
146.790,-176
146.815,-296
146.840,-398
146.865,-413
146.890,-296
146.915,-77
146.940,153
146.965,313
146.990,378
147.015,377
147.040,346
147.065,303
147.090,253
147.115,212
147.140,197
147.165,214
147.190,246
147.215,267
147.240,260
147.265,224
147.290,166
147.315,99
147.340,32
147.365,-30
147.390,-98
147.415,-186
147.440,-289
147.465,-366
147.490,-348
147.515,-198
147.540,51
147.565,308
147.590,480
147.615,540
147.640,530
147.665,514
147.690,523
147.715,545
147.740,554
147.765,544
147.790,527
147.815,512
147.840,492
147.865,450
147.890,379
147.915,297
147.940,223
147.965,160
147.990,90
148.015,-6
148.040,-123
148.065,-218
148.090,-237
148.115,-156
148.140,-1
148.165,158
148.190,262
148.215,293
148.240,283
148.265,272
148.290,267
148.315,249
148.340,207
148.365,164
148.390,156
148.415,195
148.440,243
148.465,250
148.490,201
148.515,126
148.540,67
148.565,27
148.590,-21
148.615,-96
148.640,-162
148.665,-158
148.690,-47
148.715,142
148.740,335
148.765,469
148.790,524
148.815,524
148.840,504
148.865,484
148.890,477
148.915,489
148.940,519
148.965,553
148.990,567
149.015,542
149.040,474
149.065,380
149.090,281
149.115,190
149.140,101
149.165,-3
149.190,-136
149.215,-277
149.240,-373
149.265,-367
149.290,-243
149.315,-41
149.340,163
149.365,311
149.390,383
149.415,395
149.440,371
149.465,326
149.490,277
149.515,243
149.540,237
149.565,255
149.590,274
149.615,277
149.640,261
149.665,235
149.690,200
149.715,147
149.740,73
149.765,-13
149.790,-108
149.815,-215
149.840,-340
149.865,-457
149.890,-504
149.915,-422
149.940,-208
149.965,62
149.990,290
150.015,417
150.040,451
150.065,440
150.090,425
150.115,417
150.140,418
150.165,437
150.190,482
150.215,538
150.240,573
150.265,560
150.290,504
150.315,438
150.340,393
150.365,371
150.390,345
150.415,283
150.440,185
150.465,88
150.490,45
150.515,93
150.540,226
150.565,393
150.590,527
150.615,587
150.640,577
150.665,534
150.690,491
150.715,455
150.740,415
150.765,362
150.790,309
150.815,269
150.840,241
150.865,200
150.890,127
150.915,29
150.940,-68
150.965,-152
150.990,-242
151.015,-373
151.040,-547
151.065,-711
151.090,-774
151.115,-677
151.140,-437
151.165,-148
151.190,88
151.215,222
151.240,273
151.265,293
151.290,318
151.315,346
151.340,354
151.365,336
151.390,315
151.415,316
151.440,339
151.465,354
151.490,333
151.515,276
151.540,215
151.565,173
151.590,136
151.615,67
151.640,-48
151.665,-166
151.690,-207
151.715,-111
151.740,102
151.765,355
151.790,558
151.815,673
151.840,715
151.865,719
151.890,713
151.915,701
151.940,683
151.965,662
151.990,644
152.015,634
152.040,628
152.065,614
152.090,572
152.115,484
152.140,351
152.165,193
152.190,36
152.215,-112
152.240,-265
152.265,-423
152.290,-548
152.315,-574
152.340,-459
152.365,-231
152.390,17
152.415,201
152.440,288
152.465,310
152.490,311
152.515,314
152.540,318
152.565,318
152.590,317
152.615,319
152.640,320
152.665,312
152.690,288
152.715,246
152.740,187
152.765,116
152.790,45
152.815,-13
152.840,-68
152.865,-146
152.890,-256
152.915,-361
152.940,-382
152.965,-264
152.990,-32
153.015,221
153.040,400
153.065,476
153.090,487
153.115,485
153.140,487
153.165,481
153.190,459
153.215,433
153.240,420
153.265,419
153.290,413
153.315,388
153.340,342
153.365,279
153.390,209
153.415,138
153.440,69
153.465,-2
153.490,-92
153.515,-200
153.540,-289
153.565,-295
153.590,-176
153.615,41
153.640,272
153.665,434
153.690,502
153.715,511
153.740,504
153.765,492
153.790,468
153.815,434
153.840,406
153.865,396
153.890,391
153.915,373
153.940,337
153.965,293
153.990,243
154.015,179
154.040,97
154.065,12
154.090,-57
154.115,-122
154.140,-207
154.165,-314
154.190,-385
154.215,-340
154.240,-153
154.265,106
154.290,328
154.315,444
154.340,473
154.365,477
154.390,487
154.415,487
154.440,460
154.465,421
154.490,402
154.515,410
154.540,418
154.565,397
154.590,348
154.615,294
154.640,244
154.665,186
154.690,107
154.715,21
154.740,-51
154.765,-117
154.790,-206
154.815,-320
154.840,-401
154.865,-364
154.890,-179
154.915,86
154.940,319
154.965,447
154.990,484
155.015,489
155.040,496
155.065,494
155.090,468
155.115,432
155.140,418
155.165,432
155.190,444
155.215,423
155.240,374
155.265,321
155.290,278
155.315,225
155.340,145
155.365,50
155.390,-30
155.415,-92
155.440,-167
155.465,-278
155.490,-385
155.515,-398
155.540,-260
155.565,-6
155.590,253
155.615,426
155.640,496
155.665,510
155.690,511
155.715,503
155.740,472
155.765,430
155.790,406
155.815,411
155.840,426
155.865,418
155.890,383
155.915,336
155.940,287
155.965,227
155.990,149
156.015,65
156.040,-1
156.065,-56
156.090,-134
156.115,-252
156.140,-364
156.165,-381
156.190,-248
156.215,-1
156.240,254
156.265,429
156.290,501
156.315,508
156.340,488
156.365,455
156.390,410
156.415,368
156.440,348
156.465,353
156.490,365
156.515,361
156.540,335
156.565,292
156.590,235
156.615,165
156.640,90
156.665,22
156.690,-42
156.715,-125
156.740,-235
156.765,-330
156.790,-335
156.815,-199
156.840,42
156.865,291
156.890,456
156.915,520
156.940,524
156.965,511
156.990,490
157.015,452
157.040,407
157.065,381
157.090,384
157.115,398
157.140,390
157.165,352
157.190,299
157.215,241
157.240,175
157.265,98
157.290,18
157.315,-52
157.340,-124
157.365,-221
157.390,-334
157.415,-397
157.440,-331
157.465,-119
157.490,158
157.515,385
157.540,497
157.565,517
157.590,506
157.615,496
157.640,478
157.665,441
157.690,399
157.715,382
157.740,391
157.765,399
157.790,379
157.815,336
157.840,284
157.865,229
157.890,163
157.915,85
157.940,10
157.965,-53
157.990,-125
158.015,-229
158.040,-343
158.065,-389
158.090,-294
158.115,-64
158.140,208
158.165,413
158.190,507
158.215,522
158.240,510
158.265,493
158.290,463
158.315,421
158.340,392
158.365,393
158.390,410
158.415,409
158.440,376
158.465,326
158.490,281
158.515,235
158.540,172
158.565,91
158.590,15
158.615,-47
158.640,-118
158.665,-217
158.690,-321
158.715,-351
158.740,-244
158.765,-18
158.790,231
158.815,407
158.840,480
158.865,490
158.890,482
158.915,466
158.940,430
158.965,383
158.990,352
159.015,354
159.040,370
159.065,368
159.090,336
159.115,291
159.140,247
159.165,196
159.190,126
159.215,44
159.240,-29
159.265,-93
159.290,-172
159.315,-278
159.340,-367
159.365,-358
159.390,-205
159.415,45
159.440,282
159.465,419
159.490,453
159.515,441
159.540,427
159.565,410
159.590,377
159.615,339
159.640,324
159.665,340
159.690,358
159.715,348
159.740,310
159.765,268
159.790,233
159.815,190
159.840,125
159.865,52
159.890,-1
159.915,-40
159.940,-99
159.965,-198
159.990,-291
160.015,-289
160.040,-139
160.065,116
160.090,370
160.115,539
160.140,614
160.165,634
160.190,631
160.215,607
160.240,565
160.265,529
160.290,528
160.315,557
160.340,583
160.365,575
160.390,531
160.415,470
160.440,397
160.465,305
160.490,196
160.515,93
160.540,9
160.565,-72
160.590,-189
160.615,-334
160.640,-438
160.665,-418
160.690,-251
160.715,-7
160.740,206
160.765,326
160.790,358
160.815,346
160.840,324
160.865,298
160.890,271
160.915,250
160.940,245
160.965,253
160.990,260
161.015,255
161.040,231
161.065,189
161.090,130
161.115,67
161.140,11
161.165,-40
161.190,-112
161.215,-219
161.240,-329
161.265,-367
161.290,-270
161.315,-46
161.340,219
161.365,426
161.390,530
161.415,555
161.440,543
161.465,520
161.490,485
161.515,439
161.540,399
161.565,380
161.590,377
161.615,371
161.640,345
161.665,295
161.690,227
161.715,149
161.740,72
161.765,5
161.790,-59
161.815,-144
161.840,-262
161.865,-380
161.890,-416
161.915,-308
161.940,-69
161.965,203
161.990,409
162.015,512
162.040,546
162.065,562
162.090,573
162.115,565
162.140,533
162.165,502
162.190,493
162.215,499
162.240,495
162.265,464
162.290,413
162.315,351
162.340,276
162.365,183
162.390,81
162.415,-14
162.440,-107
162.465,-219
162.490,-348
162.515,-436
162.540,-405
162.565,-225
162.590,39
162.615,278
162.640,419
162.665,471
162.690,492
162.715,510
162.740,516
162.765,494
162.790,461
162.815,446
162.840,455
162.865,459
162.890,432
162.915,375
162.940,311
162.965,248
162.990,174
163.015,80
163.040,-17
163.065,-104
163.090,-189
163.115,-293
163.140,-406
163.165,-462
163.190,-388
163.215,-181
163.240,75
163.265,273
163.290,367
163.315,388
163.340,397
163.365,415
163.390,426
163.415,417
163.440,404
163.465,413
163.490,442
163.515,463
163.540,453
163.565,413
163.590,359
163.615,298
163.640,229
163.665,152
163.690,76
163.715,1
163.740,-87
163.765,-195
163.790,-289
163.815,-298
163.840,-178
163.865,40
163.890,265
163.915,413
163.940,469
163.965,479
163.990,487
164.015,492
164.040,474
164.065,431
164.090,392
164.115,382
164.140,392
164.165,388
164.190,353
164.215,301
164.240,254
164.265,209
164.290,148
164.315,66
164.340,-16
164.365,-80
164.390,-138
164.415,-221
164.440,-327
164.465,-397
164.490,-353
164.515,-180
164.540,54
164.565,247
164.590,348
164.615,381
164.640,403
164.665,436
164.690,460
164.715,454
164.740,433
164.765,428
164.790,445
164.815,456
164.840,429
164.865,371
164.890,312
164.915,273
164.940,241
164.965,196
164.990,136
165.015,75
165.040,17
165.065,-59
165.090,-163
165.115,-257
165.140,-270
165.165,-159
165.190,43
165.215,248
165.240,384
165.265,440
165.290,453
165.315,453
165.340,444
165.365,420
165.390,390
165.415,373
165.440,372
165.465,370
165.490,347
165.515,304
165.540,252
165.565,196
165.590,132
165.615,60
165.640,-5
165.665,-54
165.690,-101
165.715,-171
165.740,-262
165.765,-319
165.790,-280
165.815,-129
165.840,78
165.865,260
165.890,369
165.915,413
165.940,429
165.965,435
165.990,432
166.015,419
166.040,405
166.065,403
166.090,411
166.115,417
166.140,411
166.165,387
166.190,342
166.215,275
166.240,195
166.265,119
166.290,54
166.315,-16
166.340,-116
166.365,-231
166.390,-298
166.415,-250
166.440,-77
166.465,153
166.490,349
166.515,457
166.540,490
166.565,487
166.590,472
166.615,443
166.640,401
166.665,365
166.690,350
166.715,352
166.740,351
166.765,332
166.790,294
166.815,242
166.840,177
166.865,100
166.890,21
166.915,-47
166.940,-118
166.965,-211
166.990,-320
167.015,-393
167.040,-358
167.065,-187
167.090,64
167.115,301
167.140,455
167.165,524
167.190,545
167.215,545
167.240,527
167.265,492
167.290,457
167.315,444
167.340,450
167.365,455
167.390,439
167.415,401
167.440,350
167.465,290
167.490,218
167.515,136
167.540,54
167.565,-29
167.590,-130
167.615,-254
167.640,-360
167.665,-370
167.690,-236
167.715,11
167.740,272
167.765,448
167.790,511
167.815,503
167.840,477
167.865,453
167.890,421
167.915,376
167.940,334
167.965,316
167.990,320
168.015,320
168.040,291
168.065,231
168.090,158
168.115,92
168.140,33
168.165,-29
168.190,-115
168.215,-222
168.240,-320
168.265,-354
168.290,-281
168.315,-98
168.340,136
168.365,339
168.390,450
168.415,468
168.440,437
168.465,402
168.490,380
168.515,365
168.540,353
168.565,353
168.590,371
168.615,393
168.640,391
168.665,348
168.690,277
168.715,206
168.740,144
168.765,73
168.790,-33
168.815,-173
168.840,-295
168.865,-331
168.890,-237
168.915,-33
168.940,205
168.965,401
168.990,509
169.015,536
169.040,515
169.065,477
169.090,435
169.115,389
169.140,349
169.165,325
169.190,323
169.215,326
169.240,308
169.265,258
169.290,187
169.315,122
169.340,74
169.365,23
169.390,-60
169.415,-181
169.440,-294
169.465,-324
169.490,-225
169.515,-12
169.540,236
169.565,433
169.590,533
169.615,548
169.640,521
169.665,487
169.690,455
169.715,421
169.740,387
169.765,366
169.790,363
169.815,363
169.840,340
169.865,282
169.890,202
169.915,127
169.940,65
169.965,0
169.990,-97
170.015,-219
170.040,-321
170.065,-335
170.090,-224
170.115,-15
170.140,217
170.165,397
170.190,488
170.215,502
170.240,476
170.265,443
170.290,414
170.315,388
170.340,366
170.365,356
170.390,357
170.415,358
170.440,340
170.465,294
170.490,227
170.515,162
170.540,107
170.565,50
170.590,-34
170.615,-149
170.640,-259
170.665,-296
170.690,-213
170.715,-21
170.740,210
170.765,396
170.790,487
170.815,495
170.840,461
170.865,421
170.890,385
170.915,345
170.940,304
170.965,277
170.990,275
171.015,281
171.040,266
171.065,212
171.090,133
171.115,61
171.140,12
171.165,-31
171.190,-100
171.215,-202
171.240,-294
171.265,-311
171.290,-210
171.315,-9
171.340,225
171.365,415
171.390,516
171.415,533
171.440,502
171.465,463
171.490,434
171.515,413
171.540,394
171.565,378
171.590,369
171.615,363
171.640,344
171.665,296
171.690,220
171.715,140
171.740,76
171.765,21
171.790,-55
171.815,-167
171.840,-281
171.865,-326
171.890,-248
171.915,-57
171.940,172
171.965,358
171.990,460
172.015,490
172.040,483
172.065,463
172.090,438
172.115,410
172.140,383
172.165,368
172.190,364
172.215,358
172.240,337
172.265,289
172.290,218
172.315,138
172.340,65
172.365,0
172.390,-75
172.415,-178
172.440,-298
172.465,-379
172.490,-355
172.515,-205
172.540,23
172.565,243
172.590,386
172.615,448
172.640,464
172.665,467
172.690,463
172.715,446
172.740,424
172.765,413
172.790,417
172.815,423
172.840,409
172.865,371
172.890,319
172.915,258
172.940,188
172.965,110
172.990,35
173.015,-30
173.040,-104
173.065,-204
173.090,-314
173.115,-371
173.140,-303
173.165,-100
173.190,161
173.215,378
173.240,492
173.265,525
173.290,533
173.315,546
173.340,551
173.365,529
173.390,492
173.415,470
173.440,474
173.465,480
173.490,456
173.515,398
173.540,329
173.565,269
173.590,214
173.615,146
173.640,65
173.665,-9
173.690,-69
173.715,-132
173.740,-224
173.765,-332
173.790,-398
173.815,-354
173.840,-189
173.865,38
173.890,238
173.915,357
173.940,402
173.965,412
173.990,413
174.015,405
174.040,388
174.065,372
174.090,373
174.115,389
174.140,399
174.165,384
174.190,346
174.215,302
174.240,259
174.265,207
174.290,140
174.315,67
174.340,6
174.365,-46
174.390,-116
174.415,-216
174.440,-309
174.465,-322
174.490,-211
174.515,-8
174.540,199
174.565,335
174.590,390
174.615,407
174.640,423
174.665,438
174.690,433
174.715,411
174.740,397
174.765,408
174.790,429
174.815,429
174.840,397
174.865,349
174.890,305
174.915,261
174.940,203
174.965,130
174.990,60
175.015,4
175.040,-54
175.065,-140
175.090,-241
175.115,-301
175.140,-260
175.165,-113
175.190,80
175.215,247
175.240,351
175.265,409
175.290,448
175.315,478
175.340,491
175.365,486
175.390,477
175.415,479
175.440,490
175.465,493
175.490,478
175.515,446
175.540,407
175.565,366
175.590,320
175.615,268
175.640,209
175.665,146
175.690,78
175.715,12
175.740,-46
175.765,-97
175.790,-154
175.815,-233
175.840,-325
175.865,-384
175.890,-357
175.915,-224
175.940,-31
175.965,150
175.990,270
176.015,332
176.040,369
176.065,408
176.090,441
176.115,452
176.140,444
176.165,438
176.190,450
176.215,472
176.240,478
176.265,452
176.290,406
176.315,361
176.340,325
176.365,288
176.390,234
176.415,164
176.440,95
176.465,39
176.490,-12
176.515,-81
176.540,-172
176.565,-254
176.590,-274
176.615,-200
176.640,-49
176.665,121
176.690,253
176.715,327
176.740,359
176.765,378
176.790,393
176.815,398
176.840,392
176.865,386
176.890,391
176.915,406
176.940,410
176.965,389
176.990,350
177.015,307
177.040,268
177.065,225
177.090,167
177.115,101
177.140,41
177.165,-11
177.190,-73
177.215,-157
177.240,-242
177.265,-277
177.290,-220
177.315,-73
177.340,109
177.365,264
177.390,358
177.415,401
177.440,424
177.465,443
177.490,456
177.515,459
177.540,456
177.565,458
177.590,469
177.615,478
177.640,469
177.665,437
177.690,389
177.715,340
177.740,293
177.765,238
177.790,167
177.815,83
177.840,4
177.865,-60
177.890,-121
177.915,-203
177.940,-311
177.965,-407
177.990,-425
178.015,-323
178.040,-124
178.065,92
178.090,252
178.115,334
178.140,372
178.165,404
178.190,439
178.215,457
178.240,449
178.265,432
178.290,433
178.315,452
178.340,462
178.365,440
178.390,391
178.415,340
178.440,296
178.465,247
178.490,175
178.515,85
178.540,3
178.565,-58
178.590,-120
178.615,-209
178.640,-314
178.665,-373
178.690,-320
178.715,-147
178.740,83
178.765,283
178.790,404
178.815,459
178.840,487
178.865,513
178.890,530
178.915,524
178.940,503
178.965,490
178.990,497
179.015,511
179.040,507
179.065,474
179.090,421
179.115,367
179.140,315
179.165,253
179.190,172
179.215,82
179.240,1
179.265,-65
179.290,-138
179.315,-235
179.340,-341
179.365,-397
179.390,-341
179.415,-164
179.440,71
179.465,274
179.490,390
179.515,431
179.540,447
179.565,465
179.590,480
179.615,472
179.640,447
179.665,432
179.690,441
179.715,458
179.740,450
179.765,410
179.790,356
179.815,307
179.840,260
179.865,197
179.890,115
179.915,35
179.940,-27
179.965,-89
179.990,-177
180.015,-287
180.040,-360
180.065,-326
180.090,-172
180.115,40
180.140,223
180.165,330
180.190,372
180.215,388
180.240,396
180.265,392
180.290,373
180.315,354
180.340,350
180.365,360
180.390,363
180.415,348
180.440,317
180.465,278
180.490,233
180.515,178
180.540,118
180.565,60
180.590,2
180.615,-73
180.640,-166
180.665,-233
180.690,-214
180.715,-82
180.740,116
180.765,297
180.790,401
180.815,435
180.840,446
180.865,459
180.890,461
180.915,439
180.940,405
180.965,388
180.990,398
181.015,408
181.040,388
181.065,340
181.090,288
181.115,248
181.140,204
181.165,137
181.190,54
181.215,-20
181.240,-80
181.265,-149
181.290,-244
181.315,-330
181.340,-335
181.365,-215
181.390,-7
181.415,195
181.440,323
181.465,377
181.490,405
181.515,438
181.540,465
181.565,463
181.590,435
181.615,412
181.640,411
181.665,419
181.690,412
181.715,381
181.740,339
181.765,296
181.790,243
181.815,172
181.840,91
181.865,19
181.890,-41
181.915,-116
181.940,-213
181.965,-300
181.990,-307
182.015,-193
182.040,7
182.065,209
182.090,341
182.115,398
182.140,424
182.165,452
182.190,475
182.215,472
182.240,444
182.265,418
182.290,417
182.315,429
182.340,426
182.365,394
182.390,344
182.415,298
182.440,253
182.465,193
182.490,111
182.515,25
182.540,-43
182.565,-105
182.590,-188
182.615,-297
182.640,-383
182.665,-371
182.690,-227
182.715,0
182.740,215
182.765,351
182.790,409
182.815,436
182.840,465
182.865,487
182.890,484
182.915,463
182.940,449
182.965,460
182.990,476
183.015,466
183.040,424
183.065,368
183.090,320
183.115,273
183.140,212
183.165,133
183.190,56
183.215,-8
183.240,-77
183.265,-176
183.290,-290
183.315,-353
183.340,-298
183.365,-124
183.390,98
183.415,283
183.440,387
183.465,430
183.490,445
183.515,450
183.540,441
183.565,420
183.590,403
183.615,399
183.640,403
183.665,398
183.690,376
183.715,340
183.740,292
183.765,230
183.790,156
183.815,83
183.840,17
183.865,-55
183.890,-153
183.915,-263
183.940,-324
183.965,-270
183.990,-94
184.015,132
184.040,314
184.065,407
184.090,436
184.115,448
184.140,461
184.165,458
184.190,432
184.215,400
184.240,388
184.265,395
184.290,395
184.315,369
184.340,320
184.365,265
184.390,205
184.415,133
184.440,51
184.465,-25
184.490,-94
184.515,-175
184.540,-283
184.565,-386
184.590,-412
184.615,-305
184.640,-87
184.665,152
184.690,324
184.715,407
184.740,436
184.765,454
184.790,467
184.815,461
184.840,434
184.865,407
184.890,397
184.915,401
184.940,397
184.965,371
184.990,326
185.015,268
185.040,204
185.065,137
185.090,72
185.115,7
185.140,-72
185.165,-177
185.190,-281
185.215,-323
185.240,-246
185.265,-53
185.290,180
185.315,367
185.340,467
185.365,503
185.390,521
185.415,541
185.440,548
185.465,531
185.490,502
185.515,488
185.540,497
185.565,507
185.590,488
185.615,434
185.640,367
185.665,309
185.690,262
185.715,207
185.740,130
185.765,41
185.790,-39
185.815,-99
185.840,-154
185.865,-232
185.890,-340
185.915,-441
185.940,-470
185.965,-377
185.990,-176
186.015,61
186.040,253
186.065,361
186.090,405
186.115,429
186.140,456
186.165,475
186.190,473
186.215,455
186.240,446
186.265,460
186.290,481
186.315,481
186.340,448
186.365,396
186.390,346
186.415,299
186.440,242
186.465,166
186.490,82
186.515,12
186.540,-41
186.565,-99
186.590,-183
186.615,-277
186.640,-328
186.665,-285
186.690,-137
186.715,62
186.740,241
186.765,352
186.790,398
186.815,413
186.840,427
186.865,441
186.890,442
186.915,431
186.940,420
186.965,425
186.990,440
187.015,443
187.040,417
187.065,367
187.090,314
187.115,272
187.140,232
187.165,178
187.190,107
187.215,35
187.240,-22
187.265,-76
187.290,-148
187.315,-239
187.340,-308
187.365,-296
187.390,-177
187.415,11
187.440,194
187.465,313
187.490,365
187.515,385
187.540,401
187.565,413
187.590,410
187.615,396
187.640,392
187.665,409
187.690,429
187.715,424
187.740,387
187.765,339
187.790,300
187.815,265
187.840,217
187.865,149
187.890,80
187.915,27
187.940,-21
187.965,-94
187.990,-188
188.015,-253
188.040,-224
188.065,-87
188.090,100
188.115,259
188.140,349
188.165,384
188.190,400
188.215,411
188.240,404
188.265,379
188.290,356
188.315,355
188.340,369
188.365,375
188.390,355
188.415,320
188.440,285
188.465,247
188.490,196
188.515,132
188.540,71
188.565,22
188.590,-34
188.615,-119
188.640,-218
188.665,-267
188.690,-208
188.715,-45
188.740,152
188.765,306
188.790,386
188.815,417
188.840,429
188.865,431
188.890,415
188.915,387
188.940,371
188.965,376
188.990,386
189.015,379
189.040,348
189.065,307
189.090,266
189.115,220
189.140,161
189.165,94
189.190,29
189.215,-37
189.240,-121
189.265,-220
189.290,-286
189.315,-255
189.340,-109
189.365,98
189.390,280
189.415,386
189.440,426
189.465,439
189.490,446
189.515,440
189.540,418
189.565,393
189.590,385
189.615,392
189.640,393
189.665,370
189.690,327
189.715,276
189.740,219
189.765,154
189.790,83
189.815,16
189.840,-49
189.865,-132
189.890,-239
189.915,-327
189.940,-325
189.965,-193
189.990,27
190.015,244
190.040,381
190.065,435
190.090,452
190.115,466
190.140,475
190.165,462
190.190,431
190.215,411
190.240,414
190.265,422
190.290,408
190.315,368
190.340,317
190.365,266
190.390,206
190.415,131
190.440,50
190.465,-21
190.490,-90
190.515,-178
190.540,-284
190.565,-355
190.590,-317
190.615,-148
190.640,88
190.665,290
190.690,399
190.715,435
190.740,451
190.765,469
190.790,475
190.815,453
190.840,420
190.865,410
190.890,428
190.915,442
190.940,419
190.965,364
190.990,309
191.015,267
191.040,221
191.065,153
191.090,70
191.115,-3
191.140,-65
191.165,-141
191.190,-247
191.215,-345
191.240,-353
191.265,-226
191.290,-2
191.315,217
191.340,358
191.365,417
191.390,440
191.415,460
191.440,473
191.465,461
191.490,434
191.515,420
191.540,431
191.565,445
191.590,434
191.615,393
191.640,344
191.665,301
191.690,254
191.715,190
191.740,115
191.765,49
191.790,-4
191.815,-72
191.840,-169
191.865,-259
191.890,-274
191.915,-168
191.940,25
191.965,221
191.990,348
192.015,396
192.040,405
192.065,405
192.090,402
192.115,386
192.140,362
192.165,348
192.190,351
192.215,357
192.240,350
192.265,326
192.290,292
192.315,251
192.340,198
192.365,136
192.390,77
192.415,29
192.440,-23
192.465,-100
192.490,-190
192.515,-241
192.540,-197
192.565,-52
192.590,135
192.615,290
192.640,372
192.665,396
192.690,394
192.715,384
192.740,367
192.765,345
192.790,330
192.815,329
192.840,336
192.865,333
192.890,313
192.915,280
192.940,240
192.965,194
192.990,142
193.015,90
193.040,36
193.065,-25
193.090,-105
193.115,-185
193.140,-214
193.165,-149
193.190,6
193.215,191
193.240,334
193.265,402
193.290,415
193.315,411
193.340,405
193.365,391
193.390,369
193.415,353
193.440,352
193.465,360
193.490,356
193.515,331
193.540,292
193.565,249
193.590,202
193.615,145
193.640,82
193.665,24
193.690,-33
193.715,-106
193.740,-197
193.765,-266
193.790,-250
193.815,-120
193.840,83
193.865,274
193.890,389
193.915,428
193.940,434
193.965,439
193.990,441
194.015,426
194.040,402
194.065,392
194.090,400
194.115,407
194.140,388
194.165,344
194.190,296
194.215,254
194.240,207
194.265,142
194.290,65
194.315,-3
194.340,-63
194.365,-134
194.390,-226
194.415,-301
194.440,-289
194.465,-155
194.490,55
194.515,255
194.540,374
194.565,416
194.590,424
194.615,431
194.640,431
194.665,412
194.690,383
194.715,374
194.740,393
194.765,415
194.790,412
194.815,378
194.840,333
194.865,292
194.890,245
194.915,178
194.940,101
194.965,34
194.990,-20
195.015,-90
195.040,-193
195.065,-297
195.090,-328
195.115,-231
195.140,-29
195.165,193
195.190,354
195.215,432
195.240,458
195.265,467
195.290,468
195.315,456
195.340,436
195.365,424
195.390,427
195.415,433
195.440,424
195.465,396
195.490,355
195.515,307
195.540,249
195.565,184
195.590,121
195.615,64
195.640,0
195.665,-90
195.690,-195
195.715,-262
195.740,-229
195.765,-82
195.790,125
195.815,308
195.840,411
195.865,436
195.890,418
195.915,390
195.940,362
195.965,332
195.990,302
196.015,281
196.040,270
196.065,261
196.090,242
196.115,206
196.140,154
196.165,94
196.190,34
196.215,-18
196.240,-75
196.265,-152
196.290,-251
196.315,-340
196.340,-360
196.365,-267
196.390,-75
196.415,142
196.440,306
196.465,380
196.490,386
196.515,369
196.540,354
196.565,342
196.590,325
196.615,312
196.640,316
196.665,339
196.690,363
196.715,367
196.740,343
196.765,307
196.790,278
196.815,261
196.840,240
196.865,197
196.890,135
196.915,89
196.940,118
196.965,258
196.990,490
197.015,735
197.040,908
197.065,963
197.090,922
197.115,836
197.140,737
197.165,626
197.190,492
197.215,349
197.240,230
197.265,152
197.290,97
197.315,32
197.340,-59
197.365,-161
197.390,-246
197.415,-317
197.440,-406
197.465,-536
197.490,-683
197.515,-776
197.540,-749
197.565,-585
197.590,-333
197.615,-72
197.640,132
197.665,259
197.690,323
197.715,350
197.740,359
197.765,358
197.790,354
197.815,355
197.840,368
197.865,388
197.890,400
197.915,386
197.940,343
197.965,288
197.990,238
198.015,194
198.040,136
198.065,50
198.090,-45
198.115,-96
198.140,-53
198.165,90
198.190,282
198.215,445
198.240,531
198.265,546
198.290,525
198.315,500
198.340,476
198.365,447
198.390,414
198.415,392
198.440,387
198.465,382
198.490,354
198.515,296
198.540,225
198.565,163
198.590,113
198.615,48
198.640,-45
198.665,-150
198.690,-209
198.715,-171
198.740,-35
198.765,146
198.790,306
198.815,398
198.840,424
198.865,412
198.890,389
198.915,364
198.940,337
198.965,311
198.990,296
199.015,294
199.040,293
199.065,272
199.090,224
199.115,162
199.140,107
199.165,64
199.190,15
199.215,-62
199.240,-163
199.265,-240
199.290,-237
199.315,-130
199.340,49
199.365,234
199.390,363
199.415,419
199.440,420
199.465,399
199.490,378
199.515,360
199.540,342
199.565,329
199.590,326
199.615,330
199.640,327
199.665,300
199.690,247
199.715,183
199.740,128
199.765,85
199.790,34
199.815,-44
199.840,-144
199.865,-221
199.890,-219
199.915,-112
199.940,68
199.965,257
199.990,391
200.015,449
200.040,450
200.065,427
200.090,404
200.115,384
200.140,367
200.165,355
200.190,352
200.215,354
200.240,349
200.265,324
200.290,276
200.315,218
200.340,164
200.365,112
200.390,49
200.415,-36
200.440,-133
200.465,-196
200.490,-175
200.515,-55
200.540,127
200.565,301
200.590,408
200.615,436
200.640,415
200.665,383
200.690,356
200.715,331
200.740,306
200.765,288
200.790,286
200.815,289
200.840,276
200.865,236
200.890,179
200.915,127
200.940,84
200.965,32
200.990,-50
201.015,-155
201.040,-234
201.065,-229
201.090,-116
201.115,71
201.140,267
201.165,404
201.190,459
201.215,448
201.240,410
201.265,371
201.290,343
201.315,324
201.340,314
201.365,314
201.390,316
201.415,304
201.440,264
201.465,199
201.490,132
201.515,77
201.540,26
201.565,-45
201.590,-146
201.615,-244
201.640,-276
201.665,-199
201.690,-24
201.715,183
201.740,351
201.765,441
201.790,461
201.815,446
201.840,423
201.865,403
201.890,386
201.915,372
201.940,366
201.965,366
201.990,361
202.015,338
202.040,288
202.065,221
202.090,155
202.115,101
202.140,49
202.165,-21
202.190,-122
202.215,-225
202.240,-272
202.265,-210
202.290,-38
202.315,181
202.340,366
202.365,469
202.390,500
202.415,498
202.440,493
202.465,487
202.490,472
202.515,454
202.540,448
202.565,457
202.590,464
202.615,443
202.640,391
202.665,327
202.690,274
202.715,228
202.740,170
202.765,89
202.790,0
202.815,-76
202.840,-139
202.865,-213
202.890,-310
202.915,-402
202.940,-421
202.965,-320
202.990,-116
203.015,112
203.040,284
203.065,369
203.090,395
203.115,406
203.140,420
203.165,427
203.190,418
203.215,406
203.240,410
203.265,431
203.290,442
203.315,420
203.340,369
203.365,315
203.390,272
203.415,231
203.440,171
203.465,96
203.490,27
203.515,-19
203.540,-64
203.565,-136
203.590,-230
203.615,-286
203.640,-238
203.665,-73
203.690,143
203.715,321
203.740,415
203.765,441
203.790,443
203.815,445
203.840,442
203.865,428
203.890,415
203.915,416
203.940,427
203.965,426
203.990,400
204.015,358
204.040,316
204.065,277
204.090,229
204.115,169
204.140,108
204.165,55
204.190,0
204.215,-76
204.240,-165
204.265,-217
204.290,-178
204.315,-42
204.340,134
204.365,277
204.390,350
204.415,368
204.440,365
204.465,358
204.490,346
204.515,328
204.540,315
204.565,316
204.590,324
204.615,322
204.640,304
204.665,275
204.690,239
204.715,196
204.740,143
204.765,88
204.790,39
204.815,-10
204.840,-77
204.865,-160
204.890,-218
204.915,-197
204.940,-80
204.965,89
204.990,240
205.015,330
205.040,369
205.065,388
205.090,402
205.115,402
205.140,381
205.165,356
205.190,350
205.215,363
205.240,373
205.265,358
205.290,322
205.315,283
205.340,246
205.365,200
205.390,138
205.415,72
205.440,15
205.465,-37
205.490,-105
205.515,-186
205.540,-239
205.565,-211
205.590,-86
205.615,91
205.640,248
205.665,342
205.690,384
205.715,409
205.740,436
205.765,454
205.790,452
205.815,436
205.840,430
205.865,443
205.890,457
205.915,449
205.940,413
205.965,364
205.990,319
206.015,277
206.040,225
206.065,155
206.090,80
206.115,16
206.140,-34
206.165,-93
206.190,-177
206.215,-276
206.240,-342
206.265,-321
206.290,-198
206.315,-11
206.340,175
206.365,308
206.390,377
206.415,407
206.440,426
206.465,442
206.490,451
206.515,450
206.540,448
206.565,454
206.590,467
206.615,469
206.640,448
206.665,404
206.690,355
206.715,313
206.740,272
206.765,216
206.790,142
206.815,63
206.840,-1
206.865,-53
206.890,-115
206.915,-205
206.940,-304
206.965,-354
206.990,-301
207.015,-140
207.040,68
207.065,245
207.090,347
207.115,383
207.140,395
207.165,408
207.190,418
207.215,416
207.240,406
207.265,406
207.290,421
207.315,436
207.340,425
207.365,385
207.390,335
207.415,293
207.440,255
207.465,205
207.490,136
207.515,62
207.540,-1
207.565,-60
207.590,-137
207.615,-230
207.640,-297
207.665,-278
207.690,-145
207.715,58
207.740,253
207.765,377
207.790,428
207.815,443
207.840,453
207.865,459
207.890,449
207.915,428
207.940,416
207.965,427
207.990,443
208.015,438
208.040,401
208.065,351
208.090,308
208.115,271
208.140,221
208.165,149
208.190,73
208.215,12
208.240,-41
208.265,-114
208.290,-209
208.315,-279
208.340,-259
208.365,-122
208.390,81
208.415,267
208.440,376
208.465,413
208.490,413
208.515,405
208.540,391
208.565,369
208.590,348
208.615,344
208.640,352
208.665,355
208.690,341
208.715,312
208.740,279
208.765,240
208.790,188
208.815,124
208.840,62
208.865,9
208.890,-51
208.915,-138
208.940,-234
208.965,-276
208.990,-209
209.015,-38
209.040,166
209.065,321
209.090,394
209.115,412
209.140,412
209.165,408
209.190,392
209.215,364
209.240,342
209.265,340
209.290,349
209.315,346
209.340,322
209.365,286
209.390,245
209.415,198
209.440,140
209.465,78
209.490,27
209.515,-20
209.540,-86
209.565,-175
209.590,-242
209.615,-220
209.640,-80
209.665,129
209.690,315
209.715,417
209.740,447
209.765,453
209.790,464
209.815,468
209.840,448
209.865,418
209.890,405
209.915,416
209.940,426
209.965,405
209.990,355
210.015,304
210.040,265
210.065,226
210.090,169
210.115,97
210.140,28
210.165,-35
210.190,-113
210.215,-211
210.240,-288
210.265,-277
210.290,-145
210.315,59
210.340,248
210.365,356
210.390,393
210.415,403
210.440,416
210.465,424
210.490,409
210.515,382
210.540,370
210.565,382
210.590,396
210.615,384
210.640,344
210.665,298
210.690,260
210.715,220
210.740,161
210.765,86
210.790,18
210.815,-33
210.840,-91
210.865,-177
210.890,-274
210.915,-313
210.940,-237
210.965,-54
210.990,158
211.015,316
211.040,388
211.065,406
211.090,411
211.115,419
211.140,417
211.165,401
211.190,388
211.215,395
211.240,414
211.265,419
211.290,393
211.315,348
211.340,305
211.365,265
211.390,213
211.415,141
211.440,65
211.465,6
211.490,-46
211.515,-119
211.540,-221
211.565,-305
211.590,-297
211.615,-164
211.640,46
211.665,244
211.690,367
211.715,416
211.740,433
211.765,445
211.790,448
211.815,431
211.840,406
211.865,396
211.890,408
211.915,421
211.940,410
211.965,374
211.990,329
212.015,283
212.040,230
212.065,162
212.090,88
212.115,24
212.140,-36
212.165,-114
212.190,-213
212.215,-286
212.240,-270
212.265,-138
212.290,62
212.315,245
212.340,355
212.365,393
212.390,400
212.415,401
212.440,398
212.465,382
212.490,364
212.515,361
212.540,373
212.565,381
212.590,367
212.615,334
212.640,290
212.665,242
212.690,184
212.715,114
212.740,44
212.765,-20
212.790,-90
212.815,-179
212.840,-268
212.865,-299
212.890,-220
212.915,-36
212.940,177
212.965,337
212.990,411
213.015,431
213.040,444
213.065,461
213.090,464
213.115,442
213.140,416
213.165,414
213.190,434
213.215,442
213.240,413
213.265,357
213.290,303
213.315,263
213.340,217
213.365,147
213.390,60
213.415,-15
213.440,-72
213.465,-135
213.490,-231
213.515,-337
213.540,-384
213.565,-312
213.590,-129
213.615,87
213.640,260
213.665,360
213.690,414
213.715,456
213.740,493
213.765,510
213.790,507
213.815,500
213.840,505
213.865,520
213.890,527
213.915,513
213.940,482
213.965,443
213.990,397
214.015,343
214.040,281
214.065,218
214.090,156
214.115,88
214.140,13
214.165,-59
214.190,-118
214.215,-173
214.240,-246
214.265,-343
214.290,-423
214.315,-421
214.340,-298
214.365,-88
214.390,126
214.415,277
214.440,352
214.465,388
214.490,417
214.515,445
214.540,458
214.565,454
214.590,451
214.615,463
214.640,484
214.665,495
214.690,481
214.715,447
214.740,406
214.765,364
214.790,320
214.815,266
214.840,202
214.865,132
214.890,64
214.915,6
214.940,-46
214.965,-107
214.990,-187
215.015,-271
215.040,-309
215.065,-254
215.090,-101
215.115,93
215.140,252
215.165,334
215.190,354
215.215,359
215.240,373
215.265,387
215.290,384
215.315,371
215.340,370
215.365,388
215.390,403
215.415,394
215.440,359
215.465,319
215.490,286
215.515,250
215.540,195
215.565,126
215.590,65
215.615,22
215.640,-24
215.665,-99
215.690,-187
215.715,-232
215.740,-182
215.765,-36
215.790,144
215.815,291
215.840,374
215.865,407
215.890,423
215.915,436
215.940,440
215.965,435
215.990,428
216.015,431
216.040,443
216.065,452
216.090,445
216.115,417
216.140,376
216.165,333
216.190,290
216.215,242
216.240,182
216.265,111
216.290,39
216.315,-20
216.340,-67
216.365,-118
216.390,-191
216.415,-281
216.440,-343
216.465,-323
216.490,-201
216.515,-13
216.540,169
216.565,291
216.590,347
216.615,370
216.640,391
216.665,415
216.690,429
216.715,429
216.740,425
216.765,433
216.790,451
216.815,461
216.840,450
216.865,418
216.890,379
216.915,341
216.940,302
216.965,250
216.990,185
217.015,118
217.040,62
217.065,15
217.090,-39
217.115,-118
217.140,-213
217.165,-278
217.190,-262
217.215,-143
217.240,44
217.265,230
217.290,357
217.315,412
217.340,428
217.365,437
217.390,451
217.415,456
217.440,445
217.465,432
217.490,434
217.515,449
217.540,455
217.565,432
217.590,386
217.615,340
217.640,303
217.665,257
217.690,188
217.715,101
217.740,24
217.765,-32
217.790,-91
217.815,-181
217.840,-288
217.865,-346
217.890,-285
217.915,-104
217.940,121
217.965,293
217.990,368
218.015,374
218.040,361
218.065,353
218.090,338
218.115,306
218.140,274
218.165,268
218.190,288
218.215,300
218.240,275
218.265,219
218.290,163
218.315,129
218.340,108
218.365,78
218.390,34
218.415,-16
218.440,-68
218.465,-135
218.490,-221
218.515,-294
218.540,-286
218.565,-150
218.590,88
218.615,347
218.640,542
218.665,643
218.690,684
218.715,709
218.740,736
218.765,750
218.790,738
218.815,710
218.840,690
218.865,686
218.890,680
218.915,651
218.940,593
218.965,518
218.990,442
219.015,358
219.040,246
219.065,96
219.090,-71
219.115,-225
219.140,-351
219.165,-462
219.190,-579
219.215,-687
219.240,-732
219.265,-660
219.290,-471
219.315,-235
219.340,-44
219.365,52
219.390,77
219.415,83
219.440,106
219.465,148
219.490,191
219.515,228
219.540,267
219.565,310
219.590,348
219.615,363
219.640,349
219.665,305
219.690,240
219.715,168
219.740,109
219.765,80
219.790,76
219.815,69
219.840,29
219.865,-32
219.890,-60
219.915,7
219.940,180
219.965,402
219.990,594
220.015,708
220.040,751
220.065,756
220.090,752
220.115,742
220.140,722
220.165,688
220.190,642
220.215,584
220.240,518
220.265,450
220.290,385
220.315,323
220.340,260
220.365,196
220.390,135
220.415,72
220.440,-6
220.465,-106
220.490,-199
220.515,-232
220.540,-169
220.565,-25
220.590,136
220.615,256
220.640,313
220.665,329
220.690,329
220.715,319
220.740,297
220.765,269
220.790,250
220.815,248
220.840,249
220.865,239
220.890,216
220.915,189
220.940,160
220.965,124
220.990,76
221.015,23
221.040,-24
221.065,-74
221.090,-136
221.115,-202
221.140,-227
221.165,-170
221.190,-28
221.215,141
221.240,273
221.265,338
221.290,357
221.315,362
221.340,368
221.365,365
221.390,349
221.415,330
221.440,320
221.465,318
221.490,310
221.515,288
221.540,252
221.565,203
221.590,141
221.615,71
221.640,4
221.665,-50
221.690,-106
221.715,-181
221.740,-277
221.765,-354
221.790,-359
221.815,-274
221.840,-134
221.865,-2
221.890,78
221.915,105
221.940,107
221.965,112
221.990,138
222.015,183
222.040,227
222.065,234
222.090,185
222.115,110
222.140,89
222.165,197
222.190,435
222.215,713
222.240,911
222.265,965
222.290,895
222.315,776
222.340,667
222.365,579
222.390,491
222.415,379
222.440,239
222.465,96
222.490,-3
222.515,-16
222.540,68
222.565,210
222.590,335
222.615,395
222.640,396
222.665,382
222.690,381
222.715,385
222.740,368
222.765,331
222.790,302
222.815,298
222.840,304
222.865,288
222.890,239
222.915,181
222.940,140
222.965,105
222.990,48
223.015,-40
223.040,-136
223.065,-209
223.090,-266
223.115,-341
223.140,-441
223.165,-519
223.190,-511
223.215,-399
223.240,-235
223.265,-98
223.290,-22
223.315,14
223.340,49
223.365,97
223.390,140
223.415,168
223.440,195
223.465,240
223.490,299
223.515,347
223.540,368
223.565,366
223.590,355
223.615,346
223.640,336
223.665,331
223.690,347
223.715,386
223.740,423
223.765,418
223.790,361
223.815,296
223.840,288
223.865,367
223.890,492
223.915,588
223.940,610
223.965,573
223.990,526
224.015,502
224.040,491
224.065,471
224.090,435
224.115,401
224.140,381
224.165,370
224.190,342
224.215,282
224.240,192
224.265,86
224.290,-18
224.315,-107
224.340,-171
224.365,-208
224.390,-238
224.415,-286
224.440,-355
224.465,-407
224.490,-386
224.515,-262
224.540,-68
224.565,120
224.590,245
224.615,305
224.640,337
224.665,369
224.690,395
224.715,400
224.740,385
224.765,379
224.790,398
224.815,429
224.840,440
224.865,420
224.890,381
224.915,342
224.940,304
224.965,249
224.990,178
225.015,109
225.040,54
225.065,-2
225.090,-84
225.115,-181
225.140,-235
225.165,-187
225.190,-41
225.215,135
225.240,269
225.265,337
225.290,369
225.315,393
225.340,406
225.365,393
225.390,356
225.415,324
225.440,314
225.465,311
225.490,289
225.515,246
225.540,204
225.565,173
225.590,134
225.615,68
225.640,-12
225.665,-77
225.690,-124
225.715,-200
225.740,-344
225.765,-515
225.790,-600
225.815,-507
225.840,-259
225.865,18
225.890,216
225.915,324
225.940,414
225.965,536
225.990,663
226.015,735
226.040,732
226.065,698
226.090,683
226.115,690
226.140,677
226.165,617
226.190,524
226.215,433
226.240,358
226.265,289
226.290,215
226.315,139
226.340,65
226.365,-16
226.390,-111
226.415,-193
226.440,-206
226.465,-117
226.490,42
226.515,199
226.540,293
226.565,325
226.590,335
226.615,351
226.640,366
226.665,359
226.690,333
226.715,313
226.740,319
226.765,335
226.790,332
226.815,300
226.840,256
226.865,221
226.890,195
226.915,163
226.940,115
226.965,62
226.990,20
227.015,-17
227.040,-71
227.065,-151
227.090,-228
227.115,-248
227.140,-176
227.165,-29
227.190,130
227.215,247
227.240,304
227.265,325
227.290,341
227.315,359
227.340,368
227.365,364
227.390,355
227.415,359
227.440,375
227.465,386
227.490,376
227.515,346
227.540,309
227.565,272
227.590,230
227.615,176
227.640,116
227.665,64
227.690,20
227.715,-31
227.740,-102
227.765,-174
227.790,-198
227.815,-136
227.840,1
227.865,153
227.890,261
227.915,307
227.940,316
227.965,322
227.990,330
228.015,327
228.040,309
228.065,291
228.090,293
228.115,314
228.140,333
228.165,331
228.190,311
228.215,287
228.240,265
228.265,234
228.290,186
228.315,130
228.340,83
228.365,46
228.390,1
228.415,-59
228.440,-113
228.465,-111
228.490,-25
228.515,122
228.540,266
228.565,355
228.590,386
228.615,391
228.640,396
228.665,398
228.690,385
228.715,365
228.740,363
228.765,389
228.790,424
228.815,433
228.840,406
228.865,365
228.890,335
228.915,314
228.940,280
228.965,224
228.990,160
229.015,103
229.040,46
229.065,-31
229.090,-125
229.115,-190
229.140,-170
229.165,-56
229.190,100
229.215,229
229.240,300
229.265,330
229.290,352
229.315,374
229.340,386
229.365,381
229.390,369
229.415,365
229.440,363
229.465,346
229.490,307
229.515,254
229.540,201
229.565,149
229.590,93
229.615,33
229.640,-27
229.665,-90
229.690,-171
229.715,-273
229.740,-369
229.765,-405
229.790,-343
229.815,-195
229.840,-21
229.865,114
229.890,187
229.915,211
229.940,213
229.965,212
229.990,214
230.015,221
230.040,233
230.065,250
230.090,266
230.115,278
230.140,284
230.165,281
230.190,269
230.215,249
230.240,229
230.265,213
230.290,191
230.315,146
230.340,79
230.365,21
230.390,19
230.415,98
230.440,234
230.465,372
230.490,465
230.515,504
230.540,507
230.565,494
230.590,471
230.615,439
230.640,402
230.665,371
230.690,350
230.715,338
230.740,321
230.765,292
230.790,247
230.815,192
230.840,134
230.865,77
230.890,16
230.915,-56
230.940,-146
230.965,-231
230.990,-268
231.015,-223
231.040,-95
231.065,67
231.090,204
231.115,278
231.140,296
231.165,291
231.190,289
231.215,295
231.240,297
231.265,292
231.290,288
231.315,299
231.340,328
231.365,361
231.390,379
231.415,374
231.440,353
231.465,330
231.490,304
231.515,258
231.540,180
231.565,89
231.590,35
231.615,66
231.640,183
231.665,339
231.690,473
231.715,549
231.740,573
231.765,569
231.790,553
231.815,530
231.840,503
231.865,479
231.890,459
231.915,437
231.940,398
231.965,340
231.990,266
232.015,183
232.040,93
232.065,5
232.090,-68
232.115,-120
232.140,-157
232.165,-199
232.190,-248
232.215,-272
232.240,-228
232.265,-105
232.290,50
232.315,171
232.340,218
232.365,203
232.390,169
232.415,147
232.440,141
232.465,148
232.490,174
232.515,229
232.540,303
232.565,369
232.590,395
232.615,368
232.640,296
232.665,194
232.690,76
232.715,-52
232.740,-188
232.765,-322
232.790,-432
232.815,-487
232.840,-461
232.865,-357
232.890,-212
232.915,-86
232.940,-18
232.965,-5
232.990,-6
233.015,20
233.040,91
233.065,195
233.090,308
233.115,404
233.140,469
233.165,493
233.190,481
233.215,449
233.240,413
233.265,384
233.290,364
233.315,352
233.340,342
233.365,320
233.390,268
233.415,187
233.440,113
233.465,99
233.490,174
233.515,312
233.540,446
233.565,526
233.590,548
233.615,543
233.640,538
233.665,534
233.690,520
233.715,495
233.740,471
233.765,454
233.790,437
233.815,405
233.840,358
233.865,303
233.890,247
233.915,188
233.940,125
233.965,59
233.990,-9
234.015,-88
234.040,-185
234.065,-278
234.090,-327
234.115,-294
234.140,-183
234.165,-43
234.190,72
234.215,140
234.240,168
234.265,171
234.290,158
234.315,131
234.340,105
234.365,97
234.390,111
234.415,134
234.440,146
234.465,139
234.490,117
234.515,88
234.540,59
234.565,34
234.590,17
234.615,2
234.640,-20
234.665,-51
234.690,-64
234.715,-17
234.740,109
234.765,285
234.790,448
234.815,551
234.840,593
234.865,603
234.890,603
234.915,588
234.940,551
234.965,503
234.990,470
235.015,459
235.040,451
235.065,424
235.090,380
235.115,335
235.140,299
235.165,262
235.190,212
235.215,152
235.240,101
235.265,59
235.290,7
235.315,-70
235.340,-148
235.365,-175
235.390,-117
235.415,6
235.440,134
235.465,218
235.490,247
235.515,245
235.540,232
235.565,213
235.590,189
235.615,168
235.640,164
235.665,178
235.690,197
235.715,205
235.740,196
235.765,177
235.790,156
235.815,136
235.840,116
235.865,93
235.890,65
235.915,27
235.940,-17
235.965,-48
235.990,-34
236.015,40
236.040,159
236.065,279
236.090,359
236.115,387
236.140,379
236.165,361
236.190,346
236.215,333
236.240,317
236.265,304
236.290,298
236.315,300
236.340,299
236.365,281
236.390,245
236.415,199
236.440,158
236.465,126
236.490,89
236.515,35
236.540,-33
236.565,-88
236.590,-90
236.615,-24
236.640,91
236.665,209
236.690,286
236.715,310
236.740,297
236.765,274
236.790,256
236.815,245
236.840,235
236.865,228
236.890,227
236.915,232
236.940,235
236.965,224
236.990,197
237.015,161
237.040,128
237.065,101
237.090,70
237.115,19
237.140,-50
237.165,-111
237.190,-123
237.215,-60
237.240,64
237.265,202
237.290,305
237.315,348
237.340,346
237.365,325
237.390,305
237.415,290
237.440,275
237.465,260
237.490,252
237.515,253
237.540,256
237.565,249
237.590,224
237.615,189
237.640,156
237.665,132
237.690,108
237.715,63
237.740,-6
237.765,-81
237.790,-114
237.815,-71
237.840,46
237.865,193
237.890,312
237.915,369
237.940,372
237.965,354
237.990,339
238.015,331
238.040,319
238.065,303
238.090,292
238.115,297
238.140,310
238.165,313
238.190,293
238.215,255
238.240,218
238.265,191
238.290,167
238.315,123
238.340,53
238.365,-17
238.390,-44
238.415,6
238.440,126
238.465,271
238.490,382
238.515,429
238.540,422
238.565,394
238.590,367
238.615,347
238.640,326
238.665,304
238.690,289
238.715,285
238.740,285
238.765,272
238.790,239
238.815,199
238.840,165
238.865,136
238.890,92
238.915,17
238.940,-72
238.965,-129
238.990,-108
239.015,-3
239.040,141
239.065,262
239.090,319
239.115,315
239.140,282
239.165,245
239.190,209
239.215,171
239.240,135
239.265,113
239.290,109
239.315,110
239.340,93
239.365,54
239.390,8
239.415,-25
239.440,-53
239.465,-97
239.490,-168
239.515,-239
239.540,-252
239.565,-168
239.590,-1
239.615,184
239.640,324
239.665,393
239.690,411
239.715,411
239.740,409
239.765,402
239.790,387
239.815,373
239.840,372
239.865,379
239.890,376
239.915,349
239.940,307
239.965,268
239.990,236
240.015,196
240.040,126
240.065,39
240.090,-21
240.115,-5
240.140,96
240.165,241
240.190,361
240.215,418
240.240,417
240.265,392
240.290,366
240.315,342
240.340,314
240.365,285
240.390,271
240.415,272
240.440,270
240.465,244
240.490,190
240.515,130
240.540,82
240.565,39
240.590,-23
240.615,-114
240.640,-200
240.665,-226
240.690,-159
240.715,-22
240.740,122
240.765,221
240.790,261
240.815,266
240.840,263
240.865,261
240.890,258
240.915,252
240.940,251
240.965,255
240.990,257
241.015,246
241.040,227
241.065,211
241.090,201
241.115,180
241.140,126
241.165,44
241.190,-22
241.215,-22
241.240,60
241.265,187
241.290,298
241.315,356
241.340,370
241.365,368
241.390,362
241.415,346
241.440,316
241.465,286
241.490,273
241.515,273
241.540,261
241.565,214
241.590,150
241.615,107
241.640,107
241.665,122
241.690,103
241.715,29
241.740,-64
241.765,-114
241.790,-81
241.815,14
241.840,124
241.865,208
241.890,257
241.915,284
241.940,302
241.965,312
241.990,317
242.015,322
242.040,332
242.065,343
242.090,349
242.115,345
242.140,328
242.165,303
242.190,270
242.215,233
242.240,195
242.265,157
242.290,111
242.315,49
242.340,-20
242.365,-65
242.390,-50
242.415,30
242.440,146
242.465,248
242.490,306
242.515,325
242.540,329
242.565,334
242.590,339
242.615,333
242.640,315
242.665,296
242.690,285
242.715,279
242.740,270
242.765,252
242.790,226
242.815,197
242.840,170
242.865,142
242.890,104
242.915,49
242.940,-18
242.965,-77
242.990,-94
243.015,-50
243.040,41
243.065,144
243.090,219
243.115,251
243.140,258
243.165,264
243.190,275
243.215,279
243.240,266
243.265,242
243.290,221
243.315,210
243.340,200
243.365,180
243.390,152
243.415,129
243.440,115
243.465,97
243.490,56
243.515,-6
243.540,-64
243.565,-79
243.590,-34
243.615,54
243.640,152
243.665,228
243.690,272
243.715,288
243.740,286
243.765,276
243.790,265
243.815,254
243.840,245
243.865,236
243.890,228
243.915,220
243.940,207
243.965,186
243.990,159
244.015,133
244.040,110
244.065,84
244.090,40
244.115,-25
244.140,-90
244.165,-114
244.190,-67
244.215,42
244.240,174
244.265,283
244.290,351
244.315,386
244.340,405
244.365,413
244.390,409
244.415,396
244.440,383
244.465,380
244.490,380
244.515,373
244.540,355
244.565,326
244.590,292
244.615,253
244.640,206
244.665,159
244.690,115
244.715,73
244.740,18
244.765,-54
244.790,-121
244.815,-141
244.840,-83
244.865,38
244.890,174
244.915,276
244.940,332
244.965,359
244.990,380
245.015,395
245.040,397
245.065,383
245.090,369
245.115,368
245.140,378
245.165,378
245.190,358
245.215,323
245.240,289
245.265,258
245.290,218
245.315,161
245.340,95
245.365,39
245.390,-2
245.415,-49
245.440,-121
245.465,-204
245.490,-253
245.515,-221
245.540,-102
245.565,54
245.590,187
245.615,261
245.640,291
245.665,308
245.690,326
245.715,339
245.740,336
245.765,323
245.790,316
245.815,320
245.840,324
245.865,313
245.890,285
245.915,256
245.940,231
245.965,202
245.990,156
246.015,94
246.040,36
246.065,-6
246.090,-45
246.115,-102
246.140,-174
246.165,-223
246.190,-201
246.215,-94
246.240,57
246.265,196
246.290,283
246.315,324
246.340,348
246.365,371
246.390,390
246.415,393
246.440,384
246.465,376
246.490,379
246.515,384
246.540,377
246.565,350
246.590,313
246.615,279
246.640,246
246.665,204
246.690,148
246.715,84
246.740,29
246.765,-11
246.790,-50
246.815,-106
246.840,-179
246.865,-240
246.890,-245
246.915,-170
246.940,-32
246.965,121
246.990,240
247.015,308
247.040,338
247.065,359
247.090,384
247.115,407
247.140,420
247.165,424
247.190,429
247.215,443
247.240,458
247.265,461
247.290,447
247.315,420
247.340,387
247.365,350
247.390,305
247.415,256
247.440,212
247.465,174
247.490,127
247.515,57
247.540,-27
247.565,-82
247.590,-63
247.615,36
247.640,173
247.665,286
247.690,344
247.715,360
247.740,365
247.765,370
247.790,366
247.815,345
247.840,317
247.865,301
247.890,298
247.915,293
247.940,267
247.965,225
247.990,185
248.015,155
248.040,124
248.065,76
248.090,16
248.115,-42
248.140,-94
248.165,-153
248.190,-225
248.215,-285
248.240,-287
248.265,-206
248.290,-69
248.315,65
248.340,156
248.365,203
248.390,236
248.415,267
248.440,285
248.465,275
248.490,252
248.515,241
248.540,255
248.565,272
248.590,257
248.615,200
248.640,121
248.665,50
248.690,7
248.715,-3
248.740,17
248.765,62
248.790,109
248.815,127
248.840,98
248.865,43
248.890,11
248.915,40
248.940,127
248.965,238
248.990,334
249.015,404
249.040,451
249.065,474
249.090,468
249.115,441
249.140,411
249.165,396
249.190,383
249.215,349
249.240,280
249.265,199
249.290,141
249.315,118
249.340,115
249.365,109
249.390,98
249.415,91
249.440,80
249.465,40
249.490,-37
249.515,-115
249.540,-128
249.565,-39
249.590,124
249.615,295
249.640,422
249.665,505
249.690,566
249.715,614
249.740,633
249.765,608
249.790,552
249.815,496
249.840,462
249.865,443
249.890,418
249.915,372
249.940,301
249.965,210
249.990,110
250.015,25
250.040,-22
250.065,-36
250.090,-51
250.115,-101
250.140,-183
250.165,-242
250.190,-222
250.215,-115
250.240,25
250.265,135
250.290,190
250.315,207
250.340,214
250.365,219
250.390,213
250.415,198
250.440,189
250.465,201
250.490,225
250.515,243
250.540,240
250.565,216
250.590,180
250.615,138
250.640,98
250.665,68
250.690,51
250.715,28
250.740,-21
250.765,-96
250.790,-150
250.815,-131
250.840,-19
250.865,143
250.890,292
250.915,385
250.940,427
250.965,443
250.990,449
251.015,444
251.040,428
251.065,408
251.090,397
251.115,394
251.140,388
251.165,369
251.190,338
251.215,299
251.240,254
251.265,204
251.290,154
251.315,103
251.340,42
251.365,-38
251.390,-130
251.415,-193
251.440,-181
251.465,-78
251.490,79
251.515,228
251.540,318
251.565,345
251.590,339
251.615,329
251.640,323
251.665,316
251.690,304
251.715,291
251.740,282
251.765,279
251.790,270
251.815,245
251.840,201
251.865,149
251.890,101
251.915,62
251.940,17
251.965,-48
251.990,-131
252.015,-192
252.040,-183
252.065,-82
252.090,78
252.115,237
252.140,344
252.165,391
252.190,401
252.215,397
252.240,391
252.265,380
252.290,367
252.315,359
252.340,355
252.365,350
252.390,334
252.415,305
252.440,264
252.465,214
252.490,163
252.515,116
252.540,76
252.565,29
252.590,-40
252.615,-129
252.640,-193
252.665,-180
252.690,-71
252.715,96
252.740,252
252.765,349
252.790,387
252.815,395
252.840,396
252.865,389
252.890,371
252.915,350
252.940,339
252.965,338
252.990,334
253.015,317
253.040,286
253.065,251
253.090,213
253.115,170
253.140,122
253.165,73
253.190,21
253.215,-42
253.240,-117
253.265,-178
253.290,-176
253.315,-87
253.340,64
253.365,216
253.390,313
253.415,345
253.440,342
253.465,334
253.490,329
253.515,320
253.540,306
253.565,293
253.590,290
253.615,291
253.640,285
253.665,265
253.690,231
253.715,188
253.740,142
253.765,102
253.790,65
253.815,19
253.840,-45
253.865,-122
253.890,-171
253.915,-148
253.940,-41
253.965,112
253.990,253
254.015,338
254.040,371
254.065,380
254.090,383
254.115,382
254.140,370
254.165,353
254.190,340
254.215,337
254.240,335
254.265,324
254.290,301
254.315,265
254.340,221
254.365,173
254.390,126
254.415,80
254.440,24
254.465,-49
254.490,-131
254.515,-179
254.540,-148
254.565,-32
254.590,123
254.615,255
254.640,328
254.665,350
254.690,352
254.715,352
254.740,347
254.765,332
254.790,314
254.815,304
254.840,301
254.865,296
254.890,278
254.915,249
254.940,213
254.965,171
254.990,123
255.015,74
255.040,28
255.065,-23
255.090,-95
255.115,-177
255.140,-227
255.165,-192
255.190,-62
255.215,111
255.240,255
255.265,328
255.290,349
255.315,360
255.340,377
255.365,387
255.390,374
255.415,351
255.440,340
255.465,347
255.490,354
255.515,338
255.540,302
255.565,265
255.590,234
255.615,195
255.640,140
255.665,78
255.690,25
255.715,-19
255.740,-80
255.765,-165
255.790,-238
255.815,-237
255.840,-128
255.865,54
255.890,234
255.915,350
255.940,396
255.965,412
255.990,429
256.015,444
256.040,441
256.065,421
256.090,403
256.115,404
256.140,417
256.165,415
256.190,386
256.215,339
256.240,295
256.265,260
256.290,217
256.315,156
256.340,83
256.365,23
256.390,-19
256.415,-66
256.440,-142
256.465,-234
256.490,-287
256.515,-244
256.540,-98
256.565,92
256.590,250
256.615,334
256.640,361
256.665,370
256.690,380
256.715,382
256.740,368
256.765,346
256.790,339
256.815,348
256.840,355
256.865,340
256.890,303
256.915,263
256.940,229
256.965,193
256.990,142
257.015,82
257.040,27
257.065,-16
257.090,-68
257.115,-146
257.140,-231
257.165,-268
257.190,-207
257.215,-50
257.240,140
257.265,292
257.290,371
257.315,396
257.340,403
257.365,413
257.390,418
257.415,408
257.440,391
257.465,382
257.490,389
257.515,398
257.540,388
257.565,355
257.590,312
257.615,276
257.640,245
257.665,205
257.690,148
257.715,85
257.740,31
257.765,-11
257.790,-63
257.815,-138
257.840,-219
257.865,-252
257.890,-191
257.915,-39
257.940,144
257.965,288
257.990,361
258.015,382
258.040,387
258.065,394
258.090,395
258.115,380
258.140,359
258.165,348
258.190,349
258.215,349
258.240,335
258.265,308
258.290,278
258.315,248
258.340,208
258.365,154
258.390,99
258.415,54
258.440,11
258.465,-48
258.490,-129
258.515,-191
258.540,-179
258.565,-73
258.590,87
258.615,232
258.640,315
258.665,343
258.690,350
258.715,354
258.740,349
258.765,326
258.790,298
258.815,286
258.840,295
258.865,305
258.890,296
258.915,268
258.940,235
258.965,207
258.990,175
259.015,131
259.040,80
259.065,35
259.090,-4
259.115,-60
259.140,-134
259.165,-190
259.190,-175
259.215,-65
259.240,100
259.265,247
259.290,329
259.315,354
259.340,361
259.365,370
259.390,373
259.415,356
259.440,328
259.465,316
259.490,325
259.515,337
259.540,328
259.565,298
259.590,265
259.615,238
259.640,207
259.665,158
259.690,98
259.715,47
259.740,8
259.765,-39
259.790,-114
259.815,-187
259.840,-199
259.865,-111
259.890,53
259.915,219
259.940,327
259.965,371
259.990,385
260.015,393
260.040,394
260.065,380
260.090,360
260.115,356
260.140,371
260.165,387
260.190,380
260.215,354
260.240,327
260.265,309
260.290,283
260.315,234
260.340,172
260.365,118
260.390,78
260.415,29
260.440,-48
260.465,-131
260.490,-159
260.515,-85
260.540,72
260.565,244
260.590,360
260.615,402
260.640,398
260.665,381
