df_hash,22ZHK4.Z7HMM1
device,HZ2X61
project_hash,29R7
project_name,istanbul_aydin_university
person_hash,29R7.7235
person_label,v141
date_time_start,2026-04-14_16-53-01.848000_+03
date_time_start_unix,1776167581.848
date_time_end,2026-04-14_17-01-17.693000_+03
length_difference_noticed,no

time,ppg_med
6.922,614
6.947,706
6.972,852
6.997,930
7.022,900
7.047,868
7.072,953
7.097,1107
7.122,1166
7.147,1071
7.172,970
7.197,1023
7.222,1166
7.247,1174
7.272,970
7.297,755
7.322,742
7.347,848
7.372,771
7.397,408
7.422,29
7.447,-78
7.472,-30
7.497,-222
7.522,-787
7.547,-1368
7.572,-1589
7.597,-1599
7.622,-1913
7.647,-2700
7.672,-3495
7.697,-3813
7.722,-3844
7.747,-4250
7.772,-5241
7.797,-6222
7.822,-6573
7.847,-6538
7.872,-6954
7.897,-8084
7.922,-9174
7.947,-9440
7.972,-9193
7.997,-9483
8.022,-10637
8.047,-11710
8.072,-11722
8.097,-11062
8.122,-11041
8.147,-12071
8.172,-12969
8.197,-12516
8.222,-11198
8.247,-10654
8.272,-11397
8.297,-11957
8.322,-10811
8.347,-8570
8.372,-7286
8.397,-7607
8.422,-7697
8.447,-5644
8.472,-2213
8.497,0
8.522,163
8.547,593
8.572,3731
8.597,8609
8.622,11889
8.647,12462
8.672,13320
8.697,17673
8.722,24279
8.747,28696
8.772,29373
8.797,30322
8.822,32767
8.847,32767
8.872,32767
8.897,32767
8.922,32767
8.947,32767
8.972,32767
8.997,32767
9.022,32767
9.047,32767
9.072,32767
9.097,32767
9.122,32767
9.147,32767
9.172,16631
9.197,-32768
9.222,-32768
9.247,-32768
9.272,-32768
9.297,-32768
9.322,-32768
9.347,-32768
9.372,-32768
9.397,-32768
9.422,-32768
9.447,-32768
9.472,-32768
9.497,-32768
9.522,-32768
9.547,-32088
9.572,-29642
9.597,-29634
9.622,-26858
9.647,-20473
9.672,-14539
9.697,-12211
9.722,-11795
9.747,-9545
9.772,-4814
9.797,-608
9.822,699
9.847,421
9.872,1497
9.897,4524
9.922,7245
9.947,7821
9.972,7234
9.997,7733
10.022,9745
10.047,11473
10.072,11482
10.097,10584
10.122,10582
10.147,11814
10.172,12839
10.197,12512
10.222,11494
10.247,11228
10.272,11952
10.297,12461
10.322,11802
10.347,10505
10.372,9771
10.397,9848
10.422,9819
10.447,8938
10.472,7619
10.497,6800
10.522,6668
10.547,6491
10.572,5681
10.597,4567
10.622,3883
10.647,3762
10.672,3615
10.697,2971
10.722,2087
10.747,1549
10.772,1479
10.797,1435
10.822,1053
10.847,506
10.872,201
10.897,194
10.922,141
10.947,-201
10.972,-651
10.997,-855
11.022,-762
11.047,-651
11.072,-747
11.097,-953
11.122,-1033
11.147,-940
11.172,-838
11.197,-828
11.222,-789
11.247,-555
11.272,-159
11.297,181
11.322,315
11.347,307
11.372,314
11.397,379
11.422,403
11.447,312
11.472,169
11.497,93
11.522,109
11.547,129
11.572,73
11.597,-26
11.622,-84
11.647,-71
11.672,-49
11.697,-81
11.722,-144
11.747,-177
11.772,-178
11.797,-104
11.822,37
11.847,204
11.872,341
11.897,421
11.922,450
11.947,446
11.972,417
11.997,356
12.022,268
12.047,185
12.072,151
12.097,191
12.122,287
12.147,393
12.172,469
12.197,503
12.222,514
12.247,522
12.272,533
12.297,536
12.322,514
12.347,457
12.372,366
12.397,253
12.422,129
12.447,2
12.472,-126
12.497,-257
12.522,-389
12.547,-515
12.572,-625
12.597,-718
12.622,-793
12.647,-846
12.672,-864
12.697,-833
12.722,-744
12.747,-597
12.772,-402
12.797,-167
12.822,92
12.847,353
12.872,582
12.897,751
12.922,855
12.947,911
12.972,937
12.997,946
13.022,937
13.047,909
13.072,871
13.097,833
13.122,804
13.147,784
13.172,767
13.197,746
13.222,717
13.247,676
13.272,619
13.297,542
13.322,448
13.347,339
13.372,224
13.397,113
13.422,20
13.447,-41
13.472,-70
13.497,-73
13.522,-62
13.547,-44
13.572,-23
13.597,-7
13.622,-5
13.647,-24
13.672,-61
13.697,-101
13.722,-131
13.747,-143
13.772,-142
13.797,-137
13.822,-131
13.847,-128
13.872,-133
13.897,-155
13.922,-192
13.947,-232
13.972,-255
13.997,-246
14.022,-211
14.047,-166
14.072,-125
14.097,-87
14.122,-34
14.147,51
14.172,181
14.197,343
14.222,514
14.247,665
14.272,780
14.297,856
14.322,899
14.347,918
14.372,914
14.397,883
14.422,829
14.447,760
14.472,691
14.497,630
14.522,578
14.547,530
14.572,482
14.597,435
14.622,390
14.647,349
14.672,307
14.697,261
14.722,206
14.747,142
14.772,73
14.797,13
14.822,-16
14.847,-4
14.872,42
14.897,99
14.922,140
14.947,155
14.972,152
14.997,152
15.022,163
15.047,176
15.072,175
15.097,151
15.122,113
15.147,80
15.172,67
15.197,72
15.222,83
15.247,92
15.272,97
15.297,98
15.322,91
15.347,71
15.372,36
15.397,0
15.422,-21
15.447,-17
15.472,-5
15.497,-9
15.522,-32
15.547,-50
15.572,-25
15.597,59
15.622,181
15.647,297
15.672,379
15.697,426
15.722,461
15.747,493
15.772,515
15.797,511
15.822,482
15.847,445
15.872,423
15.897,423
15.922,436
15.947,443
15.972,433
15.997,405
16.022,366
16.047,325
16.072,290
16.097,265
16.122,247
16.147,234
16.172,221
16.197,204
16.222,180
16.247,148
16.272,112
16.297,76
16.322,46
16.347,21
16.372,-3
16.397,-24
16.422,-19
16.447,36
16.472,150
16.497,296
16.522,426
16.547,504
16.572,532
16.597,540
16.622,553
16.647,571
16.672,574
16.697,557
16.722,534
16.747,525
16.772,533
16.797,532
16.822,496
16.847,423
16.872,335
16.897,259
16.922,199
16.947,140
16.972,69
16.997,-12
17.022,-95
17.047,-171
17.072,-245
17.097,-314
17.122,-369
17.147,-388
17.172,-368
17.197,-327
17.222,-301
17.247,-304
17.272,-320
17.297,-310
17.322,-248
17.347,-146
17.372,-44
17.397,16
17.422,31
17.447,24
17.472,24
17.497,44
17.522,74
17.547,99
17.572,120
17.597,155
17.622,219
17.647,306
17.672,394
17.697,456
17.722,484
17.747,492
17.772,497
17.797,510
17.822,528
17.847,546
17.872,567
17.897,600
17.922,652
17.947,717
17.972,779
17.997,829
18.022,866
18.047,902
18.072,941
18.097,977
18.122,999
18.147,1005
18.172,997
18.197,973
18.222,914
18.247,790
18.272,588
18.297,334
18.322,91
18.347,-73
18.372,-125
18.397,-78
18.422,23
18.447,138
18.472,240
18.497,320
18.522,373
18.547,390
18.572,356
18.597,262
18.622,104
18.647,-108
18.672,-350
18.697,-583
18.722,-756
18.747,-831
18.772,-802
18.797,-695
18.822,-559
18.847,-437
18.872,-344
18.897,-270
18.922,-197
18.947,-119
18.972,-48
18.997,2
19.022,29
19.047,47
19.072,74
19.097,120
19.122,179
19.147,233
19.172,272
19.197,295
19.222,309
19.247,321
19.272,332
19.297,340
19.322,343
19.347,339
19.372,322
19.397,285
19.422,231
19.447,175
19.472,145
19.497,161
19.522,218
19.547,294
19.572,363
19.597,421
19.622,480
19.647,558
19.672,655
19.697,752
19.722,822
19.747,849
19.772,839
19.797,810
19.822,783
19.847,767
19.872,757
19.897,736
19.922,683
19.947,592
19.972,481
19.997,376
20.022,296
20.047,231
20.072,154
20.097,53
20.122,-51
20.147,-115
20.172,-107
20.197,-34
20.222,60
20.247,137
20.272,178
20.297,191
20.322,183
20.347,150
20.372,81
20.397,-13
20.422,-111
20.447,-182
20.472,-212
20.497,-211
20.522,-200
20.547,-196
20.572,-200
20.597,-200
20.622,-184
20.647,-144
20.672,-90
20.697,-40
20.722,-13
20.747,-14
20.772,-28
20.797,-30
20.822,4
20.847,80
20.872,180
20.897,281
20.922,364
20.947,423
20.972,463
20.997,489
21.022,506
21.047,515
21.072,521
21.097,533
21.122,553
21.147,575
21.172,587
21.197,578
21.222,547
21.247,502
21.272,455
21.297,408
21.322,364
21.347,326
21.372,297
21.397,273
21.422,241
21.447,194
21.472,142
21.497,112
21.522,129
21.547,200
21.572,300
21.597,397
21.622,469
21.647,516
21.672,550
21.697,587
21.722,629
21.747,666
21.772,686
21.797,685
21.822,667
21.847,641
21.872,606
21.897,549
21.922,452
21.947,314
21.972,159
21.997,18
22.022,-91
22.047,-185
22.072,-288
22.097,-412
22.122,-539
22.147,-640
22.172,-695
22.197,-699
22.222,-650
22.247,-546
22.272,-391
22.297,-213
22.322,-52
22.347,64
22.372,144
22.397,218
22.422,306
22.447,400
22.472,467
22.497,489
22.522,481
22.547,473
22.572,484
22.597,505
22.622,514
22.647,495
22.672,454
22.697,405
22.722,356
22.747,307
22.772,254
22.797,205
22.822,168
22.847,147
22.872,126
22.897,89
22.922,34
22.947,-14
22.972,-23
22.997,27
23.022,122
23.047,224
23.072,302
23.097,350
23.122,383
23.147,413
23.172,437
23.197,450
23.222,451
23.247,452
23.272,465
23.297,485
23.322,499
23.347,496
23.372,478
23.397,457
23.422,441
23.447,428
23.472,411
23.497,388
23.522,363
23.547,339
23.572,318
23.597,296
23.622,274
23.647,253
23.672,233
23.697,213
23.722,191
23.747,164
23.772,134
23.797,104
23.822,73
23.847,40
23.872,2
23.897,-39
23.922,-79
23.947,-108
23.972,-128
23.997,-150
24.022,-187
24.047,-235
24.072,-266
24.097,-241
24.122,-146
24.147,-3
24.172,136
24.197,234
24.222,288
24.247,323
24.272,363
24.297,404
24.322,428
24.347,425
24.372,409
24.397,407
24.422,431
24.447,471
24.472,508
24.497,528
24.522,532
24.547,525
24.572,509
24.597,487
24.622,463
24.647,439
24.672,417
24.697,391
24.722,360
24.747,329
24.772,304
24.797,283
24.822,254
24.847,205
24.872,138
24.897,66
24.922,6
24.947,-38
24.972,-71
24.997,-97
25.022,-123
25.047,-153
25.072,-191
25.097,-229
25.122,-242
25.147,-206
25.172,-115
25.197,8
25.222,128
25.247,221
25.272,287
25.297,340
25.322,386
25.347,420
25.372,435
25.397,439
25.422,447
25.447,466
25.472,489
25.497,502
25.522,501
25.547,492
25.572,484
25.597,475
25.622,460
25.647,434
25.672,406
25.697,379
25.722,353
25.747,324
25.772,291
25.797,258
25.822,227
25.847,196
25.872,160
25.897,121
25.922,85
25.947,51
25.972,7
25.997,-57
26.022,-135
26.047,-195
26.072,-201
26.097,-144
26.122,-47
26.147,51
26.172,131
26.197,194
26.222,252
26.247,309
26.272,357
26.297,389
26.322,408
26.347,424
26.372,444
26.397,464
26.422,476
26.447,476
26.472,464
26.497,444
26.522,417
26.547,385
26.572,351
26.597,318
26.622,288
26.647,258
26.672,227
26.697,198
26.722,171
26.747,140
26.772,100
26.797,49
26.822,-4
26.847,-51
26.872,-93
26.897,-138
26.922,-186
26.947,-217
26.972,-200
26.997,-119
27.022,11
27.047,151
27.072,267
27.097,347
27.122,403
27.147,445
27.172,474
27.197,483
27.222,473
27.247,457
27.272,447
27.297,447
27.322,450
27.347,454
27.372,460
27.397,468
27.422,474
27.447,468
27.472,451
27.497,430
27.522,414
27.547,403
27.572,389
27.597,366
27.622,334
27.647,289
27.672,216
27.697,101
27.722,-50
27.747,-205
27.772,-310
27.797,-335
27.822,-291
27.847,-217
27.872,-147
27.897,-80
27.922,5
27.947,125
27.972,262
27.997,382
28.022,459
28.047,500
28.072,534
28.097,585
28.122,656
28.147,727
28.172,778
28.197,797
28.222,779
28.247,718
28.272,596
28.297,399
28.322,137
28.347,-156
28.372,-430
28.397,-635
28.422,-753
28.447,-790
28.472,-771
28.497,-717
28.522,-631
28.547,-507
28.572,-342
28.597,-153
28.622,30
28.647,180
28.672,282
28.697,347
28.722,395
28.747,443
28.772,496
28.797,552
28.822,606
28.847,658
28.872,703
28.897,737
28.922,754
28.947,753
28.972,742
28.997,733
29.022,727
29.047,712
29.072,672
29.097,606
29.122,534
29.147,479
29.172,451
29.197,432
29.222,393
29.247,324
29.272,250
29.297,217
29.322,247
29.347,320
29.372,390
29.397,424
29.422,424
29.447,418
29.472,419
29.497,419
29.522,399
29.547,358
29.572,319
29.597,299
29.622,288
29.647,256
29.672,183
29.697,75
29.722,-42
29.747,-150
29.772,-245
29.797,-327
29.822,-386
29.847,-413
29.872,-413
29.897,-414
29.922,-441
29.947,-487
29.972,-512
29.997,-478
30.022,-379
30.047,-247
30.072,-122
30.097,-22
30.122,65
30.147,161
30.172,265
30.197,359
30.222,426
30.247,463
30.272,487
30.297,515
30.322,551
30.347,583
30.372,595
30.397,584
30.422,559
30.447,530
30.472,503
30.497,478
30.522,450
30.547,416
30.572,369
30.597,301
30.622,215
30.647,130
30.672,77
30.697,75
30.722,122
30.747,193
30.772,263
30.797,327
30.822,389
30.847,449
30.872,491
30.897,497
30.922,463
30.947,408
30.972,357
30.997,325
31.022,310
31.047,301
31.072,290
31.097,264
31.122,218
31.147,153
31.172,84
31.197,31
31.222,-2
31.247,-27
31.272,-59
31.297,-94
31.322,-120
31.347,-128
31.372,-128
31.397,-130
31.422,-115
31.447,-44
31.472,104
31.497,313
31.522,534
31.547,732
31.572,905
31.597,1057
31.622,1154
31.647,1135
31.672,970
31.697,711
31.722,475
31.747,359
31.772,368
31.797,420
31.822,424
31.847,345
31.872,215
31.897,81
31.922,-29
31.947,-118
31.972,-181
31.997,-202
32.022,-166
32.047,-83
32.072,3
32.097,56
32.122,68
32.147,67
32.172,89
32.197,143
32.222,204
32.247,238
32.272,234
32.297,208
32.322,183
32.347,161
32.372,117
32.397,22
32.422,-124
32.447,-293
32.472,-443
32.497,-541
32.522,-575
32.547,-535
32.572,-423
32.597,-251
32.622,-51
32.647,142
32.672,317
32.697,487
32.722,666
32.747,841
32.772,967
32.797,1003
32.822,942
32.847,822
32.872,696
32.897,596
32.922,529
32.947,485
32.972,459
32.997,452
33.022,458
33.047,464
33.072,454
33.097,420
33.122,370
33.147,318
33.172,273
33.197,234
33.222,194
33.247,145
33.272,90
33.297,35
33.322,-17
33.347,-75
33.372,-148
33.397,-230
33.422,-293
33.447,-305
33.472,-255
33.497,-164
33.522,-70
33.547,2
33.572,61
33.597,124
33.622,194
33.647,255
33.672,288
33.697,297
33.722,303
33.747,328
33.772,370
33.797,411
33.822,435
33.847,441
33.872,441
33.897,441
33.922,440
33.947,436
33.972,429
33.997,424
34.022,424
34.047,421
34.072,411
34.097,396
34.122,379
34.147,365
34.172,347
34.197,317
34.222,266
34.247,202
34.272,142
34.297,114
34.322,139
34.347,226
34.372,360
34.397,505
34.422,628
34.447,708
34.472,748
34.497,764
34.522,767
34.547,751
34.572,713
34.597,661
34.622,617
34.647,589
34.672,554
34.697,462
34.722,272
34.747,-7
34.772,-312
34.797,-560
34.822,-699
34.847,-728
34.872,-681
34.897,-595
34.922,-498
34.947,-408
34.972,-344
34.997,-310
35.022,-287
35.047,-235
35.072,-131
35.097,13
35.122,160
35.147,276
35.172,362
35.197,435
35.222,508
35.247,566
35.272,585
35.297,556
35.322,496
35.347,429
35.372,372
35.397,325
35.422,283
35.447,242
35.472,198
35.497,150
35.522,104
35.547,73
35.572,67
35.597,80
35.622,92
35.647,86
35.672,65
35.697,48
35.722,49
35.747,65
35.772,84
35.797,107
35.822,154
35.847,234
35.872,332
35.897,413
35.922,453
35.947,461
35.972,458
35.997,456
36.022,448
36.047,425
36.072,401
36.097,396
36.122,417
36.147,439
36.172,436
36.197,403
36.222,362
36.247,335
36.272,316
36.297,284
36.322,228
36.347,167
36.372,125
36.397,103
36.422,80
36.447,38
36.472,-6
36.497,-18
36.522,28
36.547,124
36.572,231
36.597,315
36.622,366
36.647,397
36.672,419
36.697,432
36.722,430
36.747,414
36.772,392
36.797,376
36.822,373
36.847,385
36.872,401
36.897,411
36.922,404
36.947,374
36.972,324
36.997,261
37.022,194
37.047,132
37.072,85
37.097,60
37.122,47
37.147,32
37.172,5
37.197,-21
37.222,-18
37.247,33
37.272,123
37.297,216
37.322,278
37.347,304
37.372,310
37.397,318
37.422,333
37.447,350
37.472,364
37.497,375
37.522,381
37.547,376
37.572,353
37.597,312
37.622,260
37.647,201
37.672,138
37.697,74
37.722,21
37.747,-5
37.772,-2
37.797,18
37.822,37
37.847,41
37.872,29
37.897,1
37.922,-36
37.947,-69
37.972,-73
37.997,-25
38.022,66
38.047,171
38.072,252
38.097,297
38.122,322
38.147,340
38.172,352
38.197,348
38.222,328
38.247,312
38.272,312
38.297,322
38.322,320
38.347,293
38.372,253
38.397,218
38.422,191
38.447,157
38.472,108
38.497,59
38.522,37
38.547,51
38.572,80
38.597,98
38.622,107
38.647,137
38.672,218
38.697,344
38.722,480
38.747,586
38.772,649
38.797,679
38.822,692
38.847,694
38.872,682
38.897,653
38.922,611
38.947,562
38.972,514
38.997,473
39.022,445
39.047,431
39.072,424
39.097,412
39.122,387
39.147,349
39.172,306
39.197,266
39.222,234
39.247,210
39.272,184
39.297,137
39.322,53
39.347,-64
39.372,-193
39.397,-301
39.422,-370
39.447,-414
39.472,-452
39.497,-492
39.522,-517
39.547,-507
39.572,-461
39.597,-397
39.622,-326
39.647,-233
39.672,-93
39.697,98
39.722,316
39.747,515
39.772,672
39.797,797
39.822,920
39.847,1049
39.872,1156
39.897,1196
39.922,1137
39.947,985
39.972,778
39.997,560
40.022,367
40.047,213
40.072,100
40.097,26
40.122,-11
40.147,-22
40.172,-17
40.197,-14
40.222,-28
40.247,-57
40.272,-88
40.297,-102
40.322,-93
40.347,-71
40.372,-47
40.397,-28
40.422,-9
40.447,17
40.472,50
40.497,76
40.522,81
40.547,57
40.572,12
40.597,-36
40.622,-67
40.647,-61
40.672,-11
40.697,72
40.722,176
40.747,283
40.772,390
40.797,496
40.822,597
40.847,679
40.872,732
40.897,762
40.922,783
40.947,805
40.972,814
40.997,784
41.022,703
41.047,591
41.072,491
41.097,437
41.122,427
41.147,425
41.172,394
41.197,317
41.222,203
41.247,82
41.272,-11
41.297,-52
41.322,-34
41.347,22
41.372,76
41.397,95
41.422,70
41.447,23
41.472,-26
41.497,-77
41.522,-143
41.547,-225
41.572,-293
41.597,-305
41.622,-238
41.647,-112
41.672,24
41.697,134
41.722,212
41.747,278
41.772,353
41.797,443
41.822,540
41.847,633
41.872,715
41.897,787
41.922,850
41.947,906
41.972,948
41.997,965
42.022,946
42.047,887
42.072,790
42.097,658
42.122,484
42.147,255
42.172,-25
42.197,-329
42.222,-599
42.247,-777
42.272,-829
42.297,-757
42.322,-591
42.347,-372
42.372,-138
42.397,77
42.422,256
42.447,389
42.472,478
42.497,527
42.522,540
42.547,523
42.572,490
42.597,459
42.622,447
42.647,453
42.672,465
42.697,466
42.722,446
42.747,409
42.772,361
42.797,307
42.822,246
42.847,175
42.872,95
42.897,12
42.922,-66
42.947,-137
42.972,-199
42.997,-245
43.022,-258
43.047,-219
43.072,-122
43.097,8
43.122,134
43.147,223
43.172,271
43.197,292
43.222,301
43.247,290
43.272,249
43.297,179
43.322,103
43.347,44
43.372,9
43.397,-6
43.422,-5
43.447,26
43.472,98
43.497,197
43.522,284
43.547,328
43.572,327
43.597,311
43.622,310
43.647,329
43.672,348
43.697,343
43.722,305
43.747,247
43.772,193
43.797,172
43.822,204
43.847,293
43.872,415
43.897,532
43.922,612
43.947,655
43.972,684
43.997,720
44.022,760
44.047,783
44.072,778
44.097,752
44.122,726
44.147,711
44.172,696
44.197,666
44.222,614
44.247,546
44.272,468
44.297,382
44.322,289
44.347,199
44.372,120
44.397,52
44.422,-12
44.447,-82
44.472,-155
44.497,-225
44.522,-294
44.547,-375
44.572,-467
44.597,-540
44.622,-550
44.647,-475
44.672,-340
44.697,-200
44.722,-99
44.747,-32
44.772,31
44.797,118
44.822,220
44.847,308
44.872,368
44.897,409
44.922,447
44.947,484
44.972,510
44.997,517
45.022,515
45.047,511
45.072,503
45.097,472
45.122,408
45.147,323
45.172,242
45.197,185
45.222,147
45.247,116
45.272,86
45.297,56
45.322,23
45.347,-17
45.372,-66
45.397,-96
45.422,-76
45.447,8
45.472,133
45.497,253
45.522,334
45.547,377
45.572,403
45.597,427
45.622,445
45.647,447
45.672,435
45.697,423
45.722,422
45.747,430
45.772,436
45.797,430
45.822,413
45.847,387
45.872,354
45.897,314
45.922,273
45.947,234
45.972,196
45.997,154
46.022,107
46.047,60
46.072,18
46.097,-21
46.122,-68
46.147,-120
46.172,-155
46.197,-143
46.222,-72
46.247,35
46.272,139
46.297,211
46.322,252
46.347,278
46.372,299
46.397,312
46.422,307
46.447,291
46.472,279
46.497,285
46.522,304
46.547,319
46.572,320
46.597,306
46.622,287
46.647,266
46.672,243
46.697,213
46.722,176
46.747,138
46.772,107
46.797,83
46.822,60
46.847,31
46.872,-2
46.897,-27
46.922,-20
46.947,36
46.972,139
46.997,263
47.022,372
47.047,446
47.072,490
47.097,523
47.122,557
47.147,588
47.172,604
47.197,602
47.222,592
47.247,586
47.272,584
47.297,573
47.322,548
47.347,515
47.372,487
47.397,464
47.422,434
47.447,380
47.472,300
47.497,205
47.522,103
47.547,-6
47.572,-128
47.597,-246
47.622,-329
47.647,-350
47.672,-305
47.697,-219
47.722,-123
47.747,-37
47.772,34
47.797,92
47.822,132
47.847,152
47.872,152
47.897,143
47.922,136
47.947,142
47.972,167
47.997,211
48.022,261
48.047,297
48.072,308
48.097,304
48.122,310
48.147,336
48.172,373
48.197,399
48.222,409
48.247,424
48.272,459
48.297,494
48.322,484
48.347,399
48.372,267
48.397,154
48.422,114
48.447,147
48.472,209
48.497,264
48.522,307
48.547,351
48.572,401
48.597,443
48.622,461
48.647,462
48.672,463
48.697,472
48.722,476
48.747,458
48.772,408
48.797,333
48.822,241
48.847,140
48.872,36
48.897,-55
48.922,-124
48.947,-162
48.972,-176
48.997,-174
49.022,-171
49.047,-181
49.072,-215
49.097,-267
49.122,-304
49.147,-281
49.172,-175
49.197,-10
49.222,158
49.247,288
49.272,371
49.297,424
49.322,459
49.347,469
49.372,451
49.397,418
49.422,404
49.447,428
49.472,481
49.497,533
49.522,562
49.547,567
49.572,556
49.597,533
49.622,494
49.647,443
49.672,392
49.697,350
49.722,311
49.747,267
49.772,215
49.797,165
49.822,120
49.847,66
49.872,-8
49.897,-92
49.922,-141
49.947,-116
49.972,-19
49.997,105
50.022,205
50.047,262
50.072,291
50.097,318
50.122,347
50.147,363
50.172,358
50.197,337
50.222,316
50.247,305
50.272,303
50.297,304
50.322,308
50.347,315
50.372,316
50.397,303
50.422,270
50.447,223
50.472,172
50.497,120
50.522,71
50.547,23
50.572,-18
50.597,-53
50.622,-87
50.647,-120
50.672,-141
50.697,-123
50.722,-50
50.747,69
50.772,199
50.797,302
50.822,360
50.847,387
50.872,400
50.897,409
50.922,412
50.947,410
50.972,410
50.997,424
51.022,453
51.047,486
51.072,509
51.097,514
51.122,501
51.147,477
51.172,445
51.197,413
51.222,387
51.247,367
51.272,345
51.297,309
51.322,256
51.347,198
51.372,151
51.397,120
51.422,96
51.447,72
51.472,57
51.497,74
51.522,142
51.547,251
51.572,372
51.597,465
51.622,505
51.647,490
51.672,434
51.697,361
51.722,302
51.747,281
51.772,301
51.797,344
51.822,375
51.847,364
51.872,306
51.897,219
51.922,132
51.947,67
51.972,33
51.997,22
52.022,19
52.047,3
52.072,-32
52.097,-84
52.122,-132
52.147,-162
52.172,-178
52.197,-198
52.222,-230
52.247,-255
52.272,-240
52.297,-163
52.322,-36
52.347,105
52.372,226
52.397,314
52.422,372
52.447,407
52.472,419
52.497,406
52.522,381
52.547,359
52.572,354
52.597,361
52.622,362
52.647,347
52.672,319
52.697,292
52.722,281
52.747,286
52.772,295
52.797,293
52.822,274
52.847,241
52.872,198
52.897,145
52.922,80
52.947,10
52.972,-43
52.997,-49
53.022,10
53.047,125
53.072,258
53.097,374
53.122,456
53.147,512
53.172,555
53.197,590
53.222,614
53.247,627
53.272,636
53.297,654
53.322,685
53.347,720
53.372,742
53.397,739
53.422,710
53.447,661
53.472,598
53.497,523
53.522,436
53.547,335
53.572,221
53.597,95
53.622,-39
53.647,-174
53.672,-296
53.697,-387
53.722,-431
53.747,-425
53.772,-380
53.797,-320
53.822,-262
53.847,-209
53.872,-159
53.897,-104
53.922,-50
53.947,-3
53.972,34
53.997,74
54.022,131
54.047,211
54.072,305
54.097,395
54.122,464
54.147,507
54.172,526
54.197,530
54.222,522
54.247,503
54.272,470
54.297,422
54.322,363
54.347,302
54.372,241
54.397,173
54.422,90
54.447,-1
54.472,-71
54.497,-80
54.522,-10
54.547,116
54.572,250
54.597,345
54.622,388
54.647,395
54.672,390
54.697,384
54.722,376
54.747,363
54.772,349
54.797,339
54.822,337
54.847,344
54.872,360
54.897,385
54.922,408
54.947,414
54.972,397
54.997,362
55.022,327
55.047,299
55.072,275
55.097,243
55.122,205
55.147,171
55.172,144
55.197,113
55.222,61
55.247,0
55.272,-37
55.297,-15
55.322,60
55.347,149
55.372,208
55.397,228
55.422,233
55.447,250
55.472,281
55.497,307
55.522,315
55.547,310
55.572,309
55.597,314
55.622,316
55.647,304
55.672,282
55.697,259
55.722,243
55.747,235
55.772,233
55.797,238
55.822,246
55.847,248
55.872,233
55.897,202
55.922,167
55.947,138
55.972,107
55.997,65
56.022,18
56.047,-2
56.072,31
56.097,116
56.122,212
56.147,269
56.172,270
56.197,233
56.222,190
56.247,155
56.272,124
56.297,89
56.322,55
56.347,35
56.372,32
56.397,36
56.422,35
56.447,21
56.472,-3
56.497,-31
56.522,-54
56.547,-59
56.572,-38
56.597,9
56.622,63
56.647,99
56.672,104
56.697,89
56.722,75
56.747,75
56.772,78
56.797,67
56.822,34
56.847,1
56.872,-1
56.897,44
56.922,128
56.947,221
56.972,300
56.997,363
57.022,426
57.047,501
57.072,581
57.097,648
57.122,691
57.147,715
57.172,732
57.197,749
57.222,762
57.247,770
57.272,783
57.297,817
57.322,872
57.347,933
57.372,976
57.397,996
57.422,1008
57.447,1026
57.472,1049
57.497,1065
57.522,1067
57.547,1065
57.572,1072
57.597,1090
57.622,1103
57.647,1095
57.672,1060
57.697,999
57.722,915
57.747,806
57.772,673
57.797,513
57.822,321
57.847,80
57.872,-223
57.897,-576
57.922,-932
57.947,-1233
57.972,-1443
57.997,-1566
58.022,-1641
58.047,-1715
58.072,-1814
58.097,-1924
58.122,-2003
58.147,-2006
58.172,-1917
58.197,-1763
58.222,-1597
58.247,-1450
58.272,-1302
58.297,-1104
58.322,-824
58.347,-487
58.372,-157
58.397,120
58.422,357
58.447,601
58.472,888
58.497,1214
58.522,1537
58.547,1811
58.572,2005
58.597,2108
58.622,2125
58.647,2079
58.672,2004
58.697,1926
58.722,1853
58.747,1776
58.772,1696
58.797,1628
58.822,1580
58.847,1530
58.872,1433
58.897,1262
58.922,1032
58.947,777
58.972,517
58.997,240
59.022,-56
59.047,-339
59.072,-551
59.097,-660
59.122,-691
59.147,-694
59.172,-692
59.197,-667
59.222,-593
59.247,-477
59.272,-359
59.297,-271
59.322,-209
59.347,-156
59.372,-114
59.397,-111
59.422,-164
59.447,-248
59.472,-310
59.497,-312
59.522,-259
59.547,-188
59.572,-128
59.597,-84
59.622,-48
59.647,-5
59.672,52
59.697,132
59.722,233
59.747,338
59.772,418
59.797,448
59.822,422
59.847,358
59.872,283
59.897,221
59.922,191
59.947,209
59.972,276
59.997,380
60.022,499
60.047,614
60.072,723
60.097,823
60.122,900
60.147,931
60.172,900
60.197,814
60.222,702
60.247,586
60.272,474
60.297,367
60.322,274
60.347,214
60.372,194
60.397,202
60.422,210
60.447,198
60.472,170
60.497,145
60.522,136
60.547,133
60.572,116
60.597,68
60.622,-1
60.647,-62
60.672,-75
60.697,-21
60.722,85
60.747,203
60.772,291
60.797,335
60.822,351
60.847,369
60.872,399
60.897,431
60.922,455
60.947,475
60.972,504
60.997,543
61.022,568
61.047,545
61.072,461
61.097,340
61.122,221
61.147,140
61.172,103
61.197,93
61.222,79
61.247,39
61.272,-32
61.297,-112
61.322,-162
61.347,-158
61.372,-117
61.397,-91
61.422,-131
61.447,-240
61.472,-364
61.497,-436
61.522,-426
61.547,-355
61.572,-261
61.597,-167
61.622,-60
61.647,77
61.672,244
61.697,412
61.722,538
61.747,592
61.772,567
61.797,485
61.822,395
61.847,347
61.872,361
61.897,408
61.922,435
61.947,406
61.972,344
61.997,313
62.022,361
62.047,483
62.072,626
62.097,739
62.122,810
62.147,853
62.172,869
62.197,836
62.222,735
62.247,576
62.272,406
62.297,269
62.322,176
62.347,98
62.372,3
62.397,-108
62.422,-207
62.447,-257
62.472,-248
62.497,-203
62.522,-159
62.547,-139
62.572,-138
62.597,-140
62.622,-138
62.647,-145
62.672,-175
62.697,-227
62.722,-276
62.747,-291
62.772,-263
62.797,-209
62.822,-148
62.847,-78
62.872,22
62.897,169
62.922,346
62.947,520
62.972,662
62.997,774
63.022,877
63.047,981
63.072,1065
63.097,1093
63.122,1047
63.147,944
63.172,834
63.197,767
63.222,768
63.247,822
63.272,890
63.297,935
63.322,933
63.347,879
63.372,779
63.397,645
63.422,497
63.447,360
63.472,257
63.497,192
63.522,147
63.547,94
63.572,23
63.597,-52
63.622,-111
63.647,-141
63.672,-148
63.697,-145
63.722,-142
63.747,-146
63.772,-165
63.797,-204
63.822,-253
63.847,-287
63.872,-286
63.897,-257
63.922,-231
63.947,-232
63.972,-250
63.997,-256
64.022,-230
64.047,-195
64.072,-192
64.097,-237
64.122,-304
64.147,-342
64.172,-325
64.197,-274
64.222,-226
64.247,-202
64.272,-184
64.297,-146
64.322,-77
64.347,10
64.372,106
64.397,215
64.422,349
64.447,504
64.472,652
64.497,760
64.522,822
64.547,856
64.572,884
64.597,905
64.622,897
64.647,851
64.672,789
64.697,749
64.722,755
64.747,792
64.772,824
64.797,830
64.822,815
64.847,798
64.872,785
64.897,764
64.922,724
64.947,663
64.972,590
64.997,509
65.022,418
65.047,325
65.072,253
65.097,231
65.122,263
65.147,322
65.172,369
65.197,378
65.222,355
65.247,325
65.272,309
65.297,319
65.322,351
65.347,391
65.372,412
65.397,385
65.422,300
65.447,174
65.472,44
65.497,-63
65.522,-154
65.547,-253
65.572,-378
65.597,-521
65.622,-652
65.647,-750
65.672,-820
65.697,-889
65.722,-978
65.747,-1083
65.772,-1171
65.797,-1209
65.822,-1184
65.847,-1117
65.872,-1038
65.897,-953
65.922,-829
65.947,-625
65.972,-331
65.997,5
66.022,312
66.047,544
66.072,717
66.097,876
66.122,1050
66.147,1212
66.172,1317
66.197,1342
66.222,1314
66.247,1283
66.272,1274
66.297,1274
66.322,1257
66.347,1210
66.372,1144
66.397,1069
66.422,980
66.447,863
66.472,711
66.497,542
66.522,393
66.547,300
66.572,278
66.597,318
66.622,391
66.647,458
66.672,495
66.697,498
66.722,481
66.747,462
66.772,443
66.797,420
66.822,391
66.847,363
66.872,343
66.897,328
66.922,300
66.947,252
66.972,195
66.997,148
67.022,119
67.047,95
67.072,58
67.097,10
67.122,-31
67.147,-55
67.172,-78
67.197,-131
67.222,-229
67.247,-345
67.272,-423
67.297,-423
67.322,-341
67.347,-214
67.372,-94
67.397,-25
67.422,-23
67.447,-72
67.472,-129
67.497,-143
67.522,-96
67.547,-19
67.572,26
67.597,0
67.622,-81
67.647,-149
67.672,-146
67.697,-62
67.722,57
67.747,163
67.772,234
67.797,285
67.822,337
67.847,394
67.872,450
67.897,498
67.922,542
67.947,586
67.972,626
67.997,651
68.022,661
68.047,664
68.072,670
68.097,677
68.122,677
68.147,660
68.172,628
68.197,593
68.222,566
68.247,552
68.272,545
68.297,529
68.322,492
68.347,431
68.372,361
68.397,305
68.422,280
68.447,282
68.472,290
68.497,278
68.522,234
68.547,162
68.572,72
68.597,-23
68.622,-112
68.647,-169
68.672,-173
68.697,-117
68.722,-22
68.747,70
68.772,126
68.797,139
68.822,119
68.847,81
68.872,29
68.897,-36
68.922,-106
68.947,-160
68.972,-177
68.997,-157
69.022,-114
69.047,-61
69.072,-6
69.097,51
69.122,104
69.147,141
69.172,160
69.197,171
69.222,185
69.247,200
69.272,197
69.297,167
69.322,130
69.347,121
69.372,164
69.397,241
69.422,313
69.447,358
69.472,385
69.497,415
69.522,450
69.547,466
69.572,444
69.597,401
69.622,379
69.647,402
69.672,451
69.697,485
69.722,478
69.747,442
69.772,405
69.797,374
69.822,335
69.847,280
69.872,223
69.897,186
69.922,175
69.947,169
69.972,151
69.997,136
70.022,160
70.047,241
70.072,356
70.097,452
70.122,499
70.147,504
70.172,500
70.197,504
70.222,506
70.247,487
70.272,443
70.297,389
70.322,344
70.347,311
70.372,278
70.397,235
70.422,181
70.447,126
70.472,82
70.497,54
70.522,42
70.547,38
70.572,30
70.597,7
70.622,-36
70.647,-94
70.672,-148
70.697,-180
70.722,-174
70.747,-131
70.772,-63
70.797,12
70.822,82
70.847,141
70.872,188
70.897,219
70.922,229
70.947,214
70.972,187
70.997,167
71.022,165
71.047,175
71.072,174
71.097,147
71.122,101
71.147,61
71.172,45
71.197,53
71.222,70
71.247,79
71.272,70
71.297,45
71.322,15
71.347,-3
71.372,9
71.397,71
71.422,185
71.447,333
71.472,489
71.497,628
71.522,741
71.547,823
71.572,878
71.597,912
71.622,934
71.647,952
71.672,968
71.697,969
71.722,942
71.747,879
71.772,787
71.797,679
71.822,567
71.847,456
71.872,342
71.897,220
71.922,92
71.947,-25
71.972,-111
71.997,-152
72.022,-161
72.047,-169
72.072,-195
72.097,-233
72.122,-251
72.147,-224
72.172,-159
72.197,-86
72.222,-30
72.247,7
72.272,34
72.297,52
72.322,51
72.347,32
72.372,17
72.397,37
72.422,100
72.447,185
72.472,256
72.497,290
72.522,288
72.547,263
72.572,226
72.597,186
72.622,154
72.647,141
72.672,150
72.697,172
72.722,190
72.747,197
72.772,187
72.797,155
72.822,101
72.847,41
72.872,5
72.897,22
72.922,93
72.947,191
72.972,282
72.997,350
73.022,396
73.047,431
73.072,456
73.097,468
73.122,474
73.147,486
73.172,508
73.197,533
73.222,547
73.247,545
73.272,528
73.297,503
73.322,471
73.347,438
73.372,411
73.397,396
73.422,389
73.447,376
73.472,351
73.497,322
73.522,297
73.547,266
73.572,205
73.597,105
73.622,-5
73.647,-74
73.672,-73
73.697,-15
73.722,54
73.747,102
73.772,125
73.797,133
73.822,125
73.847,90
73.872,27
73.897,-43
73.922,-100
73.947,-140
73.972,-176
73.997,-219
74.022,-265
74.047,-303
74.072,-337
74.097,-382
74.122,-444
74.147,-511
74.172,-559
74.197,-584
74.222,-600
74.247,-612
74.272,-601
74.297,-541
74.322,-428
74.347,-293
74.372,-165
74.397,-44
74.422,102
74.447,294
74.472,510
74.497,705
74.522,847
74.547,939
74.572,999
74.597,1025
74.622,1003
74.647,936
74.672,858
74.697,817
74.722,838
74.747,909
74.772,1006
74.797,1114
74.822,1230
74.847,1348
74.872,1454
74.897,1540
74.922,1611
74.947,1683
74.972,1768
74.997,1878
75.022,2031
75.047,2249
75.072,2533
75.097,2849
75.122,3156
75.147,3443
75.172,3721
75.197,3970
75.222,4090
75.247,3930
75.272,3396
75.297,2521
75.322,1445
75.347,313
75.372,-785
75.397,-1814
75.422,-2742
75.447,-3550
75.472,-4269
75.497,-4972
75.522,-5681
75.547,-6284
75.572,-6586
75.597,-6476
75.622,-6041
75.647,-5486
75.672,-4922
75.697,-4269
75.722,-3392
75.747,-2334
75.772,-1379
75.797,-832
75.822,-731
75.847,-800
75.872,-696
75.897,-319
75.922,136
75.947,418
75.972,485
75.997,542
76.022,826
76.047,1390
76.072,2076
76.097,2681
76.122,3104
76.147,3361
76.172,3497
76.197,3520
76.222,3428
76.247,3253
76.272,3058
76.297,2890
76.322,2751
76.347,2616
76.372,2475
76.397,2331
76.422,2186
76.447,2027
76.472,1841
76.497,1617
76.522,1327
76.547,924
76.572,383
76.597,-222
76.622,-722
76.647,-948
76.672,-872
76.697,-644
76.722,-476
76.747,-474
76.772,-576
76.797,-648
76.822,-629
76.847,-570
76.872,-554
76.897,-588
76.922,-598
76.947,-510
76.972,-320
76.997,-92
77.022,96
77.047,195
77.072,182
77.097,63
77.122,-118
77.147,-279
77.172,-339
77.197,-272
77.222,-118
77.247,61
77.272,244
77.297,439
77.322,651
77.347,848
77.372,991
77.397,1073
77.422,1112
77.447,1118
77.472,1080
77.497,992
77.522,890
77.547,823
77.572,796
77.597,765
77.622,687
77.647,584
77.672,523
77.697,536
77.722,587
77.747,617
77.772,612
77.797,577
77.822,444
77.847,72
77.872,-608
77.897,-1441
77.922,-2065
77.947,-2175
77.972,-1777
77.997,-1192
78.022,-786
78.047,-686
78.072,-751
78.097,-775
78.122,-675
78.147,-509
78.172,-343
78.197,-174
78.222,31
78.247,256
78.272,431
78.297,512
78.322,529
78.347,533
78.372,542
78.397,525
78.422,466
78.447,387
78.472,328
78.497,301
78.522,290
78.547,292
78.572,328
78.597,411
78.622,517
78.647,599
78.672,636
78.697,644
78.722,652
78.747,660
78.772,658
78.797,648
78.822,656
78.847,692
78.872,737
78.897,758
78.922,754
78.947,749
78.972,755
78.997,758
79.022,739
79.047,716
79.072,727
79.097,773
79.122,801
79.147,755
79.172,647
79.197,549
79.222,528
79.247,587
79.272,675
79.297,752
79.322,801
79.347,798
79.372,690
79.397,443
79.422,91
79.447,-283
79.472,-640
79.497,-1019
79.522,-1453
79.547,-1847
79.572,-1984
79.597,-1699
79.622,-1063
79.647,-368
79.672,87
79.697,220
79.722,184
79.747,192
79.772,328
79.797,522
79.822,673
79.847,762
79.872,854
79.897,1007
79.922,1207
79.947,1383
79.972,1467
79.997,1438
80.022,1310
80.047,1089
80.072,755
80.097,290
80.122,-261
80.147,-759
80.172,-1024
80.197,-956
80.222,-630
80.247,-273
80.272,-100
80.297,-168
80.322,-358
80.347,-507
80.372,-559
80.397,-576
80.422,-634
80.447,-717
80.472,-735
80.497,-626
80.522,-428
80.547,-234
80.572,-100
80.597,-2
80.622,115
80.647,273
80.672,446
80.697,597
80.722,713
80.747,795
80.772,845
80.797,858
80.822,838
80.847,801
80.872,759
80.897,713
80.922,662
80.947,622
80.972,612
80.997,635
81.022,667
81.047,678
81.072,663
81.097,648
81.122,653
81.147,675
81.172,689
81.197,676
81.222,639
81.247,589
81.272,537
81.297,484
81.322,437
81.347,406
81.372,391
81.397,380
81.422,357
81.447,318
81.472,274
81.497,236
81.522,206
81.547,172
81.572,126
81.597,68
81.622,-2
81.647,-80
81.672,-153
81.697,-194
81.722,-185
81.747,-129
81.772,-61
81.797,-11
81.822,14
81.847,35
81.872,67
81.897,100
81.922,110
81.947,88
81.972,55
81.997,39
82.022,45
82.047,52
82.072,40
82.097,13
82.122,-6
82.147,-7
82.172,-5
82.197,-23
82.222,-63
82.247,-105
82.272,-128
82.297,-133
82.322,-143
82.347,-175
82.372,-224
82.397,-261
82.422,-257
82.447,-199
82.472,-90
82.497,48
82.522,190
82.547,308
82.572,389
82.597,443
82.622,490
82.647,546
82.672,605
82.697,660
82.722,717
82.747,800
82.772,919
82.797,1057
82.822,1181
82.847,1274
82.872,1350
82.897,1425
82.922,1485
82.947,1485
82.972,1390
82.997,1206
83.022,977
83.047,747
83.072,535
83.097,356
83.122,234
83.147,197
83.172,252
83.197,361
83.222,477
83.247,563
83.272,595
83.297,540
83.322,350
83.347,10
83.372,-424
83.397,-844
83.422,-1165
83.447,-1373
83.472,-1492
83.497,-1512
83.522,-1366
83.547,-1007
83.572,-501
83.597,-20
83.622,271
83.647,332
83.672,251
83.697,134
83.722,16
83.747,-140
83.772,-356
83.797,-583
83.822,-729
83.847,-742
83.872,-641
83.897,-488
83.922,-327
83.947,-165
83.972,8
83.997,189
84.022,359
84.047,502
84.072,608
84.097,675
84.122,704
84.147,703
84.172,694
84.197,700
84.222,722
84.247,742
84.272,737
84.297,695
84.322,628
84.347,556
84.372,497
84.397,463
84.422,456
84.447,472
84.472,497
84.497,505
84.522,476
84.547,407
84.572,315
84.597,234
84.622,196
84.647,221
84.672,302
84.697,413
84.722,516
84.747,583
84.772,603
84.797,585
84.822,542
84.847,485
84.872,424
84.897,376
84.922,358
84.947,376
84.972,418
84.997,458
85.022,479
85.047,487
85.072,498
85.097,517
85.122,525
85.147,478
85.172,344
85.197,133
85.222,-92
85.247,-247
85.272,-272
85.297,-169
85.322,-2
85.347,143
85.372,207
85.397,178
85.422,84
85.447,-39
85.472,-167
85.497,-281
85.522,-363
85.547,-389
85.572,-341
85.597,-219
85.622,-50
85.647,128
85.672,281
85.697,384
85.722,424
85.747,397
85.772,312
85.797,191
85.822,71
85.847,-13
85.872,-49
85.897,-53
85.922,-52
85.947,-55
85.972,-45
85.997,7
86.022,114
86.047,250
86.072,384
86.097,499
86.122,610
86.147,741
86.172,900
86.197,1073
86.222,1239
86.247,1383
86.272,1492
86.297,1544
86.322,1518
86.347,1403
86.372,1209
86.397,941
86.422,583
86.447,117
86.472,-439
86.497,-996
86.522,-1424
86.547,-1636
86.572,-1638
86.597,-1515
86.622,-1359
86.647,-1212
86.672,-1058
86.697,-879
86.722,-679
86.747,-477
86.772,-272
86.797,-43
86.822,216
86.847,471
86.872,654
86.897,715
86.922,671
86.947,598
86.972,575
86.997,630
87.022,726
87.047,803
87.072,823
87.097,792
87.122,739
87.147,683
87.172,617
87.197,531
87.222,429
87.247,343
87.272,303
87.297,314
87.322,355
87.347,396
87.372,430
87.397,469
87.422,532
87.447,618
87.472,712
87.497,791
87.522,842
87.547,862
87.572,849
87.597,801
87.622,719
87.647,609
87.672,479
87.697,338
87.722,188
87.747,31
87.772,-122
87.797,-256
87.822,-344
87.847,-362
87.872,-299
87.897,-165
87.922,8
87.947,180
87.972,315
87.997,404
88.022,458
88.047,492
88.072,506
88.097,490
88.122,431
88.147,337
88.172,228
88.197,122
88.222,21
88.247,-82
88.272,-189
88.297,-289
88.322,-366
88.347,-415
88.372,-443
88.397,-462
88.422,-473
88.447,-469
88.472,-450
88.497,-423
88.522,-398
88.547,-372
88.572,-325
88.597,-241
88.622,-120
88.647,19
88.672,163
88.697,304
88.722,445
88.747,580
88.772,695
88.797,778
88.822,830
88.847,862
88.872,875
88.897,863
88.922,818
88.947,746
88.972,666
88.997,600
89.022,560
89.047,547
89.072,566
89.097,611
89.122,662
89.147,683
89.172,645
89.197,545
89.222,413
89.247,282
89.272,168
89.297,61
89.322,-51
89.347,-174
89.372,-296
89.397,-403
89.422,-476
89.447,-493
89.472,-438
89.497,-317
89.522,-170
89.547,-49
89.572,10
89.597,10
89.622,-22
89.647,-56
89.672,-76
89.697,-84
89.722,-89
89.747,-104
89.772,-133
89.797,-170
89.822,-190
89.847,-157
89.872,-54
89.897,104
89.922,279
89.947,433
89.972,559
89.997,675
90.022,799
90.047,922
90.072,1019
90.097,1064
90.122,1055
90.147,1013
90.172,970
90.197,952
90.222,969
90.247,1017
90.272,1079
90.297,1138
90.322,1178
90.347,1192
90.372,1185
90.397,1167
90.422,1151
90.447,1142
90.472,1131
90.497,1096
90.522,1002
90.547,817
90.572,533
90.597,183
90.622,-165
90.647,-440
90.672,-608
90.697,-691
90.722,-753
90.747,-842
90.772,-958
90.797,-1057
90.822,-1100
90.847,-1089
90.872,-1057
90.897,-1017
90.922,-936
90.947,-759
90.972,-470
90.997,-132
91.022,147
91.047,288
91.072,285
91.097,195
91.122,93
91.147,17
91.172,-35
91.197,-105
91.222,-226
91.247,-403
91.272,-593
91.297,-728
91.322,-756
91.347,-684
91.372,-569
91.397,-464
91.422,-359
91.447,-198
91.472,60
91.497,385
91.522,682
91.547,870
91.572,934
91.597,923
91.622,897
91.647,878
91.672,866
91.697,854
91.722,846
91.747,844
91.772,837
91.797,816
91.822,786
91.847,755
91.872,716
91.897,655
91.922,571
91.947,497
91.972,480
91.997,530
92.022,607
92.047,654
92.072,648
92.097,607
92.122,553
92.147,479
92.172,366
92.197,226
92.222,113
92.247,77
92.272,113
92.297,157
92.322,147
92.347,84
92.372,17
92.397,-9
92.422,-5
92.447,-7
92.472,-25
92.497,-20
92.522,60
92.547,228
92.572,436
92.597,621
92.622,750
92.647,840
92.672,912
92.697,962
92.722,954
92.747,855
92.772,670
92.797,444
92.822,231
92.847,68
92.872,-38
92.897,-103
92.922,-138
92.947,-152
92.972,-149
92.997,-144
93.022,-152
93.047,-185
93.072,-236
93.097,-283
93.122,-303
93.147,-283
93.172,-221
93.197,-120
93.222,8
93.247,151
93.272,286
93.297,395
93.322,471
93.347,518
93.372,551
93.397,580
93.422,608
93.447,630
93.472,637
93.497,621
93.522,583
93.547,536
93.572,500
93.597,479
93.622,460
93.647,416
93.672,340
93.697,253
93.722,195
93.747,186
93.772,211
93.797,237
93.822,246
93.847,244
93.872,242
93.897,226
93.922,159
93.947,5
93.972,-243
93.997,-563
94.022,-908
94.047,-1225
94.072,-1451
94.097,-1533
94.122,-1451
94.147,-1244
94.172,-996
94.197,-779
94.222,-608
94.247,-443
94.272,-232
94.297,33
94.322,316
94.347,558
94.372,731
94.397,849
94.422,953
94.447,1072
94.472,1199
94.497,1288
94.522,1287
94.547,1171
94.572,964
94.597,733
94.622,543
94.647,428
94.672,376
94.697,356
94.722,349
94.747,356
94.772,393
94.797,469
94.822,579
94.847,703
94.872,812
94.897,879
94.922,892
94.947,850
94.972,769
94.997,664
95.022,548
95.047,439
95.072,372
95.097,382
95.122,479
95.147,619
95.172,722
95.197,721
95.222,603
95.247,410
95.272,202
95.297,19
95.322,-128
95.347,-237
95.372,-306
95.397,-337
95.422,-345
95.447,-354
95.472,-369
95.497,-367
95.522,-319
95.547,-212
95.572,-68
95.597,67
95.622,161
95.647,202
95.672,200
95.697,174
95.722,143
95.747,116
95.772,97
95.797,85
95.822,77
95.847,76
95.872,87
95.897,111
95.922,140
95.947,165
95.972,183
95.997,195
96.022,201
96.047,193
96.072,169
96.097,137
96.122,121
96.147,143
96.172,206
96.197,297
96.222,394
96.247,482
96.272,547
96.297,577
96.322,562
96.347,513
96.372,458
96.397,429
96.422,434
96.447,454
96.472,467
96.497,465
96.522,455
96.547,443
96.572,423
96.597,385
96.622,330
96.647,267
96.672,204
96.697,141
96.722,78
96.747,27
96.772,3
96.797,0
96.822,-8
96.847,-42
96.872,-93
96.897,-131
96.922,-136
96.947,-130
96.972,-150
96.997,-207
97.022,-261
97.047,-253
97.072,-148
97.097,44
97.122,290
97.147,551
97.172,793
97.197,967
97.222,1014
97.247,894
97.272,617
97.297,241
97.322,-152
97.347,-485
97.372,-684
97.397,-698
97.422,-521
97.447,-218
97.472,97
97.497,320
97.522,422
97.547,460
97.572,513
97.597,620
97.622,755
97.647,866
97.672,914
97.697,893
97.722,817
97.747,702
97.772,568
97.797,443
97.822,359
97.847,331
97.872,354
97.897,394
97.922,406
97.947,351
97.972,212
97.997,11
98.022,-186
98.047,-312
98.072,-329
98.097,-259
98.122,-158
98.147,-73
98.172,-9
98.197,51
98.222,118
98.247,174
98.272,201
98.297,201
98.322,204
98.347,229
98.372,269
98.397,298
98.422,297
98.447,274
98.472,244
98.497,213
98.522,172
98.547,118
98.572,66
98.597,30
98.622,14
98.647,8
98.672,7
98.697,26
98.722,78
98.747,159
98.772,239
98.797,286
98.822,299
98.847,297
98.872,302
98.897,315
98.922,321
98.947,312
98.972,295
98.997,282
99.022,277
99.047,270
99.072,259
99.097,245
99.122,233
99.147,220
99.172,195
99.197,155
99.222,106
99.247,54
99.272,-3
99.297,-72
99.322,-144
99.347,-185
99.372,-158
99.397,-50
99.422,113
99.447,281
99.472,423
99.497,541
99.522,667
99.547,820
99.572,982
99.597,1105
99.622,1140
99.647,1070
99.672,914
99.697,714
99.722,508
99.747,324
99.772,179
99.797,82
99.822,30
99.847,4
99.872,-12
99.897,-23
99.922,-17
99.947,9
99.972,32
99.997,11
100.022,-61
100.047,-134
100.072,-123
100.097,18
100.122,242
100.147,432
100.172,488
100.197,403
100.222,247
100.247,110
100.272,25
100.297,-21
100.322,-57
100.347,-83
100.372,-80
100.397,-36
100.422,35
100.447,113
100.472,179
100.497,229
100.522,264
100.547,292
100.572,333
100.597,415
100.622,551
100.647,722
100.672,884
100.697,999
100.722,1049
100.747,1035
100.772,963
100.797,838
100.822,685
100.847,552
100.872,476
100.897,441
100.922,377
100.947,215
100.972,-44
100.997,-322
101.022,-528
101.047,-641
101.072,-722
101.097,-838
101.122,-981
101.147,-1060
101.172,-985
101.197,-758
101.222,-475
101.247,-253
101.272,-143
101.297,-114
101.322,-111
101.347,-107
101.372,-105
101.397,-100
101.422,-68
101.447,5
101.472,101
101.497,172
101.522,191
101.547,186
101.572,211
101.597,296
101.622,421
101.647,538
101.672,619
101.697,673
101.722,722
101.747,772
101.772,807
101.797,815
101.822,807
101.847,805
101.872,822
101.897,848
101.922,869
101.947,876
101.972,878
101.997,882
102.022,888
102.047,890
102.072,880
102.097,856
102.122,810
102.147,739
102.172,641
102.197,532
102.222,438
102.247,382
102.272,369
102.297,383
102.322,396
102.347,387
102.372,349
102.397,286
102.422,205
102.447,109
102.472,0
102.497,-121
102.522,-245
102.547,-365
102.572,-480
102.597,-594
102.622,-702
102.647,-778
102.672,-782
102.697,-682
102.722,-486
102.747,-246
102.772,-38
102.797,86
102.822,122
102.847,110
102.872,106
102.897,143
102.922,218
102.947,302
102.972,362
102.997,384
103.022,374
103.047,346
103.072,298
103.097,209
103.122,63
103.147,-130
103.172,-331
103.197,-480
103.222,-536
103.247,-489
103.272,-361
103.297,-180
103.322,27
103.347,240
103.372,429
103.397,564
103.422,627
103.447,632
103.472,622
103.497,642
103.522,706
103.547,788
103.572,838
103.597,821
103.622,744
103.647,653
103.672,590
103.697,567
103.722,561
103.747,541
103.772,507
103.797,487
103.822,508
103.847,565
103.872,615
103.897,610
103.922,538
103.947,424
103.972,302
103.997,182
104.022,52
104.047,-94
104.072,-228
104.097,-298
104.122,-268
104.147,-150
104.172,4
104.197,142
104.222,238
104.247,298
104.272,339
104.297,366
104.322,373
104.347,359
104.372,332
104.397,305
104.422,285
104.447,269
104.472,247
104.497,211
104.522,156
104.547,90
104.572,23
104.597,-33
104.622,-86
104.647,-143
104.672,-210
104.697,-266
104.722,-276
104.747,-213
104.772,-84
104.797,70
104.822,207
104.847,311
104.872,403
104.897,508
104.922,635
104.947,763
104.972,861
104.997,911
105.022,914
105.047,883
105.072,828
105.097,747
105.122,636
105.147,495
105.172,338
105.197,188
105.222,57
105.247,-56
105.272,-166
105.297,-282
105.322,-386
105.347,-447
105.372,-441
105.397,-376
105.422,-285
105.447,-204
105.472,-143
105.497,-95
105.522,-51
105.547,-14
105.572,2
105.597,-1
105.622,-12
105.647,-13
105.672,3
105.697,29
105.722,51
105.747,63
105.772,64
105.797,55
105.822,36
105.847,11
105.872,-13
105.897,-33
105.922,-47
105.947,-46
105.972,-15
105.997,56
106.022,165
106.047,288
106.072,401
106.097,496
106.122,579
106.147,653
106.172,715
106.197,760
106.222,792
106.247,827
106.272,871
106.297,916
106.322,950
106.347,974
106.372,1004
106.397,1044
106.422,1084
106.447,1122
106.472,1189
106.497,1326
106.522,1523
106.547,1668
106.572,1596
106.597,1212
106.622,593
106.647,-36
106.672,-452
106.697,-564
106.722,-444
106.747,-238
106.772,-51
106.797,87
106.822,194
106.847,278
106.872,335
106.897,358
106.922,347
106.947,294
106.972,181
106.997,8
107.022,-192
107.047,-364
107.072,-470
107.097,-521
107.122,-558
107.147,-609
107.172,-662
107.197,-692
107.222,-699
107.247,-709
107.272,-745
107.297,-793
107.322,-800
107.347,-723
107.372,-568
107.397,-389
107.422,-257
107.447,-216
107.472,-260
107.497,-338
107.522,-383
107.547,-343
107.572,-206
107.597,-3
107.622,219
107.647,427
107.672,616
107.697,789
107.722,941
107.747,1048
107.772,1092
107.797,1074
107.822,1021
107.847,960
107.872,900
107.897,833
107.922,753
107.947,664
107.972,578
107.997,503
108.022,439
108.047,386
108.072,346
108.097,318
108.122,290
108.147,243
108.172,165
108.197,68
108.222,-18
108.247,-64
108.272,-57
108.297,-7
108.322,66
108.347,145
108.372,222
108.397,290
108.422,343
108.447,378
108.472,404
108.497,430
108.522,464
108.547,502
108.572,533
108.597,550
108.622,558
108.647,568
108.672,582
108.697,590
108.722,578
108.747,536
108.772,466
108.797,381
108.822,289
108.847,197
108.872,114
108.897,46
108.922,5
108.947,0
108.972,32
108.997,94
109.022,165
109.047,221
109.072,243
109.097,220
109.122,165
109.147,111
109.172,104
109.197,181
109.222,337
109.247,519
109.272,636
109.297,623
109.322,482
109.347,294
109.372,156
109.397,109
109.422,112
109.447,96
109.472,29
109.497,-54
109.522,-104
109.547,-113
109.572,-121
109.597,-164
109.622,-225
109.647,-252
109.672,-213
109.697,-134
109.722,-67
109.747,-30
109.772,5
109.797,76
109.822,177
109.847,262
109.872,299
109.897,307
109.922,338
109.947,421
109.972,533
109.997,620
110.022,648
110.047,622
110.072,576
110.097,535
110.122,502
110.147,471
110.172,437
110.197,403
110.222,365
110.247,313
110.272,237
110.297,136
110.322,29
110.347,-49
110.372,-68
110.397,-16
110.422,86
110.447,197
110.472,279
110.497,319
110.522,330
110.547,336
110.572,343
110.597,347
110.622,342
110.647,333
110.672,330
110.697,335
110.722,338
110.747,330
110.772,311
110.797,288
110.822,267
110.847,246
110.872,219
110.897,181
110.922,140
110.947,99
110.972,56
110.997,2
111.022,-65
111.047,-133
111.072,-175
111.097,-167
111.122,-110
111.147,-34
111.172,25
111.197,47
111.222,37
111.247,22
111.272,31
111.297,76
111.322,150
111.347,233
111.372,306
111.397,352
111.422,369
111.447,364
111.472,348
111.497,324
111.522,290
111.547,245
111.572,204
111.597,188
111.622,204
111.647,233
111.672,244
111.697,229
111.722,213
111.747,234
111.772,308
111.797,411
111.822,503
111.847,562
111.872,586
111.897,584
111.922,556
111.947,503
111.972,441
111.997,393
112.022,368
112.047,346
112.072,297
112.097,217
112.122,128
112.147,64
112.172,33
112.197,22
112.222,11
112.247,-2
112.272,-12
112.297,-17
112.322,-17
112.347,0
112.372,63
112.397,195
112.422,378
112.447,552
112.472,654
112.497,660
112.522,594
112.547,504
112.572,422
112.597,359
112.622,316
112.647,299
112.672,311
112.697,345
112.722,379
112.747,390
112.772,370
112.797,325
112.822,269
112.847,204
112.872,127
112.897,35
112.922,-59
112.947,-133
112.972,-156
112.997,-118
113.022,-31
113.047,75
113.072,170
113.097,238
113.122,277
113.147,296
113.172,297
113.197,281
113.222,251
113.247,217
113.272,192
113.297,185
113.322,194
113.347,208
113.372,211
113.397,194
113.422,160
113.447,124
113.472,98
113.497,78
113.522,46
113.547,-7
113.572,-65
113.597,-84
113.622,-36
113.647,71
113.672,197
113.697,301
113.722,370
113.747,420
113.772,464
113.797,496
113.822,504
113.847,490
113.872,473
113.897,471
113.922,479
113.947,478
113.972,462
113.997,440
114.022,422
114.047,402
114.072,361
114.097,293
114.122,216
114.147,154
114.172,113
114.197,70
114.222,7
114.247,-63
114.272,-103
114.297,-78
114.322,7
114.347,117
114.372,214
114.397,285
114.422,335
114.447,372
114.472,391
114.497,384
114.522,355
114.547,320
114.572,293
114.597,280
114.622,272
114.647,262
114.672,246
114.697,223
114.722,192
114.747,148
114.772,90
114.797,25
114.822,-38
114.847,-94
114.872,-150
114.897,-212
114.922,-277
114.947,-322
114.972,-316
114.997,-249
115.022,-138
115.047,-20
115.072,70
115.097,129
115.122,170
115.147,207
115.172,237
115.197,244
115.222,225
115.247,198
115.272,185
115.297,192
115.322,199
115.347,184
115.372,142
115.397,94
115.422,63
115.447,50
115.472,39
115.497,17
115.522,-11
115.547,-35
115.572,-50
115.597,-63
115.622,-79
115.647,-78
115.672,-27
115.697,89
115.722,252
115.747,421
115.772,561
115.797,672
115.822,770
115.847,867
115.872,956
115.897,1025
115.922,1076
115.947,1125
115.972,1185
115.997,1256
116.022,1326
116.047,1392
116.072,1456
116.097,1523
116.122,1585
116.147,1632
116.172,1666
116.197,1698
116.222,1727
116.247,1723
116.272,1633
116.297,1424
116.322,1109
116.347,744
116.372,391
116.397,89
116.422,-150
116.447,-334
116.472,-466
116.497,-555
116.522,-618
116.547,-672
116.572,-724
116.597,-767
116.622,-799
116.647,-830
116.672,-874
116.697,-929
116.722,-969
116.747,-964
116.772,-909
116.797,-824
116.822,-743
116.847,-680
116.872,-638
116.897,-614
116.922,-616
116.947,-646
116.972,-686
116.997,-707
117.022,-695
117.047,-673
117.072,-677
117.097,-716
117.122,-759
117.147,-755
117.172,-682
117.197,-563
117.222,-438
117.247,-321
117.272,-192
117.297,-21
117.322,193
117.347,419
117.372,615
117.397,760
117.422,864
117.447,954
117.472,1060
117.497,1202
117.522,1375
117.547,1545
117.572,1655
117.597,1656
117.622,1552
117.647,1394
117.672,1251
117.697,1159
117.722,1103
117.747,1046
117.772,971
117.797,887
117.822,805
117.847,719
117.872,617
117.897,515
117.922,449
117.947,436
117.972,439
117.997,374
118.022,184
118.047,-108
118.072,-407
118.097,-609
118.122,-670
118.147,-621
118.172,-526
118.197,-430
118.222,-345
118.247,-265
118.272,-182
118.297,-91
118.322,10
118.347,119
118.372,219
118.397,290
118.422,325
118.447,335
118.472,338
118.497,340
118.522,326
118.547,283
118.572,222
118.597,182
118.622,196
118.647,269
118.672,368
118.697,450
118.722,497
118.747,529
118.772,583
118.797,682
118.822,816
118.847,949
118.872,1042
118.897,1069
118.922,1031
118.947,941
118.972,820
118.997,685
119.022,543
119.047,396
119.072,242
119.097,83
119.122,-69
119.147,-208
119.172,-325
119.197,-424
119.222,-513
119.247,-597
119.272,-675
119.297,-744
119.322,-801
119.347,-829
119.372,-801
119.397,-688
119.422,-484
119.447,-228
119.472,9
119.497,178
119.522,277
119.547,352
119.572,447
119.597,566
119.622,673
119.647,733
119.672,747
119.697,743
119.722,742
119.747,730
119.772,678
119.797,570
119.822,420
119.847,262
119.872,126
119.897,29
119.922,-23
119.947,-30
119.972,5
119.997,70
120.022,149
120.047,239
120.072,340
120.097,449
120.122,547
120.147,611
120.172,635
120.197,634
120.222,628
120.247,627
120.272,626
120.297,617
120.322,599
120.347,576
120.372,550
120.397,517
120.422,475
120.447,425
120.472,369
120.497,301
120.522,219
120.547,140
120.572,97
120.597,109
120.622,166
120.647,226
120.672,255
120.697,249
120.722,231
120.747,209
120.772,158
120.797,47
120.822,-120
120.847,-292
120.872,-406
120.897,-435
120.922,-401
120.947,-350
120.972,-310
120.997,-280
121.022,-252
121.047,-226
121.072,-213
121.097,-219
121.122,-243
121.147,-279
121.172,-323
121.197,-364
121.222,-376
121.247,-330
121.272,-219
121.297,-67
121.322,81
121.347,199
121.372,284
121.397,353
121.422,423
121.447,497
121.472,584
121.497,694
121.522,839
121.547,1012
121.572,1184
121.597,1322
121.622,1402
121.647,1414
121.672,1365
121.697,1269
121.722,1143
121.747,1003
121.772,848
121.797,667
121.822,456
121.847,240
121.872,68
121.897,-21
121.922,-35
121.947,-17
121.972,-14
121.997,-42
122.022,-82
122.047,-113
122.072,-127
122.097,-128
122.122,-117
122.147,-95
122.172,-79
122.197,-89
122.222,-125
122.247,-152
122.272,-134
122.297,-71
122.322,-19
122.347,-39
122.372,-135
122.397,-249
122.422,-308
122.447,-290
122.472,-218
122.497,-118
122.522,14
122.547,200
122.572,427
122.597,636
122.622,769
122.647,814
122.672,805
122.697,780
122.722,745
122.747,683
122.772,590
122.797,486
122.822,394
122.847,318
122.872,244
122.897,161
122.922,74
122.947,-1
122.972,-61
122.997,-108
123.022,-145
123.047,-172
123.072,-190
123.097,-205
123.122,-212
123.147,-188
123.172,-109
123.197,28
123.222,195
123.247,350
123.272,470
123.297,561
123.322,630
123.347,673
123.372,680
123.397,657
123.422,629
123.447,616
123.472,616
123.497,608
123.522,579
123.547,539
123.572,508
123.597,488
123.622,464
123.647,422
123.672,370
123.697,320
123.722,278
123.747,230
123.772,174
123.797,132
123.822,134
123.847,192
123.872,278
123.897,345
123.922,357
123.947,308
123.972,211
123.997,82
124.022,-71
124.047,-236
124.072,-393
124.097,-520
124.122,-606
124.147,-660
124.172,-693
124.197,-705
124.222,-681
124.247,-594
124.272,-435
124.297,-225
124.322,-16
124.347,146
124.372,253
124.397,342
124.422,465
124.447,640
124.472,825
124.497,955
124.522,987
124.547,938
124.572,861
124.597,800
124.622,761
124.647,727
124.672,683
124.697,635
124.722,594
124.747,561
124.772,525
124.797,478
124.822,428
124.847,384
124.872,344
124.897,301
124.922,249
124.947,193
124.972,141
124.997,91
125.022,38
125.047,-15
125.072,-54
125.097,-57
125.122,-18
125.147,49
125.172,124
125.197,190
125.222,242
125.247,276
125.272,291
125.297,288
125.322,279
125.347,275
125.372,280
125.397,286
125.422,286
125.447,276
125.472,260
125.497,238
125.522,203
125.547,153
125.572,92
125.597,34
125.622,-16
125.647,-67
125.672,-126
125.697,-178
125.722,-195
125.747,-152
125.772,-55
125.797,61
125.822,165
125.847,241
125.872,295
125.897,331
125.922,344
125.947,329
125.972,296
125.997,269
126.022,264
126.047,279
126.072,293
126.097,293
126.122,282
126.147,270
126.172,261
126.197,248
126.222,227
126.247,203
126.272,186
126.297,173
126.322,149
126.347,100
126.372,37
126.397,-6
126.422,0
126.447,68
126.472,176
126.497,291
126.522,388
126.547,457
126.572,496
126.597,499
126.622,468
126.647,418
126.672,379
126.697,377
126.722,411
126.747,456
126.772,479
126.797,468
126.822,436
126.847,402
126.872,370
126.897,335
126.922,291
126.947,242
126.972,200
126.997,166
127.022,129
127.047,84
127.072,45
127.097,40
127.122,84
127.147,164
127.172,248
127.197,309
127.222,345
127.247,366
127.272,377
127.297,377
127.322,364
127.347,345
127.372,330
127.397,320
127.422,308
127.447,285
127.472,256
127.497,230
127.522,214
127.547,202
127.572,185
127.597,161
127.622,127
127.647,80
127.672,12
127.697,-65
127.722,-122
127.747,-119
127.772,-43
127.797,78
127.822,203
127.847,297
127.872,358
127.897,398
127.922,420
127.947,406
127.972,343
127.997,234
128.022,107
128.047,-5
128.072,-77
128.097,-97
128.122,-68
128.147,-9
128.172,50
128.197,85
128.222,82
128.247,48
128.272,-1
128.297,-57
128.322,-108
128.347,-132
128.372,-103
128.397,-7
128.422,134
128.447,279
128.472,388
128.497,455
128.522,498
128.547,533
128.572,560
128.597,566
128.622,553
128.647,539
128.672,542
128.697,562
128.722,583
128.747,586
128.772,568
128.797,539
128.822,506
128.847,474
128.872,443
128.897,414
128.922,384
128.947,341
128.972,276
128.997,188
129.022,95
129.047,22
129.072,-12
129.097,-4
129.122,38
129.147,106
129.172,183
129.197,246
129.222,277
129.247,269
129.272,241
129.297,221
129.322,229
129.347,255
129.372,269
129.397,251
129.422,208
129.447,172
129.472,171
129.497,201
129.522,228
129.547,218
129.572,163
129.597,83
129.622,-1
129.647,-92
129.672,-198
129.697,-302
129.722,-347
129.747,-272
129.772,-64
129.797,213
129.822,460
129.847,601
129.872,623
129.897,563
129.922,456
129.947,326
129.972,195
129.997,103
130.022,95
130.047,179
130.072,313
130.097,425
130.122,466
130.147,438
130.172,368
130.197,284
130.222,196
130.247,109
130.272,39
130.297,7
130.322,17
130.347,49
130.372,79
130.397,100
130.422,129
130.447,182
130.472,262
130.497,350
130.522,423
130.547,466
130.572,483
130.597,481
130.622,466
130.647,445
130.672,421
130.697,397
130.722,373
130.747,344
130.772,308
130.797,265
130.822,221
130.847,182
130.872,145
130.897,103
130.922,54
130.947,2
130.972,-43
130.997,-83
131.022,-120
131.047,-152
131.072,-163
131.097,-130
131.122,-45
131.147,71
131.172,186
131.197,272
131.222,331
131.247,375
131.272,416
131.297,446
131.322,458
131.347,452
131.372,442
131.397,437
131.422,439
131.447,447
131.472,462
131.497,481
131.522,497
131.547,510
131.572,548
131.597,658
131.622,840
131.647,998
131.672,970
131.697,654
131.722,133
131.747,-341
131.772,-516
131.797,-325
131.822,60
131.847,376
131.872,461
131.897,351
131.922,193
131.947,99
131.972,76
131.997,65
132.022,28
132.047,-23
132.072,-67
132.097,-105
132.122,-151
132.147,-205
132.172,-244
132.197,-250
132.222,-231
132.247,-216
132.272,-215
132.297,-204
132.322,-150
132.347,-46
132.372,70
132.397,151
132.422,173
132.447,146
132.472,104
132.497,73
132.522,59
132.547,57
132.572,71
132.597,112
132.622,191
132.647,306
132.672,433
132.697,544
132.722,626
132.747,686
132.772,735
132.797,771
132.822,767
132.847,704
132.872,594
132.897,484
132.922,425
132.947,432
132.972,477
132.997,517
133.022,530
133.047,519
133.072,494
133.097,455
133.122,394
133.147,311
133.172,226
133.197,156
133.222,107
133.247,71
133.272,41
133.297,19
133.322,17
133.347,34
133.372,53
133.397,55
133.422,28
133.447,-21
133.472,-81
133.497,-131
133.522,-148
133.547,-113
133.572,-22
133.597,102
133.622,222
133.647,303
133.672,342
133.697,355
133.722,359
133.747,356
133.772,334
133.797,294
133.822,252
133.847,230
133.872,230
133.897,240
133.922,244
133.947,245
133.972,253
133.997,268
134.022,274
134.047,258
134.072,224
134.097,201
134.122,221
134.147,295
134.172,403
134.197,517
134.222,608
134.247,663
134.272,678
134.297,654
134.322,598
134.347,523
134.372,445
134.397,375
134.422,318
134.447,270
134.472,226
134.497,176
134.522,117
134.547,53
134.572,-6
134.597,-61
134.622,-120
134.647,-200
134.672,-304
134.697,-407
134.722,-466
134.747,-447
134.772,-353
134.797,-213
134.822,-67
134.847,61
134.872,171
134.897,264
134.922,341
134.947,399
134.972,438
134.997,465
135.022,490
135.047,518
135.072,547
135.097,569
135.122,576
135.147,558
135.172,513
135.197,447
135.222,365
135.247,268
135.272,159
135.297,48
135.322,-37
135.347,-66
135.372,-26
135.397,63
135.422,162
135.447,239
135.472,286
135.497,310
135.522,324
135.547,329
135.572,326
135.597,320
135.622,314
135.647,311
135.672,304
135.697,290
135.722,267
135.747,236
135.772,194
135.797,144
135.822,92
135.847,50
135.872,15
135.897,-22
135.922,-73
135.947,-126
135.972,-150
135.997,-120
136.022,-32
136.047,87
136.072,208
136.097,308
136.122,372
136.147,392
136.172,367
136.197,312
136.222,256
136.247,223
136.272,213
136.297,210
136.322,202
136.347,190
136.372,183
136.397,178
136.422,161
136.447,125
136.472,81
136.497,39
136.522,1
136.547,-44
136.572,-93
136.597,-120
136.622,-93
136.647,-9
136.672,100
136.697,199
136.722,274
136.747,331
136.772,377
136.797,402
136.822,395
136.847,366
136.872,344
136.897,354
136.922,398
136.947,455
136.972,505
136.997,541
137.022,565
137.047,583
137.072,607
137.097,650
137.122,721
137.147,810
137.172,891
137.197,943
137.222,973
137.247,1004
137.272,1045
137.297,1070
137.322,1038
137.347,929
137.372,759
137.397,563
137.422,371
137.447,193
137.472,39
137.497,-77
137.522,-147
137.547,-177
137.572,-188
137.597,-201
137.622,-223
137.647,-249
137.672,-277
137.697,-308
137.722,-340
137.747,-370
137.772,-397
137.797,-424
137.822,-456
137.847,-483
137.872,-479
137.897,-424
137.922,-323
137.947,-207
137.972,-104
137.997,-26
138.022,33
138.047,83
138.072,124
138.097,152
138.122,172
138.147,192
138.172,223
138.197,261
138.222,297
138.247,324
138.272,339
138.297,344
138.322,340
138.347,330
138.372,313
138.397,288
138.422,252
138.447,207
138.472,169
138.497,162
138.522,200
138.547,277
138.572,365
138.597,438
138.622,485
138.647,507
138.672,511
138.697,500
138.722,476
138.747,448
138.772,431
138.797,432
138.822,445
138.847,448
138.872,429
138.897,388
138.922,339
138.947,295
138.972,257
138.997,216
139.022,164
139.047,113
139.072,87
139.097,113
139.122,196
139.147,312
139.172,417
139.197,477
139.222,483
139.247,453
139.272,410
139.297,364
139.322,315
139.347,261
139.372,209
139.397,174
139.422,161
139.447,163
139.472,167
139.497,167
139.522,171
139.547,181
139.572,189
139.597,175
139.622,137
139.647,92
139.672,78
139.697,117
139.722,197
139.747,285
139.772,354
139.797,406
139.822,462
139.847,532
139.872,602
139.897,637
139.922,618
139.947,553
139.972,474
139.997,404
140.022,340
140.047,269
140.072,180
140.097,85
140.122,4
140.147,-55
140.172,-105
140.197,-162
140.222,-228
140.247,-286
140.272,-309
140.297,-278
140.322,-196
140.347,-84
140.372,28
140.397,121
140.422,184
140.447,218
140.472,229
140.497,225
140.522,218
140.547,218
140.572,228
140.597,245
140.622,256
140.647,250
140.672,232
140.697,217
140.722,212
140.747,204
140.772,169
140.797,102
140.822,31
140.847,3
140.872,39
140.897,118
140.922,191
140.947,228
140.972,238
140.997,249
141.022,270
141.047,287
141.072,285
141.097,272
141.122,261
141.147,243
141.172,195
141.197,114
141.222,47
141.247,64
141.272,179
141.297,321
141.322,383
141.347,325
141.372,209
141.397,142
141.422,165
141.447,234
141.472,270
141.497,249
141.522,206
141.547,168
141.572,117
141.597,17
141.622,-110
141.647,-184
141.672,-130
141.697,34
141.722,207
141.747,291
141.772,277
141.797,229
141.822,214
141.847,240
141.872,274
141.897,289
141.922,291
141.947,302
141.972,335
141.997,403
142.022,521
142.047,699
142.072,906
142.097,1074
142.122,1144
142.147,1116
142.172,1052
142.197,1015
142.222,1016
142.247,1015
142.272,964
142.297,855
142.322,720
142.347,602
142.372,525
142.397,487
142.422,462
142.447,413
142.472,315
142.497,173
142.522,27
142.547,-83
142.572,-148
142.597,-194
142.622,-244
142.647,-278
142.672,-249
142.697,-127
142.722,53
142.747,222
142.772,327
142.797,379
142.822,428
142.847,511
142.872,614
142.897,693
142.922,713
142.947,677
142.972,614
142.997,546
143.022,469
143.047,365
143.072,220
143.097,40
143.122,-156
143.147,-354
143.172,-556
143.197,-763
143.222,-954
143.247,-1090
143.272,-1134
143.297,-1096
143.322,-1023
143.347,-957
143.372,-886
143.397,-761
143.422,-553
143.447,-298
143.472,-77
143.497,64
143.522,153
143.547,250
143.572,377
143.597,491
143.622,542
143.647,528
143.672,504
143.697,511
143.722,530
143.747,513
143.772,447
143.797,381
143.822,379
143.847,453
143.872,548
143.897,599
143.922,586
143.947,534
143.972,481
143.997,444
144.022,424
144.047,416
144.072,414
144.097,406
144.122,379
144.147,338
144.172,311
144.197,323
144.222,366
144.247,406
144.272,421
144.297,422
144.322,437
144.347,469
144.372,495
144.397,485
144.422,444
144.447,403
144.472,386
144.497,396
144.522,424
144.547,467
144.572,527
144.597,588
144.622,621
144.647,612
144.672,587
144.697,587
144.722,622
144.747,651
144.772,625
144.797,538
144.822,434
144.847,359
144.872,316
144.897,285
144.922,258
144.947,254
144.972,279
144.997,300
145.022,256
145.047,119
145.072,-88
145.097,-326
145.122,-567
145.147,-804
145.172,-1013
145.197,-1155
145.222,-1220
145.247,-1257
145.272,-1322
145.297,-1390
145.322,-1337
145.347,-1045
145.372,-539
145.397,-6
145.422,345
145.447,451
145.472,410
145.497,370
145.522,398
145.547,469
145.572,556
145.597,675
145.622,844
145.647,1011
145.672,1076
145.697,985
145.722,799
145.747,644
145.772,602
145.797,656
145.822,741
145.847,822
145.872,907
145.897,996
145.922,1047
145.947,1015
145.972,909
145.997,796
146.022,741
146.047,752
146.072,776
146.097,762
146.122,699
146.147,604
146.172,495
146.197,378
146.222,266
146.247,176
146.272,121
146.297,93
146.322,70
146.347,39
146.372,2
146.397,-42
146.422,-99
146.447,-169
146.472,-226
146.497,-232
146.522,-171
146.547,-73
146.572,13
146.597,64
146.622,92
146.647,125
146.672,165
146.697,192
146.722,190
146.747,175
146.772,172
146.797,188
146.822,200
146.847,187
146.872,153
146.897,123
146.922,114
146.947,112
146.972,94
146.997,56
147.022,17
147.047,0
147.072,1
147.097,-8
147.122,-46
147.147,-108
147.172,-172
147.197,-223
147.222,-262
147.247,-284
147.272,-271
147.297,-202
147.322,-82
147.347,49
147.372,145
147.397,187
147.422,197
147.447,214
147.472,250
147.497,289
147.522,311
147.547,318
147.572,328
147.597,352
147.622,377
147.647,384
147.672,371
147.697,358
147.722,368
147.747,399
147.772,429
147.797,437
147.822,423
147.847,407
147.872,405
147.897,413
147.922,417
147.947,401
147.972,366
147.997,331
148.022,320
148.047,354
148.072,431
148.097,528
148.122,612
148.147,670
148.172,719
148.197,786
148.222,878
148.247,964
148.272,1005
148.297,990
148.322,946
148.347,909
148.372,885
148.397,848
148.422,779
148.447,695
148.472,642
148.497,644
148.522,672
148.547,665
148.572,577
148.597,410
148.622,200
148.647,-15
148.672,-224
148.697,-426
148.722,-615
148.747,-764
148.772,-841
148.797,-830
148.822,-741
148.847,-613
148.872,-496
148.897,-418
148.922,-374
148.947,-332
148.972,-270
148.997,-203
149.022,-173
149.047,-205
149.072,-278
149.097,-337
149.122,-341
149.147,-294
149.172,-239
149.197,-208
149.222,-202
149.247,-202
149.272,-197
149.297,-193
149.322,-201
149.347,-215
149.372,-217
149.397,-200
149.422,-172
149.447,-148
149.472,-124
149.497,-79
149.522,9
149.547,142
149.572,297
149.597,440
149.622,544
149.647,597
149.672,611
149.697,607
149.722,609
149.747,625
149.772,644
149.797,647
149.822,623
149.847,575
149.872,506
149.897,412
149.922,298
149.947,186
149.972,110
149.997,90
150.022,116
150.047,156
150.072,191
150.097,229
150.122,286
150.147,361
150.172,431
150.197,485
150.222,547
150.247,653
150.272,811
150.297,993
150.322,1168
150.347,1346
150.372,1560
150.397,1817
150.422,2057
150.447,2187
150.472,2169
150.497,2057
150.522,1952
150.547,1897
150.572,1834
150.597,1652
150.622,1299
150.647,835
150.672,389
150.697,65
150.722,-129
150.747,-259
150.772,-390
150.797,-543
150.822,-696
150.847,-827
150.872,-937
150.897,-1039
150.922,-1129
150.947,-1180
150.972,-1164
150.997,-1078
151.022,-948
151.047,-806
151.072,-674
151.097,-555
151.122,-449
151.147,-362
151.172,-305
151.197,-279
151.222,-279
151.247,-297
151.272,-322
151.297,-337
151.322,-311
151.347,-220
151.372,-74
151.397,79
151.422,188
151.447,234
151.472,244
151.497,255
151.522,273
151.547,264
151.572,206
151.597,129
151.622,103
151.647,181
151.672,350
151.697,539
151.722,684
151.747,768
151.772,814
151.797,846
151.822,863
151.847,845
151.872,789
151.897,713
151.922,639
151.947,573
151.972,505
151.997,420
152.022,313
152.047,185
152.072,42
152.097,-104
152.122,-234
152.147,-331
152.172,-384
152.197,-399
152.222,-376
152.247,-307
152.272,-181
152.297,-8
152.322,172
152.347,311
152.372,389
152.397,427
152.422,468
152.447,534
152.472,618
152.497,691
152.522,737
152.547,754
152.572,750
152.597,729
152.622,688
152.647,628
152.672,562
152.697,506
152.722,466
152.747,437
152.772,405
152.797,363
152.822,307
152.847,242
152.872,182
152.897,141
152.922,131
152.947,147
152.972,172
152.997,178
153.022,143
153.047,62
153.072,-48
153.097,-155
153.122,-224
153.147,-230
153.172,-175
153.197,-81
153.222,16
153.247,95
153.272,150
153.297,187
153.322,213
153.347,227
153.372,227
153.397,220
153.422,215
153.447,210
153.472,192
153.497,149
153.522,97
153.547,70
153.572,99
153.597,183
153.622,286
153.647,367
153.672,411
153.697,433
153.722,450
153.747,461
153.772,455
153.797,431
153.822,411
153.847,417
153.872,447
153.897,468
153.922,448
153.947,384
153.972,305
153.997,242
154.022,199
154.047,159
154.072,107
154.097,52
154.122,9
154.147,-16
154.172,-42
154.197,-78
154.222,-106
154.247,-91
154.272,-11
154.297,111
154.322,223
154.347,281
154.372,283
154.397,252
154.422,211
154.447,162
154.472,103
154.497,53
154.522,57
154.547,147
154.572,309
154.597,491
154.622,635
154.647,721
154.672,768
154.697,803
154.722,836
154.747,856
154.772,848
154.797,811
154.822,751
154.847,679
154.872,610
154.897,573
154.922,594
154.947,672
154.972,760
154.997,787
155.022,690
155.047,460
155.072,141
155.097,-188
155.122,-457
155.147,-618
155.172,-665
155.197,-625
155.222,-544
155.247,-459
155.272,-379
155.297,-287
155.322,-173
155.347,-56
155.372,22
155.397,37
155.422,1
155.447,-47
155.472,-78
155.497,-93
155.522,-111
155.547,-141
155.572,-174
155.597,-199
155.622,-223
155.647,-259
155.672,-301
155.697,-317
155.722,-277
155.747,-182
155.772,-69
155.797,18
155.822,74
155.847,121
155.872,185
155.897,257
155.922,312
155.947,333
155.972,339
155.997,368
156.022,444
156.047,560
156.072,686
156.097,796
156.122,880
156.147,939
156.172,970
156.197,961
156.222,907
156.247,823
156.272,734
156.297,660
156.322,592
156.347,505
156.372,385
156.397,253
156.422,157
156.447,136
156.472,185
156.497,254
156.522,290
156.547,277
156.572,241
156.597,221
156.622,227
156.647,243
156.672,254
156.697,280
156.722,354
156.747,487
156.772,640
156.797,752
156.822,786
156.847,759
156.872,717
156.897,691
156.922,685
156.947,694
156.972,727
156.997,799
157.022,890
157.047,928
157.072,814
157.097,492
157.122,5
157.147,-517
157.172,-930
157.197,-1155
157.222,-1217
157.247,-1203
157.272,-1196
157.297,-1215
157.322,-1223
157.347,-1165
157.372,-1031
157.397,-852
157.422,-677
157.447,-527
157.472,-389
157.497,-243
157.522,-95
157.547,34
157.572,127
157.597,196
157.622,271
157.647,374
157.672,503
157.697,643
157.722,781
157.747,907
157.772,1010
157.797,1069
157.822,1071
157.847,1030
157.872,986
157.897,969
157.922,976
157.947,971
157.972,915
157.997,803
158.022,665
158.047,539
158.072,450
158.097,395
158.122,360
158.147,330
158.172,301
158.197,269
158.222,226
158.247,164
158.272,83
158.297,-10
158.322,-106
158.347,-201
158.372,-293
158.397,-374
158.422,-420
158.447,-405
158.472,-317
158.497,-176
158.522,-24
158.547,98
158.572,183
158.597,243
158.622,295
158.647,340
158.672,373
158.697,397
158.722,425
158.747,474
158.772,543
158.797,615
158.822,663
158.847,669
158.872,628
158.897,545
158.922,435
158.947,316
158.972,206
158.997,115
159.022,44
159.047,-1
159.072,-18
159.097,-4
159.122,23
159.147,37
159.172,27
159.197,17
159.222,46
159.247,131
159.272,242
159.297,325
159.322,351
159.347,337
159.372,327
159.397,349
159.422,394
159.447,435
159.472,459
159.497,474
159.522,490
159.547,506
159.572,510
159.597,498
159.622,474
159.647,447
159.672,413
159.697,365
159.722,300
159.747,231
159.772,170
159.797,124
159.822,81
159.847,29
159.872,-35
159.897,-102
159.922,-148
159.947,-150
159.972,-100
159.997,-17
160.022,62
160.047,110
160.072,122
160.097,126
160.122,150
160.147,194
160.172,230
160.197,227
160.222,186
160.247,138
160.272,116
160.297,126
160.322,150
160.347,167
160.372,174
160.397,181
160.422,194
160.447,205
160.472,201
160.497,178
160.522,146
160.547,121
160.572,105
160.597,89
160.622,65
160.647,38
160.672,29
160.697,58
160.722,131
160.747,231
160.772,331
160.797,403
160.822,441
160.847,452
160.872,445
160.897,427
160.922,398
160.947,365
160.972,341
160.997,337
161.022,348
161.047,359
161.072,353
161.097,327
161.122,291
161.147,254
161.172,219
161.197,186
161.222,155
161.247,127
161.272,98
161.297,59
161.322,11
161.347,-28
161.372,-29
161.397,24
161.422,120
161.447,224
161.472,306
161.497,363
161.522,410
161.547,457
161.572,497
161.597,518
161.622,514
161.647,495
161.672,478
161.697,467
161.722,457
161.747,441
161.772,414
161.797,378
161.822,334
161.847,281
161.872,219
161.897,150
161.922,83
161.947,24
161.972,-22
161.997,-67
162.022,-121
162.047,-194
162.072,-271
162.097,-324
162.122,-326
162.147,-272
162.172,-189
162.197,-110
162.222,-51
162.247,-5
162.272,42
162.297,91
162.322,125
162.347,131
162.372,114
162.397,94
162.422,85
162.447,85
162.472,87
162.497,90
162.522,96
162.547,109
162.572,121
162.597,128
162.622,130
162.647,132
162.672,132
162.697,123
162.722,99
162.747,71
162.772,59
162.797,71
162.822,100
162.847,133
162.872,161
162.897,190
162.922,224
162.947,263
162.972,308
162.997,357
163.022,408
163.047,458
163.072,508
163.097,578
163.122,702
163.147,895
163.172,1134
163.197,1373
163.222,1579
163.247,1764
163.272,1950
163.297,2132
163.322,2263
163.347,2296
163.372,2232
163.397,2115
163.422,1971
163.447,1774
163.472,1474
163.497,1056
163.522,574
163.547,106
163.572,-295
163.597,-624
163.622,-889
163.647,-1088
163.672,-1217
163.697,-1291
163.722,-1347
163.747,-1406
163.772,-1457
163.797,-1480
163.822,-1481
163.847,-1480
163.872,-1482
163.897,-1453
163.922,-1354
163.947,-1194
163.972,-1021
163.997,-868
164.022,-706
164.047,-476
164.072,-164
164.097,163
164.122,408
164.147,531
164.172,574
164.197,609
164.222,670
164.247,736
164.272,777
164.297,789
164.322,784
164.347,769
164.372,734
164.397,679
164.422,622
164.447,580
164.472,538
164.497,465
164.522,349
164.547,222
164.572,132
164.597,97
164.622,88
164.647,66
164.672,18
164.697,-24
164.722,-30
164.747,1
164.772,34
164.797,28
164.822,-30
164.847,-107
164.872,-146
164.897,-98
164.922,43
164.947,238
164.972,429
164.997,578
165.022,691
165.047,804
165.072,952
165.097,1134
165.122,1324
165.147,1487
165.172,1597
165.197,1631
165.222,1568
165.247,1400
165.272,1137
165.297,815
165.322,480
165.347,182
165.372,-31
165.397,-129
165.422,-106
165.447,-3
165.472,113
165.497,191
165.522,217
165.547,202
165.572,149
165.597,42
165.622,-128
165.647,-332
165.672,-504
165.697,-594
165.722,-600
165.747,-557
165.772,-503
165.797,-454
165.822,-419
165.847,-415
165.872,-465
165.897,-565
165.922,-685
165.947,-787
165.972,-845
165.997,-849
166.022,-797
166.047,-694
166.072,-570
166.097,-464
166.122,-396
166.147,-333
166.172,-221
166.197,-52
166.222,108
166.247,172
166.272,122
166.297,49
166.322,81
166.347,279
166.372,602
166.397,957
166.422,1283
166.447,1569
166.472,1811
166.497,1982
166.522,2050
166.547,2026
166.572,1970
166.597,1940
166.622,1939
166.647,1920
166.672,1837
166.697,1692
166.722,1531
166.747,1399
166.772,1303
166.797,1222
166.822,1118
166.847,966
166.872,759
166.897,516
166.922,277
166.947,77
166.972,-78
166.997,-226
167.022,-408
167.047,-631
167.072,-848
167.097,-989
167.122,-1016
167.147,-944
167.172,-828
167.197,-715
167.222,-622
167.247,-537
167.272,-445
167.297,-345
167.322,-246
167.347,-162
167.372,-99
167.397,-53
167.422,-15
167.447,25
167.472,68
167.497,106
167.522,128
167.547,131
167.572,125
167.597,122
167.622,132
167.647,150
167.672,165
167.697,165
167.722,147
167.747,119
167.772,96
167.797,92
167.822,119
167.847,173
167.872,247
167.897,324
167.922,388
167.947,428
167.972,436
167.997,415
168.022,374
168.047,330
168.072,302
168.097,300
168.122,326
168.147,366
168.172,393
168.197,380
168.222,314
168.247,206
168.272,91
168.297,10
168.322,-16
168.347,6
168.372,57
168.397,114
168.422,159
168.447,175
168.472,148
168.497,75
168.522,-22
168.547,-108
168.572,-150
168.597,-144
168.622,-106
168.647,-57
168.672,-1
168.697,72
168.722,169
168.747,283
168.772,400
168.797,501
168.822,569
168.847,579
168.872,516
168.897,388
168.922,235
168.947,109
168.972,47
168.997,51
169.022,93
169.047,141
169.072,172
169.097,180
169.122,174
169.147,164
169.172,158
169.197,153
169.222,140
169.247,110
169.272,67
169.297,28
169.322,0
169.347,-25
169.372,-58
169.397,-94
169.422,-115
169.447,-110
169.472,-97
169.497,-101
169.522,-113
169.547,-82
169.572,43
169.597,258
169.622,486
169.647,641
169.672,700
169.697,712
169.722,748
169.747,840
169.772,973
169.797,1122
169.822,1279
169.847,1436
169.872,1559
169.897,1604
169.922,1569
169.947,1506
169.972,1482
169.997,1508
170.022,1520
170.047,1448
170.072,1290
170.097,1130
170.122,1066
170.147,1121
170.172,1222
170.197,1253
170.222,1138
170.247,873
170.272,512
170.297,135
170.322,-188
170.347,-418
170.372,-548
170.397,-607
170.422,-633
170.447,-651
170.472,-655
170.497,-627
170.522,-565
170.547,-487
170.572,-424
170.597,-401
170.622,-433
170.647,-529
170.672,-690
170.697,-895
170.722,-1113
170.747,-1314
170.772,-1496
170.797,-1675
170.822,-1856
170.847,-2000
170.872,-2040
170.897,-1929
170.922,-1687
170.947,-1387
170.972,-1109
170.997,-885
171.022,-691
171.047,-478
171.072,-204
171.097,144
171.122,551
171.147,973
171.172,1341
171.197,1590
171.222,1687
171.247,1654
171.272,1557
171.297,1450
171.322,1352
171.347,1247
171.372,1132
171.397,1034
171.422,987
171.447,994
171.472,1011
171.497,984
171.522,901
171.547,796
171.572,711
171.597,655
171.622,596
171.647,510
171.672,412
171.697,340
171.722,316
171.747,326
171.772,339
171.797,351
171.822,389
171.847,476
171.872,598
171.897,705
171.922,754
171.947,747
171.972,724
171.997,725
172.022,770
172.047,857
172.072,974
172.097,1100
172.122,1198
172.147,1212
172.172,1099
172.197,860
172.222,540
172.247,199
172.272,-126
172.297,-429
172.322,-699
172.347,-902
172.372,-990
172.397,-948
172.422,-824
172.447,-704
172.472,-658
172.497,-682
172.522,-713
172.547,-668
172.572,-513
172.597,-276
172.622,-23
172.647,186
172.672,329
172.697,414
172.722,462
172.747,482
172.772,466
172.797,404
172.822,293
172.847,154
172.872,19
172.897,-83
172.922,-150
172.947,-194
172.972,-231
172.997,-254
173.022,-238
173.047,-164
173.072,-45
173.097,83
173.122,186
173.147,255
173.172,306
173.197,357
173.222,405
173.247,438
173.272,452
173.297,462
173.322,485
173.347,516
173.372,532
173.397,513
173.422,464
173.447,410
173.472,370
173.497,341
173.522,303
173.547,240
173.572,154
173.597,66
173.622,4
173.647,-8
173.672,43
173.697,154
173.722,296
173.747,429
173.772,523
173.797,573
173.822,595
173.847,606
173.872,610
173.897,601
173.922,584
173.947,569
173.972,566
173.997,573
174.022,578
174.047,583
174.072,602
174.097,657
174.122,753
174.147,873
174.172,989
174.197,1080
174.222,1138
174.247,1163
174.272,1163
174.297,1140
174.322,1090
174.347,998
174.372,840
174.397,601
174.422,291
174.447,-55
174.472,-399
174.497,-720
174.522,-1011
174.547,-1256
174.572,-1427
174.597,-1499
174.622,-1474
174.647,-1391
174.672,-1289
174.697,-1181
174.722,-1048
174.747,-872
174.772,-661
174.797,-440
174.822,-232
174.847,-43
174.872,129
174.897,279
174.922,402
174.947,500
174.972,586
174.997,655
175.022,688
175.047,673
175.072,635
175.097,635
175.122,713
175.147,847
175.172,967
175.197,1013
175.222,984
175.247,927
175.272,882
175.297,849
175.322,802
175.347,736
175.372,673
175.397,646
175.422,665
175.447,713
175.472,761
175.497,785
175.522,775
175.547,741
175.572,710
175.597,711
175.622,746
175.647,774
175.672,745
175.697,642
175.722,502
175.747,371
175.772,259
175.797,133
175.822,-39
175.847,-248
175.872,-464
175.897,-681
175.922,-929
175.947,-1231
175.972,-1558
175.997,-1851
176.022,-2074
176.047,-2241
176.072,-2381
176.097,-2489
176.122,-2535
176.147,-2510
176.172,-2430
176.197,-2276
176.222,-1938
176.247,-1267
176.272,-232
176.297,988
176.322,2083
176.347,2808
176.372,3132
176.397,3200
176.422,3171
176.447,3101
176.472,2966
176.497,2756
176.522,2518
176.547,2310
176.572,2134
176.597,1946
176.622,1712
176.647,1449
176.672,1204
176.697,999
176.722,814
176.747,609
176.772,373
176.797,128
176.822,-86
176.847,-242
176.872,-337
176.897,-389
176.922,-425
176.947,-457
176.972,-473
176.997,-450
177.022,-378
177.047,-282
177.072,-202
177.097,-146
177.122,-87
177.147,4
177.172,121
177.197,215
177.222,245
177.247,213
177.272,161
177.297,119
177.322,86
177.347,43
177.372,-5
177.397,-43
177.422,-63
177.447,-92
177.472,-154
177.497,-242
177.522,-318
177.547,-354
177.572,-362
177.597,-371
177.622,-379
177.647,-350
177.672,-259
177.697,-138
177.722,-59
177.747,-67
177.772,-128
177.797,-158
177.822,-94
177.847,61
177.872,257
177.897,440
177.922,588
177.947,694
177.972,748
177.997,727
178.022,616
178.047,416
178.072,157
178.097,-111
178.122,-332
178.147,-459
178.172,-468
178.197,-374
178.222,-209
178.247,1
178.272,245
178.297,517
178.322,800
178.347,1072
178.372,1321
178.397,1556
178.422,1785
178.447,1988
178.472,2125
178.497,2167
178.522,2127
178.547,2052
178.572,1988
178.597,1950
178.622,1922
178.647,1877
178.672,1780
178.697,1580
178.722,1223
178.747,699
178.772,71
178.797,-538
178.822,-1024
178.847,-1350
178.872,-1552
178.897,-1677
178.922,-1736
178.947,-1716
178.972,-1628
178.997,-1526
179.022,-1467
179.047,-1457
179.072,-1437
179.097,-1337
179.122,-1138
179.147,-890
179.172,-670
179.197,-523
179.222,-443
179.247,-392
179.272,-324
179.297,-203
179.322,-20
179.347,207
179.372,429
179.397,590
179.422,671
179.447,700
179.472,731
179.497,793
179.522,855
179.547,850
179.572,724
179.597,478
179.622,170
179.647,-114
179.672,-307
179.697,-384
179.722,-368
179.747,-310
179.772,-246
179.797,-175
179.822,-59
179.847,120
179.872,328
179.897,481
179.922,508
179.947,421
179.972,308
179.997,261
180.022,301
180.047,368
180.072,392
180.097,365
180.122,358
180.147,449
180.172,654
180.197,900
180.222,1086
180.247,1149
180.272,1102
180.297,1011
180.322,940
180.347,918
180.372,935
180.397,966
180.422,988
180.447,986
180.472,953
180.497,890
180.522,807
180.547,721
180.572,650
180.597,595
180.622,547
180.647,494
180.672,430
180.697,360
180.722,287
180.747,209
180.772,127
180.797,48
180.822,-18
180.847,-79
180.872,-158
180.897,-276
180.922,-423
180.947,-550
180.972,-596
180.997,-530
181.022,-375
181.047,-191
181.072,-37
181.097,60
181.122,107
181.147,121
181.172,117
181.197,99
181.222,66
181.247,17
181.272,-42
181.297,-100
181.322,-145
181.347,-173
181.372,-193
181.397,-211
181.422,-220
181.447,-206
181.472,-170
181.497,-136
181.522,-132
181.547,-162
181.572,-197
181.597,-196
181.622,-147
181.647,-68
181.672,14
181.697,95
181.722,189
181.747,301
181.772,411
181.797,497
181.822,554
181.847,600
181.872,656
181.897,720
181.922,776
181.947,818
181.972,861
181.997,920
182.022,995
182.047,1066
182.072,1119
182.097,1152
182.122,1171
182.147,1173
182.172,1151
182.197,1102
182.222,1035
182.247,949
182.272,833
182.297,672
182.322,477
182.347,288
182.372,140
182.397,38
182.422,-43
182.447,-120
182.472,-169
182.497,-147
182.522,-39
182.547,114
182.572,248
182.597,317
182.622,324
182.647,296
182.672,250
182.697,181
182.722,84
182.747,-36
182.772,-171
182.797,-312
182.822,-454
182.847,-571
182.872,-624
182.897,-586
182.922,-474
182.947,-347
182.972,-261
182.997,-229
183.022,-224
183.047,-214
183.072,-195
183.097,-188
183.122,-202
183.147,-226
183.172,-239
183.197,-235
183.222,-227
183.247,-225
183.272,-225
183.297,-213
183.322,-187
183.347,-157
183.372,-126
183.397,-74
183.422,20
183.447,154
183.472,291
183.497,404
183.522,503
183.547,632
183.572,811
183.597,1002
183.622,1133
183.647,1156
183.672,1089
183.697,988
183.722,884
183.747,762
183.772,597
183.797,406
183.822,248
183.847,180
183.872,202
183.897,266
183.922,323
183.947,359
183.972,385
183.997,400
184.022,383
184.047,321
184.072,229
184.097,145
184.122,92
184.147,63
184.172,45
184.197,41
184.222,72
184.247,148
184.272,248
184.297,339
184.322,405
184.347,455
184.372,499
184.397,531
184.422,535
184.447,511
184.472,483
184.497,480
184.522,503
184.547,529
184.572,539
184.597,539
184.622,540
184.647,525
184.672,447
184.697,277
184.722,46
184.747,-162
184.772,-276
184.797,-290
184.822,-256
184.847,-232
184.872,-222
184.897,-191
184.922,-106
184.947,21
184.972,148
184.997,236
185.022,284
185.047,313
185.072,337
185.097,353
185.122,354
185.147,347
185.172,346
185.197,359
185.222,377
185.247,383
185.272,374
185.297,356
185.322,340
185.347,320
185.372,285
185.397,233
185.422,180
185.447,140
185.472,112
185.497,77
185.522,19
185.547,-44
185.572,-74
185.597,-40
185.622,52
185.647,164
185.672,257
185.697,318
185.722,361
185.747,401
185.772,436
185.797,451
185.822,442
185.847,417
185.872,387
185.897,358
185.922,325
185.947,289
185.972,258
185.997,237
186.022,223
186.047,204
186.072,172
186.097,130
186.122,90
186.147,59
186.172,38
186.197,26
186.222,20
186.247,13
186.272,-8
186.297,-52
186.322,-106
186.347,-137
186.372,-112
186.397,-22
186.422,104
186.447,231
186.472,333
186.497,406
186.522,455
186.547,485
186.572,491
186.597,475
186.622,446
186.647,418
186.672,402
186.697,397
186.722,396
186.747,390
186.772,376
186.797,358
186.822,343
186.847,335
186.872,329
186.897,313
186.922,274
186.947,217
186.972,160
186.997,121
187.022,104
187.047,96
187.072,74
187.097,24
187.122,-51
187.147,-133
187.172,-194
187.197,-206
187.222,-157
187.247,-56
187.272,66
187.297,177
187.322,265
187.347,337
187.372,402
187.397,455
187.422,478
187.447,463
187.472,431
187.497,416
187.522,441
187.547,495
187.572,552
187.597,589
187.622,608
187.647,624
187.672,644
187.697,659
187.722,650
187.747,605
187.772,522
187.797,410
187.822,288
187.847,172
187.872,73
187.897,-13
187.922,-98
187.947,-183
187.972,-249
187.997,-266
188.022,-222
188.047,-135
188.072,-43
188.097,20
188.122,53
188.147,72
188.172,89
188.197,101
188.222,99
188.247,83
188.272,73
188.297,88
188.322,133
188.347,192
188.372,244
188.397,279
188.422,296
188.447,303
188.472,302
188.497,292
188.522,277
188.547,260
188.572,239
188.597,206
188.622,152
188.647,77
188.672,5
188.697,-32
188.722,-12
188.747,61
188.772,162
188.797,258
188.822,335
188.847,393
188.872,440
188.897,477
188.922,502
188.947,522
188.972,551
188.997,598
189.022,655
189.047,696
189.072,700
189.097,666
189.122,609
189.147,546
189.172,477
189.197,394
189.222,297
189.247,195
189.272,99
189.297,8
189.322,-78
189.347,-155
189.372,-201
189.397,-188
189.422,-113
189.447,4
189.472,127
189.497,222
189.522,276
189.547,286
189.572,258
189.597,206
189.622,145
189.647,93
189.672,63
189.697,58
189.722,73
189.747,101
189.772,135
189.797,167
189.822,188
189.847,191
189.872,179
189.897,159
189.922,137
189.947,111
189.972,79
189.997,54
190.022,69
190.047,154
190.072,311
190.097,501
190.122,662
190.147,753
190.172,777
190.197,765
190.222,746
190.247,715
190.272,651
190.297,543
190.322,410
190.347,284
190.372,180
190.397,92
190.422,5
190.447,-80
190.472,-151
190.497,-201
190.522,-234
190.547,-259
190.572,-278
190.597,-284
190.622,-281
190.647,-281
190.672,-289
190.697,-285
190.722,-235
190.747,-128
190.772,9
190.797,128
190.822,199
190.847,234
190.872,267
190.897,313
190.922,355
190.947,371
190.972,364
190.997,365
191.022,403
191.047,481
191.072,569
191.097,637
191.122,671
191.147,675
191.172,659
191.197,628
191.222,579
191.247,511
191.272,427
191.297,335
191.322,244
191.347,158
191.372,78
191.397,3
191.422,-57
191.447,-79
191.472,-44
191.497,47
191.522,166
191.547,272
191.572,340
191.597,372
191.622,387
191.647,399
191.672,408
191.697,407
191.722,401
191.747,394
191.772,388
191.797,374
191.822,345
191.847,304
191.872,261
191.897,225
191.922,193
191.947,157
191.972,109
191.997,49
192.022,-16
192.047,-82
192.072,-143
192.097,-198
192.122,-248
192.147,-286
192.172,-299
192.197,-266
192.222,-175
192.247,-38
192.272,114
192.297,254
192.322,370
192.347,470
192.372,560
192.397,636
192.422,684
192.447,706
192.472,720
192.497,746
192.522,787
192.547,827
192.572,851
192.597,854
192.622,838
192.647,803
192.672,744
192.697,666
192.722,580
192.747,489
192.772,380
192.797,233
192.822,52
192.847,-125
192.872,-250
192.897,-298
192.922,-287
192.947,-260
192.972,-245
192.997,-243
193.022,-240
193.047,-227
193.072,-204
193.097,-170
193.122,-125
193.147,-75
193.172,-36
193.197,-25
193.222,-39
193.247,-55
193.272,-50
193.297,-15
193.322,34
193.347,82
193.372,114
193.397,127
193.422,121
193.447,107
193.472,107
193.497,142
193.522,219
193.547,317
193.572,401
193.597,450
193.622,469
193.647,476
193.672,485
193.697,490
193.722,482
193.747,462
193.772,438
193.797,418
193.822,398
193.847,370
193.872,329
193.897,280
193.922,231
193.947,185
193.972,146
193.997,114
194.022,87
194.047,56
194.072,12
194.097,-40
194.122,-75
194.147,-60
194.172,14
194.197,126
194.222,229
194.247,294
194.272,327
194.297,356
194.322,401
194.347,455
194.372,498
194.397,519
194.422,527
194.447,540
194.472,565
194.497,588
194.522,591
194.547,567
194.572,525
194.597,481
194.622,438
194.647,390
194.672,334
194.697,279
194.722,237
194.747,209
194.772,188
194.797,160
194.822,122
194.847,83
194.872,54
194.897,39
194.922,30
194.947,20
194.972,9
194.997,1
195.022,-5
195.047,-28
195.072,-81
195.097,-159
195.122,-234
195.147,-268
195.172,-236
195.197,-148
195.222,-35
195.247,72
195.272,163
195.297,245
195.322,328
195.347,404
195.372,454
195.397,464
195.422,439
195.447,407
195.472,395
195.497,413
195.522,449
195.547,484
195.572,505
195.597,509
195.622,496
195.647,468
195.672,428
195.697,384
195.722,346
195.747,318
195.772,293
195.797,267
195.822,242
195.847,223
195.872,213
195.897,204
195.922,185
195.947,157
195.972,130
195.997,110
196.022,91
196.047,56
196.072,6
196.097,-36
196.122,-39
196.147,16
196.172,116
196.197,223
196.222,302
196.247,342
196.272,352
196.297,348
196.322,335
196.347,312
196.372,275
196.397,224
196.422,167
196.447,122
196.472,105
196.497,122
196.522,162
196.547,205
196.572,240
196.597,266
196.622,293
196.647,321
196.672,337
196.697,328
196.722,298
196.747,263
196.772,239
196.797,225
196.822,206
196.847,174
196.872,139
196.897,113
196.922,94
196.947,61
196.972,7
196.997,-47
197.022,-59
197.047,4
197.072,130
197.097,271
197.122,381
197.147,445
197.172,480
197.197,509
197.222,541
197.247,564
197.272,567
197.297,549
197.322,516
197.347,469
197.372,403
197.397,314
197.422,208
197.447,109
197.472,47
197.497,35
197.522,63
197.547,101
197.572,119
197.597,113
197.622,94
197.647,76
197.672,57
197.697,28
197.722,-9
197.747,-32
197.772,-10
197.797,65
197.822,169
197.847,258
197.872,308
197.897,323
197.922,324
197.947,322
197.972,313
197.997,290
198.022,259
198.047,237
198.072,230
198.097,230
198.122,223
198.147,205
198.172,186
198.197,173
198.222,165
198.247,156
198.272,143
198.297,127
198.322,106
198.347,71
198.372,21
198.397,-24
198.422,-31
198.447,22
198.472,125
198.497,238
198.522,324
198.547,373
198.572,399
198.597,414
198.622,417
198.647,402
198.672,373
198.697,350
198.722,347
198.747,357
198.772,362
198.797,349
198.822,318
198.847,281
198.872,241
198.897,193
198.922,137
198.947,81
198.972,34
198.997,-2
199.022,-43
199.047,-91
199.072,-123
199.097,-107
199.122,-24
199.147,109
199.172,249
199.197,362
199.222,438
199.247,492
199.272,537
199.297,572
199.322,589
199.347,593
199.372,598
199.397,614
199.422,638
199.447,656
199.472,657
199.497,645
199.522,630
199.547,611
199.572,575
199.597,510
199.622,423
199.647,331
199.672,252
199.697,183
199.722,108
199.747,22
199.772,-62
199.797,-114
199.822,-110
199.847,-52
199.872,32
199.897,107
199.922,156
199.947,180
199.972,188
199.997,187
200.022,178
200.047,161
200.072,145
200.097,141
200.122,151
200.147,168
200.172,177
200.197,175
200.222,166
200.247,154
200.272,137
200.297,106
200.322,58
200.347,-2
200.372,-70
200.397,-147
200.422,-235
200.447,-325
200.472,-389
200.497,-394
200.522,-329
200.547,-215
200.572,-93
200.597,11
200.622,94
200.647,169
200.672,240
200.697,303
200.722,352
200.747,390
200.772,430
200.797,473
200.822,513
200.847,543
200.872,559
200.897,566
200.922,565
200.947,553
200.972,531
200.997,502
201.022,472
201.047,438
201.072,394
201.097,339
201.122,282
201.147,230
201.172,181
201.197,126
201.222,66
201.247,28
201.272,41
201.297,109
201.322,203
201.347,280
201.372,323
201.397,346
201.422,370
201.447,399
201.472,416
201.497,409
201.522,386
201.547,367
201.572,367
201.597,378
201.622,386
201.647,383
201.672,373
201.697,361
201.722,343
201.747,316
201.772,281
201.797,248
201.822,222
201.847,198
201.872,170
201.897,134
201.922,94
201.947,53
201.972,18
201.997,0
202.022,11
202.047,62
202.072,144
202.097,226
202.122,281
202.147,300
202.172,297
202.197,290
202.222,282
202.247,268
202.272,243
202.297,216
202.322,201
202.347,198
202.372,198
202.397,193
202.422,183
202.447,176
202.472,172
202.497,160
202.522,132
202.547,94
202.572,57
202.597,29
202.622,4
202.647,-22
202.672,-47
202.697,-60
202.722,-63
202.747,-70
202.772,-93
202.797,-115
202.822,-98
202.847,-9
202.872,140
202.897,305
202.922,435
202.947,515
202.972,561
202.997,597
203.022,628
203.047,644
203.072,642
203.097,631
203.122,622
203.147,615
203.172,603
203.197,581
203.222,553
203.247,526
203.272,500
203.297,469
203.322,428
203.347,380
203.372,326
203.397,264
203.422,190
203.447,111
203.472,39
203.497,-21
203.522,-82
203.547,-159
203.572,-248
203.597,-321
203.622,-340
203.647,-293
203.672,-203
203.697,-106
203.722,-25
203.747,41
203.772,106
203.797,171
203.822,225
203.847,258
203.872,272
203.897,283
203.922,302
203.947,331
203.972,362
203.997,389
204.022,407
204.047,419
204.072,428
204.097,432
204.122,428
204.147,412
204.172,385
204.197,352
204.222,315
204.247,271
204.272,211
204.297,136
204.322,63
204.347,20
204.372,26
204.397,75
204.422,132
204.447,162
204.472,150
204.497,114
204.522,82
204.547,75
204.572,98
204.597,143
204.622,201
204.647,261
204.672,315
204.697,356
204.722,388
204.747,420
204.772,454
204.797,477
204.822,472
204.847,431
204.872,366
204.897,300
204.922,246
204.947,201
204.972,166
204.997,155
205.022,189
205.047,273
205.072,377
205.097,457
205.122,480
205.147,455
205.172,414
205.197,387
205.222,378
205.247,374
205.272,361
205.297,340
205.322,314
205.347,286
205.372,253
205.397,215
205.422,179
205.447,151
205.472,133
205.497,120
205.522,102
205.547,70
205.572,15
205.597,-57
205.622,-126
205.647,-161
205.672,-137
205.697,-58
205.722,45
205.747,139
205.772,208
205.797,258
205.822,298
205.847,325
205.872,329
205.897,310
205.922,284
205.947,272
205.972,278
205.997,287
206.022,277
206.047,241
206.072,188
206.097,135
206.122,95
206.147,74
206.172,68
206.197,65
206.222,58
206.247,49
206.272,61
206.297,117
206.322,223
206.347,351
206.372,455
206.397,505
206.422,506
206.447,485
206.472,464
206.497,438
206.522,396
206.547,341
206.572,292
206.597,266
206.622,259
206.647,251
206.672,233
206.697,210
206.722,196
206.747,192
206.772,184
206.797,162
206.822,128
206.847,90
206.872,49
206.897,-5
206.922,-74
206.947,-130
206.972,-140
206.997,-86
207.022,6
207.047,97
207.072,160
207.097,196
207.122,221
207.147,238
207.172,239
207.197,219
207.222,193
207.247,183
207.272,193
207.297,208
207.322,214
207.347,224
207.372,263
207.397,336
207.422,414
207.447,451
207.472,430
207.497,376
207.522,324
207.547,284
207.572,242
207.597,187
207.622,137
207.647,128
207.672,178
207.697,263
207.722,343
207.747,394
207.772,422
207.797,442
207.822,459
207.847,466
207.872,459
207.897,449
207.922,448
207.947,455
207.972,460
207.997,459
208.022,459
208.047,462
208.072,460
208.097,439
208.122,397
208.147,349
208.172,313
208.197,291
208.222,267
208.247,231
208.272,196
208.297,191
208.322,236
208.347,328
208.372,442
208.397,551
208.422,636
208.447,690
208.472,716
208.497,720
208.522,704
208.547,667
208.572,607
208.597,532
208.622,461
208.647,404
208.672,345
208.697,241
208.722,59
208.747,-191
208.772,-455
208.797,-668
208.822,-796
208.847,-849
208.872,-858
208.897,-848
208.922,-832
208.947,-821
208.972,-820
208.997,-821
209.022,-796
209.047,-721
209.072,-601
209.097,-471
209.122,-367
209.147,-298
209.172,-244
209.197,-180
209.222,-89
209.247,35
209.272,204
209.297,417
209.322,646
209.347,841
209.372,963
209.397,1020
209.422,1051
209.447,1084
209.472,1105
209.497,1078
209.522,996
209.547,897
209.572,836
209.597,830
209.622,849
209.647,845
209.672,793
209.697,700
209.722,578
209.747,437
209.772,291
209.797,171
209.822,113
209.847,129
209.872,193
209.897,262
209.922,316
209.947,363
209.972,414
209.997,465
210.022,493
210.047,489
210.072,467
210.097,451
210.122,445
210.147,435
210.172,401
210.197,341
210.222,263
210.247,168
210.272,52
210.297,-85
210.322,-229
210.347,-350
210.372,-431
210.397,-472
210.422,-482
210.447,-462
210.472,-413
210.497,-341
210.522,-269
210.547,-215
210.572,-173
210.597,-113
210.622,-8
210.647,140
210.672,301
210.697,436
210.722,528
210.747,578
210.772,598
210.797,600
210.822,592
210.847,582
210.872,581
210.897,591
210.922,600
210.947,590
210.972,550
210.997,481
211.022,399
211.047,325
211.072,277
211.097,258
211.122,259
211.147,265
211.172,264
211.197,252
211.222,230
211.247,199
211.272,159
211.297,109
211.322,50
211.347,-16
211.372,-88
211.397,-159
211.422,-209
211.447,-210
211.472,-147
211.497,-32
211.522,96
211.547,204
211.572,278
211.597,328
211.622,366
211.647,393
211.672,399
211.697,382
211.722,359
211.747,349
211.772,363
211.797,389
211.822,406
211.847,400
211.872,372
211.897,336
211.922,305
211.947,281
211.972,257
211.997,223
212.022,171
212.047,109
212.072,52
212.097,11
212.122,-16
212.147,-43
212.172,-67
212.197,-66
212.222,-14
212.247,89
212.272,214
212.297,318
212.322,378
212.347,403
212.372,414
212.397,417
212.422,405
212.447,375
212.472,341
212.497,325
212.522,332
212.547,344
212.572,343
212.597,323
212.622,300
212.647,282
212.672,263
212.697,227
212.722,173
212.747,118
212.772,75
212.797,42
212.822,5
212.847,-31
212.872,-47
212.897,-12
212.922,73
212.947,182
212.972,272
212.997,324
213.022,346
213.047,356
213.072,362
213.097,359
213.122,345
213.147,328
213.172,318
213.197,320
213.222,324
213.247,320
213.272,309
213.297,295
213.322,280
213.347,259
213.372,230
213.397,194
213.422,158
213.447,120
213.472,72
213.497,16
213.522,-28
213.547,-30
213.572,23
213.597,116
213.622,207
213.647,267
213.672,297
213.697,314
213.722,332
213.747,344
213.772,341
213.797,326
213.822,315
213.847,321
213.872,336
213.897,345
213.922,340
213.947,326
213.972,310
213.997,288
214.022,254
214.047,208
214.072,163
214.097,131
214.122,105
214.147,68
214.172,16
214.197,-28
214.222,-30
214.247,30
214.272,136
214.297,247
214.322,331
214.347,381
214.372,410
214.397,430
214.422,442
214.447,441
214.472,427
214.497,408
214.522,393
214.547,385
214.572,378
214.597,364
214.622,342
214.647,313
214.672,279
214.697,239
214.722,192
214.747,142
214.772,88
214.797,31
214.822,-31
214.847,-100
214.872,-161
214.897,-193
214.922,-174
214.947,-102
214.972,5
214.997,116
215.022,205
215.047,263
215.072,297
215.097,317
215.122,330
215.147,333
215.172,331
215.197,327
215.222,331
215.247,345
215.272,365
215.297,383
215.322,393
215.347,392
215.372,380
215.397,360
215.422,333
215.447,297
215.472,252
215.497,204
215.522,161
215.547,126
215.572,91
215.597,47
215.622,0
215.647,-26
215.672,-4
215.697,71
215.722,179
215.747,280
215.772,348
215.797,383
215.822,398
215.847,402
215.872,394
215.897,376
215.922,359
215.947,354
215.972,364
215.997,376
216.022,379
216.047,371
216.072,356
216.097,337
216.122,309
216.147,274
216.172,237
216.197,210
216.222,191
216.247,167
216.272,128
216.297,82
216.322,41
216.347,8
216.372,-27
216.397,-75
216.422,-121
216.447,-130
216.472,-80
216.497,17
216.522,124
216.547,207
216.572,259
216.597,294
216.622,323
216.647,346
216.672,357
216.697,359
216.722,362
216.747,373
216.772,388
216.797,400
216.822,403
216.847,399
216.872,387
216.897,369
216.922,348
216.947,327
216.972,309
216.997,288
217.022,258
217.047,221
217.072,186
217.097,156
217.122,127
217.147,84
217.172,28
217.197,-17
217.222,-26
217.247,15
217.272,93
217.297,176
217.322,244
217.347,291
217.372,323
217.397,341
217.422,340
217.447,320
217.472,292
217.497,272
217.522,273
217.547,290
217.572,311
217.597,321
217.622,316
217.647,297
217.672,269
217.697,240
217.722,212
217.747,184
217.772,157
217.797,129
217.822,101
217.847,66
217.872,23
217.897,-21
217.922,-43
217.947,-19
217.972,57
217.997,163
218.022,262
218.047,328
218.072,364
218.097,386
218.122,405
218.147,414
218.172,404
218.197,381
218.222,364
218.247,364
218.272,372
218.297,369
218.322,342
218.347,301
218.372,262
218.397,233
218.422,210
218.447,184
218.472,155
218.497,123
218.522,87
218.547,43
218.572,-3
218.597,-31
218.622,-15
218.647,50
218.672,145
218.697,235
218.722,297
218.747,333
218.772,356
218.797,373
218.822,379
218.847,370
218.872,352
218.897,341
218.922,344
218.947,354
218.972,357
218.997,346
219.022,324
219.047,299
219.072,274
219.097,244
219.122,207
219.147,168
219.172,130
219.197,90
219.222,36
219.247,-32
219.272,-95
219.297,-118
219.322,-78
219.347,15
219.372,128
219.397,221
219.422,280
219.447,317
219.472,348
219.497,375
219.522,390
219.547,387
219.572,372
219.597,363
219.622,365
219.647,371
219.672,371
219.697,359
219.722,342
219.747,323
219.772,302
219.797,270
219.822,228
219.847,183
219.872,143
219.897,105
219.922,58
219.947,2
219.972,-47
219.997,-62
220.022,-23
220.047,63
220.072,166
220.097,254
220.122,313
220.147,348
220.172,372
220.197,388
220.222,392
220.247,378
220.272,353
220.297,334
220.322,330
220.347,338
220.372,344
220.397,335
220.422,313
220.447,285
220.472,259
220.497,233
220.522,199
220.547,159
220.572,122
220.597,93
220.622,66
220.647,30
220.672,-18
220.697,-55
220.722,-48
220.747,15
220.772,117
220.797,217
220.822,286
220.847,321
220.872,341
220.897,359
220.922,372
220.947,369
220.972,350
220.997,332
221.022,328
221.047,335
221.072,340
221.097,330
221.122,307
221.147,282
221.172,258
221.197,232
221.222,202
221.247,170
221.272,142
221.297,114
221.322,74
221.347,19
221.372,-30
221.397,-41
221.422,8
221.447,103
221.472,205
221.497,283
221.522,331
221.547,365
221.572,396
221.597,420
221.622,424
221.647,408
221.672,388
221.697,379
221.722,383
221.747,389
221.772,386
221.797,374
221.822,359
221.847,339
221.872,313
221.897,280
221.922,250
221.947,226
221.972,204
221.997,173
222.022,129
222.047,83
222.072,45
222.097,13
222.122,-25
222.147,-75
222.172,-115
222.197,-111
222.222,-49
222.247,48
222.272,145
222.297,219
222.322,273
222.347,322
222.372,370
222.397,407
222.422,420
222.447,415
222.472,404
222.497,397
222.522,392
222.547,383
222.572,368
222.597,345
222.622,314
222.647,274
222.672,230
222.697,192
222.722,166
222.747,146
222.772,124
222.797,98
222.822,69
222.847,41
222.872,7
222.897,-31
222.922,-63
222.947,-60
222.972,-6
222.997,89
223.022,191
223.047,270
223.072,320
223.097,353
223.122,381
223.147,401
223.172,406
223.197,399
223.222,391
223.247,396
223.272,411
223.297,423
223.322,422
223.347,407
223.372,382
223.397,354
223.422,326
223.447,296
223.472,261
223.497,219
223.522,173
223.547,130
223.572,95
223.597,64
223.622,24
223.647,-26
223.672,-70
223.697,-77
223.722,-27
223.747,65
223.772,167
223.797,246
223.822,295
223.847,329
223.872,358
223.897,382
223.922,393
223.947,392
223.972,391
223.997,399
224.022,413
224.047,424
224.072,423
224.097,410
224.122,391
224.147,370
224.172,350
224.197,329
224.222,301
224.247,264
224.272,223
224.297,183
224.322,147
224.347,111
224.372,67
224.397,20
224.422,-5
224.447,13
224.472,82
224.497,177
224.522,261
224.547,315
224.572,348
224.597,376
224.622,404
224.647,419
224.672,413
224.697,393
224.722,378
224.747,376
224.772,377
224.797,368
224.822,343
224.847,305
224.872,258
224.897,202
224.922,136
224.947,66
224.972,-2
224.997,-72
225.022,-149
225.047,-230
225.072,-296
225.097,-329
225.122,-336
225.147,-343
225.172,-368
225.197,-395
225.222,-376
225.247,-279
225.272,-116
225.297,59
225.322,200
225.347,291
225.372,352
225.397,402
225.422,444
225.447,471
225.472,481
225.497,483
225.522,489
225.547,501
225.572,516
225.597,528
225.622,536
225.647,539
225.672,532
225.697,511
225.722,480
225.747,449
225.772,422
225.797,394
225.822,358
225.847,317
225.872,281
225.897,255
225.922,230
225.947,196
225.972,160
225.997,147
226.022,182
226.047,264
226.072,362
226.097,439
226.122,480
226.147,498
226.172,510
226.197,519
226.222,512
226.247,482
226.272,437
226.297,396
226.322,370
226.347,352
226.372,330
226.397,299
226.422,266
226.447,238
226.472,216
226.497,193
226.522,163
226.547,126
226.572,87
226.597,44
226.622,-5
226.647,-57
226.672,-96
226.697,-103
226.722,-66
226.747,5
226.772,90
226.797,166
226.822,220
226.847,257
226.872,286
226.897,310
226.922,320
226.947,309
226.972,278
226.997,243
227.022,217
227.047,205
227.072,197
227.097,179
227.122,146
227.147,104
227.172,57
227.197,9
227.222,-38
227.247,-78
227.272,-102
227.297,-113
227.322,-122
227.347,-138
227.372,-143
227.397,-105
227.422,-7
227.447,134
227.472,270
227.497,359
227.522,397
227.547,411
227.572,426
227.597,445
227.622,451
227.647,437
227.672,417
227.697,410
227.722,422
227.747,440
227.772,448
227.797,441
227.822,422
227.847,395
227.872,358
227.897,311
227.922,255
227.947,192
227.972,125
227.997,57
228.022,11
228.047,12
228.072,71
228.097,170
228.122,269
228.147,339
228.172,373
228.197,387
228.222,396
228.247,399
228.272,391
228.297,372
228.322,352
228.347,340
228.372,334
228.397,324
228.422,304
228.447,274
228.472,236
228.497,194
228.522,152
228.547,112
228.572,72
228.597,24
228.622,-30
228.647,-78
228.672,-90
228.697,-46
228.722,42
228.747,143
228.772,222
228.797,269
228.822,294
228.847,307
228.872,310
228.897,303
228.922,291
228.947,288
228.972,299
228.997,313
229.022,315
229.047,300
229.072,276
229.097,252
229.122,228
229.147,198
229.172,159
229.197,115
229.222,70
229.247,25
229.272,-13
229.297,-25
229.322,9
229.347,90
229.372,190
229.397,271
229.422,318
229.447,341
229.472,358
229.497,375
229.522,379
229.547,367
229.572,350
229.597,347
229.622,360
229.647,375
229.672,378
229.697,368
229.722,355
229.747,342
229.772,321
229.797,283
229.822,235
229.847,189
229.872,150
229.897,107
229.922,53
229.947,4
229.972,-8
229.997,34
230.022,119
230.047,209
230.072,273
230.097,307
230.122,323
230.147,331
230.172,326
230.197,305
230.222,278
230.247,264
230.272,269
230.297,281
230.322,285
230.347,279
230.372,276
230.397,286
230.422,304
230.447,309
230.472,290
230.497,255
230.522,222
230.547,196
230.572,163
230.597,107
230.622,27
230.647,-54
230.672,-104
230.697,-101
230.722,-50
230.747,26
230.772,106
230.797,177
230.822,244
230.847,312
230.872,374
230.897,416
230.922,425
230.947,405
230.972,376
230.997,358
231.022,356
231.047,356
231.072,344
231.097,314
231.122,272
231.147,230
231.172,189
231.197,147
231.222,104
231.247,69
231.272,43
231.297,21
231.322,-8
231.347,-46
231.372,-73
231.397,-63
231.422,-4
231.447,90
231.472,192
231.497,273
231.522,323
231.547,352
231.572,369
231.597,380
231.622,385
231.647,384
231.672,383
231.697,388
231.722,397
231.747,398
231.772,380
231.797,338
231.822,283
231.847,227
231.872,176
231.897,125
231.922,74
231.947,30
231.972,4
231.997,-4
232.022,-13
232.047,-38
232.072,-77
232.097,-99
232.122,-70
232.147,21
232.172,145
232.197,254
232.222,320
232.247,344
232.272,352
232.297,364
232.322,376
232.347,377
232.372,360
232.397,345
232.422,357
232.447,414
232.472,506
232.497,607
232.522,692
232.547,748
232.572,777
232.597,778
232.622,745
232.647,676
232.672,581
232.697,485
232.722,402
232.747,319
232.772,215
232.797,86
232.822,-26
232.847,-61
232.872,16
232.897,180
232.922,348
232.947,430
232.972,380
232.997,215
233.022,-1
233.047,-193
233.072,-302
233.097,-303
233.122,-212
233.147,-73
233.172,63
233.197,171
233.222,251
233.247,319
233.272,372
233.297,380
233.322,312
233.347,167
233.372,-11
233.397,-159
233.422,-238
233.447,-267
233.472,-302
233.497,-381
233.522,-489
233.547,-562
233.572,-537
233.597,-405
233.622,-206
233.647,0
233.672,177
233.697,308
233.722,382
233.747,387
233.772,332
233.797,266
233.822,258
233.847,342
233.872,487
233.897,621
233.922,695
233.947,720
233.972,738
233.997,769
234.022,783
234.047,736
234.072,616
234.097,448
234.122,267
234.147,89
234.172,-70
234.197,-178
234.222,-185
234.247,-69
234.272,125
234.297,318
234.322,443
234.347,490
234.372,489
234.397,465
234.422,416
234.447,338
234.472,248
234.497,187
234.522,188
234.547,249
234.572,345
234.597,455
234.622,569
234.647,683
234.672,786
234.697,862
234.722,904
234.747,913
234.772,884
234.797,806
234.822,673
234.847,501
234.872,331
234.897,192
234.922,85
234.947,-16
234.972,-130
234.997,-246
235.022,-339
235.047,-397
235.072,-433
235.097,-470
235.122,-509
235.147,-538
235.172,-545
235.197,-539
235.222,-539
235.247,-547
235.272,-545
235.297,-512
235.322,-448
235.347,-375
235.372,-313
235.397,-259
235.422,-196
235.447,-112
235.472,-12
235.497,89
235.522,181
235.547,266
235.572,352
235.597,444
235.622,540
235.647,637
235.672,736
235.697,846
235.722,979
235.747,1138
235.772,1308
235.797,1456
235.822,1548
235.847,1578
235.872,1577
235.897,1587
235.922,1622
235.947,1645
235.972,1598
235.997,1451
236.022,1232
236.047,995
236.072,782
236.097,595
236.122,419
236.147,249
236.172,100
236.197,-18
236.222,-117
236.247,-217
236.272,-322
236.297,-414
236.322,-475
236.347,-508
236.372,-537
236.397,-585
236.422,-652
236.447,-727
236.472,-805
236.497,-897
236.522,-1012
236.547,-1139
236.572,-1239
236.597,-1266
236.622,-1192
236.647,-1024
236.672,-806
236.697,-599
236.722,-461
236.747,-406
236.772,-398
236.797,-372
236.822,-276
236.847,-105
236.872,105
236.897,313
236.922,502
236.947,675
236.972,836
236.997,968
237.022,1050
237.047,1078
237.072,1073
237.097,1060
237.122,1050
237.147,1028
237.172,978
237.197,900
237.222,816
237.247,743
237.272,682
237.297,617
237.322,536
237.347,451
237.372,388
237.397,370
237.422,399
237.447,452
237.472,497
237.497,518
237.522,515
237.547,501
237.572,479
237.597,443
237.622,389
237.647,324
237.672,267
237.697,233
237.722,223
237.747,221
237.772,210
237.797,189
237.822,165
237.847,145
237.872,122
237.897,88
237.922,42
237.947,1
237.972,-11
237.997,13
238.022,64
238.047,120
238.072,164
238.097,194
238.122,211
238.147,218
238.172,210
238.197,189
238.222,166
238.247,155
238.272,161
238.297,175
238.322,178
238.347,161
238.372,130
238.397,96
238.422,68
238.447,40
238.472,5
238.497,-33
238.522,-56
238.547,-41
238.572,17
238.597,103
238.622,189
238.647,257
238.672,309
238.697,353
238.722,392
238.747,419
238.772,427
238.797,424
238.822,425
238.847,440
238.872,461
238.897,472
238.922,461
238.947,436
238.972,406
238.997,371
239.022,321
239.047,257
239.072,201
239.097,187
239.122,230
239.147,313
239.172,399
239.197,460
239.222,493
239.247,502
239.272,484
239.297,422
239.322,314
239.347,185
239.372,78
239.397,26
239.422,24
239.447,39
239.472,38
239.497,10
239.522,-34
239.547,-80
239.572,-120
239.597,-160
239.622,-206
239.647,-257
239.672,-296
239.697,-306
239.722,-276
239.747,-211
239.772,-126
239.797,-36
239.822,54
239.847,144
239.872,226
239.897,287
239.922,317
239.947,320
239.972,313
239.997,314
240.022,326
240.047,341
240.072,353
240.097,362
240.122,371
240.147,375
240.172,367
240.197,344
240.222,313
240.247,282
240.272,250
240.297,209
240.322,159
240.347,120
240.372,117
240.397,164
240.422,249
240.447,349
240.472,447
240.497,535
240.522,606
240.547,645
240.572,641
240.597,602
240.622,547
240.647,496
240.672,454
240.697,413
240.722,368
240.747,327
240.772,295
240.797,266
240.822,226
240.847,168
240.872,104
240.897,57
240.922,33
240.947,19
240.972,-6
240.997,-49
241.022,-92
241.047,-110
241.072,-92
241.097,-44
241.122,23
241.147,114
241.172,234
241.197,380
241.222,531
241.247,664
241.272,771
241.297,859
241.322,937
241.347,999
241.372,1028
241.397,1018
241.422,987
241.447,965
241.472,965
241.497,969
241.522,942
241.547,865
241.572,748
241.597,613
241.622,473
241.647,323
241.672,161
241.697,2
241.722,-130
241.747,-233
241.772,-331
241.797,-462
241.822,-639
241.847,-841
241.872,-1022
241.897,-1151
241.922,-1216
241.947,-1220
241.972,-1163
241.997,-1041
242.022,-859
242.047,-640
242.072,-416
242.097,-214
242.122,-45
242.147,93
242.172,208
242.197,309
242.222,403
242.247,494
242.272,578
242.297,646
242.322,689
242.347,700
242.372,677
242.397,625
242.422,557
242.447,492
242.472,450
242.497,441
242.522,457
242.547,476
242.572,483
242.597,478
242.622,471
242.647,466
242.672,460
242.697,447
242.722,434
242.747,434
242.772,457
242.797,493
242.822,524
242.847,537
242.872,533
242.897,522
242.922,507
242.947,488
242.972,463
242.997,432
243.022,398
243.047,358
243.072,307
243.097,249
243.122,188
243.147,126
243.172,59
243.197,-20
243.222,-106
243.247,-182
243.272,-237
243.297,-279
243.322,-322
243.347,-368
243.372,-392
243.397,-362
243.422,-275
243.447,-159
243.472,-53
243.497,24
243.522,90
243.547,161
243.572,240
243.597,308
243.622,350
243.647,371
243.672,387
243.697,411
243.722,443
243.747,478
243.772,515
243.797,554
243.822,590
243.847,612
243.872,615
243.897,607
243.922,599
243.947,596
243.972,594
243.997,588
244.022,580
244.047,574
244.072,571
244.097,562
244.122,543
244.147,514
244.172,478
244.197,429
244.222,355
244.247,264
244.272,187
244.297,156
244.322,177
244.347,221
244.372,248
244.397,254
244.422,266
244.447,303
244.472,349
244.497,362
244.522,320
244.547,254
244.572,219
244.597,240
244.622,291
244.647,324
244.672,317
244.697,288
244.722,259
244.747,224
244.772,159
244.797,60
244.822,-40
244.847,-107
244.872,-143
244.897,-187
244.922,-273
244.947,-387
244.972,-467
244.997,-459
245.022,-359
245.047,-217
245.072,-97
245.097,-33
245.122,-20
245.147,-28
245.172,-29
245.197,-10
245.222,22
245.247,56
245.272,91
245.297,140
245.322,220
245.347,334
245.372,450
245.397,522
245.422,523
245.447,464
245.472,388
245.497,337
245.522,320
245.547,318
245.572,300
245.597,248
245.622,172
245.647,99
245.672,68
245.697,104
245.722,198
245.747,308
245.772,383
245.797,403
245.822,390
245.847,385
245.872,410
245.897,451
245.922,475
245.947,464
245.972,424
245.997,376
246.022,334
246.047,301
246.072,277
246.097,258
246.122,239
246.147,210
246.172,167
246.197,118
246.222,72
246.247,27
246.272,-24
246.297,-79
246.322,-111
246.347,-88
246.372,-3
246.397,107
246.422,201
246.447,259
246.472,305
246.497,371
246.522,455
246.547,525
246.572,554
246.597,551
246.622,550
246.647,577
246.672,625
246.697,670
246.722,696
246.747,699
246.772,681
246.797,634
246.822,548
246.847,432
246.872,310
246.897,205
246.922,122
246.947,52
246.972,-8
246.997,-48
247.022,-52
247.047,-15
247.072,50
247.097,132
247.122,217
247.147,298
247.172,361
247.197,391
247.222,383
247.247,350
247.272,310
247.297,275
247.322,242
247.347,208
247.372,175
247.397,148
247.422,128
247.447,103
247.472,59
247.497,-7
247.522,-83
247.547,-152
247.572,-206
247.597,-247
247.622,-283
247.647,-321
247.672,-353
247.697,-362
247.722,-324
247.747,-222
247.772,-66
247.797,107
247.822,256
247.847,359
247.872,427
247.897,486
247.922,549
247.947,607
247.972,642
247.997,655
248.022,657
248.047,653
248.072,624
248.097,546
248.122,420
248.147,282
248.172,170
248.197,95
248.222,39
248.247,-16
248.272,-63
248.297,-73
248.322,-39
248.347,19
248.372,81
248.397,146
248.422,235
248.447,354
248.472,473
248.497,547
248.522,558
248.547,536
248.572,524
248.597,535
248.622,539
248.647,503
248.672,424
248.697,335
248.722,272
248.747,247
248.772,244
248.797,235
248.822,199
248.847,129
248.872,35
248.897,-54
248.922,-112
248.947,-131
248.972,-124
248.997,-114
249.022,-103
249.047,-67
249.072,13
249.097,126
249.122,228
249.147,285
249.172,304
249.197,321
249.222,361
249.247,414
249.272,450
249.297,456
249.322,449
249.347,451
249.372,468
249.397,484
249.422,487
249.447,471
249.472,437
249.497,384
249.522,316
249.547,258
249.572,234
249.597,243
249.622,243
249.647,189
249.672,82
249.697,-20
249.722,-47
249.747,17
249.772,122
249.797,198
249.822,218
249.847,205
249.872,195
249.897,191
249.922,172
249.947,134
249.972,104
249.997,117
250.022,171
250.047,231
250.072,261
250.097,263
250.122,262
250.147,269
250.172,268
250.197,235
250.222,179
250.247,127
250.272,97
250.297,68
250.322,10
250.347,-72
250.372,-130
250.397,-112
250.422,-16
250.447,107
250.472,209
250.497,277
250.522,335
250.547,400
250.572,451
250.597,458
250.622,420
250.647,372
250.672,354
250.697,371
250.722,400
250.747,418
250.772,429
250.797,444
250.822,456
250.847,438
250.872,363
250.897,241
250.922,112
250.947,28
250.972,19
250.997,79
251.022,168
251.047,239
251.072,260
251.097,234
251.122,200
251.147,201
251.172,248
251.197,310
251.222,347
251.247,343
251.272,321
251.297,313
251.322,326
251.347,341
251.372,338
251.397,321
251.422,305
251.447,298
251.472,288
251.497,261
251.522,223
251.547,189
251.572,170
251.597,158
251.622,140
251.647,113
251.672,85
251.697,57
251.722,20
251.747,-35
251.772,-91
251.797,-113
251.822,-75
251.847,12
251.872,111
251.897,186
251.922,236
251.947,279
251.972,329
251.997,378
252.022,407
252.047,412
252.072,408
252.097,414
252.122,432
252.147,446
252.172,443
252.197,422
252.222,396
252.247,370
252.272,341
252.297,301
252.322,248
252.347,190
252.372,133
252.397,76
252.422,18
252.447,-30
252.472,-46
252.497,-15
252.522,54
252.547,130
252.572,183
252.597,206
252.622,222
252.647,250
252.672,288
252.697,313
252.722,305
252.747,271
252.772,233
252.797,213
252.822,211
252.847,213
252.872,209
252.897,199
252.922,189
252.947,179
252.972,163
252.997,142
253.022,123
253.047,106
253.072,86
253.097,53
253.122,10
253.147,-17
253.172,0
253.197,72
253.222,180
253.247,294
253.272,391
253.297,464
253.322,518
253.347,553
253.372,566
253.397,555
253.422,528
253.447,495
253.472,466
253.497,441
253.522,417
253.547,389
253.572,355
253.597,316
253.622,278
253.647,242
253.672,203
253.697,157
253.722,105
253.747,53
253.772,8
253.797,-33
253.822,-85
253.847,-150
253.872,-207
253.897,-221
253.922,-171
253.947,-72
253.972,33
253.997,111
254.022,159
254.047,197
254.072,240
254.097,281
254.122,303
254.147,303
254.172,299
254.197,309
254.222,334
254.247,358
254.272,366
254.297,360
254.322,351
254.347,347
254.372,346
254.397,342
254.422,331
254.447,313
254.472,290
254.497,261
254.522,229
254.547,197
254.572,160
254.597,115
254.622,68
254.647,44
254.672,73
254.697,162
254.722,285
254.747,396
254.772,470
254.797,514
254.822,548
254.847,580
254.872,597
254.897,584
254.922,551
254.947,519
254.972,499
254.997,481
255.022,447
255.047,396
255.072,343
255.097,296
255.122,243
255.147,162
255.172,53
255.197,-49
255.222,-97
255.247,-68
255.272,9
255.297,75
255.322,79
255.347,19
255.372,-66
255.397,-123
255.422,-119
255.447,-63
255.472,4
255.497,52
255.522,77
255.547,102
255.572,154
255.597,227
255.622,292
255.647,321
255.672,316
255.697,303
255.722,302
255.747,305
255.772,291
255.797,250
255.822,205
255.847,181
255.872,185
255.897,197
255.922,195
255.947,177
255.972,159
255.997,152
256.022,142
256.047,112
256.072,66
256.097,36
256.122,55
256.147,130
256.172,231
256.197,319
256.222,374
256.247,397
256.272,399
256.297,387
256.322,368
256.347,347
256.372,331
256.397,320
256.422,310
256.447,296
256.472,283
256.497,275
256.522,270
256.547,256
256.572,227
256.597,195
256.622,180
256.647,187
256.672,195
256.697,176
256.722,122
256.747,65
256.772,47
256.797,88
256.822,170
256.847,257
256.872,318
256.897,354
256.922,377
256.947,396
256.972,407
256.997,402
257.022,381
257.047,355
257.072,332
257.097,317
257.122,303
257.147,283
257.172,256
257.197,225
257.222,194
257.247,164
257.272,133
257.297,97
257.322,57
257.347,24
257.372,13
257.397,38
257.422,99
257.447,179
257.472,250
257.497,295
257.522,316
257.547,327
257.572,338
257.597,347
257.622,342
257.647,318
257.672,285
257.697,256
257.722,238
257.747,219
257.772,187
257.797,142
257.822,97
257.847,57
257.872,9
257.897,-70
257.922,-183
257.947,-296
257.972,-356
257.997,-335
258.022,-249
258.047,-140
258.072,-41
258.097,49
258.122,152
258.147,276
258.172,407
258.197,521
258.222,607
258.247,672
258.272,726
258.297,771
258.322,801
258.347,816
258.372,817
258.397,806
258.422,782
258.447,743
258.472,690
258.497,620
258.522,525
258.547,401
258.572,265
258.597,152
258.622,88
258.647,65
258.672,40
258.697,-16
258.722,-96
258.747,-149
258.772,-136
258.797,-69
258.822,8
258.847,60
258.872,86
258.897,116
258.922,167
258.947,228
258.972,274
258.997,296
259.022,298
259.047,289
259.072,273
259.097,244
259.122,203
259.147,151
259.172,89
259.197,19
259.222,-40
259.247,-61
259.272,-19
259.297,78
259.322,190
259.347,274
259.372,316
259.397,330
259.422,338
259.447,341
259.472,327
259.497,290
259.522,244
259.547,208
259.572,194
259.597,195
259.622,198
259.647,198
259.672,194
259.697,184
259.722,167
259.747,147
259.772,130
259.797,118
259.822,100
259.847,65
259.872,25
259.897,12
259.922,58
259.947,167
259.972,303
259.997,419
260.022,489
260.047,523
260.072,544
260.097,567
260.122,584
260.147,585
260.172,572
260.197,559
260.222,552
260.247,544
260.272,523
260.297,484
260.322,432
260.347,376
260.372,318
260.397,255
260.422,191
260.447,125
260.472,51
260.497,-43
260.522,-163
260.547,-281
260.572,-350
260.597,-337
260.622,-256
260.647,-161
260.672,-99
260.697,-79
260.722,-69
260.747,-48
260.772,-22
260.797,-18
260.822,-47
260.847,-81
260.872,-88
260.897,-60
260.922,-18
260.947,11
260.972,30
260.997,54
261.022,92
261.047,129
261.072,149
261.097,151
261.122,146
261.147,141
261.172,128
261.197,96
261.222,63
261.247,70
261.272,153
261.297,310
261.322,499
261.347,672
261.372,807
261.397,922
