df_hash,22ZHK4.JEJ4QH
device,HZ2X61
project_hash,29R7
project_name,istanbul_aydin_university
person_hash,29R7.UU8F
person_label,V64
date_time_start,2025-10-31_16-37-26.954000_+03
date_time_start_unix,1761914246.954
date_time_end,2025-10-31_16-45-41.538000_+03
length_difference_noticed,no

time,ppg_ir,ppg_ambient,ppg_red
5.611,192980,908,253776
5.616,192986,900,253796
5.621,192977,898,253784
5.626,192992,905,253789
5.631,192998,897,253780
5.636,192985,898,253784
5.641,192982,897,253784
5.646,192993,901,253798
5.651,193008,894,253816
5.656,192994,893,253796
5.661,192994,893,253798
5.666,192995,896,253811
5.670,193025,890,253822
5.675,193008,896,253821
5.680,193006,886,253831
5.685,193017,890,253811
5.690,193028,889,253826
5.695,193035,890,253829
5.700,193042,889,253821
5.705,193052,883,253835
5.710,193045,885,253831
5.715,193054,885,253816
5.720,193055,883,253819
5.725,193052,884,253848
5.730,193063,886,253864
5.735,193078,877,253869
5.740,193075,877,253858
5.745,193068,880,253871
5.750,193078,881,253841
5.755,193068,881,253852
5.760,193079,881,253868
5.765,193078,876,253837
5.770,193058,875,253829
5.775,193044,881,253808
5.780,193019,870,253824
5.785,193002,874,253780
5.790,192986,873,253762
5.795,192956,875,253738
5.800,192944,874,253720
5.805,192923,877,253708
5.810,192910,868,253706
5.815,192899,869,253676
5.819,192886,879,253668
5.824,192867,873,253682
5.829,192874,865,253682
5.834,192855,866,253660
5.839,192855,865,253669
5.844,192842,868,253680
5.849,192853,869,253672
5.854,192838,869,253665
5.859,192843,868,253679
5.864,192844,861,253670
5.869,192838,869,253668
5.874,192846,861,253653
5.879,192819,860,253653
5.884,192813,863,253667
5.889,192826,866,253657
5.894,192836,858,253657
5.899,192814,858,253661
5.904,192813,859,253658
5.909,192817,861,253659
5.914,192819,863,253667
5.919,192799,856,253646
5.924,192782,858,253666
5.929,192800,861,253659
5.934,192789,860,253666
5.939,192802,861,253636
5.944,192789,852,253640
5.949,192777,854,253662
5.954,192782,855,253631
5.959,192781,853,253637
5.963,192764,854,253621
5.968,192773,850,253642
5.973,192767,849,253632
5.978,192769,847,253636
5.983,192745,850,253630
5.988,192753,851,253659
5.993,192748,851,253645
5.998,192758,851,253632
6.003,192772,852,253647
6.008,192755,855,253629
6.013,192782,845,253652
6.018,192775,848,253676
6.023,192783,850,253670
6.028,192793,854,253681
6.033,192775,845,253694
6.038,192788,845,253676
6.043,192788,846,253691
6.048,192784,851,253683
6.053,192810,842,253698
6.058,192804,842,253706
6.063,192777,844,253632
6.068,192796,849,253709
6.073,192786,848,253667
6.078,192798,848,253674
6.083,192786,838,253683
6.088,192799,842,253685
6.093,192785,840,253686
6.098,192790,841,253666
6.103,192787,840,253703
6.107,192784,845,253673
6.112,192780,840,253697
6.117,192788,841,253687
6.122,192778,840,253679
6.127,192805,846,253686
6.132,192798,844,253702
6.137,192821,836,253709
6.142,192822,834,253695
6.147,192800,839,253692
6.152,192804,838,253688
6.157,192807,838,253707
6.162,192774,833,253697
6.167,192801,841,253714
6.172,192812,840,253721
6.177,192791,839,253728
6.182,192827,837,253739
6.187,192824,834,253743
6.192,192814,832,253748
6.197,192833,833,253729
6.202,192829,831,253724
6.207,192822,837,253749
6.212,192838,831,253763
6.217,192829,410,253756
6.222,192817,461,253727
6.227,192838,500,253746
6.232,192837,523,253741
6.237,192835,544,253759
6.242,192847,558,253754
6.247,192837,576,253788
6.252,192839,574,253766
6.256,192842,584,253779
6.261,192856,597,253767
6.266,192858,609,253769
6.271,192867,605,253806
6.276,192857,609,253797
6.281,192860,614,253797
6.286,192885,624,253799
6.291,192879,628,253803
6.296,192876,633,253817
6.301,192876,637,253807
6.306,192898,649,253828
6.311,192896,643,253804
6.316,192908,648,253806
6.321,192905,1139,253809
6.326,192901,1066,253809
6.331,192912,1016,253833
6.336,192915,987,253822
6.341,192925,965,253815
6.346,192916,953,253844
6.351,192919,942,253830
6.356,192919,923,253843
6.361,192925,917,253842
6.366,192930,915,253849
6.371,192928,900,253856
6.376,192945,895,253845
6.381,192950,889,253859
6.386,192948,887,253862
6.391,192968,883,253852
6.396,192952,880,253861
6.400,192946,876,253856
6.405,192961,874,253869
6.410,192969,872,253861
6.415,192969,862,253861
6.420,192977,859,253880
6.425,192977,861,253891
6.430,192983,860,253891
6.435,192971,859,253886
6.440,192989,856,253907
6.445,192983,858,253900
6.450,192996,848,253894
6.455,193010,854,253889
6.460,192997,848,253916
6.465,193005,852,253918
6.470,193014,852,253900
6.475,193027,842,253910
6.480,193035,840,253933
6.485,193032,843,253916
6.490,193020,843,253930
6.495,193033,845,253921
6.500,193053,834,253921
6.505,193004,839,253930
6.510,193031,840,253919
6.515,193014,840,253896
6.520,193003,831,253890
6.525,192969,833,253850
6.530,192975,835,253831
6.535,192938,834,253823
6.540,192913,834,253800
6.545,192902,828,253806
6.549,192896,830,253734
6.554,192867,826,253779
6.559,192861,825,253760
6.564,192864,829,253749
6.569,192836,833,253750
6.574,192843,823,253741
6.579,192826,822,253738
6.584,192819,826,253745
6.589,192825,826,253735
6.594,192812,829,253762
6.599,192796,821,253753
6.604,192806,824,253748
6.609,192809,826,253741
6.614,192802,828,253727
6.619,192823,818,253749
6.624,192789,821,253730
6.629,192791,822,253740
6.634,192799,823,253732
6.639,192789,822,253724
6.644,192784,824,253712
6.649,192776,820,253714
6.654,192793,821,253715
6.659,192778,819,253736
6.664,192777,824,253712
6.669,192766,817,253704
6.674,192787,817,253693
6.679,192775,816,253712
6.684,192752,819,253702
6.689,192747,823,253710
6.693,192765,814,253723
6.698,192748,816,253707
6.703,192744,809,253704
6.708,192745,813,253704
6.713,192742,814,253692
6.718,192735,815,253701
6.723,192739,816,253690
6.728,192741,809,253710
6.733,192744,811,253695
6.738,192765,811,253701
6.743,192764,811,253704
6.748,192734,818,253706
6.753,192756,811,253701
6.758,192743,810,253720
6.763,192761,811,253713
6.768,192767,815,253740
6.773,192773,808,253743
6.778,192781,809,253740
6.783,192776,809,253748
6.788,192777,813,253753
6.793,192777,805,253718
6.798,192777,811,253747
6.803,192777,813,253748
6.808,192776,815,253771
6.813,192783,804,253749
6.818,192782,805,253754
6.823,192782,805,253752
6.828,192769,810,253771
6.833,192765,811,253742
6.837,192763,811,253760
6.842,192776,804,253763
6.847,192784,808,253737
6.852,192790,808,253750
6.857,192783,809,253760
6.862,192770,808,253767
6.867,192781,803,253770
6.872,192774,801,253763
6.877,192772,804,253748
6.882,192767,804,253778
6.887,192769,809,253758
6.892,192779,803,253772
6.897,192790,802,253772
6.902,192783,803,253768
6.907,192794,808,253785
6.912,192794,807,253777
6.917,192790,799,253774
6.922,192799,798,253786
6.927,192806,802,253802
6.932,192817,803,253817
6.937,192820,803,253803
6.942,192809,805,253796
6.947,192826,809,253811
6.952,192823,799,253814
6.957,192824,798,253811
6.962,192836,798,253824
6.967,192844,803,253821
6.972,192847,801,253838
6.977,192832,803,253823
6.982,192850,803,253848
6.986,192834,806,253851
6.991,192846,800,253832
6.996,192861,800,253851
7.001,192871,799,253835
7.006,192859,804,253847
7.011,192865,804,253851
7.016,192866,794,253874
7.021,192894,793,253846
7.026,192890,798,253876
7.031,192867,796,253877
7.036,192880,797,253910
7.041,192905,800,253875
7.046,192886,795,253887
7.051,192900,795,253896
7.056,192899,794,253904
7.061,192919,793,253874
7.066,192910,797,253902
7.071,192910,797,253900
7.076,192922,799,253919
7.081,192907,797,253893
7.086,192885,790,253920
7.091,192937,796,253925
7.096,192934,797,253927
7.101,192935,796,253941
7.106,192921,791,253937
7.111,192948,792,253936
7.116,192959,794,253930
7.121,192965,795,253923
7.126,192951,800,253940
7.130,192967,790,253954
7.135,192958,795,253938
7.140,192980,795,253953
7.145,192955,790,253947
7.150,192990,791,253971
7.155,192983,792,253975
7.160,192969,791,253965
7.165,192963,797,253981
7.170,192983,797,253965
7.175,192984,788,253971
7.180,192982,787,253994
7.185,192998,796,253990
7.190,192998,797,253989
7.195,193013,787,253997
7.200,193018,786,253975
7.205,193028,789,253992
7.210,193023,789,254025
7.215,193005,380,253998
7.220,193032,431,253990
7.225,193020,467,254006
7.230,193023,487,254015
7.235,193012,505,254018
7.240,193049,521,254017
7.245,193057,538,254033
7.250,193053,537,254042
7.255,193061,548,254052
7.260,193063,556,254064
7.265,193073,567,254048
7.270,193064,576,254043
7.275,193063,586,254047
7.279,193061,579,254035
7.284,193063,592,254016
7.289,193049,600,254019
7.294,193022,595,253995
7.299,193015,599,253994
7.304,192991,607,253956
7.309,192974,612,253951
7.314,192970,619,253905
7.319,192947,1098,253923
7.324,192939,1021,253903
7.329,192939,981,253894
7.334,192919,953,253907
7.339,192907,922,253880
7.344,192886,910,253885
7.349,192888,901,253869
7.354,192882,891,253885
7.359,192888,872,253880
7.364,192873,869,253877
7.369,192876,862,253879
7.374,192884,858,253880
7.379,192861,855,253898
7.384,192889,845,253862
7.389,192889,844,253888
7.394,192871,840,253867
7.399,192854,835,253890
7.404,192860,838,253878
7.409,192856,829,253868
7.414,192851,826,253863
7.419,192853,826,253867
7.423,192853,827,253865
7.428,192871,826,253895
7.433,192842,824,253859
7.438,192853,813,253853
7.443,192841,815,253852
7.448,192830,817,253860
7.453,192835,818,253849
7.458,192851,817,253857
7.463,192833,808,253853
7.468,192832,809,253839
7.473,192817,803,253849
7.478,192825,804,253845
7.483,192811,806,253824
7.488,192824,808,253852
7.493,192817,809,253829
7.498,192832,806,253851
7.503,192817,799,253850
7.508,192829,801,253856
7.513,192824,801,253861
7.518,192808,801,253861
7.523,192847,802,253856
7.528,192851,799,253890
7.533,192870,799,253899
7.538,192848,798,253921
7.543,192875,798,253900
7.548,192860,802,253934
7.553,192862,792,253930
7.558,192881,791,253942
7.563,192896,794,253916
7.567,192872,796,253914
7.572,192895,793,253925
7.577,192883,790,253943
7.582,192879,790,253929
7.587,192883,794,253923
7.592,192865,795,253923
7.597,192890,795,253935
7.602,192886,785,253940
7.607,192880,790,253911
7.612,192877,789,253936
7.617,192886,790,253932
7.622,192870,784,253939
7.627,192888,788,253921
7.632,192878,786,253927
7.637,192875,788,253942
7.642,192867,787,253938
7.647,192899,795,253940
7.652,192885,793,253918
7.657,192885,783,253938
7.662,192899,784,253958
7.667,192901,787,253941
7.672,192885,792,253960
7.677,192902,783,253953
7.682,192906,782,253937
7.687,192901,785,253945
7.692,192898,782,253951
7.697,192889,783,253970
7.702,192906,781,253993
7.707,192923,785,253984
7.712,192931,783,253965
7.716,192940,791,253979
7.721,192937,785,253984
7.726,192922,789,253978
7.731,192936,788,254010
7.736,192940,787,253999
7.741,192940,785,253971
7.746,192943,790,254006
7.751,192959,788,253997
7.756,192958,786,253998
7.761,192942,786,254011
7.766,192952,790,254001
7.771,192964,780,254001
7.776,192964,780,254021
7.781,192964,779,254020
7.786,192959,781,254019
7.791,192967,779,254033
7.796,192990,778,254026
7.801,192978,776,254024
7.806,192996,779,254022
7.811,192997,778,254052
7.816,193011,773,254038
7.821,192998,777,254052
7.826,193004,781,254053
7.831,193008,778,254065
7.836,193014,778,254065
7.841,193009,776,254047
7.846,193009,781,254052
7.851,193023,780,254075
7.856,193022,779,254081
7.860,193023,776,254072
7.865,193026,783,254074
7.870,193025,782,254069
7.875,193035,782,254092
7.880,193020,771,254069
7.885,193039,777,254107
7.890,193048,772,254089
7.895,193037,773,254097
7.900,193055,771,254086
7.905,193048,775,254088
7.910,193054,773,254077
7.915,193053,781,254097
7.920,193067,779,254112
7.925,193054,780,254100
7.930,193071,779,254102
7.935,193055,777,254094
7.940,193069,775,254128
7.945,193105,779,254107
7.950,193085,775,254123
7.955,193075,774,254121
7.960,193102,771,254126
7.965,193100,772,254137
7.970,193094,773,254130
7.975,193109,772,254127
7.980,193111,769,254155
7.985,193106,770,254122
7.990,193111,770,254138
7.995,193092,769,254135
8.000,193087,776,254103
8.005,193054,779,254100
8.009,193074,778,254080
8.014,193027,776,254046
8.019,193019,773,254043
8.024,192988,776,254041
8.029,192992,777,254042
8.034,192995,777,254009
8.039,192959,775,254007
8.044,192951,767,254008
8.049,192955,769,254007
8.054,192935,767,254014
8.059,192936,769,254017
8.064,192929,776,253996
8.069,192945,767,254024
8.074,192930,766,254002
8.079,192931,765,253999
8.084,192926,766,254010
8.089,192926,767,254004
8.094,192943,768,254016
8.099,192937,763,253988
8.104,192935,768,254011
8.109,192945,771,254014
8.114,192954,771,254022
8.119,192926,769,254017
8.124,192927,773,254024
8.129,192919,773,254009
8.134,192931,773,254024
8.139,192920,762,254017
8.144,192929,766,254023
8.149,192924,768,253997
8.153,192929,770,254004
8.158,192905,764,254011
8.163,192908,766,254013
8.168,192913,771,254008
8.173,192898,771,254006
8.178,192898,771,254013
8.183,192907,765,254019
8.188,192920,766,254000
8.193,192897,767,254008
8.198,192901,767,254004
8.203,192905,770,253997
8.208,192908,762,254010
8.213,192893,360,254013
8.218,192890,401,254007
8.223,192888,438,254020
8.228,192897,466,254020
8.233,192884,485,254040
8.238,192899,503,254054
8.243,192927,519,254045
8.248,192913,520,254050
8.253,192918,531,254060
8.258,192945,544,254057
8.263,192940,541,254048
8.268,192938,553,254064
8.273,192943,560,254054
8.278,192944,566,254055
8.283,192946,574,254054
8.288,192926,571,254078
8.293,192937,576,254052
8.297,192952,581,254063
8.302,192946,589,254092
8.307,192934,589,254073
8.312,192934,592,254071
8.317,192942,1096,254062
8.322,192954,1006,254053
8.327,192949,964,254070
8.332,192954,926,254066
8.337,192938,903,254087
8.342,192941,887,254063
8.347,192953,878,254078
8.352,192939,865,254072
8.357,192966,853,254085
8.362,192959,845,254092
8.367,192946,843,254086
8.372,192961,840,254096
8.377,192956,835,254094
8.382,192954,831,254088
8.387,192957,822,254097
8.392,192974,818,254086
8.397,192984,817,254132
8.402,192980,809,254124
8.407,192992,811,254130
8.412,192988,808,254141
8.417,193004,806,254142
8.422,192994,805,254135
8.427,192996,806,254139
8.432,193011,803,254136
8.437,193000,800,254163
8.442,193016,797,254148
8.446,193011,801,254138
8.451,193017,790,254156
8.456,193014,788,254151
8.461,193028,785,254165
8.466,193030,788,254186
8.471,193030,785,254168
8.476,193035,784,254180
8.481,193031,790,254183
8.486,193043,793,254181
8.491,193038,789,254181
8.496,193061,788,254202
8.501,193066,779,254210
8.506,193055,784,254224
8.511,193077,780,254226
8.516,193075,780,254221
8.521,193087,778,254216
8.526,193081,782,254210
8.531,193088,779,254234
8.536,193102,779,254227
8.541,193097,779,254248
8.546,193091,784,254260
8.551,193093,776,254258
8.556,193113,776,254257
8.561,193116,774,254271
8.566,193102,779,254260
8.571,193120,776,254284
8.576,193103,776,254287
8.581,193144,772,254298
8.586,193142,779,254303
8.590,193152,777,254315
8.595,193152,769,254330
8.600,193147,767,254303
8.605,193156,770,254316
8.610,193174,769,254327
8.615,193183,769,254328
8.620,193169,766,254343
8.625,193187,771,254347
8.630,193192,768,254361
8.635,193194,770,254368
8.640,193200,767,254376
8.645,193197,776,254356
8.650,193208,768,254381
8.655,193223,768,254383
8.660,193214,765,254370
8.665,193218,769,254382
8.670,193222,766,254408
8.675,193247,765,254416
8.680,193253,763,254400
8.685,193240,765,254390
8.690,193244,764,254444
8.695,193240,767,254442
8.700,193273,765,254433
8.705,193268,766,254434
8.710,193290,765,254438
8.715,193277,763,254463
8.720,193286,758,254492
8.725,193308,760,254490
8.730,193307,770,254490
8.734,193311,768,254510
8.739,193316,772,254489
8.744,193311,761,254488
8.749,193341,760,254525
8.754,193329,759,254534
8.759,193325,757,254535
8.764,193328,769,254514
8.769,193339,767,254508
8.774,193347,767,254499
8.779,193331,763,254509
8.784,193297,765,254481
8.789,193296,764,254439
8.794,193269,766,254452
8.799,193256,763,254417
8.804,193241,767,254396
8.809,193225,765,254409
8.814,193215,765,254399
8.819,193190,762,254347
8.824,193193,762,254371
8.829,193182,763,254369
8.834,193159,762,254356
8.839,193153,763,254340
8.844,193136,766,254339
8.849,193149,765,254359
8.854,193133,765,254350
8.859,193144,759,254368
8.864,193146,763,254328
8.869,193131,763,254344
8.874,193134,762,254361
8.879,193125,760,254348
8.883,193136,762,254351
8.888,193141,756,254342
8.893,193126,758,254356
8.898,193124,757,254347
8.903,193130,759,254338
8.908,193129,760,254361
8.913,193133,759,254351
8.918,193114,757,254348
8.923,193129,759,254354
8.928,193130,760,254339
8.933,193120,758,254347
8.938,193121,759,254345
8.943,193106,762,254317
8.948,193109,764,254359
8.953,193111,762,254332
8.958,193103,760,254325
8.963,193094,761,254333
8.968,193097,762,254335
8.973,193088,761,254340
8.978,193082,757,254337
8.983,193087,759,254322
8.988,193099,756,254321
8.993,193089,755,254317
8.998,193089,752,254350
9.003,193080,755,254331
9.008,193080,755,254338
9.013,193095,754,254350
9.018,193074,753,254330
9.023,193091,753,254351
9.027,193077,753,254359
9.032,193111,753,254370
9.037,193116,751,254381
9.042,193107,750,254384
9.047,193113,762,254395
9.052,193137,760,254390
9.057,193117,760,254415
9.062,193112,759,254388
9.067,193117,761,254400
9.072,193122,760,254424
9.077,193129,759,254419
9.082,193141,765,254497
9.087,193126,753,254413
9.092,193137,752,254433
9.097,193131,753,254435
9.102,193139,751,254401
9.107,193126,754,254424
9.112,193124,753,254426
9.117,193129,753,254419
9.122,193138,751,254430
9.127,193153,755,254423
9.132,193120,756,254435
9.137,193148,755,254464
9.142,193154,754,254427
9.147,193157,758,254430
9.152,193142,757,254445
9.157,193158,756,254439
9.162,193174,753,254451
9.167,193164,758,254448
9.172,193171,755,254472
9.176,193172,756,254487
9.181,193170,748,254464
9.186,193183,753,254482
9.191,193180,751,254490
9.196,193207,749,254516
9.201,193171,747,254499
9.206,193206,753,254514
9.211,193197,325,254500
9.216,193186,386,254525
9.221,193203,422,254531
9.226,193203,450,254513
9.231,193224,475,254542
9.236,193192,490,254553
9.241,193210,502,254524
9.246,193230,516,254535
9.251,193248,523,254557
9.256,193234,533,254548
9.261,193241,539,254561
9.266,193240,550,254560
9.271,193246,544,254562
9.276,193258,550,254566
9.281,193258,558,254570
9.286,193253,567,254562
9.291,193266,571,254575
9.296,193278,575,254590
9.301,193277,579,254574
9.306,193283,574,254600
9.311,193287,578,254602
9.316,193296,1125,254585
9.320,193290,1001,254602
9.325,193291,955,254656
9.330,193304,919,254629
9.335,193307,894,254605
9.340,193301,875,254613
9.345,193298,868,254619
9.350,193350,854,254611
9.355,193321,845,254630
9.360,193326,834,254619
9.365,193332,830,254620
9.370,193344,822,254638
9.375,193316,814,254627
9.380,193358,814,254648
9.385,193345,812,254653
9.390,193347,807,254654
9.395,193359,805,254660
9.400,193357,800,254664
9.405,193373,801,254637
9.410,193368,798,254667
9.415,193365,794,254663
9.420,193368,793,254672
9.425,193365,788,254677
9.430,193390,786,254680
9.435,193394,785,254684
9.440,193414,780,254706
9.445,193405,783,254716
9.450,193399,781,254698
9.455,193428,780,254697
9.460,193406,775,254703
9.464,193415,777,254711
9.469,193435,776,254719
9.474,193438,774,254748
9.479,193432,770,254738
9.484,193434,771,254734
9.489,193450,771,254727
9.494,193450,771,254748
9.499,193463,769,254751
9.504,193470,769,254730
9.509,193454,769,254759
9.514,193456,768,254768
9.519,193470,769,254761
9.524,193462,771,254754
9.529,193478,771,254760
9.534,193490,772,254774
9.539,193485,768,254762
9.544,193500,770,254769
9.549,193508,768,254776
9.554,193501,765,254811
9.559,193507,763,254745
9.564,193503,763,254796
9.569,193495,762,254775
9.574,193504,766,254799
9.579,193533,763,254789
9.584,193518,764,254807
9.589,193518,762,254813
9.594,193531,760,254803
9.599,193522,759,254805
9.604,193523,759,254811
9.609,193532,758,254790
9.613,193535,757,254808
9.618,193528,755,254810
9.623,193552,757,254829
9.628,193564,758,254832
9.633,193552,758,254824
9.638,193557,754,254835
9.643,193568,755,254844
9.648,193571,754,254825
9.653,193586,755,254829
9.658,193588,751,254849
9.663,193585,753,254849
9.668,193586,757,254836
9.673,193602,755,254821
9.678,193576,753,254806
9.683,193563,753,254798
9.688,193543,755,254762
9.693,193518,751,254764
9.698,193507,751,254744
9.703,193492,751,254710
9.708,193461,752,254711
9.713,193434,750,254691
9.718,193383,758,254665
9.723,193410,748,254654
9.728,193418,750,254645
9.733,193397,749,254644
9.738,193392,746,254661
9.743,193378,747,254633
9.748,193379,748,254627
9.753,193361,747,254625
9.757,193350,755,254627
9.762,193361,754,254605
9.767,193335,749,254609
9.772,193337,748,254620
9.777,193345,747,254617
9.782,193334,745,254623
9.787,193350,749,254617
9.792,193329,746,254594
9.797,193336,745,254586
9.802,193319,744,254607
9.807,193307,746,254614
9.812,193324,746,254605
9.817,193309,748,254615
9.822,193307,745,254601
9.827,193302,748,254588
9.832,193302,746,254600
9.837,193301,747,254584
9.842,193287,746,254584
9.847,193280,749,254574
9.852,193281,746,254561
9.857,193280,746,254581
9.862,193276,751,254611
9.867,193266,751,254564
9.872,193255,748,254552
9.877,193266,748,254550
9.882,193249,746,254544
9.887,193255,752,254535
9.892,193245,750,254537
9.897,193251,749,254520
9.902,193254,748,254537
9.906,193250,753,254521
9.911,193204,743,254524
9.916,193235,743,254533
9.921,193236,740,254536
9.926,193237,746,254538
9.931,193240,743,254536
9.936,193238,742,254548
9.941,193245,739,254539
9.946,193260,744,254559
9.951,193261,742,254588
9.956,193260,742,254563
9.961,193271,743,254569
9.966,193283,748,254557
9.971,193259,747,254556
9.976,193274,747,254566
9.981,193264,745,254564
9.986,193252,749,254550
9.991,193272,747,254555
9.996,193245,747,254545
10.001,193262,746,254559
10.006,193252,751,254538
10.011,193250,741,254561
10.016,193252,741,254556
10.021,193248,739,254560
10.026,193248,744,254558
10.031,193262,741,254560
10.036,193257,740,254547
10.041,193257,736,254559
10.046,193250,741,254548
10.050,193241,741,254554
10.055,193249,739,254553
10.060,193255,742,254548
10.065,193247,744,254563
10.070,193255,744,254543
10.075,193268,743,254540
10.080,193263,739,254553
10.085,193268,744,254564
10.090,193253,742,254570
10.095,193260,742,254566
10.100,193275,739,254560
10.105,193268,742,254566
10.110,193284,744,254558
10.115,193293,744,254594
10.120,193273,740,254590
10.125,193292,742,254592
10.130,193293,742,254590
10.135,193309,741,254585
10.140,193306,738,254589
10.145,193287,741,254604
10.150,193295,742,254595
10.155,193304,749,254578
10.160,193285,737,254587
10.165,193298,741,254588
10.170,193312,740,254602
10.175,193312,740,254594
10.180,193302,737,254594
10.185,193305,739,254599
10.190,193332,740,254598
10.194,193328,740,254613
10.199,193330,738,254605
10.204,193321,745,254609
10.209,193344,291,254604
10.214,193317,375,254621
10.219,193340,413,254627
10.224,193347,442,254601
10.229,193345,463,254631
10.234,193341,477,254613
10.239,193355,488,254639
10.244,193346,503,254619
10.249,193355,511,254652
10.254,193359,513,254645
10.259,193361,518,254644
10.264,193361,528,254659
10.269,193366,534,254639
10.274,193385,538,254642
10.279,193369,540,254661
10.284,193399,546,254669
10.289,193371,562,254645
10.294,193381,554,254648
10.299,193390,561,254664
10.304,193398,565,254652
10.309,193369,571,254675
10.314,193397,701,254648
10.319,193402,1009,254677
10.324,193429,949,254673
10.329,193421,915,254666
10.334,193434,888,254684
10.339,193423,868,254689
10.343,193416,853,254688
10.348,193426,844,254678
10.353,193402,834,254685
10.358,193435,823,254715
10.363,193448,818,254693
10.368,193450,812,254678
10.373,193449,808,254705
10.378,193450,802,254703
10.383,193445,798,254703
10.388,193464,795,254700
10.393,193466,792,254698
10.398,193453,786,254709
10.403,193468,784,254689
10.408,193466,782,254710
10.413,193483,778,254707
10.418,193475,775,254725
10.423,193483,773,254709
10.428,193500,773,254729
10.433,193489,769,254721
10.438,193501,766,254715
10.443,193505,766,254724
10.448,193498,769,254726
10.453,193512,766,254736
10.458,193514,764,254734
10.463,193518,762,254744
10.468,193512,762,254733
10.473,193528,760,254742
10.478,193525,759,254758
10.483,193529,758,254747
10.487,193535,759,254754
10.492,193523,756,254752
10.497,193525,759,254724
10.502,193531,756,254736
10.507,193531,757,254732
10.512,193508,755,254693
10.517,193492,753,254684
10.522,193494,750,254671
10.527,193458,750,254655
10.532,193437,760,254617
10.537,193419,757,254612
10.542,193391,754,254615
10.547,193383,750,254567
10.552,193366,749,254558
10.557,193350,757,254553
10.562,193331,756,254568
10.567,193333,758,254567
10.572,193331,755,254555
10.577,193328,754,254531
10.582,193312,751,254540
10.587,193311,754,254521
10.592,193301,750,254554
10.597,193316,753,254524
10.602,193287,750,254525
10.607,193304,753,254538
10.612,193287,750,254527
10.617,193270,747,254517
10.622,193296,746,254532
10.627,193295,752,254536
10.632,193290,747,254534
10.636,193281,745,254539
10.641,193278,744,254503
10.646,193279,752,254532
10.651,193284,749,254504
10.656,193285,749,254513
10.661,193259,746,254544
10.666,193273,748,254526
10.671,193278,747,254497
10.676,193276,748,254507
10.681,193269,744,254530
10.686,193270,747,254516
10.691,193303,749,254530
10.696,193251,749,254522
10.701,193253,746,254500
10.706,193259,748,254505
10.711,193243,748,254511
10.716,193252,746,254511
10.721,193248,744,254531
10.726,193256,748,254502
10.731,193263,746,254502
10.736,193250,747,254511
10.741,193247,738,254522
10.746,193236,740,254519
10.751,193228,738,254506
10.756,193249,738,254533
10.761,193249,736,254556
10.766,193262,738,254544
10.771,193262,747,254557
10.776,193279,745,254560
10.780,193275,742,254550
10.785,193280,746,254557
10.790,193296,738,254566
10.795,193277,738,254554
10.800,193286,735,254557
10.805,193273,735,254570
10.810,193281,736,254553
10.815,193288,736,254555
10.820,193260,733,254554
10.825,193275,736,254538
10.830,193282,736,254529
10.835,193274,735,254546
10.840,193276,740,254540
10.845,193283,744,254546
10.850,193281,742,254543
10.855,193250,742,254542
10.860,193282,738,254562
10.865,193284,740,254559
10.870,193277,740,254553
10.875,193278,739,254573
10.880,193278,736,254556
10.885,193273,739,254580
10.890,193278,734,254568
10.895,193273,734,254544
10.900,193274,732,254550
10.905,193286,736,254558
10.910,193292,735,254571
10.915,193312,736,254564
10.920,193276,735,254570
10.924,193308,739,254547
10.929,193295,736,254555
10.934,193320,741,254564
10.939,193312,731,254565
10.944,193319,733,254580
10.949,193315,735,254571
10.954,193316,734,254579
10.959,193314,731,254588
10.964,193319,734,254581
10.969,193323,733,254599
10.974,193328,733,254587
10.979,193329,729,254586
10.984,193340,735,254605
10.989,193339,736,254600
10.994,193345,736,254604
10.999,193354,733,254609
11.004,193349,736,254590
11.009,193349,738,254615
11.014,193363,737,254621
11.019,193359,734,254607
11.024,193373,736,254612
11.029,193387,737,254621
11.034,193381,732,254608
11.039,193391,730,254621
11.044,193374,732,254617
11.049,193384,733,254635
11.054,193384,734,254629
11.059,193382,732,254629
11.064,193393,733,254632
11.069,193406,734,254642
11.073,193387,735,254627
11.078,193390,732,254638
11.083,193408,741,254649
11.088,193418,730,254659
11.093,193418,730,254662
11.098,193415,727,254659
11.103,193423,729,254658
11.108,193428,731,254648
11.113,193421,731,254649
11.118,193415,727,254665
11.123,193422,729,254659
11.128,193434,732,254661
11.133,193441,731,254659
11.138,193438,730,254675
11.143,193436,730,254677
11.148,193432,732,254671
11.153,193445,732,254698
11.158,193447,730,254692
11.163,193445,731,254701
11.168,193461,734,254697
11.173,193460,731,254686
11.178,193466,732,254700
11.183,193458,736,254683
11.188,193487,739,254707
11.193,193462,737,254701
11.198,193466,736,254718
11.203,193487,736,254687
11.208,193478,738,254813
11.213,193481,358,254712
11.217,193486,402,254715
11.222,193488,434,254701
11.227,193494,446,254722
11.232,193517,463,254728
11.237,193514,475,254726
11.242,193503,485,254709
11.247,193529,499,254735
11.252,193523,507,254730
11.257,193532,512,254744
11.262,193542,517,254732
11.267,193540,526,254739
11.272,193540,530,254723
11.277,193542,539,254727
11.282,193533,541,254732
11.287,193556,549,254741
11.292,193518,549,254704
11.297,193509,554,254676
11.302,193477,555,254663
11.307,193478,562,254660
11.312,193453,565,254627
11.317,193440,1028,254622
11.322,193418,950,254608
11.327,193387,918,254572
11.332,193373,888,254554
11.337,193373,868,254562
11.342,193347,850,254509
11.347,193334,843,254534
11.352,193321,830,254518
11.357,193323,821,254504
11.361,193326,811,254533
11.366,193304,811,254489
11.371,193294,803,254503
11.376,193296,793,254486
11.381,193284,787,254498
11.386,193273,787,254485
11.391,193276,782,254506
11.396,193253,780,254472
11.401,193272,776,254482
11.406,193272,777,254467
11.411,193274,775,254464
11.416,193236,773,254469
11.421,193250,771,254444
11.426,193255,766,254458
11.431,193252,763,254481
11.436,193239,760,254461
11.441,193236,757,254455
11.446,193240,760,254462
11.451,193244,758,254448
11.456,193217,756,254440
11.461,193237,754,254457
11.466,193216,757,254444
11.471,193218,757,254440
11.476,193200,758,254456
11.481,193224,754,254450
11.486,193224,756,254465
11.491,193204,756,254431
11.496,193196,754,254432
11.501,193194,750,254448
11.506,193222,756,254463
11.510,193196,754,254458
11.515,193198,755,254429
11.520,193204,749,254431
11.525,193198,752,254447
11.530,193207,752,254439
11.535,193202,750,254445
11.540,193233,748,254473
11.545,193221,749,254457
11.550,193237,748,254469
11.555,193235,748,254476
11.560,193220,746,254494
11.565,193238,747,254482
11.570,193246,742,254471
11.575,193239,742,254465
11.580,193231,742,254474
11.585,193229,745,254474
11.590,193221,744,254476
11.595,193229,744,254455
11.600,193250,743,254469
11.605,193230,747,254474
11.610,193219,736,254471
11.615,193219,736,254476
11.620,193202,737,254472
11.625,193221,740,254470
11.630,193223,739,254478
11.635,193231,739,254467
11.640,193238,734,254464
11.645,193231,739,254466
11.650,193218,737,254484
11.654,193233,735,254447
11.659,193227,733,254496
11.664,193231,735,254484
11.669,193231,738,254500
11.674,193232,738,254478
11.679,193230,735,254490
11.684,193251,738,254505
11.689,193246,736,254506
11.694,193243,736,254482
11.699,193249,734,254511
11.704,193254,737,254500
11.709,193264,734,254505
11.714,193289,735,254523
11.719,193269,737,254498
11.724,193262,739,254524
11.729,193273,739,254524
11.734,193261,738,254522
11.739,193270,736,254508
11.744,193271,739,254546
11.749,193295,739,254513
11.754,193274,740,254533
11.759,193282,738,254539
11.764,193296,732,254542
11.769,193288,733,254528
11.774,193310,732,254558
11.779,193315,730,254550
11.784,193301,732,254568
11.789,193301,731,254577
11.794,193328,731,254559
11.799,193316,728,254569
11.803,193313,728,254556
11.808,193326,729,254571
11.813,193331,732,254591
11.818,193340,732,254581
11.823,193331,731,254583
11.828,193363,732,254577
11.833,193344,731,254589
11.838,193341,730,254585
11.843,193372,731,254607
11.848,193372,732,254603
11.853,193364,732,254617
11.858,193358,730,254608
11.863,193362,729,254637
11.868,193382,732,254638
11.873,193379,731,254624
11.878,193387,730,254653
11.883,193399,730,254642
11.888,193411,729,254642
11.893,193404,727,254659
11.898,193406,725,254648
11.903,193409,726,254664
11.908,193415,728,254647
11.913,193424,730,254664
11.918,193428,728,254673
11.923,193409,730,254681
11.928,193442,732,254677
11.933,193448,732,254672
11.938,193451,729,254667
11.943,193460,728,254680
11.947,193463,729,254690
11.952,193448,728,254697
11.957,193467,728,254711
11.962,193482,723,254703
11.967,193469,726,254717
11.972,193501,724,254735
11.977,193484,724,254719
11.982,193489,733,254745
11.987,193515,734,254734
11.992,193508,732,254747
11.997,193500,731,254741
12.002,193503,730,254740
12.007,193512,727,254753
12.012,193516,726,254767
12.017,193522,726,254757
12.022,193527,723,254754
12.027,193540,729,254766
12.032,193526,726,254784
12.037,193548,725,254786
12.042,193546,722,254775
12.047,193550,726,254772
12.052,193565,732,254790
12.057,193573,726,254801
12.062,193571,721,254833
12.067,193569,725,254825
12.072,193585,733,254842
12.077,193596,732,254828
12.082,193611,730,254822
12.087,193619,731,254866
12.091,193611,730,254854
12.096,193624,729,254867
12.101,193618,726,254856
12.106,193646,732,254884
12.111,193643,728,254890
12.116,193665,729,254923
12.121,193662,726,254919
12.126,193677,727,254930
12.131,193688,725,254948
12.136,193708,724,254939
12.141,193704,722,254958
12.146,193703,725,254954
12.151,193725,723,254976
12.156,193708,726,254950
12.161,193708,723,254938
12.166,193683,726,254918
12.171,193678,725,254914
12.176,193660,723,254906
12.181,193650,721,254885
12.186,193606,724,254862
12.191,193599,722,254862
12.196,193594,719,254866
12.201,193587,721,254800
12.206,193559,726,254818
12.211,193550,329,254821
12.216,193516,381,254825
12.221,193534,410,254830
12.226,193512,436,254815
12.231,193515,452,254823
12.236,193506,465,254827
12.240,193491,474,254829
12.245,193502,487,254834
12.250,193514,501,254839
12.255,193493,511,254822
12.260,193512,515,254828
12.265,193478,523,254831
12.270,193500,526,254837
12.275,193508,531,254822
12.280,193493,534,254851
12.285,193491,541,254844
12.290,193491,546,254846
12.295,193494,548,254838
12.300,193497,553,254840
12.305,193483,560,254856
12.310,193489,563,254860
12.315,193504,1058,254842
12.320,193508,960,254874
12.325,193504,915,254852
12.330,193501,885,254852
12.335,193499,862,254861
12.340,193505,843,254852
12.345,193479,832,254876
12.350,193492,825,254866
12.355,193479,815,254843
12.360,193485,805,254858
12.365,193480,801,254846
12.370,193477,795,254837
12.375,193474,788,254852
12.380,193486,781,254843
12.384,193468,779,254844
12.389,193452,776,254861
12.394,193466,765,254845
12.399,193456,769,254859
12.404,193475,769,254857
12.409,193475,766,254875
12.414,193480,764,254863
12.419,193482,759,254904
12.424,193480,758,254887
12.429,193509,757,254889
12.434,193492,753,254898
12.439,193504,750,254906
12.444,193485,759,254900
12.449,193495,752,254923
12.454,193492,748,254910
12.459,193510,745,254918
12.464,193506,746,254918
12.469,193502,745,254904
12.474,193509,754,254926
12.479,193499,749,254908
12.484,193509,751,254931
12.489,193498,749,254908
12.494,193508,749,254901
12.499,193503,745,254918
12.504,193503,746,254899
12.509,193508,745,254915
12.514,193505,744,254921
12.519,193503,740,254910
12.524,193511,741,254917
12.529,193504,741,254917
12.533,193514,739,254925
12.538,193510,736,254945
12.543,193515,740,254957
12.548,193512,739,254933
12.553,193531,738,254945
12.558,193528,734,254931
12.563,193527,733,254964
12.568,193528,735,254955
12.573,193551,733,254965
12.578,193546,732,254968
12.583,193560,730,254976
12.588,193555,741,254967
12.593,193544,734,254990
12.598,193565,731,255001
12.603,193572,729,254978
12.608,193565,731,255006
12.613,193586,728,255014
12.618,193580,729,254997
12.623,193578,728,254988
12.628,193592,730,255019
12.633,193579,728,255007
12.638,193587,738,255005
12.643,193593,719,255003
12.648,193585,738,255013
12.653,193602,737,255023
12.658,193617,734,255014
12.663,193600,732,255030
12.668,193600,734,255012
12.673,193603,734,255035
12.677,193614,731,255046
12.682,193620,731,255042
12.687,193637,733,255053
12.692,193627,726,255051
12.697,193625,724,255065
12.702,193634,724,255048
12.707,193656,727,255075
12.712,193662,726,255070
12.717,193648,724,255089
12.722,193657,722,255082
12.727,193654,737,255083
12.732,193680,723,255085
12.737,193677,726,255099
12.742,193684,724,255108
12.747,193669,728,255107
12.752,193681,725,255120
12.757,193687,725,255082
12.762,193682,723,255105
12.767,193686,727,255134
12.772,193699,725,255134
12.777,193710,724,255120
12.782,193705,724,255132
12.787,193708,730,255124
12.792,193719,728,255129
12.797,193714,728,255148
12.802,193723,727,255147
12.807,193714,730,255142
12.812,193732,728,255165
12.817,193748,727,255146
12.821,193747,725,255155
12.826,193740,729,255152
12.831,193768,727,255166
12.836,193768,731,255178
12.841,193755,728,255181
12.846,193785,732,255185
12.851,193771,729,255187
12.856,193769,728,255194
12.861,193782,727,255186
12.866,193776,731,255201
12.871,193788,729,255210
12.876,193801,729,255209
12.881,193800,727,255204
12.886,193797,724,255213
12.891,193801,721,255217
12.896,193822,722,255224
12.901,193825,721,255208
12.906,193810,724,255234
12.911,193828,723,255212
12.916,193840,724,255231
12.921,193844,720,255234
12.926,193850,723,255230
12.931,193853,723,255256
12.936,193859,720,255246
12.941,193849,719,255263
12.946,193845,722,255250
12.951,193849,720,255235
12.956,193880,719,255249
12.961,193878,718,255266
12.966,193862,721,255259
12.970,193907,721,255267
12.975,193896,720,255278
12.980,193901,720,255288
12.985,193893,725,255275
12.990,193908,727,255302
12.995,193907,726,255268
13.000,193910,724,255281
13.005,193909,729,255288
13.010,193908,720,255284
13.015,193930,719,255301
13.020,193915,717,255289
13.025,193931,722,255296
13.030,193892,723,255296
13.035,193936,727,255292
13.040,193942,725,255297
13.045,193951,718,255299
13.050,193935,718,255299
13.055,193956,718,255308
13.060,193946,717,255312
13.065,193987,719,255304
13.070,193955,720,255329
13.075,193982,719,255327
13.080,193985,721,255329
13.085,193985,723,255315
13.090,193996,724,255343
13.095,193996,724,255324
13.100,193998,721,255324
13.105,193993,724,255317
13.110,193975,726,255312
13.114,193957,724,255272
13.119,193939,723,255264
13.124,193924,725,255226
13.129,193898,720,255204
13.134,193860,719,255198
13.139,193850,716,255169
13.144,193808,718,255154
13.149,193810,718,255133
13.154,193783,718,255114
13.159,193760,715,255098
13.164,193754,715,255089
13.169,193748,715,255093
13.174,193732,718,255083
13.179,193712,717,255077
13.184,193725,719,255064
13.189,193703,718,255080
13.194,193691,718,255055
13.199,193699,716,255063
13.204,193665,717,255051
13.209,193669,299,255052
13.214,193669,366,255033
13.219,193645,398,255032
13.224,193656,425,255027
13.229,193647,448,255033
13.234,193655,464,255037
13.239,193663,475,255028
13.244,193655,486,255036
13.249,193667,496,255038
13.254,193653,503,255039
13.259,193658,510,255033
13.263,193651,517,255036
13.268,193641,524,255025
13.273,193646,527,254999
13.278,193634,537,255024
13.283,193622,541,255011
13.288,193621,545,255017
13.293,193618,549,255009
13.298,193613,551,255017
13.303,193624,554,255005
13.308,193636,558,255010
13.313,193602,560,254992
13.318,193604,560,254982
13.323,193615,1002,254982
13.328,193627,931,254982
13.333,193619,895,255000
13.338,193621,866,254986
13.343,193600,847,254978
13.348,193598,836,254970
13.353,193596,823,254991
13.358,193608,813,254980
13.363,193593,804,254981
13.368,193599,800,254968
13.373,193603,797,254998
13.378,193601,788,254995
13.383,193607,783,255015
13.388,193627,783,255007
13.393,193617,777,255015
13.398,193618,774,255000
13.403,193617,770,255004
13.407,193624,768,255023
13.412,193625,766,255003
13.417,193622,763,255000
13.422,193616,762,254983
13.427,193607,762,254996
13.432,193610,758,254988
13.437,193610,755,254977
13.442,193614,750,254977
13.447,193606,751,255000
13.452,193601,749,254978
13.457,193626,746,254980
13.462,193628,744,254984
13.467,193610,746,254995
13.472,193629,746,254973
13.477,193607,742,255017
13.482,193606,740,254994
13.487,193620,742,254982
13.492,193618,738,255009
13.497,193620,735,254983
13.502,193621,743,254993
13.507,193610,745,254982
13.512,193626,743,254985
13.517,193624,749,255058
13.522,193623,741,255004
13.527,193631,742,254984
13.532,193630,739,254987
13.537,193644,739,255005
13.542,193637,736,255011
13.547,193632,739,255014
13.551,193636,737,254993
13.556,193638,735,255017
13.561,193625,733,254996
13.566,193611,741,255009
13.571,193638,738,255024
13.576,193650,738,255036
13.581,193653,733,255038
13.586,193676,735,255012
13.591,193674,736,255024
13.596,193677,733,255027
13.601,193674,731,255027
13.606,193675,732,255025
13.611,193676,728,255051
13.616,193681,732,255038
13.621,193669,728,255021
13.626,193691,732,255025
13.631,193674,729,255033
13.636,193696,728,255067
13.641,193702,725,255052
13.646,193693,728,255057
13.651,193706,726,255060
13.656,193709,724,255061
13.661,193701,722,255052
13.666,193718,727,255068
13.671,193723,724,255060
13.676,193734,723,255087
13.681,193727,722,255080
13.686,193731,722,255086
13.691,193735,721,255076
13.696,193737,720,255100
13.700,193748,728,255087
13.705,193747,730,255093
13.710,193740,727,255107
13.715,193754,721,255111
13.720,193753,717,255109
13.725,193775,718,255109
13.730,193773,719,255116
13.735,193769,727,255123
13.740,193763,725,255100
13.745,193778,727,255135
13.750,193802,726,255120
13.755,193787,724,255128
13.760,193785,721,255139
13.765,193783,722,255129
13.770,193809,721,255128
13.775,193817,719,255138
13.780,193797,717,255146
13.785,193813,719,255134
13.790,193825,718,255170
13.795,193807,717,255168
13.800,193827,714,255139
13.805,193828,716,255162
13.810,193856,707,255136
13.815,193848,720,255160
13.820,193844,717,255164
13.825,193852,720,255142
13.830,193862,718,255164
13.835,193854,718,255169
13.840,193867,716,255173
13.844,193881,717,255185
13.849,193856,715,255178
13.854,193869,714,255179
13.859,193870,715,255184
13.864,193884,715,255191
13.869,193889,716,255190
13.874,193892,716,255205
13.879,193893,713,255198
13.884,193899,714,255192
13.889,193886,715,255204
13.894,193899,714,255216
13.899,193895,712,255209
13.904,193920,713,255232
13.909,193920,710,255209
13.914,193931,721,255208
13.919,193925,717,255227
13.924,193925,718,255209
13.929,193931,719,255209
13.934,193934,717,255215
13.939,193952,716,255229
13.944,193952,716,255212
13.949,193976,718,255213
13.954,193956,717,255236
13.959,193934,713,255214
13.964,193958,712,255230
13.969,193954,714,255218
13.974,193957,713,255216
13.979,193931,710,255199
13.984,193930,710,255169
13.988,193907,712,255143
13.993,193888,721,255120
13.998,193861,719,255105
14.003,193855,720,255093
14.008,193829,714,255067
14.013,193815,713,255061
14.018,193810,712,255047
14.023,193772,712,255033
14.028,193756,713,255016
14.033,193745,712,255012
14.038,193730,711,255028
14.043,193731,709,255011
14.048,193741,711,255004
14.053,193721,717,255008
14.058,193703,717,254997
14.063,193719,715,254983
14.068,193694,719,255003
14.073,193689,717,254964
14.078,193686,717,254980
14.083,193689,715,254985
14.088,193679,716,254982
14.093,193687,714,254992
14.098,193682,714,255007
14.103,193681,716,255005
14.108,193678,720,255005
14.113,193677,717,254990
14.118,193682,716,254989
14.123,193702,714,254966
14.128,193690,719,254989
14.133,193682,716,254988
14.137,193695,716,255001
14.142,193682,713,254995
14.147,193664,718,254965
14.152,193659,709,254979
14.157,193674,708,254974
14.162,193682,707,254992
14.167,193669,712,254980
14.172,193653,708,254961
14.177,193658,708,254953
14.182,193664,707,254951
14.187,193657,710,254962
14.192,193647,708,254973
14.197,193648,718,254969
14.202,193662,710,254977
14.207,193663,713,254954
14.212,193650,334,254963
14.217,193662,380,254977
14.222,193650,409,254975
14.227,193664,433,254984
14.232,193661,450,254980
14.237,193691,463,254982
14.242,193677,473,254969
14.247,193699,486,254990
14.252,193690,500,254994
14.257,193680,505,254994
14.262,193681,509,254998
14.267,193692,518,254978
14.272,193678,523,254981
14.277,193669,527,254983
14.281,193680,528,255005
14.286,193661,539,254971
14.291,193688,539,254967
14.296,193674,543,254951
14.301,193666,537,254968
14.306,193662,542,254957
14.311,193653,545,254954
14.316,193677,1013,254935
14.321,193663,937,254961
14.326,193658,897,254932
14.331,193668,868,254949
14.336,193644,848,254964
14.341,193643,830,254934
14.346,193653,808,254942
14.351,193654,804,254942
14.356,193661,795,254932
14.361,193652,786,254916
14.366,193653,782,254917
14.371,193660,775,254945
14.376,193627,779,254928
14.381,193645,772,254925
14.386,193646,770,254919
14.391,193655,766,254920
14.396,193646,755,254920
14.401,193656,751,254917
14.406,193645,751,254904
14.411,193670,759,254896
14.416,193662,755,254920
14.421,193655,749,254922
14.426,193661,752,254893
14.430,193661,749,254915
14.435,193663,746,254901
14.440,193665,741,254896
14.445,193656,742,254914
14.450,193661,740,254872
14.455,193667,736,254896
14.460,193670,734,254899
14.465,193665,735,254897
14.470,193668,732,254894
14.475,193664,731,254873
14.480,193655,728,254873
14.485,193658,729,254874
14.490,193668,724,254876
14.495,193648,730,254869
14.500,193676,727,254865
14.505,193674,727,254853
14.510,193671,728,254861
14.515,193650,728,254889
14.520,193652,724,254875
14.525,193661,725,254835
14.530,193665,724,254850
14.535,193671,732,254846
14.540,193660,728,254809
14.545,193632,722,254851
14.550,193652,721,254854
14.555,193656,730,254835
14.560,193659,725,254843
14.565,193656,726,254816
14.570,193648,727,254833
14.574,193642,725,254843
14.579,193667,723,254830
14.584,193664,723,254832
14.589,193664,725,254815
14.594,193660,717,254839
14.599,193661,715,254819
14.604,193670,716,254828
14.609,193666,716,254836
14.614,193661,717,254834
14.619,193680,713,254837
14.624,193687,724,254845
14.629,193679,725,254859
14.634,193688,724,254819
14.639,193700,715,254825
14.644,193699,716,254837
14.649,193684,717,254833
14.654,193700,716,254845
14.659,193681,714,254807
14.664,193690,713,254794
14.669,193658,714,254792
14.674,193635,723,254752
14.679,193630,720,254744
14.684,193606,718,254711
14.689,193588,712,254682
14.694,193555,712,254665
14.699,193551,720,254671
14.704,193538,719,254656
14.709,193505,721,254644
14.714,193489,719,254622
14.718,193483,719,254604
14.723,193466,716,254623
14.728,193454,719,254583
14.733,193450,718,254577
14.738,193435,715,254613
14.743,193449,715,254562
14.748,193452,718,254577
14.753,193443,716,254588
14.758,193435,717,254579
14.763,193429,713,254579
14.768,193434,716,254561
14.773,193422,715,254565
14.778,193425,713,254566
14.783,193436,711,254549
14.788,193412,718,254559
14.793,193417,715,254547
14.798,193408,717,254537
14.803,193391,712,254545
14.808,193406,716,254559
14.813,193407,713,254554
14.818,193395,713,254523
14.823,193390,710,254542
14.828,193384,716,254537
14.833,193401,722,254580
14.838,193364,710,254492
14.843,193376,710,254535
14.848,193368,715,254533
14.853,193362,712,254526
14.858,193355,711,254534
14.863,193356,709,254498
14.867,193350,713,254498
14.872,193359,710,254496
14.877,193336,708,254473
14.882,193332,713,254453
14.887,193343,707,254480
14.892,193346,704,254469
14.897,193330,704,254457
14.902,193329,702,254460
14.907,193334,707,254443
14.912,193330,704,254477
14.917,193340,705,254451
14.922,193325,703,254452
14.927,193317,705,254448
14.932,193325,711,254465
14.937,193316,711,254436
14.942,193309,709,254419
14.947,193305,712,254415
14.952,193307,709,254414
14.957,193298,709,254410
14.962,193275,707,254398
14.967,193269,709,254379
14.972,193275,708,254356
14.977,193292,707,254384
14.982,193272,709,254368
14.987,193266,713,254334
14.992,193275,713,254344
14.997,193246,710,254337
15.002,193243,708,254317
15.007,193251,710,254320
15.011,193229,709,254311
15.016,193256,708,254315
15.021,193252,704,254296
15.026,193221,707,254302
15.031,193237,711,254286
15.036,193229,710,254288
15.041,193235,708,254301
15.046,193225,712,254284
15.051,193211,711,254288
15.056,193212,711,254267
15.061,193208,708,254272
15.066,193216,712,254273
15.071,193223,709,254267
15.076,193223,709,254277
15.081,193216,700,254265
15.086,193221,701,254238
15.091,193204,701,254264
15.096,193212,712,254250
15.101,193209,709,254232
15.106,193199,713,254227
15.111,193216,712,254225
15.116,193219,709,254232
15.121,193199,709,254211
15.126,193207,707,254226
15.131,193202,701,254221
15.136,193182,711,254190
15.141,193195,707,254207
15.146,193188,710,254178
15.151,193194,708,254181
15.156,193196,707,254182
15.160,193196,705,254170
15.165,193184,706,254157
15.170,193185,704,254164
15.175,193189,709,254164
15.180,193191,708,254155
15.185,193172,710,254163
15.190,193201,710,254164
15.195,193172,710,254171
15.200,193178,706,254145
15.205,193181,708,254140
15.210,193187,336,254142
15.215,193175,381,254130
15.220,193176,407,254127
15.225,193160,423,254137
15.230,193168,453,254120
15.235,193170,465,254103
15.240,193163,472,254099
15.245,193175,483,254106
15.250,193186,492,254112
15.255,193192,497,254121
15.260,193198,503,254128
15.265,193176,508,254114
15.270,193197,514,254131
15.275,193191,523,254119
15.280,193195,524,254143
15.285,193192,529,254127
15.290,193189,535,254125
15.295,193188,539,254102
15.300,193193,540,254112
15.304,193178,543,254074
15.309,193143,548,254069
15.314,193140,1011,254049
15.319,193133,925,254016
15.324,193133,879,254011
15.329,193119,852,253994
15.334,193062,830,253977
15.339,193068,814,253964
15.344,193055,802,253957
15.349,193017,795,253935
15.354,193019,784,253935
15.359,192998,776,253942
15.364,192989,769,253919
15.369,192979,767,253909
15.374,192971,765,253892
15.379,192983,760,253888
15.384,192960,755,253914
15.389,192953,754,253879
15.394,192966,750,253884
15.399,192939,747,253884
15.404,192929,743,253872
15.409,192952,743,253873
15.414,192931,739,253861
15.419,192944,741,253879
15.424,192914,740,253856
15.429,192932,743,253865
15.434,192934,739,253881
15.439,192924,736,253863
15.444,192910,736,253858
15.448,192920,736,253847
15.453,192918,736,253845
15.458,192906,732,253856
15.463,192890,729,253848
15.468,192872,726,253833
15.473,192887,723,253820
15.478,192878,723,253829
15.483,192866,718,253826
15.488,192886,721,253823
15.493,192878,727,253807
15.498,192876,725,253807
15.503,192864,721,253822
15.508,192866,723,253820
15.513,192861,720,253788
15.518,192856,723,253786
15.523,192851,721,253781
15.528,192847,724,253779
15.533,192869,719,253796
15.538,192861,720,253791
15.543,192839,717,253785
15.548,192851,719,253795
15.553,192853,717,253819
15.558,192860,716,253815
15.563,192864,713,253818
15.568,192858,714,253827
15.573,192872,710,253807
15.578,192884,710,253820
15.583,192868,707,253815
15.588,192880,711,253808
15.593,192870,708,253827
15.597,192854,707,253795
15.602,192855,705,253800
15.607,192861,719,253805
15.612,192856,707,253787
15.617,192871,708,253803
15.622,192856,706,253795
15.627,192862,711,253792
15.632,192860,707,253798
15.637,192849,707,253808
15.642,192854,705,253794
15.647,192850,708,253785
15.652,192855,707,253815
15.657,192847,706,253802
15.662,192895,707,253795
15.667,192854,712,253793
15.672,192859,709,253789
15.677,192857,709,253791
15.682,192865,706,253799
15.687,192857,708,253792
15.692,192869,708,253791
15.697,192847,706,253785
15.702,192857,702,253802
15.707,192869,705,253783
15.712,192877,708,253814
15.717,192876,708,253812
15.722,192864,704,253818
15.727,192886,710,253814
15.732,192869,709,253815
15.737,192875,708,253818
15.741,192882,707,253794
15.746,192875,709,253805
15.751,192872,709,253820
15.756,192875,709,253813
15.761,192890,700,253795
15.766,192882,704,253811
15.771,192883,702,253798
15.776,192903,701,253811
15.781,192893,700,253804
15.786,192882,702,253797
15.791,192906,702,253820
15.796,192900,702,253811
15.801,192904,698,253804
15.806,192909,697,253809
15.811,192914,702,253816
15.816,192913,702,253804
15.821,192912,699,253815
15.826,192931,702,253831
15.831,192914,702,253829
15.836,192924,699,253839
15.841,192920,697,253836
15.846,192916,699,253835
15.851,192943,697,253831
15.856,192926,706,253816
15.861,192945,705,253835
15.866,192932,705,253822
15.871,192928,704,253844
15.876,192927,702,253838
15.881,192936,699,253855
15.886,192943,701,253831
15.890,192936,700,253831
15.895,192958,698,253848
15.900,192952,695,253836
15.905,192966,720,253834
15.910,192957,699,253828
15.915,192968,700,253874
15.920,192974,697,253861
15.925,192981,699,253855
15.930,192966,700,253856
15.935,192967,699,253857
15.940,192974,697,253843
15.945,192979,698,253868
15.950,192983,698,253854
15.955,192989,703,253858
15.960,192992,699,253865
15.965,192997,701,253858
15.970,192994,701,253852
15.975,192976,701,253869
15.980,192980,698,253845
15.985,192995,697,253859
15.990,193012,701,253883
15.995,193001,698,253879
16.000,193014,695,253882
16.005,193008,701,253871
16.010,193019,703,253865
16.015,193012,702,253855
16.020,192998,700,253816
16.025,192975,700,253824
16.030,192951,702,253810
16.034,192920,699,253774
16.039,192909,697,253751
16.044,192875,697,253744
16.049,192876,698,253714
16.054,192850,702,253700
16.059,192826,699,253675
16.064,192813,699,253680
16.069,192821,699,253681
16.074,192804,698,253651
16.079,192810,697,253661
16.084,192785,695,253655
16.089,192778,696,253644
16.094,192782,698,253618
16.099,192768,696,253625
16.104,192747,700,253656
16.109,192751,700,253633
16.114,192748,700,253624
16.119,192755,700,253610
16.124,192738,700,253610
16.129,192750,703,253622
16.134,192741,700,253615
16.139,192735,700,253614
16.144,192725,701,253604
16.149,192728,698,253583
16.154,192722,696,253608
16.159,192703,695,253604
16.164,192704,693,253598
16.169,192709,697,253577
16.174,192704,696,253593
16.178,192712,696,253577
16.183,192697,696,253574
16.188,192682,698,253562
16.193,192674,697,253566
16.198,192683,700,253554
16.203,192673,699,253542
16.208,192663,313,253541
16.213,192651,369,253530
16.218,192643,401,253528
16.223,192643,422,253501
16.228,192658,444,253544
16.233,192640,458,253519
16.238,192633,468,253516
16.243,192615,476,253503
16.248,192641,486,253500
16.253,192627,493,253512
16.258,192624,499,253516
16.263,192615,503,253503
16.268,192620,511,253503
16.273,192647,514,253511
16.278,192645,519,253535
16.283,192654,521,253534
16.288,192671,531,253530
16.293,192648,529,253514
16.298,192647,528,253526
16.303,192649,531,253516
16.308,192649,536,253526
16.313,192658,1042,253520
16.318,192651,929,253555
16.323,192670,877,253550
16.327,192659,850,253528
16.332,192655,827,253532
16.337,192650,810,253531
16.342,192673,794,253519
16.347,192660,793,253522
16.352,192671,782,253527
16.357,192661,774,253494
16.362,192658,765,253512
16.367,192652,762,253518
16.372,192646,758,253537
16.377,192643,753,253516
16.382,192644,748,253521
16.387,192659,749,253523
16.392,192651,745,253566
16.397,192665,736,253535
16.402,192644,730,253529
16.407,192644,732,253534
16.412,192660,730,253545
16.417,192648,727,253533
16.422,192658,722,253527
16.427,192672,723,253516
16.432,192668,731,253531
16.437,192680,729,253539
16.442,192648,711,253557
16.447,192673,721,253549
16.452,192665,719,253546
16.457,192671,716,253553
16.462,192690,714,253539
16.467,192702,714,253557
16.471,192701,714,253558
16.476,192681,711,253555
16.481,192697,709,253560
16.486,192698,710,253549
16.491,192716,713,253554
16.496,192709,711,253555
16.501,192707,709,253575
16.506,192716,709,253573
16.511,192705,709,253580
16.516,192710,708,253560
16.521,192723,704,253548
16.526,192717,705,253575
16.531,192724,706,253571
16.536,192728,705,253569
16.541,192732,707,253571
16.546,192733,709,253578
16.551,192734,707,253573
16.556,192739,707,253597
16.561,192745,702,253560
16.566,192741,701,253583
16.571,192743,700,253596
16.576,192749,700,253602
16.581,192758,696,253579
16.586,192765,699,253594
16.591,192772,702,253592
16.596,192756,700,253614
16.601,192772,698,253590
16.606,192765,699,253602
16.611,192766,698,253589
16.616,192789,700,253593
16.620,192778,696,253596
16.625,192782,698,253587
16.630,192789,698,253592
16.635,192789,697,253609
16.640,192790,699,253605
16.645,192784,698,253613
16.650,192790,700,253615
16.655,192798,700,253600
16.660,192809,698,253589
16.665,192809,698,253606
16.670,192810,700,253594
16.675,192834,701,253618
16.680,192823,698,253594
16.685,192845,684,253612
16.690,192806,698,253595
16.695,192803,698,253600
16.700,192828,695,253581
16.705,192820,697,253597
16.710,192823,698,253597
16.715,192832,700,253607
16.720,192836,687,253608
16.725,192842,688,253620
16.730,192834,691,253618
16.735,192847,695,253606
16.740,192866,693,253601
16.745,192867,694,253623
16.750,192860,695,253634
16.755,192853,694,253610
16.760,192840,693,253583
16.764,192830,695,253560
16.769,192805,694,253530
16.774,192790,695,253515
16.779,192764,694,253483
16.784,192749,687,253476
16.789,192727,689,253462
16.794,192707,689,253437
16.799,192682,687,253413
16.804,192667,686,253421
16.809,192655,689,253397
16.814,192658,689,253399
16.819,192641,688,253395
16.824,192629,688,253369
16.829,192626,690,253347
16.834,192604,692,253364
16.839,192622,691,253366
16.844,192605,689,253378
16.849,192609,691,253350
16.854,192601,690,253354
16.859,192597,687,253352
16.864,192593,684,253368
16.869,192591,688,253361
16.874,192590,685,253346
16.879,192609,695,253354
16.884,192606,687,253363
16.889,192574,689,253340
16.894,192561,687,253342
16.899,192569,687,253345
16.904,192566,685,253333
16.908,192549,688,253323
16.913,192567,686,253346
16.918,192556,684,253311
16.923,192552,681,253316
16.928,192545,690,253407
16.933,192552,691,253322
16.938,192553,692,253311
16.943,192544,690,253308
16.948,192542,696,253301
16.953,192528,693,253296
16.958,192537,693,253295
16.963,192535,691,253295
16.968,192530,695,253295
16.973,192532,692,253290
16.978,192506,686,253300
16.983,192509,689,253288
16.988,192529,694,253290
16.993,192523,693,253295
16.998,192521,691,253318
17.003,192535,689,253307
17.008,192529,693,253327
17.013,192518,693,253322
17.018,192549,682,253347
17.023,192543,681,253343
17.028,192554,688,253341
17.033,192558,687,253341
17.038,192550,686,253346
17.043,192559,684,253311
17.048,192555,690,253325
17.053,192557,688,253336
17.057,192541,688,253330
17.062,192539,686,253322
17.067,192530,694,253314
17.072,192539,691,253321
17.077,192537,683,253303
17.082,192529,681,253313
17.087,192545,684,253302
17.092,192530,684,253312
17.097,192524,684,253303
17.102,192531,682,253305
17.107,192524,687,253294
17.112,192528,683,253308
17.117,192534,684,253301
17.122,192549,681,253316
17.127,192522,689,253306
17.132,192540,690,253314
17.137,192540,689,253323
17.142,192542,686,253324
17.147,192538,689,253326
17.152,192548,687,253327
17.157,192554,685,253334
17.162,192552,683,253332
17.167,192544,685,253352
17.172,192571,685,253341
17.177,192567,689,253342
17.182,192565,688,253344
17.187,192566,691,253344
17.192,192558,688,253340
17.197,192578,688,253343
17.201,192576,684,253358
17.206,192578,688,253729
17.211,192573,338,253363
17.216,192572,377,253386
17.221,192583,409,253338
17.226,192587,417,253369
17.231,192580,432,253375
17.236,192594,443,253362
17.241,192590,451,253377
17.246,192585,462,253358
17.251,192591,481,253351
17.256,192599,487,253352
17.261,192588,490,253368
17.266,192619,497,253370
17.271,192609,493,253391
17.276,192620,508,253385
17.281,192615,510,253394
17.286,192612,516,253394
17.291,192624,517,253406
17.296,192634,519,253404
17.301,192637,521,253405
17.306,192653,525,253400
17.311,192632,528,253411
17.316,192663,954,253409
17.321,192661,887,253406
17.326,192677,853,253439
17.331,192668,828,253419
17.336,192668,810,253432
17.341,192677,790,253438
17.345,192667,782,253439
17.350,192688,773,253434
17.355,192677,767,253432
17.360,192701,758,253435
17.365,192696,754,253423
17.370,192703,747,253439
17.375,192709,743,253448
17.380,192717,737,253429
17.385,192717,735,253445
17.390,192725,733,253463
17.395,192711,732,253477
17.400,192708,726,253458
17.405,192732,724,253454
17.410,192724,723,253455
17.415,192709,722,253430
17.420,192681,713,253439
17.425,192688,711,253420
17.430,192658,721,253377
17.435,192649,719,253356
17.440,192625,706,253364
17.445,192594,707,253337
17.450,192591,707,253316
17.455,192567,704,253327
17.460,192573,702,253292
17.465,192556,700,253292
17.470,192541,704,253276
17.475,192532,703,253273
17.480,192549,701,253284
17.485,192512,701,253245
17.490,192508,702,253270
17.494,192507,700,253261
17.499,192508,697,253265
17.504,192527,695,253273
17.509,192504,697,253278
17.514,192529,700,253284
17.519,192502,698,253261
17.524,192519,696,253264
17.529,192494,699,253260
17.534,192495,696,253272
17.539,192497,695,253249
17.544,192485,693,253277
17.549,192501,695,253252
17.554,192481,695,253264
17.559,192503,694,253236
17.564,192475,695,253242
17.569,192474,699,253260
17.574,192476,698,253266
17.579,192477,698,253258
17.584,192471,686,253252
17.589,192465,700,253248
17.594,192476,689,253258
17.599,192478,688,253250
17.604,192470,685,253242
17.609,192471,689,253271
17.614,192477,691,253258
17.619,192476,689,253261
17.624,192466,690,253235
17.629,192461,694,253245
17.634,192439,692,253243
17.638,192460,693,253233
17.643,192456,692,253239
17.648,192463,696,253250
17.653,192470,696,253243
17.658,192460,693,253262
17.663,192478,689,253287
17.668,192476,694,253273
17.673,192492,691,253257
17.678,192490,689,253288
17.683,192509,688,253268
17.688,192486,691,253283
17.693,192488,690,253289
17.698,192499,690,253276
17.703,192475,689,253285
17.708,192483,694,253305
17.713,192488,685,253300
17.718,192484,683,253286
17.723,192486,680,253280
17.728,192475,684,253270
17.733,192488,681,253273
17.738,192472,681,253289
17.743,192473,680,253261
17.748,192478,682,253289
17.753,192473,691,253276
17.758,192464,683,253278
17.763,192476,681,253280
17.768,192497,685,253269
17.773,192492,685,253305
17.778,192494,685,253290
17.783,192490,681,253277
17.787,192504,685,253284
17.792,192489,685,253310
17.797,192504,685,253288
17.802,192517,682,253315
17.807,192522,670,253304
17.812,192519,684,253316
17.817,192519,686,253308
17.822,192507,682,253318
17.827,192527,685,253308
17.832,192531,686,253316
17.837,192539,685,253310
17.842,192503,683,253332
17.847,192544,687,253326
17.852,192526,687,253344
17.857,192543,680,253359
17.862,192543,675,253351
17.867,192539,679,253339
17.872,192557,679,253331
17.877,192547,679,253359
17.882,192561,676,253354
17.887,192552,680,253343
17.892,192549,679,253342
17.897,192575,678,253384
17.902,192567,675,253370
17.907,192569,684,253357
17.912,192578,682,253384
17.917,192581,682,253355
17.922,192582,680,253377
17.927,192582,681,253385
17.931,192572,681,253384
17.936,192606,680,253388
17.941,192595,678,253403
17.946,192605,679,253390
17.951,192601,679,253403
17.956,192606,682,253405
17.961,192614,680,253406
17.966,192616,682,253396
17.971,192623,682,253418
17.976,192626,682,253426
17.981,192618,680,253430
17.986,192634,680,253454
17.991,192643,681,253441
17.996,192668,681,253431
18.001,192679,674,253446
18.006,192657,686,253427
18.011,192655,685,253434
18.016,192655,683,253461
18.021,192664,681,253450
18.026,192661,682,253451
18.031,192672,682,253450
18.036,192683,681,253458
18.041,192693,681,253461
18.046,192684,681,253451
18.051,192696,678,253470
18.056,192688,678,253454
18.061,192686,677,253439
18.066,192651,677,253418
18.071,192647,677,253416
18.075,192626,678,253388
18.080,192614,674,253355
18.085,192599,674,253349
18.090,192569,674,253343
18.095,192558,683,253328
18.100,192560,674,253391
18.105,192535,683,253312
18.110,192551,684,253325
18.115,192515,683,253323
18.120,192510,679,253296
18.125,192520,680,253290
18.130,192504,679,253295
18.135,192501,679,253295
18.140,192489,677,253297
18.145,192490,676,253285
18.150,192482,681,253292
18.155,192487,680,253289
18.160,192483,677,253289
18.165,192466,678,253294
18.170,192481,680,253310
18.175,192473,677,253322
18.180,192459,678,253270
18.185,192473,677,253283
18.190,192479,678,253306
18.195,192465,678,253307
18.200,192458,679,253283
18.205,192462,678,253032
18.210,192431,335,253266
18.215,192451,372,253307
18.220,192445,395,253277
18.224,192451,413,253303
18.229,192447,429,253295
18.234,192444,441,253292
18.239,192438,449,253296
18.244,192428,470,253289
18.249,192421,472,253293
18.254,192439,475,253291
18.259,192459,481,253301
18.264,192452,485,253304
18.269,192444,492,253292
18.274,192442,494,253293
18.279,192441,497,253297
18.284,192425,499,253292
18.289,192436,506,253309
18.294,192421,509,253301
18.299,192444,513,253312
18.304,192453,515,253318
18.309,192450,520,253331
18.314,192488,940,253334
18.319,192470,871,253353
18.324,192470,833,253345
18.329,192485,821,253357
18.334,192486,800,253340
18.339,192487,785,253350
18.344,192466,767,253370
18.349,192482,762,253364
18.354,192484,750,253364
18.359,192482,753,253368
18.364,192484,747,253363
18.368,192487,746,253378
18.373,192493,740,253369
18.378,192502,733,253369
18.383,192488,727,253370
18.388,192480,729,253377
18.393,192479,721,253374
18.398,192489,720,253379
18.403,192487,715,253376
18.408,192477,716,253352
18.413,192485,712,253367
18.418,192468,708,253376
18.423,192477,706,253387
18.428,192479,708,253389
18.433,192480,703,253368
18.438,192508,710,253391
18.443,192487,700,253390
18.448,192474,701,253391
18.453,192504,696,253412
18.458,192516,696,253434
18.463,192510,703,253433
18.468,192506,704,253431
18.473,192527,700,253441
18.478,192512,697,253444
18.483,192524,693,253446
18.488,192538,696,253471
18.493,192546,691,253430
18.498,192537,690,253475
18.503,192540,689,253473
18.508,192556,691,253482
18.513,192551,688,253465
18.517,192540,688,253484
18.522,192539,684,253471
18.527,192557,686,253486
18.532,192555,695,253512
18.537,192533,691,253492
18.542,192568,688,253503
18.547,192590,692,253527
18.552,192571,688,253512
18.557,192585,686,253514
18.562,192608,683,253526
18.567,192590,686,253522
18.572,192603,686,253558
18.577,192609,684,253537
18.582,192620,681,253548
18.587,192621,687,253545
18.592,192631,686,253529
18.597,192626,684,253559
18.602,192631,681,253557
18.607,192622,683,253550
18.612,192634,680,253550
18.617,192649,689,253545
18.622,192640,686,253571
18.627,192649,688,253593
18.632,192655,688,253599
18.637,192644,680,253593
18.642,192659,677,253589
18.647,192659,680,253606
18.652,192669,689,253590
18.657,192675,687,253590
18.661,192680,682,253599
18.666,192688,685,253616
18.671,192702,686,253610
18.676,192706,682,253649
18.681,192715,683,253623
18.686,192713,684,253633
18.691,192709,683,253649
18.696,192736,681,253651
18.701,192730,678,253664
18.706,192719,679,253657
18.711,192741,680,253675
18.716,192747,679,253675
18.721,192757,675,253694
18.726,192758,678,253691
18.731,192764,678,253712
18.736,192771,682,253696
18.741,192760,679,253721
18.746,192791,679,253691
18.751,192790,679,253712
18.756,192792,678,253733
18.761,192790,676,253732
18.766,192798,676,253724
18.771,192811,675,253744
18.776,192814,675,253757
18.781,192817,668,253766
18.786,192832,682,253765
18.791,192846,682,253797
18.796,192857,682,253802
18.801,192872,679,253806
18.805,192869,681,253823
18.810,192878,680,253848
18.815,192902,678,253862
18.820,192905,675,253864
18.825,192914,675,253889
18.830,192905,680,253897
18.835,192931,678,253895
18.840,192929,677,253902
18.845,192930,676,253916
18.850,192948,677,253945
18.855,192960,676,253950
18.860,192970,674,253963
18.865,192986,674,253979
18.870,193000,674,253980
18.875,192981,675,253976
18.880,192999,678,253952
18.885,192980,676,253977
18.890,192978,677,253967
18.895,192973,675,253935
18.900,192932,674,253922
18.905,192922,673,253908
18.910,192889,674,253893
18.915,192887,673,253898
18.920,192871,671,253904
18.925,192872,671,253896
18.930,192853,675,253901
18.935,192837,675,253893
18.940,192848,673,253887
18.945,192846,672,253875
18.950,192831,675,253878
18.954,192823,672,253895
18.959,192837,671,253882
18.964,192834,668,253906
18.969,192840,683,253906
18.974,192835,681,253905
18.979,192829,673,253905
18.984,192826,671,253902
18.989,192828,674,253914
18.994,192824,672,253917
18.999,192834,669,253917
19.004,192830,667,253904
19.009,192842,681,253927
19.014,192831,678,253904
19.019,192825,676,253903
19.024,192823,674,253874
19.029,192824,680,253928
19.034,192826,678,253913
19.039,192802,677,253928
19.044,192811,676,253911
19.049,192811,679,253924
19.054,192812,676,253928
19.059,192814,676,253925
19.064,192785,674,253906
19.069,192790,678,253914
19.074,192856,669,253924
19.079,192781,669,253921
19.084,192785,667,253913
19.089,192801,671,253912
19.094,192777,670,253915
19.098,192780,667,253899
19.103,192783,678,253891
19.108,192772,679,253919
19.113,192780,678,253907
19.118,192776,677,253931
19.123,192785,669,253920
19.128,192779,672,253924
19.133,192786,669,253925
19.138,192800,667,253945
19.143,192820,676,253960
19.148,192806,677,253976
19.153,192832,677,253955
19.158,192839,674,253981
19.163,192820,670,253967
19.168,192837,673,253994
19.173,192836,674,253988
19.178,192830,672,253993
19.183,192848,670,253975
19.188,192824,673,253960
19.193,192845,671,253987
19.198,192823,669,253983
19.203,192817,664,253974
19.208,192829,317,253985
19.213,192815,364,253971
19.218,192834,385,253988
19.223,192838,405,253980
19.228,192838,425,253987
19.233,192820,436,253996
19.238,192825,447,254002
19.243,192836,453,254003
19.247,192837,462,253993
19.252,192820,468,253993
19.257,192854,484,253994
19.262,192840,486,254001
19.267,192845,496,253992
19.272,192831,491,254010
19.277,192845,494,254031
19.282,192848,496,254025
19.287,192861,501,254032
19.292,192855,505,254009
19.297,192864,506,254021
19.302,192874,505,254029
19.307,192891,512,254036
19.312,192884,983,254045
19.317,192883,909,254065
19.322,192912,842,254045
19.327,192905,817,254049
19.332,192908,797,254073
19.337,192910,780,254068
19.342,192925,765,254073
19.347,192900,758,254075
19.352,192917,750,254067
19.357,192914,741,254084
19.362,192920,733,254086
19.367,192921,733,254077
19.372,192914,727,254087
19.377,192935,723,254099
19.382,192929,715,254102
19.387,192931,716,254084
19.391,192934,713,254104
19.396,192938,718,254082
19.401,192943,713,254089
19.406,192945,712,254098
19.411,192948,710,254106
19.416,192956,701,254113
19.421,192960,706,254101
19.426,192954,706,254130
19.431,192946,706,254100
19.436,192943,703,254127
19.441,192941,698,254114
19.446,192954,698,254097
19.451,192981,696,254096
19.456,192961,693,254122
19.461,192969,690,254102
19.466,192975,696,254133
19.471,192977,695,254149
19.476,192984,692,254145
19.481,192989,688,254133
19.486,192981,688,254152
19.491,192990,688,254139
19.496,193000,686,254149
19.501,193018,683,254167
19.506,193030,682,254152
19.511,193022,684,254163
19.516,193032,686,254169
19.521,193031,684,254167
19.526,193028,683,254179
19.531,193032,685,254182
19.535,193023,683,254188
19.540,193055,679,254189
19.545,193036,679,254212
19.550,193054,679,254205
19.555,193049,678,254205
19.560,193063,685,254187
19.565,193066,678,254234
19.570,193068,681,254229
19.575,193079,679,254217
19.580,193062,676,254211
19.585,193072,686,254214
19.590,193082,685,254223
19.595,193084,682,254249
19.600,193098,679,254226
19.605,193087,675,254241
19.610,193089,680,254257
19.615,193095,676,254240
19.620,193112,683,254229
19.625,193117,680,254257
19.630,193108,683,254267
19.635,193117,680,254256
19.640,193131,675,254259
19.645,193117,675,254271
19.650,193135,677,254276
19.655,193141,673,254277
19.660,193151,678,254275
19.665,193134,676,254289
19.670,193146,679,254281
19.675,193141,674,254283
19.680,193149,672,254271
19.684,193174,679,254310
19.689,193179,682,254303
19.694,193174,677,254292
19.699,193193,676,254301
19.704,193178,669,254324
19.709,193196,680,254306
19.714,193187,679,254322
19.719,193193,677,254324
19.724,193209,674,254328
19.729,193212,676,254319
19.734,193220,671,254338
19.739,193209,670,254346
19.744,193210,679,254357
19.749,193207,681,254356
19.754,193255,672,254352
19.759,193220,668,254338
19.764,193218,676,254340
19.769,193230,679,254324
19.774,193196,677,254307
19.779,193176,674,254268
19.784,193158,671,254253
19.789,193129,674,254224
19.794,193112,670,254222
19.799,193097,668,254182
19.804,193069,675,254166
19.809,193063,672,254154
19.814,193065,668,254146
19.819,193041,678,254136
19.824,193019,675,254141
19.828,193022,679,254131
19.833,193005,675,254126
19.838,193009,673,254119
19.843,192996,670,254132
19.848,192985,673,254123
19.853,192975,683,254118
19.858,192987,666,254111
19.863,192981,666,254121
19.868,192966,677,254104
19.873,192966,675,254093
19.878,192979,673,254107
19.883,192965,669,254121
19.888,192955,672,254092
19.893,192967,670,254099
19.898,192960,669,254096
19.903,192985,671,254098
19.908,192936,677,254092
19.913,192962,676,254097
19.918,192954,675,254102
19.923,192949,671,254090
19.928,192933,673,254073
19.933,192932,672,254084
19.938,192925,669,254081
19.943,192924,665,254075
19.948,192919,669,254068
19.953,192924,671,254067
19.958,192923,671,254070
19.963,192912,668,254083
19.968,192894,670,254077
19.972,192923,670,254081
19.977,192899,668,254066
19.982,192904,663,254068
19.987,192904,667,254051
19.992,192908,665,254089
19.997,192900,675,254043
20.002,192904,666,254067
20.007,192898,667,254079
20.012,192910,667,254082
20.017,192912,665,254089
20.022,192932,673,254080
20.027,192934,674,254113
20.032,192928,673,254135
20.037,192949,673,254143
20.042,192949,669,254132
20.047,192946,671,254142
20.052,192961,665,254149
20.057,192957,673,254150
20.062,192979,671,254137
20.067,192962,673,254151
20.072,192966,672,254158
20.077,192960,672,254148
20.082,192961,668,254144
20.087,192959,672,254146
20.092,192946,671,254126
20.097,192981,675,254176
20.102,192953,661,254152
20.107,192957,664,254137
20.112,192957,665,254137
20.117,192954,665,254151
20.121,192962,663,254142
20.126,192948,666,254138
20.131,192953,666,254151
20.136,192967,667,254137
20.141,192982,666,254178
20.146,192943,673,254150
20.151,192952,664,254150
20.156,192971,664,254168
20.161,192980,663,254171
20.166,192979,664,254176
20.171,192988,665,254161
20.176,192977,665,254186
20.181,192997,662,254175
20.186,192963,663,254182
20.191,192979,663,254184
20.196,192968,651,254189
20.201,192997,665,254189
20.206,193013,275,254220
20.211,193000,344,254201
20.216,193022,376,254194
20.221,193008,396,254216
20.226,193004,414,254198
20.231,193018,428,254221
20.236,193040,438,254222
20.241,193021,444,254207
20.246,193025,458,254229
20.251,193041,468,254247
20.256,193035,473,254214
20.261,193036,479,254227
20.265,193046,482,254230
20.270,193039,486,254236
20.275,193028,490,254254
20.280,193050,491,254242
20.285,193072,495,254248
20.290,193062,498,254257
20.295,193061,499,254263
20.300,193067,503,254252
20.305,193057,518,254248
20.310,193030,1088,254251
20.315,193084,903,254256
20.320,193095,850,254261
20.325,193111,817,254275
20.330,193100,799,254288
20.335,193103,782,254267
20.340,193104,770,254284
20.345,193083,752,254282
20.350,193108,747,254297
20.355,193123,738,254295
20.360,193102,731,254295
20.365,193106,723,254300
20.370,193123,722,254285
20.375,193128,726,254278
20.380,193129,723,254293
20.385,193133,718,254298
20.390,193148,707,254287
20.395,193127,707,254297
20.400,193155,702,254304
20.405,193136,700,254289
20.410,193140,703,254322
20.414,193144,697,254311
20.419,193161,695,254322
20.424,193153,693,254327
20.429,193157,697,254321
20.434,193165,691,254329
20.439,193181,691,254325
20.444,193164,689,254353
20.449,193158,692,254328
20.454,193178,689,254334
20.459,193184,687,254350
20.464,193181,685,254348
20.469,193194,686,254352
20.474,193203,685,254345
20.479,193200,683,254366
20.484,193208,680,254369
20.489,193222,685,254376
20.494,193236,681,254358
20.499,193209,680,254380
20.504,193220,677,254369
20.509,193215,681,254361
20.514,193236,688,254349
20.519,193225,685,254361
20.524,193223,682,254380
20.529,193239,685,254395
20.534,193247,683,254385
20.539,193252,678,254368
20.544,193237,672,254377
20.549,193251,675,254388
20.554,193276,674,254399
20.558,193262,683,254381
20.563,193255,678,254364
20.568,193252,681,254361
20.573,193236,678,254341
20.578,193224,677,254337
20.583,193208,672,254305
20.588,193192,673,254303
20.593,193166,672,254268
20.598,193131,671,254246
20.603,193127,669,254254
20.608,193123,673,254216
20.613,193109,673,254229
20.618,193080,672,254198
20.623,193080,669,254201
20.628,193048,672,254186
20.633,193069,675,254198
20.638,193053,668,254162
20.643,193063,665,254174
20.648,193050,669,254188
20.653,193052,667,254182
20.658,193050,677,254212
20.663,193030,665,254184
20.668,193031,677,254177
20.673,193024,676,254169
20.678,193041,674,254196
20.683,193036,667,254186
20.688,193036,672,254181
20.693,193024,671,254179
20.698,193035,669,254177
20.702,193013,667,254183
20.707,193003,668,254186
20.712,192999,669,254167
20.717,193015,667,254164
20.722,193013,664,254192
20.727,193014,665,254161
20.732,193000,668,254170
20.737,193020,669,254172
20.742,193005,664,254169
20.747,193010,667,254162
20.752,193001,666,254165
20.757,192979,666,254149
20.762,192980,661,254148
20.767,192997,675,254143
20.772,192990,674,254141
20.777,192988,672,254150
20.782,192984,662,254160
20.787,192995,664,254167
20.792,192994,663,254140
20.797,192992,663,254153
20.802,192993,670,254164
20.807,192991,671,254168
20.812,192998,671,254189
20.817,193012,670,254174
20.822,193003,668,254184
20.827,193010,669,254188
20.832,193004,668,254190
20.837,193023,666,254214
20.842,193033,663,254189
20.847,193023,666,254180
20.851,193031,666,254193
20.856,193011,664,254177
20.861,193047,662,254184
20.866,193003,663,254195
20.871,193015,665,254197
20.876,193022,665,254161
20.881,193026,667,254171
20.886,193004,667,254184
20.891,193025,667,254177
20.896,193020,667,254173
20.901,193031,665,254175
20.906,193021,666,254166
20.911,193029,668,254160
20.916,193024,666,254173
20.921,193032,663,254194
20.926,193060,663,254178
20.931,193016,667,254195
20.936,193027,666,254185
20.941,193032,663,254188
20.946,193020,662,254200
20.951,193026,663,254198
20.956,193042,661,254198
20.961,193033,662,254200
20.966,193055,660,254199
20.971,193040,663,254209
20.976,193057,668,254207
20.981,193043,669,254200
20.986,193041,669,254209
20.991,193064,668,254221
20.995,193045,666,254210
21.000,193059,665,254230
21.005,193068,663,254238
21.010,193077,666,254241
21.015,193076,662,254230
21.020,193078,660,254229
21.025,193073,664,254245
21.030,193082,664,254242
21.035,193084,663,254260
21.040,193083,662,254235
21.045,193080,658,254248
21.050,193106,661,254235
21.055,193117,671,254244
21.060,193095,668,254257
21.065,193108,667,254263
21.070,193122,673,254257
21.075,193121,665,254268
21.080,193126,662,254260
21.085,193128,662,254252
21.090,193113,666,254252
21.095,193118,666,254235
21.100,193134,665,254278
21.105,193122,665,254251
21.110,193153,669,254243
21.115,193136,667,254279
21.120,193149,666,254252
21.125,193149,659,254286
21.130,193141,666,254261
21.135,193150,665,254261
21.140,193155,666,254264
21.144,193150,666,254271
21.149,193162,662,254298
21.154,193161,661,254273
21.159,193167,663,254272
21.164,193172,664,254265
21.169,193174,653,254289
21.174,193175,663,254281
21.179,193179,664,254278
21.184,193187,665,254289
21.189,193190,660,254297
21.194,193184,659,254286
21.199,193193,659,254289
21.204,193192,659,254329
21.209,193181,333,254292
21.214,193194,371,254300
21.219,193188,387,254285
21.224,193189,405,254286
21.229,193187,427,254296
21.234,193215,438,254298
21.239,193218,449,254309
21.244,193208,457,254313
21.249,193188,470,254308
21.254,193214,464,254316
21.259,193227,470,254307
21.264,193230,474,254318
21.269,193235,488,254329
21.274,193234,493,254320
21.279,193232,498,254303
21.284,193225,488,254294
21.288,193232,496,254317
21.293,193206,498,254284
21.298,193197,502,254253
21.303,193191,505,254242
21.308,193158,512,254210
21.313,193147,914,254202
21.318,193132,846,254170
21.323,193106,810,254177
21.328,193099,790,254153
21.333,193080,773,254147
21.338,193066,761,254143
21.343,193051,749,254143
21.348,193053,745,254139
21.353,193047,740,254125
21.358,193027,731,254116
21.363,193032,725,254100
21.368,193012,722,254114
21.373,193031,716,254131
21.378,193018,716,254116
21.383,193008,711,254120
21.388,193017,713,254114
21.393,193021,711,254122
21.398,193009,698,254092
21.403,193007,694,254125
21.408,193002,695,254093
21.413,192990,694,254117
21.418,193010,691,254109
21.423,193001,688,254110
21.428,193012,691,254115
21.432,192987,691,254091
21.437,192995,688,254105
21.442,192990,688,254099
21.447,192984,689,254104
21.452,192987,688,254095
21.457,192983,688,254097
21.462,192981,679,254087
21.467,192978,682,254094
21.472,192971,681,254104
21.477,192983,682,254099
21.482,192978,679,254081
21.487,192955,683,254110
21.492,192977,684,254113
21.497,192958,675,254084
21.502,192972,673,254101
21.507,192975,677,254078
21.512,192983,680,254082
21.517,192966,680,254091
21.522,192964,677,254099
21.527,192948,680,254091
21.532,192979,680,254102
21.537,192974,680,254109
21.542,192995,668,254126
21.547,192998,671,254141
21.552,193005,671,254123
21.557,192997,670,254117
21.562,193001,672,254128
21.567,192994,674,254117
21.572,192998,675,254105
21.577,193003,675,254105
21.581,193003,674,254117
21.586,192989,676,254127
21.591,193006,668,254130
21.596,193011,668,254122
21.601,192986,666,254116
21.606,193011,668,254119
21.611,192988,674,254119
21.616,193009,674,254124
21.621,192990,673,254109
21.626,192988,666,254107
21.631,192994,667,254107
21.636,193003,666,254098
21.641,192994,665,254121
21.646,192983,667,254100
21.651,192988,667,254121
21.656,192980,677,254036
21.661,192992,662,254121
21.666,193004,664,254117
21.671,192996,668,254126
21.676,193002,668,254127
21.681,193022,669,254121
21.686,193007,671,254127
21.691,193012,664,254133
21.696,193010,665,254133
21.701,193014,664,254125
21.706,193029,672,254140
21.711,193008,667,254134
21.716,193019,666,254132
21.721,193021,665,254136
21.725,193024,667,254136
21.730,193032,670,254147
21.735,193039,669,254153
21.740,193032,670,254147
21.745,193033,669,254123
21.750,193052,662,254160
21.755,193054,666,254154
21.760,193048,667,254149
21.765,193063,666,254153
21.770,193058,670,254173
21.775,193069,671,254174
21.780,193081,671,254158
21.785,193088,660,254169
21.790,193092,667,254171
21.795,193083,663,254171
21.800,193085,664,254193
21.805,193098,669,254172
21.810,193097,662,254181
21.815,193099,663,254185
21.820,193111,664,254176
21.825,193109,664,254185
21.830,193091,669,254180
21.835,193122,668,254189
21.840,193114,671,254181
21.845,193130,660,254200
21.850,193118,663,254196
21.855,193128,666,254192
21.860,193116,667,254206
21.865,193143,667,254190
21.870,193128,673,254197
21.874,193122,660,254221
21.879,193139,662,254197
21.884,193142,662,254176
21.889,193150,667,254209
21.894,193154,666,254207
21.899,193157,672,254247
21.904,193135,661,254203
21.909,193163,665,254200
21.914,193177,664,254219
21.919,193167,665,254214
21.924,193172,664,254205
21.929,193166,669,254213
21.934,193165,658,254190
21.939,193178,659,254208
21.944,193175,658,254208
21.949,193156,667,254214
21.954,193198,666,254213
21.959,193188,666,254218
21.964,193201,664,254222
21.969,193217,668,254234
21.974,193194,658,254220
21.979,193191,657,254195
21.984,193213,657,254230
21.989,193223,662,254215
21.994,193235,662,254235
21.999,193242,667,254242
22.004,193237,657,254232
22.009,193231,661,254253
22.014,193245,660,254236
22.018,193246,660,254250
22.023,193248,659,254247
22.028,193234,664,254239
22.033,193240,663,254240
22.038,193243,664,254237
22.043,193237,664,254211
22.048,193200,660,254172
22.053,193180,661,254172
22.058,193164,662,254140
22.063,193150,661,254112
22.068,193119,665,254107
22.073,193116,667,254092
22.078,193093,657,254078
22.083,193088,655,254051
22.088,193054,661,254044
22.093,193043,662,254008
22.098,193024,666,254027
22.103,193022,655,254027
22.108,193016,658,254012
22.113,193013,659,254035
22.118,193019,658,254033
22.123,193004,656,254013
22.128,193005,659,254017
22.133,192991,659,254012
22.138,192999,660,254023
22.143,192988,658,253988
22.148,192987,658,254021
22.153,193000,657,254022
22.158,192978,658,254017
22.162,192982,655,254020
22.167,192969,660,253999
22.172,192970,659,253999
22.177,192976,660,254012
22.182,192980,658,254007
22.187,192983,660,254012
22.192,193017,659,254004
22.197,192971,664,253987
22.202,192971,662,253987
22.207,192974,664,253988
22.212,192953,665,254344
22.217,192956,333,253986
22.222,192957,372,253985
22.227,192948,397,253984
22.232,192940,415,253980
22.237,192929,428,253976
22.242,192930,430,253983
22.247,192945,443,253982
22.252,192940,450,253974
22.257,192926,458,253981
22.262,192931,461,253975
22.267,192949,471,253956
22.272,192933,474,253974
22.277,192930,478,253982
22.282,192935,481,253972
22.287,192940,488,253976
22.292,192946,490,253985
22.297,192951,493,253996
22.302,192962,496,254010
22.307,192968,501,254021
22.311,192956,504,254006
22.316,192970,509,254002
22.321,192991,914,254013
22.326,192974,851,254014
22.331,192977,816,254003
22.336,192977,788,254009
22.341,192981,772,254015
22.346,192986,762,253994
22.351,192967,755,254025
22.356,192989,737,253997
22.361,192977,727,254027
22.366,192974,724,254034
22.371,192975,719,254022
22.376,192975,715,254013
22.381,192966,712,253992
22.386,192995,712,254010
22.391,192977,707,254005
22.396,192971,704,253997
22.401,192976,700,254022
22.406,192966,699,254001
22.411,192977,698,254004
22.416,192977,698,253996
22.421,192976,695,253995
22.426,192967,695,254009
22.431,192977,695,254013
22.436,193002,682,254024
22.441,193007,685,254033
22.446,192989,685,254018
22.451,193000,685,254044
22.455,193001,685,254032
22.460,193001,684,254038
22.465,192999,684,254044
22.470,193015,686,254050
22.475,192994,686,254032
22.480,193009,684,254035
22.485,193001,680,254031
22.490,193017,681,254055
22.495,193006,680,254048
22.500,193010,679,254057
22.505,193018,680,254071
22.510,193020,674,254067
22.515,193048,671,254051
22.520,193031,671,254056
22.525,193038,669,254080
22.530,193042,672,254067
22.535,193058,675,254065
22.540,193041,676,254058
22.545,193072,678,254076
22.550,193066,670,254103
22.555,193067,669,254072
22.560,193058,669,254089
22.565,193061,668,254088
22.570,193074,673,254076
22.575,193079,671,254096
22.580,193088,676,254098
22.585,193068,665,254101
22.590,193084,669,254101
22.595,193090,669,254091
22.599,193089,669,254091
22.604,193103,669,254104
22.609,193095,674,254129
22.614,193112,674,254111
22.619,193114,664,254113
22.624,193136,662,254124
22.629,193121,668,254115
22.634,193096,672,254126
22.639,193129,663,254113
22.644,193116,663,254129
22.649,193133,668,254115
22.654,193145,665,254117
22.659,193136,667,254150
22.664,193134,666,254121
22.669,193133,672,254121
22.674,193146,671,254126
22.679,193146,685,254161
22.684,193163,664,254138
22.689,193157,669,254111
22.694,193172,668,254139
22.699,193174,668,254169
22.704,193184,668,254142
22.709,193165,663,254142
22.714,193178,662,254156
22.719,193185,663,254133
22.724,193187,662,254138
22.729,193190,671,254169
22.734,193189,660,254164
22.739,193214,661,254153
22.744,193206,660,254165
22.748,193218,664,254157
22.753,193209,664,254177
22.758,193200,665,254174
22.763,193233,665,254153
22.768,193217,670,254168
22.773,193222,658,254188
22.778,193251,668,254180
22.783,193229,655,254180
22.788,193244,661,254190
22.793,193236,659,254178
22.798,193234,659,254173
22.803,193233,658,254184
22.808,193239,662,254193
22.813,193256,663,254207
22.818,193267,660,254197
22.823,193260,663,254187
22.828,193265,661,254196
22.833,193272,661,254206
22.838,193280,661,254207
22.843,193269,661,254196
22.848,193267,665,254165
22.853,193245,666,254162
22.858,193243,656,254135
22.863,193204,655,254125
22.868,193198,661,254106
22.873,193168,659,254064
22.878,193133,657,254054
22.883,193123,657,254026
22.888,193114,661,254015
22.892,193082,661,254001
22.897,193068,662,253981
22.902,193045,660,253970
22.907,193019,665,253968
22.912,193022,665,253957
22.917,193016,655,253946
22.922,193016,652,253952
22.927,193007,667,253931
22.932,193004,667,253954
22.937,192994,655,253947
22.942,192982,653,253959
22.947,192996,658,253930
22.952,192980,657,253932
22.957,192988,659,253946
22.962,192999,656,253925
22.967,192981,660,253946
22.972,192988,666,253948
22.977,192983,658,253953
22.982,192983,656,253938
22.987,192965,661,253936
22.992,192987,661,253927
22.997,192971,663,253931
23.002,192961,663,253944
23.007,192961,657,253924
23.012,192943,655,253930
23.017,192967,657,253924
23.022,192954,659,253927
23.027,192960,662,253916
23.032,192952,664,253927
23.037,192957,655,253918
23.041,192956,652,253923
23.046,192959,659,253924
23.051,192950,659,253921
23.056,192928,661,253930
23.061,192934,658,253888
23.066,192926,663,253885
23.071,192937,657,253906
23.076,192926,658,253895
23.081,192929,655,253873
23.086,192934,660,253895
23.091,192922,660,253882
23.096,192919,660,253885
23.101,192935,658,253906
23.106,192943,661,253912
23.111,192965,662,253920
23.116,192961,661,253916
23.121,192966,653,253916
23.126,192950,656,253905
23.131,192941,657,253917
23.136,192957,659,253908
23.141,192960,658,253896
23.146,192947,662,253913
23.151,192952,663,253914
23.156,192963,663,253932
23.161,192966,651,253928
23.166,192962,660,253908
23.171,192963,660,253909
23.176,192949,661,253908
23.181,192966,657,253919
23.185,192962,661,253937
23.190,192950,662,253926
23.195,192960,662,253919
23.200,192953,660,253922
23.205,192960,318,253926
23.210,192942,366,253903
23.215,192953,388,253897
23.220,192946,408,253900
23.225,192944,425,253906
23.230,192949,439,253932
23.235,192967,449,253912
23.240,192968,457,253910
23.245,192959,464,253922
23.250,192955,473,253920
23.255,192955,478,253913
23.260,192950,470,253923
23.265,192971,481,253912
23.270,192984,487,253927
23.275,192974,489,253952
23.280,192978,494,253942
23.285,192993,499,253925
23.290,192986,506,253942
23.295,192984,510,253956
23.300,192995,500,253970
23.305,193017,503,253945
23.310,192994,939,253960
23.315,193020,859,253955
23.320,193015,818,253974
23.325,193032,793,253971
23.329,193024,779,253961
23.334,193031,764,253976
23.339,193028,752,253992
23.344,193035,742,253977
23.349,193040,740,253969
23.354,193038,722,253974
23.359,193042,715,253974
23.364,193041,714,253972
23.369,193049,713,253973
23.374,193047,710,253985
23.379,193051,707,253996
23.384,193068,702,253977
23.389,193058,703,254021
23.394,193064,700,253983
23.399,193082,698,253998
23.404,193082,695,253986
23.409,193081,699,253952
23.414,193068,688,254004
23.419,193086,684,254000
23.424,193076,683,254010
23.429,193067,687,254030
23.434,193082,685,254010
23.439,193087,684,254013
23.444,193102,681,254015
23.449,193104,686,254016
23.454,193102,683,254019
23.459,193160,675,254006
23.464,193110,675,254008
23.469,193093,680,254010
23.474,193118,678,254000
23.478,193118,677,254001
23.483,193108,676,253999
23.488,193119,679,254030
23.493,193121,677,254009
23.498,193132,677,254022
23.503,193130,675,254010
23.508,193139,675,254043
23.513,193142,676,254030
23.518,193135,677,254029
23.523,193167,665,254024
23.528,193152,669,254027
23.533,193162,669,254028
23.538,193157,668,254048
23.543,193166,666,254029
23.548,193155,672,254079
23.553,193182,671,254073
23.558,193175,664,254081
23.563,193194,663,254080
23.568,193199,667,254068
23.573,193197,666,254069
23.578,193207,666,254081
23.583,193204,664,254078
23.588,193190,669,254062
23.593,193199,669,254064
23.598,193193,668,254055
23.603,193190,668,254036
23.608,193158,664,253985
23.613,193137,663,254001
23.618,193105,664,253970
23.622,193095,662,253946
23.627,193076,667,253925
23.632,193069,666,253915
23.637,193042,666,253918
23.642,193012,665,253874
23.647,193005,671,253885
23.652,193009,660,253876
23.657,193001,664,253869
23.662,192969,662,253871
23.667,192980,667,253858
23.672,192998,667,253855
23.677,192984,668,253873
23.682,192964,655,253868
23.687,192980,658,253850
23.692,192956,659,253863
23.697,192964,659,253836
23.702,192952,653,253872
23.707,192951,665,253845
23.712,192972,665,253860
23.717,192963,666,253868
23.722,192990,663,253867
23.727,192958,666,253868
23.732,192976,666,253877
23.737,192952,667,253860
23.742,192965,654,253871
23.747,192960,657,253863
23.752,192963,646,253858
23.757,192932,656,253852
23.762,192946,654,253865
23.767,192949,657,253838
23.771,192963,658,253866
23.776,192940,658,253839
23.781,192963,656,253837
23.786,192934,660,253830
23.791,192942,661,253835
23.796,192940,663,253817
23.801,192937,656,253850
23.806,192932,659,253839
23.811,192931,661,253825
23.816,192922,659,253824
23.821,192934,659,253815
23.826,192923,662,253824
23.831,192932,661,253822
23.836,192944,662,253832
23.841,192944,661,253838
23.846,192955,670,253843
23.851,192948,656,253853
23.856,192955,657,253839
23.861,192956,655,253836
23.866,192952,658,253854
23.871,192968,659,253858
23.876,192973,659,253865
23.881,192974,658,253866
23.886,192967,660,253869
23.891,192971,662,253847
23.896,192967,662,253820
23.901,192971,653,253855
23.906,192963,655,253858
23.911,192966,657,253870
23.915,192963,657,253865
23.920,192961,656,253850
23.925,192954,658,253851
23.930,192969,660,253851
23.935,192943,661,253859
23.940,192974,659,253868
23.945,192964,677,253832
23.950,192958,661,253823
23.955,192956,662,253837
23.960,192967,658,253858
23.965,192945,659,253841
23.970,192961,662,253839
23.975,192952,662,253842
23.980,192955,661,253838
23.985,192959,661,253841
23.990,192982,653,253843
23.995,192967,656,253844
24.000,192947,655,253848
24.005,192956,656,253857
24.010,192983,658,253843
24.015,192978,656,253878
24.020,192970,657,253855
24.025,192970,658,253848
24.030,192982,661,253864
24.035,192984,660,253852
24.040,192978,659,253868
24.045,193010,651,253847
24.050,192984,659,253881
24.055,192979,659,253875
24.059,192991,659,253882
24.064,193007,659,253867
24.069,192998,662,253875
24.074,193009,651,253870
24.079,193014,650,253887
24.084,193002,649,253887
24.089,193004,652,253858
24.094,193020,656,253865
24.099,193019,657,253866
24.104,193020,657,253879
24.109,193027,659,253863
24.114,193016,658,253870
24.119,193027,659,253901
24.124,193027,658,253884
24.129,193043,662,253897
24.134,193033,662,253890
24.139,193029,650,253884
24.144,193049,653,253904
24.149,193043,657,253919
24.154,193049,655,253914
24.159,193057,657,253917
24.164,193070,655,253914
24.169,193068,660,253920
24.174,193068,658,253945
24.179,193077,657,253911
24.184,193078,656,253902
24.189,193081,653,253932
24.194,193095,652,253932
24.199,193088,652,253935
24.204,193092,295,253955
24.208,193111,350,253954
24.213,193091,377,253956
24.218,193110,397,253956
24.223,193113,414,253960
24.228,193101,431,253947
24.233,193120,441,253943
24.238,193096,454,253942
24.243,193088,448,253934
24.248,193108,459,253910
24.253,193064,464,253907
24.258,193072,469,253897
24.263,193039,474,253862
24.268,193021,483,253835
24.273,193013,485,253830
24.278,192992,488,253807
24.283,192966,491,253808
24.288,192959,502,253782
24.293,192947,503,253805
24.298,192941,507,253804
24.303,192929,509,253744
24.308,192931,961,253781
24.313,192921,859,253750
24.318,192918,816,253772
24.323,192904,787,253743
24.328,192925,774,253776
24.333,192903,758,253754
24.338,192883,743,253812
24.343,192900,738,253760
24.348,192905,727,253755
24.352,192892,720,253740
24.357,192876,717,253744
24.362,192890,712,253754
24.367,192886,711,253752
24.372,192871,709,253730
24.377,192891,705,253737
24.382,192875,703,253757
24.387,192881,696,253740
24.392,192882,694,253738
24.397,192865,690,253745
24.402,192869,687,253715
24.407,192869,692,253738
24.412,192864,690,253760
24.417,192854,689,253724
24.422,192847,687,253731
24.427,192859,680,253720
24.432,192860,683,253773
24.437,192833,682,253720
24.442,192847,679,253695
24.447,192837,684,253718
24.452,192843,682,253708
24.457,192836,670,253706
24.462,192840,670,253700
24.467,192849,673,253688
24.472,192852,672,253698
24.477,192837,673,253702
24.482,192869,672,253725
24.487,192849,677,253722
24.492,192877,677,253741
24.497,192871,666,253755
24.501,192887,663,253750
24.506,192861,666,253749
24.511,192891,665,253756
24.516,192878,675,253752
24.521,192878,671,253747
24.526,192887,664,253756
24.531,192910,667,253762
24.536,192892,667,253759
24.541,192907,665,253757
24.546,192900,669,253756
24.551,192878,668,253751
24.556,192888,668,253765
24.561,192890,667,253760
24.566,192886,670,253746
24.571,192904,659,253765
24.576,192894,660,253754
24.581,192884,665,253770
24.586,192882,659,253781
24.591,192900,660,253766
24.596,192912,659,253771
24.601,192891,657,253774
24.606,192898,661,253773
24.611,192887,661,253772
24.616,192900,661,253778
24.621,192899,658,253789
24.626,192919,661,253790
24.631,192922,669,253806
24.636,192904,657,253795
24.641,192921,654,253804
24.645,192924,657,253806
24.650,192929,659,253799
24.655,192933,660,253786
24.660,192934,659,253818
24.665,192918,662,253819
24.670,192947,663,253809
24.675,192944,665,253822
24.680,192944,655,253796
24.685,192949,657,253807
24.690,192953,658,253813
24.695,192959,657,253809
24.700,192945,654,253840
24.705,192957,658,253813
24.710,192965,656,253842
24.715,192982,656,253841
24.720,192967,653,253835
24.725,192961,656,253843
24.730,192963,658,253844
24.735,192984,656,253838
24.740,192974,654,253855
24.745,192981,653,253844
24.750,192977,656,253834
24.755,192997,654,253842
24.760,193014,652,253857
24.765,193000,651,253870
24.770,193010,653,253881
24.775,193016,656,253874
24.780,193009,654,253871
24.785,193023,652,253892
24.789,193022,653,253883
24.794,193035,662,253894
24.799,193023,660,253876
24.804,193037,657,253876
24.809,193026,659,253887
24.814,193042,656,253889
24.819,193046,653,253894
24.824,193062,656,253896
24.829,193074,657,253897
24.834,193059,655,253910
24.839,193075,653,253914
24.844,193085,651,253918
24.849,193100,653,253921
24.854,193066,653,253925
24.859,193047,651,253898
24.864,193074,660,253884
24.869,193051,670,253865
24.874,193043,653,253863
24.879,193008,652,253833
24.884,193000,649,253819
24.889,192971,663,253792
24.894,192962,659,253788
24.899,192935,659,253786
24.904,192918,656,253752
24.909,192898,658,253740
24.914,192903,655,253728
24.919,192873,652,253722
24.924,192881,653,253735
24.929,192881,658,253732
24.934,192860,655,253712
24.938,192856,653,253714
24.943,192836,651,253714
24.948,192858,656,253724
24.953,192851,650,253710
24.958,192851,650,253696
24.963,192840,657,253737
24.968,192832,646,253666
24.973,192859,654,253714
24.978,192842,652,253714
24.983,192843,651,253716
24.988,192833,653,253717
24.993,192830,652,253733
24.998,192834,650,253715
25.003,192813,649,253689
25.008,192823,654,253702
25.013,192822,652,253724
25.018,192835,657,253702
25.023,192814,646,253683
25.028,192821,653,253698
25.033,192821,649,253691
25.038,192819,649,253684
25.043,192816,645,253690
25.048,192812,661,253696
25.053,192810,659,253676
25.058,192805,659,253688
25.063,192811,654,253685
25.068,192795,651,253690
25.073,192793,648,253676
25.078,192811,658,253675
25.082,192794,653,253673
25.087,192805,657,253682
25.092,192804,655,253669
25.097,192809,652,253698
25.102,192804,650,253686
25.107,192808,653,253703
25.112,192829,652,253728
25.117,192835,656,253732
25.122,192833,651,253703
25.127,192821,653,253734
25.132,192853,652,253694
25.137,192830,651,253722
25.142,192831,647,253700
25.147,192820,649,253710
25.152,192821,649,253700
25.157,192817,648,253728
25.162,192810,645,253714
25.167,192840,652,253719
25.172,192817,651,253706
25.177,192831,649,253699
25.182,192833,648,253712
25.187,192808,651,253721
25.192,192823,651,253697
25.197,192813,650,253705
25.202,192831,271,253708
25.207,192828,339,253718
25.212,192825,373,253710
25.217,192823,397,253700
25.222,192843,413,253704
25.226,192839,433,253701
25.231,192837,441,253703
25.236,192833,450,253716
25.241,192829,444,253714
25.246,192842,454,253724
25.251,192841,471,253743
25.256,192840,476,253719
25.261,192842,475,253735
25.266,192835,484,253721
25.271,192854,487,253740
25.276,192853,489,253749
25.281,192855,489,253740
25.286,192864,492,253735
25.291,192864,495,253754
25.296,192857,496,253737
25.301,192887,499,253752
25.306,192463,1049,253745
25.311,192900,880,253753
25.316,192898,825,253765
25.321,192893,789,253760
25.326,192889,771,253776
25.331,192903,755,253751
25.336,192889,751,253776
25.341,192902,740,253756
25.346,192912,734,253771
25.351,192899,725,253787
25.356,192914,718,253777
25.361,192911,714,253771
25.366,192911,711,253781
25.371,192919,708,253796
25.375,192926,705,253788
25.380,192924,698,253790
25.385,192943,695,253771
25.390,192926,693,253786
25.395,192939,689,253808
25.400,192931,685,253803
25.405,192962,684,253771
25.410,192964,688,253808
25.415,192960,685,253814
25.420,192946,680,253795
25.425,192954,679,253817
25.430,192955,678,253807
25.435,192954,679,253809
25.440,192965,675,253811
25.445,192981,673,253811
25.450,192992,673,253814
25.455,192970,672,253840
25.460,192990,673,253819
25.465,192980,671,253816
25.470,192980,673,253833
25.475,192997,671,253846
25.480,192991,670,253849
25.485,192992,668,253853
25.490,192996,669,253835
25.495,192993,666,253830
25.500,193004,666,253843
25.505,193013,651,253858
25.510,193011,669,253857
25.515,193024,667,253851
25.519,193009,664,253865
25.524,193020,663,253869
25.529,193032,665,253862
25.534,193046,662,253860
25.539,193024,661,253861
25.544,193041,658,253858
25.549,193023,662,253842
25.554,193019,663,253827
25.559,192991,664,253816
25.564,192951,661,253773
25.569,192952,664,253763
25.574,192919,661,253751
25.579,192912,659,253726
25.584,192902,656,253718
25.589,192877,660,253712
25.594,192868,656,253700
25.599,192849,655,253667
25.604,192849,659,253658
25.609,192823,662,253659
25.614,192804,659,253668
25.619,192803,659,253657
25.624,192811,656,253645
25.629,192789,660,253651
25.634,192808,657,253638
25.639,192795,653,253659
25.644,192797,662,253652
25.649,192804,665,253633
25.654,192801,654,253651
25.659,192791,652,253662
25.664,192762,660,253645
25.668,192791,662,253645
25.673,192776,658,253637
25.678,192778,656,253637
25.683,192796,651,253648
25.688,192773,656,253649
25.693,192773,652,253628
25.698,192769,652,253650
25.703,192769,658,253631
25.708,192753,662,253636
25.713,192780,659,253636
25.718,192751,658,253610
25.723,192739,655,253617
25.728,192763,659,253635
25.733,192726,656,253621
25.738,192747,654,253618
25.743,192743,651,253604
25.748,192750,657,253568
25.753,192756,656,253598
25.758,192743,656,253601
25.763,192730,652,253608
25.768,192746,655,253604
25.773,192739,654,253608
25.778,192734,651,253618
25.783,192750,648,253606
25.788,192736,651,253617
25.793,192736,660,253632
25.798,192739,652,253620
25.803,192760,649,253622
25.808,192772,654,253638
25.812,192768,650,253632
25.817,192772,650,253645
25.822,192768,645,253669
25.827,192780,660,253655
25.832,192758,649,253651
25.837,192769,658,253651
25.842,192781,656,253643
25.847,192777,656,253659
25.852,192756,655,253664
25.857,192769,655,253657
25.862,192764,653,253634
25.867,192754,655,253640
25.872,192761,653,253659
25.877,192767,653,253661
25.882,192763,650,253640
25.887,192770,652,253660
25.892,192763,651,253662
25.897,192771,654,253627
25.902,192779,650,253684
25.907,192773,652,253669
25.912,192772,651,253676
25.917,192774,650,253666
25.922,192769,648,253672
25.927,192778,650,253683
25.932,192776,648,253670
25.937,192782,648,253697
25.942,192791,655,253682
25.947,192795,654,253697
25.952,192794,654,253680
25.956,192794,654,253698
25.961,192799,649,253704
25.966,192819,654,253696
25.971,192814,651,253710
25.976,192813,650,253706
25.981,192832,646,253728
25.986,192839,648,253729
25.991,192840,650,253735
25.996,192840,653,253741
26.001,192848,650,253760
26.006,192840,651,253740
26.011,192869,650,253758
26.016,192850,649,253774
26.021,192866,647,253797
26.026,192871,649,253760
26.031,192889,649,253802
26.036,192889,650,253806
26.041,192886,646,253809
26.046,192910,653,253802
26.051,192902,653,253805
26.056,192899,652,253825
26.061,192915,650,253825
26.066,192917,651,253829
26.071,192929,651,253836
26.076,192941,649,253855
26.081,192938,648,253871
26.086,192948,648,253868
26.091,192964,654,253868
26.096,192972,653,253888
26.101,192965,651,253885
26.105,192976,652,253908
26.110,192982,654,253902
26.115,192984,654,253920
26.120,192989,653,253932
26.125,192996,653,253954
26.130,193003,654,253937
26.135,193009,652,253926
26.140,193020,628,253937
26.145,193023,651,253944
26.150,193040,654,253984
26.155,193037,652,253963
26.160,193042,649,253978
26.165,193046,647,253984
26.170,193055,650,253989
26.175,193066,646,253985
26.180,193078,645,254009
26.185,193060,654,253996
26.190,193073,649,254010
26.195,193078,647,254007
26.200,193094,645,253875
26.205,193081,332,254024
26.210,193113,371,254040
26.215,193101,394,254036
26.220,193117,411,254055
26.225,193109,425,254059
26.230,193132,438,254058
26.235,193119,445,254075
26.240,193157,447,254085
26.245,193147,451,254115
26.249,193159,459,254093
26.254,193151,463,254093
26.259,193191,466,254111
26.264,193159,469,254123
26.269,193179,477,254123
26.274,193191,479,254142
26.279,193199,483,254111
26.284,193197,488,254158
26.289,193201,496,254131
26.294,193213,496,254149
26.299,193196,497,254179
26.304,193220,497,254191
26.309,193226,900,254184
26.314,193232,831,254194
26.319,193235,794,254202
26.324,193240,778,254224
26.329,193254,765,254226
26.334,193264,742,254204
26.339,193273,733,254219
26.344,193279,721,254237
26.349,193296,728,254231
26.354,193275,719,254252
26.359,193289,713,254255
26.364,193300,705,254264
26.369,193302,705,254276
26.374,193320,699,254284
26.379,193340,693,254305
26.384,193329,693,254284
26.389,193335,694,254285
26.394,193329,690,254289
26.398,193323,686,254287
26.403,193354,680,254277
26.408,193324,683,254255
26.413,193274,678,254224
26.418,193274,674,254231
26.423,193251,680,254187
26.428,193231,681,254150
26.433,193219,675,254166
26.438,193183,674,254152
26.443,193156,671,254136
26.448,193148,673,254117
26.453,193143,672,254110
26.458,193119,669,254116
26.463,193111,665,254105
26.468,193106,668,254092
26.473,193107,665,254097
26.478,193127,672,254096
26.483,193098,662,254103
26.488,193085,674,254101
26.493,193084,670,254078
26.498,193096,668,254095
26.503,193089,664,254116
26.508,193077,667,254082
26.513,193079,664,254083
26.518,193080,662,254095
26.523,193075,660,254081
26.528,193099,662,254075
26.533,193079,666,254102
26.538,193087,663,254081
26.542,193084,659,254108
26.547,193061,660,254079
26.552,193066,657,254104
26.557,193052,655,254086
26.562,193059,661,254082
26.567,193057,662,254101
26.572,193059,662,254088
26.577,193065,663,254085
26.582,193050,660,254088
26.587,193051,663,254086
26.592,193050,660,254079
26.597,193033,659,254055
26.602,193034,654,254082
26.607,193036,657,254096
26.612,193038,656,254051
26.617,193028,654,254075
26.622,193036,649,254081
26.627,193048,656,254076
26.632,193033,656,254070
26.637,193026,653,254075
26.642,193059,650,254084
26.647,193053,652,254084
26.652,193066,651,254096
26.657,193075,660,254110
26.662,193057,658,254085
26.667,193060,659,254118
26.672,193063,657,254125
26.677,193069,650,254122
26.682,193077,656,254112
26.686,193058,657,254108
26.691,193077,656,254126
26.696,193064,655,254103
26.701,193072,652,254118
26.706,193080,653,254133
26.711,193061,653,254107
26.716,193091,652,254102
26.721,193081,650,254114
26.726,193058,657,254125
26.731,193063,657,254111
26.736,193085,656,254104
26.741,193065,652,254134
26.746,193069,653,254117
26.751,193069,653,254119
26.756,193044,651,254104
26.761,193046,647,254128
26.766,193048,647,254130
26.771,193066,659,254132
26.776,193069,650,254151
26.781,193074,645,254134
26.786,193071,646,254147
26.791,193080,657,254153
26.796,193080,652,254165
26.801,193098,651,254163
26.806,193078,650,254135
26.811,193096,650,254161
26.816,193106,648,254155
26.821,193098,645,254178
26.826,193099,655,254155
26.831,193111,655,254151
26.835,193095,654,254173
26.840,193112,651,254188
26.845,193121,650,254195
26.850,193115,652,254182
26.855,193134,651,254172
26.860,193122,648,254163
26.865,193129,648,254201
26.870,193141,655,254184
26.875,193149,647,254208
26.880,193159,645,254183
26.885,193153,653,254211
26.890,193153,656,254230
26.895,193172,655,254226
26.900,193161,652,254213
26.905,193167,651,254217
26.910,193174,652,254219
26.915,193155,649,254246
26.920,193177,650,254236
26.925,193176,649,254242
26.930,193190,652,254228
26.935,193190,651,254236
26.940,193210,647,254248
26.945,193190,644,254241
26.950,193212,658,254236
26.955,193223,654,254243
26.960,193221,652,254263
26.965,193218,648,254232
26.970,193228,657,254270
26.975,193247,653,254280
26.979,193245,652,254267
26.984,193240,647,254289
26.989,193244,651,254272
26.994,193250,647,254296
26.999,193246,645,254309
27.004,193267,643,254293
27.009,193272,646,254284
27.014,193274,655,254298
27.019,193261,647,254289
27.024,193261,643,254295
27.029,193283,647,254302
27.034,193283,653,254309
27.039,193300,650,254312
27.044,193281,645,254307
27.049,193285,647,254329
27.054,193291,644,254315
27.059,193312,653,254339
27.064,193295,649,254357
27.069,193289,648,254333
27.074,193309,642,254348
27.079,193301,652,254335
27.084,193306,649,254329
27.089,193296,650,254323
27.094,193328,648,254334
27.099,193312,647,254332
27.104,193328,642,254351
27.109,193325,656,254342
27.114,193306,647,254355
27.119,193348,649,254356
27.124,193351,645,254365
27.128,193361,648,254386
27.133,193354,643,254378
27.138,193357,643,254383
27.143,193369,650,254395
27.148,193374,653,254378
27.153,193386,650,254405
27.158,193382,647,254400
27.163,193401,651,254388
27.168,193397,653,254405
27.173,193390,650,254421
27.178,193420,649,254419
27.183,193411,644,254438
27.188,193426,646,254443
27.193,193426,645,254454
27.198,193436,643,254461
27.203,193430,304,254463
27.208,193433,355,254447
27.213,193443,375,254450
27.218,193429,405,254442
27.223,193419,416,254444
27.228,193413,431,254411
27.233,193402,440,254391
27.238,193381,447,254369
27.243,193354,451,254346
27.248,193327,458,254341
27.253,193289,461,254316
27.258,193301,464,254303
27.263,193286,470,254288
27.268,193268,476,254260
27.272,193264,478,254258
27.277,193247,479,254274
27.282,193220,490,254252
27.287,193238,494,254260
27.292,193220,495,254254
27.297,193222,495,254263
27.302,193213,495,254241
27.307,193222,944,254269
27.312,193245,853,254260
27.317,193218,808,254254
27.322,193211,777,254268
27.327,193201,760,254269
27.332,193205,744,254264
27.337,193190,742,254262
27.342,193200,729,254256
27.347,193204,723,254259
27.352,193214,714,254264
27.357,193208,715,254266
27.362,193199,700,254260
27.367,193200,696,254265
27.372,193206,693,254262
27.377,193198,698,254260
27.382,193184,691,254264
27.387,193202,687,254246
27.392,193192,685,254267
27.397,193202,681,254269
27.402,193196,677,254256
27.407,193190,679,254256
27.412,193190,677,254260
27.416,193186,677,254264
27.421,193201,670,254260
27.426,193177,670,254256
27.431,193184,680,254251
27.436,193179,677,254268
27.441,193174,675,254264
27.446,193178,672,254254
27.451,193189,673,254253
27.456,193174,665,254277
27.461,193187,672,254268
27.466,193188,671,254267
27.471,193194,673,254277
27.476,193218,672,254281
27.481,193213,671,254300
27.486,193221,668,254301
27.491,193217,667,254312
27.496,193215,667,254293
27.501,193220,663,254299
27.506,193214,657,254314
27.511,193220,660,254300
27.516,193222,667,254300
27.521,193217,663,254300
27.526,193214,662,254277
27.531,193220,662,254304
27.536,193221,660,254298
27.541,193211,656,254300
27.546,193216,654,254291
27.551,193227,667,254286
27.556,193210,659,254295
27.561,193214,656,254312
27.565,193214,654,254305
27.570,193205,656,254296
27.575,193219,652,254295
27.580,193200,662,254291
27.585,193213,659,254303
27.590,193217,661,254316
27.595,193228,658,254313
27.600,193237,657,254334
27.605,193216,657,254309
27.610,193256,660,254314
27.615,193248,654,254316
27.620,193241,653,254321
27.625,193224,650,254325
27.630,193249,652,254322
27.635,193240,661,254322
27.640,193250,657,254327
27.645,193252,654,254338
27.650,193224,662,254324
27.655,193254,657,254353
27.660,193262,655,254346
27.665,193263,652,254333
27.670,193270,655,254355
27.675,193267,653,254342
27.680,193270,650,254344
27.685,193288,647,254352
27.690,193288,651,254346
27.695,193278,659,254382
27.700,193276,650,254352
27.705,193292,647,254362
27.709,193298,652,254371
27.714,193308,648,254378
27.719,193282,658,254393
27.724,193298,654,254381
27.729,193330,658,254372
27.734,193314,656,254382
27.739,193335,655,254409
27.744,193330,652,254403
27.749,193319,648,254398
27.754,193346,656,254420
27.759,193358,656,254412
27.764,193345,652,254401
27.769,193347,653,254409
27.774,193357,652,254423
27.779,193353,651,254407
27.784,193369,647,254431
27.789,193380,650,254447
27.794,193377,649,254421
27.799,193384,652,254442
27.804,193376,648,254420
27.809,193363,651,254439
27.814,193383,649,254440
27.819,193383,646,254453
27.824,193391,642,254438
27.829,193413,656,254442
27.834,193395,653,254464
27.839,193407,652,254462
27.844,193401,649,254451
27.849,193403,656,254465
27.853,193412,655,254464
27.858,193424,652,254460
27.863,193432,648,254471
27.868,193437,649,254472
27.873,193442,649,254504
27.878,193461,647,254485
27.883,193450,644,254487
27.888,193450,647,254497
27.893,193460,647,254518
27.898,193443,648,254496
27.903,193460,644,254503
27.908,193472,646,254503
27.913,193462,645,254492
27.918,193451,644,254476
27.923,193435,650,254495
27.928,193415,652,254457
27.933,193405,650,254434
27.938,193388,648,254410
27.943,193369,652,254400
27.948,193345,649,254397
27.953,193337,647,254380
27.958,193324,646,254371
27.963,193299,641,254350
27.968,193296,644,254334
27.973,193285,653,254344
27.978,193273,650,254324
27.983,193272,646,254335
27.988,193280,647,254302
27.993,193270,651,254333
27.998,193264,649,254333
28.002,193268,644,254332
28.007,193247,644,254315
28.012,193257,642,254322
28.017,193259,650,254331
28.022,193246,648,254323
28.027,193245,648,254328
28.032,193248,647,254324
28.037,193254,646,254325
28.042,193247,647,254333
28.047,193231,645,254337
28.052,193252,647,254329
28.057,193252,645,254324
28.062,193259,640,254325
28.067,193246,642,254345
28.072,193239,653,254324
28.077,193242,651,254337
28.082,193236,646,254320
28.087,193256,648,254343
28.092,193249,643,254344
28.097,193242,652,254315
28.102,193236,648,254321
28.107,193226,648,254323
28.112,193240,650,254344
28.117,193235,648,254328
28.122,193225,646,254336
28.127,193219,644,254340
28.132,193219,647,254324
28.137,193228,646,254353
28.142,193232,651,254321
28.146,193230,640,254336
28.151,193245,642,254350
28.156,193234,642,254345
28.161,193254,642,254358
28.166,193272,643,254382
28.171,193258,646,254359
28.176,193265,645,254359
28.181,193263,645,254361
28.186,193211,648,254366
28.191,193260,644,254358
28.196,193265,644,254387
28.201,193286,263,254380
28.206,193259,338,254388
28.211,193256,373,254365
28.216,193272,394,254391
28.221,193244,412,254384
28.226,193243,427,254366
28.231,193269,429,254385
28.236,193267,446,254381
28.241,193254,450,254387
28.246,193249,456,254361
28.251,193265,469,254371
28.256,193266,473,254393
28.261,193273,467,254384
28.266,193262,470,254371
28.271,193265,479,254378
28.276,193258,481,254365
28.281,193256,485,254378
28.286,193270,490,254381
28.291,193274,495,254377
28.295,193294,495,254389
28.300,193301,497,254395
28.305,193279,1093,254383
28.310,193279,873,254399
28.315,193305,815,254403
28.320,193297,783,254400
28.325,193321,758,254423
28.330,193310,757,254429
28.335,193307,738,254436
28.340,193314,729,254432
28.345,193324,717,254446
28.350,193330,716,254431
28.355,193325,707,254457
28.360,193333,701,254454
28.365,193349,693,254457
28.370,193344,694,254458
28.375,193359,699,254466
28.380,193365,694,254454
28.385,193371,683,254468
28.390,193352,683,254472
28.395,193363,688,254488
28.400,193371,685,254489
28.405,193369,680,254487
28.410,193369,681,254492
28.415,193400,676,254494
28.420,193390,674,254509
28.425,193401,669,254520
28.430,193393,682,254512
28.435,193406,671,254517
28.439,193425,668,254514
28.444,193408,663,254514
28.449,193418,666,254520
28.454,193419,663,254531
28.459,193431,671,254533
28.464,193431,666,254552
28.469,193445,670,254573
28.474,193448,666,254537
28.479,193450,668,254558
28.484,193452,665,254531
28.489,193465,667,254559
28.494,193486,664,254566
28.499,193473,663,254574
28.504,193457,658,254590
28.509,193471,659,254582
28.514,193476,656,254594
28.519,193480,665,254585
28.524,193484,660,254580
28.529,193489,655,254576
28.534,193513,662,254575
28.539,193491,661,254582
28.544,193508,655,254618
28.549,193498,656,254602
28.554,193527,654,254611
28.559,193531,652,254604
28.564,193533,659,254623
28.569,193523,661,254620
28.574,193538,660,254641
28.579,193540,652,254622
28.583,193547,647,254623
28.588,193549,660,254636
28.593,193556,657,254635
28.598,193541,656,254613
28.603,193540,650,254617
28.608,193507,654,254602
28.613,193503,652,254560
28.618,193470,648,254578
28.623,193462,643,254557
28.628,193450,656,254533
28.633,193431,654,254515
28.638,193421,650,254529
28.643,193397,646,254506
28.648,193380,647,254502
28.653,193404,658,254510
28.658,193363,657,254508
28.663,193357,651,254477
28.668,193372,653,254512
28.673,193352,653,254465
28.678,193363,649,254492
28.683,193365,644,254508
28.688,193361,647,254504
28.693,193364,646,254543
28.698,193359,656,254520
28.703,193356,653,254531
28.708,193366,654,254530
28.713,193365,654,254535
28.718,193366,650,254538
28.723,193404,649,254551
28.728,193352,652,254538
28.732,193360,651,254549
28.737,193369,649,254556
28.742,193385,644,254591
28.747,193361,644,254547
28.752,193367,655,254574
28.757,193380,653,254581
28.762,193364,648,254570
28.767,193356,647,254597
28.772,193361,651,254579
28.777,193382,650,254573
28.782,193361,646,254594
28.787,193361,646,254574
28.792,193370,645,254555
28.797,193353,643,254585
28.802,193376,652,254577
28.807,193362,649,254583
28.812,193367,650,254594
28.817,193371,647,254578
28.822,193389,634,254592
28.827,193359,643,254599
28.832,193389,654,254600
28.837,193369,650,254621
28.842,193366,648,254625
28.847,193381,646,254631
28.852,193414,648,254648
28.857,193401,645,254668
28.862,193414,641,254662
28.867,193416,659,254665
28.872,193417,646,254679
28.876,193427,644,254665
28.881,193437,641,254694
28.886,193427,651,254688
28.891,193422,654,254696
28.896,193418,650,254677
28.901,193426,648,254686
28.906,193430,645,254670
28.911,193432,648,254668
28.916,193429,645,254685
28.921,193425,641,254691
28.926,193425,640,254704
28.931,193424,653,254698
28.936,193443,648,254693
28.941,193437,647,254710
28.946,193425,644,254697
28.951,193421,647,254702
28.956,193435,643,254707
28.961,193436,641,254706
28.966,193435,641,254692
28.971,193437,645,254702
28.976,193448,640,254709
28.981,193448,650,254726
28.986,193456,647,254741
28.991,193446,651,254725
28.996,193459,647,254732
29.001,193459,645,254734
29.006,193457,642,254745
29.011,193477,645,254738
29.016,193480,645,254739
29.021,193471,642,254775
29.025,193493,640,254755
29.030,193482,643,254750
29.035,193486,638,254771
29.040,193504,649,254772
29.045,193482,643,254757
29.050,193498,647,254785
29.055,193518,643,254788
29.060,193504,639,254803
29.065,193508,640,254791
29.070,193508,643,254804
29.075,193531,649,254770
29.080,193522,647,254797
29.085,193528,642,254804
29.090,193535,645,254816
29.095,193538,641,254812
29.100,193542,639,254812
29.105,193546,646,254836
29.110,193564,647,254824
29.115,193538,639,254835
29.120,193562,649,254834
29.125,193559,643,254848
29.130,193568,645,254845
29.135,193587,640,254844
29.140,193577,639,254862
29.145,193592,647,254837
29.150,193582,648,254863
29.155,193592,645,254875
29.160,193586,642,254868
29.165,193592,642,254873
29.169,193590,645,254864
29.174,193614,643,254873
29.179,193601,641,254872
29.184,193605,636,254880
29.189,193614,650,254891
29.194,193626,646,254895
29.199,193607,644,254899
29.204,193617,314,254882
29.209,193617,357,254874
29.214,193622,385,254897
29.219,193623,400,254887
29.224,193632,412,254904
29.229,193631,423,254897
29.234,193638,430,254918
29.239,193647,449,254907
29.244,193639,452,254919
29.249,193655,458,254918
29.254,193659,461,254918
29.259,193623,460,254915
29.264,193669,471,254911
29.269,193675,477,254928
29.274,193675,478,254947
29.279,193692,480,254955
29.284,193690,491,254947
29.289,193692,494,254968
29.294,193696,495,254949
29.299,193704,495,254962
29.304,193692,494,254958
29.309,193712,507,254953
29.313,193685,889,254936
29.318,193661,826,254928
29.323,193660,788,254883
29.328,193642,766,254873
29.333,193613,749,254858
29.338,193594,735,254861
29.343,193590,722,254823
29.348,193545,723,254813
29.353,193552,715,254820
29.358,193542,712,254810
29.363,193544,702,254793
29.368,193515,698,254800
29.373,193506,694,254797
29.378,193501,688,254762
29.383,193498,681,254775
29.388,193479,689,254764
29.393,193494,686,254772
29.398,193479,684,254774
29.403,193484,675,254769
29.408,193476,678,254775
29.413,193496,675,254762
29.418,193489,673,254777
29.423,193478,670,254774
29.428,193468,667,254764
29.433,193474,667,254782
29.438,193477,674,254782
29.443,193470,671,254759
29.448,193445,669,254775
29.453,193492,670,254769
29.458,193470,661,254762
29.462,193464,657,254764
29.467,193454,667,254760
29.472,193463,666,254764
29.477,193454,664,254740
29.482,193463,661,254756
29.487,193443,661,254742
29.492,193450,661,254740
29.497,193430,658,254741
29.502,193420,662,254745
29.507,193428,657,254740
29.512,193417,657,254743
29.517,193427,656,254749
29.522,193427,652,254739
29.527,193409,650,254746
29.532,193415,663,254741
29.537,193423,659,254754
29.542,193418,656,254737
29.547,193433,653,254743
