df_hash,22ZHK4.YBNJA6
device,HZ2X61
project_hash,29R7
project_name,istanbul_aydin_university
person_hash,29R7.V8T1
person_label,V73
date_time_start,2025-11-03_13-10-52.149000_+03
date_time_start_unix,1762161052.149
date_time_end,2025-11-03_13-19-39.096000_+03
length_difference_noticed,no

time,ppg_med
5.685,730
5.710,838
5.735,1011
5.760,1105
5.785,1070
5.810,1033
5.835,1133
5.860,1316
5.885,1387
5.910,1276
5.935,1158
5.960,1221
5.985,1390
6.010,1401
6.035,1162
6.060,907
6.085,893
6.110,1019
6.135,928
6.160,500
6.185,52
6.210,-76
6.235,-19
6.260,-247
6.285,-915
6.310,-1603
6.335,-1866
6.360,-1880
6.385,-2253
6.410,-3185
6.435,-4128
6.460,-4507
6.485,-4547
6.510,-5030
6.535,-6205
6.560,-7371
6.585,-7791
6.610,-7755
6.635,-8252
6.660,-9593
6.685,-10888
6.710,-11211
6.735,-10927
6.760,-11276
6.785,-12649
6.810,-13926
6.835,-13949
6.860,-13178
6.885,-13162
6.910,-14387
6.935,-15459
6.960,-14933
6.985,-13384
7.010,-12748
7.035,-13633
7.060,-14304
7.085,-12958
7.110,-10315
7.135,-8801
7.160,-9183
7.185,-9295
7.210,-6872
7.235,-2818
7.260,-198
7.285,-2
7.310,507
7.335,4220
7.360,9993
7.385,13882
7.410,14572
7.435,15599
7.460,20757
7.485,28585
7.510,32767
7.535,32767
7.560,32767
7.585,32767
7.610,32767
7.635,32767
7.660,32767
7.685,32767
7.710,32767
7.735,32767
7.760,32767
7.785,32767
7.810,32767
7.835,32767
7.860,32767
7.885,32767
7.910,32767
7.935,20493
7.960,-32768
7.985,-32768
8.010,-32768
8.035,-32768
8.060,-32768
8.085,-32768
8.110,-32768
8.135,-32768
8.160,-32768
8.185,-32768
8.210,-32768
8.235,-32768
8.260,-32768
8.285,-32768
8.310,-32768
8.335,-32768
8.360,-32768
8.385,-31429
8.410,-24079
8.435,-17362
8.460,-14916
8.485,-14681
8.510,-12209
8.535,-6732
8.560,-1789
8.585,-164
8.610,-311
8.635,1200
8.660,5014
8.685,8415
8.710,9226
8.735,8637
8.760,9338
8.785,11853
8.810,14056
8.835,14213
8.860,13225
8.885,13182
8.910,14486
8.935,15494
8.960,14934
8.985,13617
9.010,13216
9.035,13962
9.060,14426
9.085,13544
9.110,12009
9.135,11238
9.160,11458
9.185,11513
9.210,10519
9.235,9023
9.260,8179
9.285,8178
9.310,8083
9.335,7159
9.360,5825
9.385,5007
9.410,4883
9.435,4719
9.460,3917
9.485,2787
9.510,2066
9.535,1927
9.560,1827
9.585,1300
9.610,549
9.635,100
9.660,67
9.685,51
9.710,-274
9.735,-737
9.760,-948
9.785,-846
9.810,-753
9.835,-915
9.860,-1178
9.885,-1228
9.910,-1018
9.935,-807
9.960,-805
9.985,-918
10.010,-910
10.035,-723
10.060,-522
10.085,-449
10.110,-440
10.135,-344
10.160,-149
10.185,-2
10.210,-11
10.235,-110
10.260,-152
10.285,-90
10.310,-19
10.335,-28
10.360,-86
10.385,-91
10.410,-4
10.435,115
10.460,206
10.485,291
10.510,405
10.535,490
10.560,553
10.585,599
10.610,644
10.635,698
10.660,752
10.685,784
10.710,788
10.735,789
10.760,817
10.785,878
10.810,938
10.835,955
10.860,909
10.885,806
10.910,642
10.935,396
10.960,59
10.985,-316
11.010,-626
11.035,-772
11.060,-735
11.085,-578
11.110,-390
11.135,-228
11.160,-105
11.185,-23
11.210,11
11.235,0
11.260,-33
11.285,-50
11.310,-34
11.335,-2
11.360,10
11.385,-4
11.410,-29
11.435,-43
11.460,-45
11.485,-49
11.510,-56
11.535,-53
11.560,-28
11.585,10
11.610,42
11.635,61
11.660,90
11.685,161
11.710,291
11.735,462
11.760,634
11.785,756
11.810,793
11.835,730
11.860,590
11.885,431
11.910,327
11.935,326
11.960,425
11.985,572
12.010,700
12.035,767
12.060,767
12.085,720
12.110,647
12.135,570
12.160,502
12.185,455
12.210,424
12.235,393
12.260,342
12.285,261
12.310,161
12.335,62
12.360,-18
12.385,-77
12.410,-116
12.435,-134
12.460,-125
12.485,-83
12.510,-12
12.535,72
12.560,154
12.585,227
12.610,297
12.635,371
12.660,437
12.685,458
12.710,400
12.735,269
12.760,118
12.785,16
12.810,-9
12.835,6
12.860,11
12.885,-2
12.910,11
12.935,99
12.960,239
12.985,343
13.010,342
13.035,250
13.060,153
13.085,123
13.110,153
13.135,184
13.160,185
13.185,184
13.210,213
13.235,254
13.260,244
13.285,160
13.310,62
13.335,51
13.360,166
13.385,354
13.410,530
13.435,666
13.460,792
13.485,931
13.510,1053
13.535,1107
13.560,1102
13.585,1108
13.610,1183
13.635,1304
13.660,1393
13.685,1401
13.710,1358
13.735,1323
13.760,1297
13.785,1216
13.810,1023
13.835,744
13.860,460
13.885,230
13.910,45
13.935,-133
13.960,-305
13.985,-428
14.010,-476
14.035,-479
14.060,-495
14.085,-529
14.110,-531
14.135,-453
14.160,-325
14.185,-239
14.210,-257
14.235,-344
14.260,-405
14.285,-378
14.310,-293
14.335,-216
14.360,-173
14.385,-119
14.410,-10
14.435,123
14.460,190
14.485,131
14.510,-7
14.535,-98
14.560,-43
14.585,144
14.610,354
14.635,476
14.660,487
14.685,438
14.710,396
14.735,384
14.760,383
14.785,375
14.810,360
14.835,351
14.860,351
14.885,348
14.910,335
14.935,316
14.960,304
14.985,307
15.010,326
15.035,359
15.060,407
15.085,465
15.110,521
15.135,563
15.160,587
15.185,600
15.210,611
15.235,621
15.260,619
15.285,604
15.310,578
15.335,551
15.360,530
15.385,512
15.410,495
15.435,475
15.460,448
15.485,407
15.510,351
15.535,289
15.560,233
15.585,185
15.610,137
15.635,78
15.660,12
15.685,-49
15.710,-99
15.735,-142
15.760,-191
15.785,-233
15.810,-239
15.835,-182
15.860,-76
15.885,33
15.910,105
15.935,134
15.960,148
15.985,173
16.010,202
16.035,215
16.060,205
16.085,193
16.110,204
16.135,239
16.160,278
16.185,298
16.210,293
16.235,268
16.260,229
16.285,182
16.310,137
16.335,111
16.360,110
16.385,123
16.410,137
16.435,161
16.460,215
16.485,310
16.510,423
16.535,520
16.560,587
16.585,643
16.610,697
16.635,727
16.660,705
16.685,651
16.710,646
16.735,774
16.760,1036
16.785,1344
16.810,1589
16.835,1710
16.860,1715
16.885,1629
16.910,1484
16.935,1330
16.960,1242
16.985,1257
17.010,1297
17.035,1187
17.060,788
17.085,133
17.110,-569
17.135,-1095
17.160,-1349
17.185,-1392
17.210,-1336
17.235,-1253
17.260,-1167
17.285,-1099
17.310,-1070
17.335,-1056
17.360,-991
17.385,-828
17.410,-604
17.435,-421
17.460,-335
17.485,-294
17.510,-193
17.535,5
17.560,234
17.585,397
17.610,472
17.635,518
17.660,595
17.685,694
17.710,758
17.735,768
17.760,760
17.785,787
17.810,853
17.835,917
17.860,946
17.885,939
17.910,918
17.935,892
17.960,859
17.985,827
18.010,813
18.035,819
18.060,818
18.085,775
18.110,693
18.135,613
18.160,575
18.185,578
18.210,583
18.235,555
18.260,489
18.285,405
18.310,320
18.335,238
18.360,162
18.385,94
18.410,36
18.435,-11
18.460,-48
18.485,-64
18.510,-60
18.535,-52
18.560,-67
18.585,-103
18.610,-121
18.635,-81
18.660,6
18.685,74
18.710,59
18.735,-32
18.760,-133
18.785,-176
18.810,-161
18.835,-140
18.860,-147
18.885,-156
18.910,-104
18.935,38
18.960,235
18.985,412
19.010,509
19.035,514
19.060,454
19.085,364
19.110,280
19.135,230
19.160,221
19.185,239
19.210,251
19.235,236
19.260,197
19.285,149
19.310,103
19.335,59
19.360,18
19.385,-1
19.410,22
19.435,99
19.460,211
19.485,329
19.510,431
19.535,509
19.560,565
19.585,601
19.610,621
19.635,635
19.660,654
19.685,679
19.710,701
19.735,710
19.760,704
19.785,690
19.810,676
19.835,659
19.860,638
19.885,620
19.910,613
19.935,617
19.960,613
19.985,581
20.010,517
20.035,439
20.060,371
20.085,323
20.110,283
20.135,236
20.160,180
20.185,130
20.210,102
20.235,101
20.260,119
20.285,147
20.310,182
20.335,223
20.360,260
20.385,276
20.410,261
20.435,221
20.460,182
20.485,168
20.510,185
20.535,219
20.560,248
20.585,261
20.610,264
20.635,265
20.660,260
20.685,235
20.710,185
20.735,124
20.760,76
20.785,56
20.810,54
20.835,48
20.860,22
20.885,-14
20.910,-46
20.935,-64
20.960,-75
20.985,-88
21.010,-107
21.035,-126
21.060,-142
21.085,-148
21.110,-133
21.135,-82
21.160,6
21.185,112
21.210,205
21.235,272
21.260,332
21.285,413
21.310,522
21.335,628
21.360,692
21.385,708
21.410,707
21.435,720
21.460,750
21.485,769
21.510,760
21.535,730
21.560,697
21.585,661
21.610,603
21.635,514
21.660,423
21.685,376
21.710,391
21.735,436
21.760,459
21.785,428
21.810,356
21.835,275
21.860,202
21.885,137
21.910,79
21.935,36
21.960,22
21.985,33
22.010,55
22.035,75
22.060,97
22.085,129
22.110,169
22.135,201
22.160,216
22.185,219
22.210,223
22.235,229
22.260,227
22.285,210
22.310,193
22.335,198
22.360,230
22.385,270
22.410,288
22.435,274
22.460,246
22.485,227
22.510,226
22.535,231
22.560,228
22.585,212
22.610,188
22.635,159
22.660,120
22.685,73
22.710,27
22.735,-3
22.760,-12
22.785,-1
22.810,29
22.835,93
22.860,194
22.885,321
22.910,441
22.935,524
22.960,566
22.985,585
23.010,605
23.035,626
23.060,630
23.085,609
23.110,574
23.135,552
23.160,556
23.185,573
23.210,580
23.235,567
23.260,540
23.285,509
23.310,471
23.335,419
23.360,353
23.385,289
23.410,247
23.435,230
23.460,218
23.485,193
23.510,149
23.535,99
23.560,57
23.585,23
23.610,-14
23.635,-59
23.660,-99
23.685,-110
23.710,-82
23.735,-22
23.760,47
23.785,110
23.810,162
23.835,210
23.860,255
23.885,295
23.910,323
23.935,339
23.960,350
23.985,357
24.010,362
24.035,369
24.060,387
24.085,427
24.110,481
24.135,529
24.160,549
24.185,544
24.210,538
24.235,543
24.260,538
24.285,484
24.310,360
24.335,196
24.360,54
24.385,-18
24.410,-24
24.435,-6
24.460,-1
24.485,-14
24.510,-25
24.535,-17
24.560,10
24.585,52
24.610,108
24.635,178
24.660,256
24.685,330
24.710,393
24.735,452
24.760,516
24.785,581
24.810,630
24.835,650
24.860,650
24.885,650
24.910,660
24.935,665
24.960,638
24.985,568
25.010,458
25.035,322
25.060,165
25.085,-7
25.110,-168
25.135,-274
25.160,-289
25.185,-216
25.210,-101
25.235,-2
25.260,52
25.285,70
25.310,73
25.335,72
25.360,59
25.385,29
25.410,-4
25.435,-21
25.460,-4
25.485,45
25.510,114
25.535,193
25.560,277
25.585,362
25.610,439
25.635,496
25.660,534
25.685,559
25.710,579
25.735,592
25.760,589
25.785,577
25.810,572
25.835,588
25.860,623
25.885,655
25.910,667
25.935,662
25.960,655
25.985,656
26.010,655
26.035,638
26.060,600
26.085,547
26.110,489
26.135,420
26.160,333
26.185,234
26.210,141
26.235,74
26.260,31
26.285,-5
26.310,-51
26.335,-108
26.360,-162
26.385,-203
26.410,-228
26.435,-233
26.460,-209
26.485,-152
26.510,-74
26.535,4
26.560,64
26.585,110
26.610,156
26.635,210
26.660,262
26.685,293
26.710,297
26.735,288
26.760,289
26.785,311
26.810,348
26.835,385
26.860,413
26.885,427
26.910,428
26.935,414
26.960,393
26.985,373
27.010,368
27.035,385
27.060,421
27.085,466
27.110,512
27.135,550
27.160,566
27.185,549
27.210,497
27.235,428
27.260,372
27.285,352
27.310,370
27.335,403
27.360,423
27.385,417
27.410,389
27.435,351
27.460,309
27.485,269
27.510,233
27.535,205
27.560,184
27.585,158
27.610,117
27.635,62
27.660,10
27.685,-25
27.710,-41
27.735,-49
27.760,-61
27.785,-75
27.810,-81
27.835,-68
27.860,-38
27.885,3
27.910,51
27.935,107
27.960,168
27.985,226
28.010,276
28.035,319
28.060,361
28.085,404
28.110,444
28.135,476
28.160,502
28.185,523
28.210,538
28.235,542
28.260,533
28.285,520
28.310,506
28.335,483
28.360,440
28.385,382
28.410,339
28.435,346
28.460,398
28.485,449
28.510,444
28.535,382
28.560,312
28.585,291
28.610,320
28.635,347
28.660,316
28.685,227
28.710,132
28.735,82
28.760,79
28.785,76
28.810,35
28.835,-38
28.860,-102
28.885,-119
28.910,-80
28.935,-7
28.960,75
28.985,152
29.010,218
29.035,270
29.060,310
29.085,344
29.110,381
29.135,419
29.160,450
29.185,469
29.210,481
29.235,496
29.260,520
29.285,545
29.310,553
29.335,539
29.360,514
29.385,497
29.410,495
29.435,502
29.460,501
29.485,484
29.510,454
29.535,416
29.560,371
29.585,317
29.610,251
29.635,185
29.660,136
29.685,116
29.710,116
29.735,112
29.760,80
29.785,22
29.810,-37
29.835,-71
29.860,-73
29.885,-66
29.910,-79
29.935,-117
29.960,-157
29.985,-159
30.010,-104
30.035,-1
30.060,117
30.085,223
30.110,304
30.135,360
30.160,399
30.185,428
30.210,448
30.235,456
30.260,453
30.285,443
30.310,441
30.335,458
30.360,496
30.385,540
30.410,567
30.435,567
30.460,545
30.485,521
30.510,504
30.535,493
30.560,478
30.585,455
30.610,430
30.635,411
30.660,401
30.685,392
30.710,378
30.735,357
30.760,328
30.785,294
30.810,256
30.835,212
30.860,163
30.885,110
30.910,61
30.935,26
30.960,10
30.985,4
31.010,-7
31.035,-37
31.060,-72
31.085,-83
31.110,-43
31.135,39
31.160,135
31.185,208
31.210,249
31.235,273
31.260,298
31.285,324
31.310,341
31.335,341
31.360,332
31.385,333
31.410,349
31.435,375
31.460,401
31.485,421
31.510,437
31.535,449
31.560,454
31.585,449
31.610,438
31.635,431
31.660,435
31.685,442
31.710,434
31.735,400
31.760,345
31.785,289
31.810,252
31.835,238
31.860,235
31.885,225
31.910,200
31.935,168
31.960,141
31.985,126
32.010,114
32.035,92
32.060,58
32.085,26
32.110,20
32.135,54
32.160,119
32.185,187
32.210,233
32.235,250
32.260,251
32.285,255
32.310,269
32.335,284
32.360,287
32.385,283
32.410,288
32.435,322
32.460,384
32.485,454
32.510,508
32.535,533
32.560,533
32.585,520
32.610,505
32.635,497
32.660,498
32.685,506
32.710,511
32.735,506
32.760,489
32.785,468
32.810,455
32.835,453
32.860,454
32.885,445
32.910,422
32.935,388
32.960,350
32.985,318
33.010,309
33.035,336
33.060,400
33.085,479
33.110,538
33.135,551
33.160,524
33.185,474
33.210,413
33.235,329
33.260,210
33.285,64
33.310,-78
33.335,-185
33.360,-249
33.385,-285
33.410,-310
33.435,-328
33.460,-329
33.485,-312
33.510,-286
33.535,-267
33.560,-260
33.585,-262
33.610,-267
33.635,-269
33.660,-270
33.685,-273
33.710,-277
33.735,-275
33.760,-251
33.785,-185
33.810,-75
33.835,61
33.860,191
33.885,297
33.910,385
33.935,479
33.960,588
33.985,695
34.010,767
34.035,791
34.060,782
34.085,775
34.110,795
34.135,845
34.160,908
34.185,969
34.210,1015
34.235,1043
34.260,1054
34.285,1058
34.310,1058
34.335,1047
34.360,1005
34.385,924
34.410,810
34.435,687
34.460,572
34.485,467
34.510,366
34.535,266
34.560,171
34.585,83
34.610,-10
34.635,-121
34.660,-241
34.685,-337
34.710,-380
34.735,-365
34.760,-318
34.785,-268
34.810,-221
34.835,-166
34.860,-90
34.885,0
34.910,88
34.935,156
34.960,197
34.985,209
35.010,187
35.035,130
35.060,51
35.085,-30
35.110,-92
35.135,-126
35.160,-134
35.185,-118
35.210,-77
35.235,-9
35.260,81
35.285,187
35.310,297
35.335,405
35.360,504
35.385,579
35.410,607
35.435,573
35.460,482
35.485,366
35.510,267
35.535,209
35.560,190
35.585,190
35.610,202
35.635,234
35.660,302
35.685,404
35.710,512
35.735,591
35.760,628
35.785,640
35.810,657
35.835,691
35.860,734
35.885,769
35.910,791
35.935,805
35.960,818
35.985,820
36.010,801
36.035,761
36.060,718
36.085,690
36.110,677
36.135,662
36.160,621
36.185,538
36.210,412
36.235,247
36.260,56
36.285,-137
36.310,-306
36.335,-429
36.360,-508
36.385,-561
36.410,-605
36.435,-639
36.460,-644
36.485,-605
36.510,-523
36.535,-418
36.560,-313
36.585,-214
36.610,-116
36.635,-13
36.660,91
36.685,186
36.710,260
36.735,310
36.760,343
36.785,372
36.810,406
36.835,450
36.860,497
36.885,541
36.910,574
36.935,596
36.960,611
36.985,624
37.010,636
37.035,645
37.060,648
37.085,645
37.110,639
37.135,631
37.160,625
37.185,618
37.210,605
37.235,584
37.260,552
37.285,506
37.310,452
37.335,395
37.360,342
37.385,295
37.410,252
37.435,204
37.460,147
37.485,85
37.510,23
37.535,-30
37.560,-77
37.585,-119
37.610,-154
37.635,-170
37.660,-160
37.685,-125
37.710,-78
37.735,-32
37.760,8
37.785,53
37.810,112
37.835,180
37.860,241
37.885,281
37.910,299
37.935,312
37.960,336
37.985,378
38.010,427
38.035,466
38.060,487
38.085,491
38.110,492
38.135,498
38.160,509
38.185,516
38.210,508
38.235,486
38.260,458
38.285,436
38.310,420
38.335,405
38.360,384
38.385,357
38.410,331
38.435,303
38.460,267
38.485,219
38.510,171
38.535,143
38.560,141
38.585,140
38.610,103
38.635,15
38.660,-92
38.685,-156
38.710,-131
38.735,-21
38.760,115
38.785,221
38.810,269
38.835,280
38.860,287
38.885,314
38.910,355
38.935,399
38.960,435
38.985,466
39.010,495
39.035,520
39.060,540
39.085,553
39.110,560
39.135,563
39.160,558
39.185,536
39.210,498
39.235,454
39.260,420
39.285,398
39.310,377
39.335,342
39.360,290
39.385,236
39.410,196
39.435,169
39.460,139
39.485,85
39.510,9
39.535,-71
39.560,-138
39.585,-189
39.610,-232
39.635,-266
39.660,-270
39.685,-221
39.710,-116
39.735,22
39.760,158
39.785,269
39.810,353
39.835,424
39.860,492
39.885,555
39.910,602
39.935,622
39.960,608
39.985,565
40.010,510
40.035,468
40.060,451
40.085,460
40.110,478
40.135,490
40.160,489
40.185,478
40.210,462
40.235,440
40.260,414
40.285,388
40.310,366
40.335,347
40.360,324
40.385,294
40.410,263
40.435,240
40.460,222
40.485,197
40.510,157
40.535,108
40.560,66
40.585,41
40.610,21
40.635,-12
40.660,-67
40.685,-132
40.710,-179
40.735,-190
40.760,-159
40.785,-98
40.810,-22
40.835,54
40.860,125
40.885,186
40.910,244
40.935,304
40.960,364
40.985,412
41.010,439
41.035,450
41.060,458
41.085,480
41.110,515
41.135,548
41.160,566
41.185,568
41.210,561
41.235,554
41.260,547
41.285,538
41.310,528
41.335,517
41.360,508
41.385,494
41.410,473
41.435,445
41.460,413
41.485,384
41.510,358
41.535,333
41.560,307
41.585,274
41.610,231
41.635,181
41.660,129
41.685,81
41.710,36
41.735,-14
41.760,-76
41.785,-136
41.810,-170
41.835,-160
41.860,-106
41.885,-29
41.910,46
41.935,108
41.960,157
41.985,199
42.010,240
42.035,278
42.060,313
42.085,344
42.110,368
42.135,384
42.160,399
42.185,420
42.210,451
42.235,485
42.260,505
42.285,504
42.310,488
42.335,471
42.360,463
42.385,460
42.410,453
42.435,439
42.460,427
42.485,422
42.510,425
42.535,424
42.560,410
42.585,376
42.610,327
42.635,270
42.660,216
42.685,172
42.710,143
42.735,120
42.760,92
42.785,47
42.810,-16
42.835,-87
42.860,-146
42.885,-174
42.910,-158
42.935,-98
42.960,-9
42.985,83
43.010,156
43.035,203
43.060,235
43.085,269
43.110,313
43.135,360
43.160,395
43.185,419
43.210,442
43.235,476
43.260,519
43.285,555
43.310,571
43.335,564
43.360,541
43.385,509
43.410,473
43.435,437
43.460,409
43.485,397
43.510,400
43.535,408
43.560,406
43.585,388
43.610,360
43.635,333
43.660,314
43.685,299
43.710,278
43.735,244
43.760,199
43.785,150
43.810,108
43.835,72
43.860,37
43.885,-5
43.910,-53
43.935,-90
43.960,-92
43.985,-49
44.010,30
44.035,120
44.060,195
44.085,246
44.110,280
44.135,307
44.160,331
44.185,350
44.210,363
44.235,373
44.260,386
44.285,402
44.310,421
44.335,440
44.360,458
44.385,469
44.410,466
44.435,443
44.460,405
44.485,365
44.510,335
44.535,312
44.560,284
44.585,241
44.610,190
44.635,149
44.660,129
44.685,125
44.710,121
44.735,105
44.760,78
44.785,51
44.810,37
44.835,44
44.860,73
44.885,120
44.910,174
44.935,226
44.960,268
44.985,302
45.010,332
45.035,362
45.060,385
45.085,397
45.110,398
45.135,398
45.160,407
45.185,423
45.210,437
45.235,442
45.260,437
45.285,429
45.310,415
45.335,392
45.360,356
45.385,311
45.410,269
45.435,236
45.460,210
45.485,186
45.510,162
45.535,139
45.560,117
45.585,92
45.610,66
45.635,45
45.660,45
45.685,76
45.710,137
45.735,217
45.760,305
45.785,388
45.810,459
45.835,510
45.860,536
45.885,535
45.910,515
45.935,483
45.960,449
45.985,422
46.010,410
46.035,416
46.060,431
46.085,441
46.110,437
46.135,422
46.160,409
46.185,402
46.210,397
46.235,381
46.260,352
46.285,317
46.310,284
46.335,256
46.360,224
46.385,187
46.410,145
46.435,107
46.460,71
46.485,32
46.510,-10
46.535,-55
46.560,-96
46.585,-136
46.610,-180
46.635,-224
46.660,-252
46.685,-239
46.710,-179
46.735,-89
46.760,3
46.785,81
46.810,147
46.835,213
46.860,285
46.885,356
46.910,412
46.935,447
46.960,467
46.985,483
47.010,504
47.035,531
47.060,557
47.085,575
47.110,576
47.135,562
47.160,541
47.185,524
47.210,516
47.235,512
47.260,504
47.285,491
47.310,476
47.335,462
47.360,450
47.385,437
47.410,432
47.435,445
47.460,483
47.485,531
47.510,561
47.535,547
47.560,487
47.585,404
47.610,325
47.635,260
47.660,204
47.685,143
47.710,75
47.735,7
47.760,-49
47.785,-91
47.810,-127
47.835,-168
47.860,-220
47.885,-278
47.910,-320
47.935,-325
47.960,-281
47.985,-195
48.010,-94
48.035,-2
48.060,72
48.085,137
48.110,207
48.135,284
48.160,357
48.185,410
48.210,439
48.235,453
48.260,470
48.285,501
48.310,540
48.335,572
48.360,585
48.385,577
48.410,562
48.435,553
48.460,556
48.485,564
48.510,565
48.535,555
48.560,539
48.585,522
48.610,506
48.635,486
48.660,460
48.685,434
48.710,415
48.735,402
48.760,386
48.785,360
48.810,330
48.835,304
48.860,284
48.885,263
48.910,233
48.935,194
48.960,152
48.985,114
49.010,78
49.035,37
49.060,-7
49.085,-48
49.110,-79
49.135,-103
49.160,-130
49.185,-165
49.210,-196
49.235,-202
49.260,-173
49.285,-112
49.310,-36
49.335,39
49.360,108
49.385,172
49.410,231
49.435,285
49.460,331
49.485,368
49.510,396
49.535,420
49.560,445
49.585,471
49.610,497
49.635,519
49.660,536
49.685,547
49.710,554
49.735,555
49.760,549
49.785,537
49.810,523
49.835,508
49.860,494
49.885,478
49.910,458
49.935,436
49.960,415
49.985,397
50.010,381
50.035,366
50.060,350
50.085,328
50.110,300
50.135,268
50.160,237
50.185,214
50.210,198
50.235,182
50.260,157
50.285,126
50.310,96
50.335,73
50.360,50
50.385,15
50.410,-31
50.435,-72
50.460,-78
50.485,-33
50.510,49
50.535,143
50.560,223
50.585,279
50.610,314
50.635,334
50.660,346
50.685,352
50.710,360
50.735,376
50.760,403
50.785,437
50.810,474
50.835,506
50.860,524
50.885,522
50.910,499
50.935,461
50.960,422
50.985,392
51.010,371
51.035,353
51.060,337
51.085,322
51.110,312
51.135,304
51.160,290
51.185,265
51.210,232
51.235,201
51.260,175
51.285,148
51.310,112
51.335,66
51.360,17
51.385,-22
51.410,-48
51.435,-59
51.460,-57
51.485,-38
51.510,3
51.535,63
51.560,131
51.585,196
51.610,252
51.635,301
51.660,343
51.685,376
51.710,396
51.735,407
51.760,419
51.785,438
51.810,460
51.835,475
51.860,477
51.885,467
51.910,454
51.935,444
51.960,434
51.985,417
52.010,393
52.035,365
52.060,335
52.085,306
52.110,279
52.135,257
52.160,238
52.185,217
52.210,185
52.235,137
52.260,79
52.285,22
52.310,-23
52.335,-48
52.360,-47
52.385,-14
52.410,45
52.435,119
52.460,189
52.485,243
52.510,281
52.535,317
52.560,356
52.585,395
52.610,424
52.635,442
52.660,453
52.685,468
52.710,490
52.735,515
52.760,534
52.785,545
52.810,549
52.835,548
52.860,541
52.885,527
52.910,506
52.935,480
52.960,450
52.985,420
53.010,390
53.035,362
53.060,332
53.085,299
53.110,264
53.135,228
53.160,194
53.185,160
53.210,122
53.235,79
53.260,35
53.285,-5
53.310,-42
53.335,-83
53.360,-134
53.385,-192
53.410,-238
53.435,-249
53.460,-213
53.485,-136
53.510,-40
53.535,51
53.560,127
53.585,192
53.610,255
53.635,323
53.660,394
53.685,459
53.710,509
53.735,543
53.760,563
53.785,577
53.810,586
53.835,591
53.860,591
53.885,583
53.910,566
53.935,543
53.960,517
53.985,494
54.010,477
54.035,464
54.060,449
54.085,429
54.110,408
54.135,388
54.160,369
54.185,348
54.210,322
54.235,293
54.260,268
54.285,249
54.310,231
54.335,204
54.360,168
54.385,128
54.410,92
54.435,61
54.460,25
54.485,-23
54.510,-78
54.535,-125
54.560,-151
54.585,-160
54.610,-164
54.635,-174
54.660,-184
54.685,-175
54.710,-129
54.735,-42
54.760,72
54.785,194
54.810,301
54.835,384
54.860,448
54.885,502
54.910,555
54.935,607
54.960,647
54.985,666
55.010,667
55.035,664
55.060,673
55.085,697
55.110,725
55.135,737
55.160,728
55.185,702
55.210,674
55.235,649
55.260,626
55.285,596
55.310,552
55.335,495
55.360,429
55.385,363
55.410,308
55.435,269
55.460,243
55.485,218
55.510,185
55.535,142
55.560,98
55.585,61
55.610,30
55.635,-4
55.660,-48
55.685,-96
55.710,-133
55.735,-147
55.760,-147
55.785,-152
55.810,-178
55.835,-220
55.860,-253
55.885,-248
55.910,-194
55.935,-102
55.960,0
55.985,92
56.010,163
56.035,216
56.060,261
56.085,303
56.110,342
56.135,373
56.160,392
56.185,400
56.210,408
56.235,427
56.260,463
56.285,507
56.310,545
56.335,568
56.360,581
56.385,603
56.410,645
56.435,700
56.460,746
56.485,761
56.510,744
56.535,706
56.560,661
56.585,611
56.610,556
56.635,493
56.660,429
56.685,366
56.710,303
56.735,236
56.760,166
56.785,98
56.810,36
56.835,-27
56.860,-99
56.885,-178
56.910,-249
56.935,-294
56.960,-303
56.985,-283
57.010,-242
57.035,-191
57.060,-135
57.085,-83
57.110,-39
57.135,-4
57.160,25
57.185,46
57.210,51
57.235,50
57.260,77
57.285,181
57.310,381
57.335,632
57.360,844
57.385,939
57.410,909
57.435,807
57.460,700
57.485,617
57.510,545
57.535,473
57.560,409
57.585,376
57.610,376
57.635,378
57.660,350
57.685,290
57.710,227
57.735,188
57.760,173
57.785,156
57.810,118
57.835,69
57.860,40
57.885,53
57.910,104
57.935,172
57.960,234
57.985,284
58.010,327
58.035,370
58.060,410
58.085,438
58.110,446
58.135,438
58.160,426
58.185,423
58.210,432
58.235,442
58.260,440
58.285,422
58.310,402
58.335,395
58.360,403
58.385,411
58.410,403
58.435,379
58.460,352
58.485,334
58.510,316
58.535,284
58.560,231
58.585,169
58.610,116
58.635,77
58.660,41
58.685,-5
58.710,-62
58.735,-112
58.760,-135
58.785,-128
58.810,-96
58.835,-49
58.860,7
58.885,68
58.910,126
58.935,175
58.960,218
58.985,259
59.010,300
59.035,335
59.060,358
59.085,372
59.110,389
59.135,417
59.160,451
59.185,475
59.210,481
59.235,473
59.260,463
59.285,457
59.310,451
59.335,439
59.360,420
59.385,401
59.410,389
59.435,382
59.460,374
59.485,360
59.510,342
59.535,323
59.560,305
59.585,286
59.610,262
59.635,232
59.660,196
59.685,154
59.710,109
59.735,60
59.760,12
59.785,-24
59.810,-39
59.835,-21
59.860,27
59.885,91
59.910,151
59.935,198
59.960,238
59.985,281
60.010,331
60.035,374
60.060,401
60.085,415
60.110,432
60.135,460
60.160,496
60.185,521
60.210,528
60.235,526
60.260,526
60.285,524
60.310,500
60.335,438
60.360,343
60.385,246
60.410,176
60.435,142
60.460,132
60.485,129
60.510,122
60.535,111
60.560,97
60.585,75
60.610,46
60.635,17
60.660,3
60.685,15
60.710,54
60.735,107
60.760,157
60.785,198
60.810,235
60.835,277
60.860,325
60.885,366
60.910,388
60.935,388
60.960,382
60.985,388
61.010,414
61.035,448
61.060,469
61.085,466
61.110,443
61.135,411
61.160,381
61.185,352
61.210,325
61.235,301
61.260,282
61.285,262
61.310,233
61.335,193
61.360,147
61.385,106
61.410,72
61.435,43
61.460,18
61.485,2
61.510,9
61.535,42
61.560,92
61.585,143
61.610,187
61.635,229
61.660,276
61.685,331
61.710,380
61.735,409
61.760,415
61.785,406
61.810,398
61.835,404
61.860,421
61.885,442
61.910,457
61.935,463
61.960,457
61.985,444
62.010,428
62.035,410
62.060,390
62.085,367
62.110,340
62.135,308
62.160,273
62.185,237
62.210,203
62.235,172
62.260,143
62.285,111
62.310,72
62.335,26
62.360,-21
62.385,-64
62.410,-95
62.435,-108
62.460,-95
62.485,-52
62.510,18
62.535,105
62.560,189
62.585,259
62.610,316
62.635,375
62.660,439
62.685,497
62.710,531
62.735,535
62.760,526
62.785,527
62.810,546
62.835,570
62.860,577
62.885,562
62.910,538
62.935,524
62.960,525
62.985,528
63.010,522
63.035,502
63.060,476
63.085,452
63.110,435
63.135,422
63.160,412
63.185,397
63.210,366
63.235,311
63.260,238
63.285,162
63.310,98
63.335,48
63.360,0
63.385,-57
63.410,-116
63.435,-164
63.460,-191
63.485,-203
63.510,-209
63.535,-204
63.560,-177
63.585,-118
63.610,-38
63.635,39
63.660,101
63.685,145
63.710,186
63.735,234
63.760,287
63.785,336
63.810,376
63.835,407
63.860,435
63.885,466
63.910,502
63.935,539
63.960,567
63.985,579
64.010,570
64.035,548
64.060,523
64.085,504
64.110,488
64.135,470
64.160,447
64.185,421
64.210,399
64.235,379
64.260,355
64.285,324
64.310,289
64.335,255
64.360,222
64.385,188
64.410,150
64.435,111
64.460,77
64.485,52
64.510,30
64.535,3
64.560,-36
64.585,-84
64.610,-124
64.635,-138
64.660,-115
64.685,-59
64.710,16
64.735,97
64.760,172
64.785,234
64.810,283
64.835,319
64.860,350
64.885,383
64.910,421
64.935,459
64.960,490
64.985,509
65.010,523
65.035,545
65.060,575
65.085,603
65.110,616
65.135,611
65.160,600
65.185,596
65.210,601
65.235,607
65.260,609
65.285,604
65.310,595
65.335,578
65.360,550
65.385,517
65.410,489
65.435,468
65.460,441
65.485,388
65.510,303
65.535,204
65.560,111
65.585,32
65.610,-44
65.635,-131
65.660,-218
65.685,-282
65.710,-306
65.735,-291
65.760,-247
65.785,-186
65.810,-112
65.835,-33
65.860,34
65.885,83
65.910,118
65.935,152
65.960,193
65.985,231
66.010,256
66.035,269
66.060,284
66.085,314
66.110,355
66.135,388
66.160,404
66.185,407
66.210,407
66.235,407
66.260,403
66.285,393
66.310,383
66.335,379
66.360,378
66.385,371
66.410,354
66.435,331
66.460,309
66.485,289
66.510,262
66.535,221
66.560,171
66.585,126
66.610,101
66.635,103
66.660,134
66.685,186
66.710,246
66.735,300
66.760,340
66.785,371
66.810,400
66.835,429
66.860,450
66.885,454
66.910,447
66.935,443
66.960,451
66.985,467
67.010,481
67.035,484
67.060,481
67.085,476
67.110,465
67.135,440
67.160,400
67.185,359
67.210,328
67.235,303
67.260,272
67.285,228
67.310,179
67.335,140
67.360,114
67.385,89
67.410,50
67.435,-5
67.460,-64
67.485,-109
67.510,-132
67.535,-129
67.560,-99
67.585,-41
67.610,34
67.635,111
67.660,177
67.685,230
67.710,280
67.735,332
67.760,378
67.785,409
67.810,423
67.835,434
67.860,457
67.885,496
67.910,539
67.935,566
67.960,572
67.985,559
68.010,540
68.035,521
68.060,503
68.085,482
68.110,455
68.135,422
68.160,384
68.185,343
68.210,297
68.235,246
68.260,190
68.285,132
68.310,73
68.335,15
68.360,-43
68.385,-102
68.410,-157
68.435,-195
68.460,-199
68.485,-160
68.510,-84
68.535,10
68.560,104
68.585,184
68.610,251
68.635,311
68.660,368
68.685,416
68.710,450
68.735,468
68.760,480
68.785,497
68.810,525
68.835,560
68.860,586
68.885,594
68.910,582
68.935,559
68.960,535
68.985,513
69.010,492
69.035,466
69.060,432
69.085,393
69.110,353
69.135,314
69.160,276
69.185,233
69.210,182
69.235,127
69.260,74
69.285,29
69.310,-14
69.335,-66
69.360,-125
69.385,-173
69.410,-184
69.435,-144
69.460,-68
69.485,15
69.510,87
69.535,147
69.560,210
69.585,282
69.610,355
69.635,410
69.660,442
69.685,458
69.710,473
69.735,494
69.760,518
69.785,536
69.810,545
69.835,547
69.860,543
69.885,533
69.910,516
69.935,490
69.960,456
69.985,413
70.010,363
70.035,312
70.060,266
70.085,227
70.110,191
70.135,149
70.160,94
70.185,29
70.210,-36
70.235,-85
70.260,-101
70.285,-78
70.310,-20
70.335,56
70.360,131
70.385,194
70.410,241
70.435,278
70.460,306
70.485,326
70.510,338
70.535,346
70.560,360
70.585,383
70.610,411
70.635,433
70.660,439
70.685,427
70.710,404
70.735,376
70.760,349
70.785,325
70.810,301
70.835,276
70.860,244
70.885,207
70.910,171
70.935,139
70.960,112
70.985,81
71.010,39
71.035,-10
71.060,-52
71.085,-62
71.110,-32
71.135,31
71.160,107
71.185,180
71.210,247
71.235,311
71.260,377
71.285,436
71.310,480
71.335,504
71.360,518
71.385,530
71.410,546
71.435,560
71.460,570
71.485,575
71.510,574
71.535,567
71.560,549
71.585,517
71.610,478
71.635,441
71.660,411
71.685,384
71.710,350
71.735,310
71.760,270
71.785,236
71.810,205
71.835,169
71.860,122
71.885,71
71.910,28
71.935,-7
71.960,-46
71.985,-99
72.010,-161
72.035,-210
72.060,-222
72.085,-188
72.110,-123
72.135,-50
72.160,15
72.185,74
72.210,136
72.235,208
72.260,285
72.285,353
72.310,399
72.335,422
72.360,434
72.385,448
72.410,474
72.435,508
72.460,538
72.485,556
72.510,558
72.535,551
72.560,542
72.585,534
72.610,526
72.635,514
72.660,493
72.685,461
72.710,425
72.735,389
72.760,359
72.785,335
72.810,311
72.835,284
72.860,257
72.885,233
72.910,212
72.935,187
72.960,150
72.985,102
73.010,54
73.035,15
73.060,-16
73.085,-49
73.110,-87
73.135,-120
73.160,-127
73.185,-96
73.210,-33
73.235,40
73.260,108
73.285,169
73.310,230
73.335,298
73.360,363
73.385,408
73.410,425
73.435,422
73.460,420
73.485,436
73.510,466
73.535,497
73.560,513
73.585,513
73.610,502
73.635,490
73.660,481
73.685,473
73.710,463
73.735,447
73.760,427
73.785,406
73.810,387
73.835,369
73.860,348
73.885,321
73.910,290
73.935,258
73.960,229
73.985,200
74.010,163
74.035,115
74.060,64
74.085,18
74.110,-17
74.135,-52
74.160,-99
74.185,-156
74.210,-207
74.235,-227
74.260,-209
74.285,-159
74.310,-92
74.335,-15
74.360,70
74.385,166
74.410,268
74.435,377
74.460,500
74.485,647
74.510,814
74.535,978
74.560,1104
74.585,1163
74.610,1145
74.635,1053
74.660,903
74.685,726
74.710,560
74.735,443
74.760,389
74.785,378
74.810,371
74.835,345
74.860,299
74.885,254
74.910,220
74.935,189
74.960,150
74.985,100
75.010,46
75.035,-9
75.060,-70
75.085,-144
75.110,-228
75.135,-311
75.160,-383
75.185,-440
75.210,-478
75.235,-485
75.260,-445
75.285,-356
75.310,-237
75.335,-116
75.360,-5
75.385,103
75.410,222
75.435,346
75.460,448
75.485,507
75.510,528
75.535,538
75.560,562
75.585,601
75.610,636
75.635,652
75.660,651
75.685,643
75.710,634
75.735,617
75.760,586
75.785,543
75.810,498
75.835,460
75.860,423
75.885,380
75.910,332
75.935,287
75.960,253
75.985,223
76.010,188
76.035,145
76.060,108
76.085,95
76.110,115
76.135,159
76.160,209
76.185,252
76.210,288
76.235,319
76.260,347
76.285,364
76.310,368
76.335,361
76.360,353
76.385,354
76.410,371
76.435,403
76.460,442
76.485,475
76.510,487
76.535,478
76.560,456
76.585,433
76.610,413
76.635,389
76.660,354
76.685,307
76.710,255
76.735,208
76.760,169
76.785,130
76.810,85
76.835,39
76.860,0
76.885,-26
76.910,-46
76.935,-68
76.960,-97
76.985,-123
77.010,-125
77.035,-88
77.060,-15
77.085,74
77.110,156
77.135,217
77.160,262
77.185,302
77.210,347
77.235,389
77.260,417
77.285,427
77.310,428
77.335,439
77.360,465
77.385,496
77.410,516
77.435,516
77.460,501
77.485,484
77.510,470
77.535,456
77.560,437
77.585,412
77.610,386
77.635,363
77.660,339
77.685,310
77.710,272
77.735,226
77.760,180
77.785,136
77.810,96
77.835,56
77.860,17
77.885,-17
77.910,-41
77.935,-44
77.960,-19
77.985,32
78.010,100
78.035,169
78.060,226
78.085,268
78.110,299
78.135,325
78.160,351
78.185,373
78.210,392
78.235,408
78.260,425
78.285,443
78.310,458
78.335,465
78.360,465
78.385,460
78.410,452
78.435,442
78.460,427
78.485,407
78.510,385
78.535,365
78.560,348
78.585,330
78.610,308
78.635,284
78.660,260
78.685,238
78.710,213
78.735,180
78.760,137
78.785,88
78.810,38
78.835,-11
78.860,-56
78.885,-88
78.910,-91
78.935,-57
78.960,8
78.985,84
79.010,148
79.035,195
79.060,238
79.085,289
79.110,349
79.135,403
79.160,440
79.185,463
79.210,486
79.235,517
79.260,549
79.285,569
79.310,570
79.335,562
79.360,556
79.385,555
79.410,546
79.435,520
79.460,479
79.485,437
79.510,402
79.535,373
79.560,343
79.585,309
79.610,276
79.635,246
79.660,216
79.685,180
79.710,137
79.735,92
79.760,50
79.785,8
79.810,-38
79.835,-88
79.860,-120
79.885,-115
79.910,-66
79.935,6
79.960,76
79.985,125
80.010,156
80.035,180
80.060,203
80.085,223
80.110,233
80.135,235
80.160,236
80.185,246
80.210,263
80.235,280
80.260,286
80.285,278
80.310,262
80.335,245
80.360,229
80.385,208
80.410,177
80.435,143
80.460,126
80.485,145
80.510,206
80.535,293
80.560,386
80.585,475
80.610,562
80.635,645
80.660,708
80.685,727
80.710,690
80.735,619
80.760,555
80.785,532
80.810,553
80.835,588
80.860,601
80.885,579
80.910,532
80.935,477
80.960,426
80.985,379
81.010,337
81.035,302
81.060,279
81.085,267
81.110,263
81.135,262
81.160,265
81.185,272
81.210,277
81.235,271
81.260,244
81.285,199
81.310,144
81.335,93
81.360,50
81.385,15
81.410,-11
81.435,-31
81.460,-50
81.485,-80
81.510,-129
81.535,-190
81.560,-239
81.585,-249
81.610,-215
81.635,-154
81.660,-91
81.685,-34
81.710,21
81.735,88
81.760,163
81.785,234
81.810,289
81.835,329
81.860,362
81.885,392
81.910,423
81.935,461
81.960,512
81.985,579
82.010,648
82.035,699
82.060,721
82.085,718
82.110,707
82.135,693
82.160,671
82.185,630
82.210,573
82.235,517
82.260,470
82.285,429
82.310,382
82.335,320
82.360,250
82.385,185
82.410,127
82.435,68
82.460,0
82.485,-68
82.510,-117
82.535,-128
82.560,-99
82.585,-42
82.610,21
82.635,78
82.660,129
82.685,181
82.710,240
82.735,299
82.760,345
82.785,369
82.810,379
82.835,391
82.860,419
82.885,460
82.910,494
82.935,501
82.960,481
82.985,447
83.010,420
83.035,407
83.060,403
83.085,399
83.110,391
83.135,386
83.160,392
83.185,411
83.210,441
83.235,473
83.260,498
83.285,505
83.310,481
83.335,407
83.360,267
83.385,52
83.410,-218
83.435,-500
83.460,-726
83.485,-839
83.510,-822
83.535,-706
83.560,-546
83.585,-388
83.610,-250
83.635,-117
83.660,26
83.685,185
83.710,351
83.735,512
83.760,664
83.785,806
83.810,932
83.835,1026
83.860,1071
83.885,1061
83.910,1012
83.935,947
83.960,883
83.985,824
84.010,766
84.035,711
84.060,667
84.085,636
84.110,606
84.135,551
84.160,457
84.185,328
84.210,192
84.235,71
84.260,-30
84.285,-122
84.310,-213
84.335,-298
84.360,-359
84.385,-380
84.410,-358
84.435,-302
84.460,-226
84.485,-144
84.510,-64
84.535,20
84.560,122
84.585,251
84.610,395
84.635,521
84.660,597
84.685,614
84.710,599
84.735,582
84.760,578
84.785,573
84.810,551
84.835,515
84.860,484
84.885,469
84.910,462
84.935,441
84.960,394
84.985,330
85.010,268
85.035,220
85.060,180
85.085,137
85.110,83
85.135,18
85.160,-50
85.185,-118
85.210,-179
85.235,-225
85.260,-251
85.285,-251
85.310,-223
85.335,-171
85.360,-108
85.385,-53
85.410,-17
85.435,2
85.460,26
85.485,75
85.510,155
85.535,259
85.560,383
85.585,530
85.610,701
85.635,874
85.660,999
85.685,1032
85.710,969
85.735,857
85.760,764
85.785,731
85.810,747
85.835,767
85.860,743
85.885,654
85.910,510
85.935,350
85.960,212
85.985,120
86.010,75
86.035,62
86.060,62
86.085,63
86.110,63
86.135,58
86.160,44
86.185,19
86.210,-11
86.235,-37
86.260,-56
86.285,-69
86.310,-71
86.335,-49
86.360,8
86.385,96
86.410,190
86.435,264
86.460,315
86.485,359
86.510,408
86.535,457
86.560,490
86.585,503
86.610,510
86.635,528
86.660,551
86.685,559
86.710,537
86.735,497
86.760,466
86.785,457
86.810,457
86.835,445
86.860,413
86.885,368
86.910,324
86.935,285
86.960,241
86.985,187
87.010,131
87.035,80
87.060,40
87.085,6
87.110,-27
87.135,-60
87.160,-87
87.185,-106
87.210,-121
87.235,-145
87.260,-182
87.285,-231
87.310,-278
87.335,-304
87.360,-294
87.385,-248
87.410,-180
87.435,-108
87.460,-40
87.485,34
87.510,132
87.535,258
87.560,395
87.585,509
87.610,571
87.635,573
87.660,531
87.685,474
87.710,426
87.735,396
87.760,378
87.785,362
87.810,342
87.835,323
87.860,316
87.885,338
87.910,402
87.935,512
87.960,655
87.985,799
88.010,905
88.035,941
88.060,903
88.085,816
88.110,716
88.135,633
88.160,578
88.185,542
88.210,508
88.235,464
88.260,410
88.285,353
88.310,301
88.335,257
88.360,214
88.385,166
88.410,120
88.435,100
88.460,124
88.485,190
88.510,266
88.535,314
88.560,313
88.585,273
88.610,224
88.635,188
88.660,165
88.685,141
88.710,102
88.735,50
88.760,-6
88.785,-50
88.810,-64
88.835,-42
88.860,6
88.885,57
88.910,83
88.935,78
88.960,58
88.985,45
89.010,48
89.035,61
89.060,71
89.085,78
89.110,99
89.135,143
89.160,205
89.185,267
89.210,308
89.235,320
89.260,301
89.285,259
89.310,211
89.335,177
89.360,174
89.385,195
89.410,211
89.435,195
89.460,151
89.485,107
89.510,102
89.535,146
89.560,224
89.585,311
89.610,395
89.635,473
89.660,542
89.685,589
89.710,604
89.735,593
89.760,577
89.785,575
89.810,589
89.835,611
89.860,630
89.885,641
89.910,642
89.935,629
89.960,606
89.985,580
90.010,565
90.035,561
90.060,552
90.085,520
90.110,458
90.135,378
90.160,296
90.185,217
90.210,138
90.235,56
90.260,-16
90.285,-71
90.310,-111
90.335,-151
90.360,-208
90.385,-276
90.410,-335
90.435,-368
90.460,-370
90.485,-349
90.510,-307
90.535,-236
90.560,-136
90.585,-22
90.610,81
90.635,162
90.660,228
90.685,302
90.710,393
90.735,488
90.760,564
90.785,606
90.810,618
90.835,618
90.860,614
90.885,606
90.910,586
90.935,556
90.960,527
90.985,508
91.010,502
91.035,503
91.060,501
91.085,491
91.110,471
91.135,443
91.160,410
91.185,378
91.210,352
91.235,329
91.260,306
91.285,276
91.310,236
91.335,189
91.360,146
91.385,108
91.410,71
91.435,25
91.460,-32
91.485,-89
91.510,-124
91.535,-118
91.560,-73
91.585,-9
91.610,49
91.635,92
91.660,122
91.685,154
91.710,197
91.735,247
91.760,295
91.785,333
91.810,359
91.835,383
91.860,413
91.885,452
91.910,493
91.935,522
91.960,528
91.985,515
92.010,498
92.035,492
92.060,500
92.085,510
92.110,503
92.135,475
92.160,435
92.185,397
92.210,371
92.235,355
92.260,340
92.285,318
92.310,288
92.335,251
92.360,210
92.385,169
92.410,132
92.435,95
92.460,46
92.485,-19
92.510,-92
92.535,-144
92.560,-144
92.585,-81
92.610,20
92.635,119
92.660,188
92.685,228
92.710,260
92.735,302
92.760,351
92.785,388
92.810,401
92.835,400
92.860,406
92.885,433
92.910,471
92.935,498
92.960,500
92.985,485
93.010,469
93.035,462
93.060,454
93.085,436
93.110,406
93.135,376
93.160,354
93.185,337
93.210,313
93.235,277
93.260,240
93.285,212
93.310,192
93.335,167
93.360,124
93.385,70
93.410,22
93.435,-12
93.460,-43
93.485,-86
93.510,-144
93.535,-191
93.560,-200
93.585,-157
93.610,-75
93.635,19
93.660,112
93.685,200
93.710,286
93.735,364
93.760,423
93.785,461
93.810,485
93.835,507
93.860,531
93.885,556
93.910,577
93.935,591
93.960,600
93.985,605
94.010,603
94.035,593
94.060,578
94.085,561
94.110,545
94.135,524
94.160,496
94.185,460
94.210,423
94.235,387
94.260,351
94.285,309
94.310,258
94.335,201
94.360,145
94.385,98
94.410,61
94.435,31
94.460,0
94.485,-36
94.510,-82
94.535,-132
94.560,-175
94.585,-195
94.610,-179
94.635,-126
94.660,-44
94.685,45
94.710,129
94.735,195
94.760,244
94.785,283
94.810,317
94.835,346
94.860,371
94.885,392
94.910,414
94.935,444
94.960,482
94.985,517
95.010,538
95.035,537
95.060,523
95.085,506
95.110,495
95.135,486
95.160,468
95.185,438
95.210,403
95.235,373
95.260,350
95.285,327
95.310,294
95.335,252
95.360,212
95.385,181
95.410,158
95.435,129
95.460,84
95.485,24
95.510,-33
95.535,-65
95.560,-57
95.585,-12
95.610,51
95.635,115
95.660,166
95.685,205
95.710,241
95.735,279
95.760,314
95.785,338
95.810,349
95.835,354
95.860,367
95.885,392
95.910,422
95.935,441
95.960,443
95.985,432
96.010,418
96.035,405
96.060,393
96.085,375
96.110,351
96.135,324
96.160,297
96.185,273
96.210,251
96.235,229
96.260,205
96.285,171
96.310,127
96.335,77
96.360,39
96.385,31
96.410,59
96.435,114
96.460,177
96.485,236
96.510,288
96.535,333
96.560,370
96.585,393
96.610,399
96.635,395
96.660,391
96.685,395
96.710,408
96.735,426
96.760,445
96.785,457
96.810,455
96.835,436
96.860,403
96.885,369
96.910,344
96.935,325
96.960,305
96.985,272
97.010,229
97.035,185
97.060,148
97.085,118
97.110,89
97.135,51
97.160,2
97.185,-56
97.210,-113
97.235,-153
97.260,-155
97.285,-111
97.310,-31
97.335,56
97.360,129
97.385,180
97.410,225
97.435,279
97.460,343
97.485,404
97.510,446
97.535,468
97.560,483
97.585,502
97.610,528
97.635,555
97.660,572
97.685,579
97.710,575
97.735,563
97.760,545
97.785,526
97.810,507
97.835,486
97.860,459
97.885,420
97.910,374
97.935,325
97.960,280
97.985,237
98.010,189
98.035,132
98.060,72
98.085,19
98.110,-24
98.135,-64
98.160,-110
98.185,-162
98.210,-204
98.235,-218
98.260,-194
98.285,-139
98.310,-67
98.335,5
98.360,78
98.385,154
98.410,235
98.435,317
98.460,390
98.485,448
98.510,490
98.535,519
98.560,544
98.585,571
98.610,606
98.635,643
98.660,671
98.685,676
98.710,653
98.735,611
98.760,567
98.785,533
98.810,510
98.835,490
98.860,466
98.885,440
98.910,416
98.935,399
98.960,385
98.985,366
99.010,335
99.035,293
99.060,244
99.085,195
99.110,149
99.135,107
99.160,65
99.185,21
99.210,-24
99.235,-69
99.260,-114
99.285,-161
99.310,-211
99.335,-257
99.360,-286
99.385,-280
99.410,-234
99.435,-157
99.460,-70
99.485,12
99.510,88
99.535,163
99.560,240
99.585,313
99.610,371
99.635,408
99.660,432
99.685,457
99.710,493
99.735,535
99.760,572
99.785,595
99.810,602
99.835,600
99.860,595
99.885,591
99.910,587
99.935,580
99.960,571
99.985,560
100.010,545
100.035,526
100.060,502
100.085,477
100.110,449
100.135,420
100.160,391
100.185,362
100.210,333
100.235,303
100.260,268
100.285,226
100.310,183
100.335,145
100.360,113
100.385,80
100.410,39
100.435,-7
100.460,-56
100.485,-103
100.510,-150
100.535,-197
100.560,-235
100.585,-245
100.610,-214
100.635,-147
100.660,-64
100.685,14
100.710,83
100.735,148
100.760,215
100.785,278
100.810,330
100.835,368
100.860,395
100.885,420
100.910,450
100.935,484
100.960,522
100.985,566
101.010,617
101.035,667
101.060,704
101.085,715
101.110,695
101.135,648
101.160,591
101.185,543
101.210,513
101.235,496
101.260,478
101.285,452
101.310,423
101.335,402
101.360,392
101.385,382
101.410,357
101.435,309
101.460,242
101.485,164
101.510,78
101.535,-10
101.560,-90
101.585,-147
101.610,-181
101.635,-203
101.660,-228
101.685,-251
101.710,-247
101.735,-200
101.760,-120
101.785,-43
101.810,11
101.835,58
101.860,133
101.885,251
101.910,386
101.935,488
101.960,526
101.985,504
102.010,458
102.035,417
102.060,398
102.085,399
102.110,412
102.135,429
102.160,438
102.185,435
102.210,424
102.235,408
102.260,391
102.285,369
102.310,341
102.335,312
102.360,289
102.385,270
102.410,252
102.435,240
102.460,255
102.485,317
102.510,420
102.535,518
102.560,555
102.585,504
102.610,385
102.635,247
102.660,132
102.685,54
102.710,5
102.735,-21
102.760,-27
102.785,-11
102.810,25
102.835,75
102.860,133
102.885,192
102.910,251
102.935,307
102.960,357
102.985,399
103.010,430
103.035,451
103.060,465
103.085,482
103.110,509
103.135,538
103.160,556
103.185,547
103.210,516
103.235,480
103.260,456
103.285,447
103.310,442
103.335,427
103.360,394
103.385,349
103.410,296
103.435,243
103.460,194
103.485,155
103.510,121
103.535,87
103.560,40
103.585,-21
103.610,-90
103.635,-155
103.660,-209
103.685,-251
103.710,-283
103.735,-298
103.760,-285
103.785,-239
103.810,-168
103.835,-89
103.860,-22
103.885,26
103.910,69
103.935,128
103.960,226
103.985,370
104.010,551
104.035,742
104.060,905
104.085,1009
104.110,1033
104.135,979
104.160,872
104.185,749
104.210,647
104.235,583
104.260,552
104.285,531
104.310,503
104.335,465
104.360,422
104.385,384
104.410,352
104.435,320
104.460,284
104.485,245
104.510,204
104.535,165
104.560,127
104.585,88
104.610,48
104.635,7
104.660,-36
104.685,-81
104.710,-123
104.735,-151
104.760,-152
104.785,-115
104.810,-46
104.835,33
104.860,106
104.885,163
104.910,214
104.935,271
104.960,335
104.985,392
105.010,424
105.035,427
105.060,422
105.085,430
105.110,460
105.135,497
105.160,521
105.185,521
105.210,507
105.235,491
105.260,480
105.285,465
105.310,440
105.335,401
105.360,356
105.385,311
105.410,270
105.435,232
105.460,198
105.485,169
105.510,148
105.535,134
105.560,126
105.585,120
105.610,113
105.635,101
105.660,81
105.685,56
105.710,33
105.735,22
105.760,31
105.785,61
105.810,106
105.835,157
105.860,202
105.885,235
105.910,259
105.935,281
105.960,307
105.985,330
106.010,342
106.035,337
106.060,322
106.085,314
106.110,321
106.135,335
106.160,344
106.185,340
106.210,328
106.235,318
106.260,313
106.285,306
106.310,291
106.335,269
106.360,244
106.385,222
106.410,202
106.435,183
106.460,169
106.485,161
106.510,159
106.535,156
106.560,149
106.585,138
106.610,122
106.635,101
106.660,71
106.685,40
106.710,28
106.735,54
106.760,119
106.785,200
106.810,269
106.835,316
106.860,351
106.885,389
106.910,426
106.935,445
106.960,439
106.985,430
107.010,462
107.035,562
107.060,715
107.085,863
107.110,951
107.135,964
107.160,935
107.185,915
107.210,928
107.235,953
107.260,943
107.285,861
107.310,711
107.335,526
107.360,345
107.385,190
107.410,60
107.435,-51
107.460,-147
107.485,-228
107.510,-297
107.535,-358
107.560,-404
107.585,-422
107.610,-397
107.635,-331
107.660,-246
107.685,-166
107.710,-101
107.735,-42
107.760,21
107.785,92
107.810,158
107.835,207
107.860,239
107.885,266
107.910,297
107.935,332
107.960,361
107.985,378
108.010,385
108.035,386
108.060,383
108.085,377
108.110,366
108.135,353
108.160,344
108.185,338
108.210,332
108.235,320
108.260,298
108.285,272
108.310,243
108.335,206
108.360,158
108.385,101
108.410,55
108.435,42
108.460,74
108.485,139
108.510,211
108.535,267
108.560,301
108.585,324
108.610,351
108.635,380
108.660,402
108.685,408
108.710,403
108.735,404
108.760,417
108.785,438
108.810,452
108.835,449
108.860,432
108.885,414
108.910,400
108.935,390
108.960,378
108.985,362
109.010,345
109.035,328
109.060,309
109.085,284
109.110,255
109.135,224
109.160,192
109.185,153
109.210,98
109.235,28
109.260,-46
109.285,-102
109.310,-120
109.335,-94
109.360,-32
109.385,45
109.410,120
109.435,181
109.460,229
109.485,270
109.510,309
109.535,343
109.560,364
109.585,368
109.610,365
109.635,370
109.660,392
109.685,424
109.710,451
109.735,462
109.760,460
109.785,455
109.810,454
109.835,453
109.860,442
109.885,421
109.910,396
109.935,379
109.960,373
109.985,370
110.010,360
110.035,336
110.060,302
110.085,263
110.110,224
110.135,184
110.160,144
110.185,103
110.210,58
110.235,11
110.260,-35
110.285,-74
110.310,-92
110.335,-74
110.360,-18
110.385,66
110.410,160
110.435,247
110.460,322
110.485,388
110.510,452
110.535,512
110.560,564
110.585,602
110.610,624
110.635,631
110.660,622
110.685,597
110.710,553
110.735,492
110.760,418
110.785,337
110.810,259
110.835,197
110.860,160
110.885,148
110.910,149
110.935,150
110.960,146
110.985,142
111.010,141
111.035,143
111.060,138
111.085,123
111.110,99
111.135,74
111.160,47
111.185,13
111.210,-33
111.235,-89
111.260,-136
111.285,-158
111.310,-143
111.335,-90
111.360,-8
111.385,84
111.410,170
111.435,237
111.460,290
111.485,345
111.510,413
111.535,490
111.560,553
111.585,586
111.610,589
111.635,582
111.660,584
111.685,597
111.710,614
111.735,624
111.760,629
111.785,636
111.810,652
111.835,674
111.860,692
111.885,693
111.910,665
111.935,604
111.960,521
111.985,431
112.010,347
112.035,267
112.060,184
112.085,100
112.110,30
112.135,-7
112.160,-13
112.185,-8
112.210,-17
112.235,-48
112.260,-90
112.285,-124
112.310,-148
112.335,-171
112.360,-197
112.385,-211
112.410,-192
112.435,-129
112.460,-37
112.485,56
112.510,129
112.535,177
112.560,212
112.585,242
112.610,270
112.635,293
112.660,310
112.685,326
112.710,350
112.735,384
112.760,422
112.785,454
112.810,475
112.835,487
112.860,497
112.885,510
112.910,518
112.935,515
112.960,500
112.985,478
113.010,460
113.035,446
113.060,431
113.085,412
113.110,387
113.135,361
113.160,333
113.185,299
113.210,257
113.235,213
113.260,172
113.285,134
113.310,92
113.335,43
113.360,-9
113.385,-52
113.410,-77
113.435,-84
113.460,-76
113.485,-52
113.510,-5
113.535,66
113.560,147
113.585,219
113.610,269
113.635,302
113.660,332
113.685,363
113.710,390
113.735,404
113.760,406
113.785,407
113.810,420
113.835,447
113.860,476
113.885,497
113.910,502
113.935,495
113.960,484
113.985,475
114.010,471
114.035,466
114.060,455
114.085,435
114.110,409
114.135,386
114.160,369
114.185,353
114.210,329
114.235,292
114.260,248
114.285,206
114.310,173
114.335,147
114.360,123
114.385,97
114.410,70
114.435,41
114.460,8
114.485,-29
114.510,-65
114.535,-84
114.560,-74
114.585,-32
114.610,33
114.635,109
114.660,181
114.685,242
114.710,288
114.735,318
114.760,333
114.785,337
114.810,338
114.835,339
114.860,341
114.885,346
114.910,354
114.935,368
114.960,391
114.985,421
115.010,451
115.035,471
115.060,475
115.085,464
115.110,441
115.135,410
115.160,379
115.185,350
115.210,326
115.235,304
115.260,281
115.285,256
115.310,234
115.335,221
115.360,219
115.385,225
115.410,229
115.435,222
115.460,202
115.485,175
115.510,141
115.535,102
115.560,63
115.585,40
115.610,53
115.635,112
115.660,198
115.685,276
115.710,318
115.735,321
115.760,313
115.785,321
115.810,352
115.835,389
115.860,412
115.885,418
115.910,420
115.935,430
115.960,444
115.985,451
116.010,444
116.035,431
116.060,424
116.085,429
116.110,434
116.135,426
116.160,402
116.185,372
116.210,347
116.235,327
116.260,306
116.285,278
116.310,243
116.335,206
116.360,171
116.385,135
116.410,92
116.435,45
116.460,-2
116.485,-40
116.510,-59
116.535,-55
116.560,-28
116.585,12
116.610,52
116.635,76
116.660,83
116.685,82
116.710,86
116.735,100
116.760,118
116.785,141
116.810,178
116.835,242
116.860,332
116.885,424
116.910,488
116.935,510
116.960,500
116.985,483
117.010,472
117.035,461
117.060,439
117.085,404
117.110,365
117.135,329
117.160,295
117.185,255
117.210,206
117.235,152
117.260,102
117.285,59
117.310,28
117.335,14
117.360,29
117.385,74
117.410,138
117.435,202
117.460,253
117.485,290
117.510,321
117.535,345
117.560,357
117.585,356
117.610,356
117.635,375
117.660,417
117.685,470
117.710,508
117.735,519
117.760,508
117.785,491
117.810,475
117.835,458
117.860,435
117.885,404
117.910,370
117.935,338
117.960,307
117.985,279
118.010,257
118.035,240
118.060,224
118.085,196
118.110,149
118.135,87
118.160,27
118.185,-10
118.210,-11
118.235,22
118.260,83
118.285,154
118.310,222
118.335,276
118.360,319
118.385,356
118.410,392
118.435,422
118.460,439
118.485,437
118.510,424
118.535,414
118.560,414
118.585,421
118.610,422
118.635,408
118.660,381
118.685,349
118.710,319
118.735,294
118.760,269
118.785,241
118.810,208
118.835,173
118.860,139
118.885,115
118.910,102
118.935,94
118.960,80
118.985,52
119.010,10
119.035,-37
119.060,-85
119.085,-132
119.110,-173
119.135,-196
119.160,-181
119.185,-122
119.210,-31
119.235,62
119.260,139
119.285,201
119.310,266
119.335,345
119.360,429
119.385,495
119.410,532
119.435,547
119.460,560
119.485,586
119.510,620
119.535,649
119.560,664
119.585,665
119.610,656
119.635,641
119.660,616
119.685,580
119.710,536
119.735,492
119.760,454
119.785,424
119.810,400
119.835,375
119.860,343
119.885,304
119.910,262
119.935,224
119.960,190
119.985,156
120.010,113
120.035,58
120.060,0
120.085,-58
120.110,-107
120.135,-149
120.160,-182
120.185,-198
120.210,-187
120.235,-143
120.260,-74
120.285,4
120.310,80
120.335,145
120.360,204
120.385,259
120.410,309
120.435,348
120.460,376
120.485,397
120.510,420
120.535,449
120.560,481
120.585,507
120.610,521
120.635,520
120.660,511
120.685,499
120.710,487
120.735,474
120.760,460
120.785,443
120.810,426
120.835,407
120.860,385
120.885,359
120.910,330
120.935,302
120.960,274
120.985,247
121.010,217
121.035,185
121.060,152
121.085,121
121.110,89
121.135,56
121.160,21
121.185,-12
121.210,-35
121.235,-38
121.260,-16
121.285,28
121.310,84
121.335,135
121.360,173
121.385,197
121.410,218
121.435,247
121.460,281
121.485,312
121.510,331
121.535,344
121.560,359
121.585,386
121.610,420
121.635,448
121.660,459
121.685,453
121.710,440
121.735,428
121.760,415
121.785,399
121.810,375
121.835,349
121.860,324
121.885,303
121.910,284
121.935,267
121.960,250
121.985,230
122.010,203
122.035,167
122.060,130
122.085,107
122.110,111
122.135,142
122.160,186
122.185,221
122.210,241
122.235,251
122.260,262
122.285,279
122.310,296
122.335,305
122.360,304
122.385,299
122.410,298
122.435,306
122.460,319
122.485,330
122.510,335
122.535,332
122.560,322
122.585,306
122.610,288
122.635,269
122.660,248
122.685,228
122.710,208
122.735,191
122.760,178
122.785,166
122.810,152
122.835,132
122.860,106
122.885,82
122.910,70
122.935,78
122.960,103
122.985,139
123.010,177
123.035,212
123.060,246
123.085,283
123.110,323
123.135,361
123.160,388
123.185,401
123.210,405
123.235,410
123.260,421
123.285,436
123.310,447
123.335,447
123.360,438
123.385,424
123.410,413
123.435,401
123.460,386
123.485,364
123.510,339
123.535,315
123.560,292
123.585,263
123.610,227
123.635,187
123.660,149
123.685,115
123.710,76
123.735,29
123.760,-20
123.785,-51
123.810,-45
123.835,-2
123.860,59
123.885,117
123.910,163
123.935,203
123.960,250
123.985,302
124.010,352
124.035,390
124.060,418
124.085,443
124.110,472
124.135,504
124.160,539
124.185,571
124.210,595
124.235,599
124.260,574
124.285,528
124.310,478
124.335,445
124.360,432
124.385,426
124.410,407
124.435,367
124.460,320
124.485,281
124.510,254
124.535,230
124.560,197
124.585,150
124.610,99
124.635,54
124.660,21
124.685,-2
124.710,-27
124.735,-60
124.760,-97
124.785,-128
124.810,-135
124.835,-105
124.860,-43
124.885,31
124.910,96
124.935,137
124.960,164
124.985,194
125.010,239
125.035,292
125.060,335
125.085,356
125.110,360
125.135,363
125.160,382
125.185,415
125.210,448
125.235,464
125.260,456
125.285,433
125.310,407
125.335,384
125.360,366
125.385,349
125.410,331
125.435,315
125.460,302
125.485,288
125.510,269
125.535,246
125.560,221
125.585,202
125.610,190
125.635,177
125.660,158
125.685,133
125.710,107
125.735,86
125.760,73
125.785,59
125.810,41
125.835,26
125.860,30
125.885,67
125.910,137
125.935,224
125.960,311
125.985,391
126.010,471
126.035,559
126.060,651
126.085,731
126.110,789
126.135,832
126.160,882
126.185,958
126.210,1058
126.235,1154
126.260,1217
126.285,1226
126.310,1181
126.335,1094
126.360,969
126.385,802
126.410,582
126.435,308
126.460,6
126.485,-276
126.510,-486
126.535,-596
126.560,-618
126.585,-594
126.610,-565
126.635,-544
126.660,-517
126.685,-470
126.710,-407
126.735,-351
126.760,-321
126.785,-322
126.810,-346
126.835,-380
126.860,-409
126.885,-416
126.910,-384
126.935,-304
126.960,-189
126.985,-66
127.010,44
127.035,141
127.060,235
127.085,332
127.110,427
127.135,506
127.160,561
127.185,600
127.210,633
127.235,667
127.260,705
127.285,743
127.310,777
127.335,802
127.360,812
127.385,805
127.410,784
127.435,755
127.460,722
127.485,679
127.510,628
127.535,574
127.560,531
127.585,501
127.610,478
127.635,447
127.660,404
127.685,353
127.710,300
127.735,247
127.760,192
127.785,131
127.810,66
127.835,0
127.860,-61
127.885,-111
127.910,-132
127.935,-110
127.960,-45
127.985,36
128.010,106
128.035,149
128.060,180
128.085,218
128.110,273
128.135,327
128.160,362
128.185,376
128.210,385
128.235,410
128.260,450
128.285,491
128.310,518
128.335,529
128.360,531
128.385,527
128.410,516
128.435,491
128.460,455
128.485,417
128.510,385
128.535,357
128.560,329
128.585,300
128.610,274
128.635,256
128.660,238
128.685,211
128.710,165
128.735,103
128.760,32
128.785,-39
128.810,-107
128.835,-159
128.860,-177
128.885,-147
128.910,-75
128.935,14
128.960,93
128.985,147
129.010,184
129.035,221
129.060,266
129.085,308
129.110,331
129.135,335
129.160,335
129.185,347
129.210,374
129.235,400
129.260,409
129.285,398
129.310,375
129.335,354
129.360,341
129.385,330
129.410,315
129.435,290
129.460,257
129.485,223
129.510,192
129.535,167
129.560,144
129.585,115
129.610,74
129.635,28
129.660,-6
129.685,-14
129.710,10
129.735,57
129.760,112
129.785,166
129.810,223
129.835,288
129.860,357
129.885,415
129.910,446
129.935,443
129.960,421
129.985,401
130.010,401
130.035,420
130.060,439
130.085,440
130.110,415
130.135,374
130.160,336
130.185,312
130.210,302
130.235,299
130.260,291
130.285,277
130.310,256
130.335,229
130.360,198
130.385,164
130.410,128
130.435,93
130.460,63
130.485,48
130.510,66
130.535,126
130.560,223
130.585,334
130.610,431
130.635,503
130.660,556
130.685,605
130.710,649
130.735,678
130.760,682
130.785,668
130.810,652
130.835,643
130.860,634
130.885,609
130.910,557
130.935,479
130.960,389
130.985,297
131.010,213
131.035,138
131.060,74
131.085,18
131.110,-31
131.135,-79
131.160,-124
131.185,-165
131.210,-201
131.235,-228
131.260,-236
131.285,-212
131.310,-150
131.335,-60
131.360,33
131.385,109
131.410,165
131.435,212
131.460,260
131.485,305
131.510,340
131.535,361
131.560,377
131.585,398
131.610,424
131.635,445
131.660,455
131.685,455
131.710,449
131.735,436
131.760,408
131.785,365
131.810,314
131.835,269
131.860,230
131.885,186
131.910,129
131.935,65
131.960,7
131.985,-38
132.010,-77
132.035,-113
132.060,-133
132.085,-116
132.110,-54
132.135,31
132.160,110
132.185,169
132.210,220
132.235,280
132.260,343
132.285,386
132.310,402
132.335,419
132.360,481
132.385,603
132.410,748
132.435,848
132.460,861
132.485,801
132.510,714
132.535,641
132.560,587
132.585,540
132.610,491
132.635,441
132.660,397
132.685,358
132.710,318
132.735,275
132.760,231
132.785,189
132.810,147
132.835,101
132.860,51
132.885,0
132.910,-55
132.935,-113
132.960,-166
132.985,-196
133.010,-181
133.035,-120
133.060,-35
133.085,43
133.110,102
133.135,148
133.160,200
133.185,265
133.210,331
133.235,383
133.260,410
133.285,420
133.310,427
133.335,442
133.360,465
133.385,489
133.410,504
133.435,504
133.460,492
133.485,475
133.510,461
133.535,449
133.560,433
133.585,407
133.610,374
133.635,344
133.660,324
133.685,312
133.710,296
133.735,269
133.760,233
133.785,192
133.810,151
133.835,110
133.860,70
133.885,31
133.910,-10
133.935,-56
133.960,-104
133.985,-139
134.010,-142
134.035,-101
134.060,-26
134.085,56
134.110,125
134.135,177
134.160,223
134.185,273
134.210,321
134.235,355
134.260,371
134.285,379
134.310,394
134.335,420
134.360,451
134.385,474
134.410,483
134.435,481
134.460,472
134.485,464
134.510,458
134.535,454
134.560,451
134.585,443
134.610,426
134.635,400
134.660,371
134.685,347
134.710,327
134.735,306
134.760,278
134.785,243
134.810,207
134.835,176
134.860,149
134.885,120
134.910,84
134.935,38
134.960,-13
134.985,-59
135.010,-86
135.035,-80
135.060,-37
135.085,31
135.110,104
135.135,163
135.160,204
135.185,236
135.210,270
135.235,308
135.260,343
135.285,367
135.310,383
135.335,397
135.360,418
135.385,445
135.410,470
135.435,486
135.460,489
135.485,483
135.510,474
135.535,465
135.560,457
135.585,446
135.610,428
135.635,403
135.660,372
135.685,339
135.710,308
135.735,281
135.760,256
135.785,231
135.810,203
135.835,170
135.860,133
135.885,94
135.910,55
135.935,19
135.960,-10
135.985,-31
136.010,-35
136.035,-15
136.060,31
136.085,94
136.110,157
136.135,209
136.160,247
136.185,280
136.210,309
136.235,333
136.260,346
136.285,350
136.310,355
136.335,369
136.360,394
136.385,419
136.410,434
136.435,435
136.460,425
136.485,410
136.510,392
136.535,371
136.560,348
136.585,327
136.610,307
136.635,286
136.660,263
136.685,239
136.710,220
136.735,208
136.760,198
136.785,181
136.810,154
136.835,122
136.860,89
136.885,56
136.910,22
136.935,-6
136.960,-16
136.985,7
137.010,66
137.035,141
137.060,211
137.085,267
137.110,313
137.135,356
137.160,392
137.185,415
137.210,421
137.235,418
137.260,419
137.285,431
137.310,451
137.335,469
137.360,478
137.385,478
137.410,471
137.435,457
137.460,440
137.485,424
137.510,409
137.535,388
137.560,352
137.585,299
137.610,241
137.635,192
137.660,159
137.685,136
137.710,109
137.735,73
137.760,31
137.785,-8
137.810,-36
137.835,-43
137.860,-21
137.885,31
137.910,104
137.935,177
137.960,234
137.985,272
138.010,302
138.035,331
138.060,358
138.085,373
138.110,374
138.135,371
138.160,377
138.185,393
138.210,412
138.235,420
138.260,416
138.285,405
138.310,393
138.335,378
138.360,355
138.385,324
138.410,292
138.435,265
138.460,239
138.485,209
138.510,173
138.535,134
138.560,97
138.585,65
138.610,34
138.635,7
138.660,-6
138.685,4
138.710,46
138.735,112
138.760,183
138.785,243
138.810,289
138.835,326
138.860,361
138.885,392
138.910,413
138.935,422
138.960,425
138.985,432
139.010,447
139.035,466
139.060,479
139.085,477
139.110,464
139.135,446
139.160,429
139.185,413
139.210,395
139.235,373
139.260,346
139.285,317
139.310,283
139.335,244
139.360,203
139.385,164
139.410,128
139.435,92
139.460,51
139.485,4
139.510,-39
139.535,-64
139.560,-58
139.585,-21
139.610,36
139.635,100
139.660,157
139.685,206
139.710,253
139.735,302
139.760,351
139.785,390
139.810,410
139.835,416
139.860,421
139.885,438
139.910,466
139.935,492
139.960,501
139.985,490
140.010,469
140.035,448
140.060,431
140.085,410
140.110,379
140.135,340
140.160,301
140.185,267
140.210,240
140.235,213
140.260,184
140.285,152
140.310,116
140.335,73
140.360,21
140.385,-34
140.410,-85
140.435,-118
140.460,-122
140.485,-96
140.510,-43
140.535,24
140.560,93
140.585,154
140.610,207
140.635,256
140.660,304
140.685,349
140.710,383
140.735,402
140.760,412
140.785,423
140.810,443
140.835,472
140.860,498
140.885,513
140.910,514
140.935,503
140.960,487
140.985,470
141.010,454
141.035,436
141.060,412
141.085,381
141.110,343
141.135,306
141.160,271
141.185,238
141.210,203
141.235,165
141.260,125
141.285,86
141.310,47
141.335,5
141.360,-39
141.385,-79
141.410,-98
141.435,-86
141.460,-43
141.485,21
141.510,95
141.535,164
141.560,224
141.585,278
141.610,330
141.635,382
141.660,427
141.685,454
141.710,454
141.735,431
141.760,403
141.785,390
141.810,400
141.835,421
141.860,437
141.885,439
141.910,430
141.935,421
141.960,415
141.985,407
142.010,391
142.035,364
142.060,333
142.085,303
142.110,278
142.135,252
142.160,222
142.185,185
142.210,146
142.235,106
142.260,68
142.285,30
142.310,-6
142.335,-34
142.360,-39
142.385,-13
142.410,42
142.435,112
142.460,177
142.485,229
142.510,272
142.535,313
142.560,351
142.585,382
142.610,399
142.635,408
142.660,417
142.685,433
142.710,456
142.735,478
142.760,490
142.785,488
142.810,471
142.835,447
142.860,424
142.885,407
142.910,393
142.935,378
142.960,357
142.985,331
143.010,308
143.035,289
143.060,269
143.085,239
143.110,201
143.135,160
143.160,126
143.185,96
143.210,65
143.235,26
143.260,-17
143.285,-57
143.310,-83
143.335,-89
143.360,-71
143.385,-30
143.410,26
143.435,86
143.460,139
143.485,185
143.510,232
143.535,286
143.560,340
143.585,379
143.610,397
143.635,402
143.660,412
143.685,434
143.710,463
143.735,486
143.760,497
143.785,502
143.810,506
143.835,507
143.860,502
143.885,487
143.910,469
143.935,451
143.960,435
143.985,417
144.010,392
144.035,364
144.060,335
144.085,307
144.110,276
144.135,240
144.160,201
144.185,164
144.210,128
144.235,88
144.260,43
144.285,-8
144.310,-61
144.335,-108
144.360,-140
144.385,-145
144.410,-118
144.435,-67
144.460,-8
144.485,43
144.510,87
144.535,132
144.560,186
144.585,246
144.610,294
144.635,319
144.660,328
144.685,339
144.710,369
144.735,413
144.760,456
144.785,484
144.810,494
144.835,494
144.860,492
144.885,489
144.910,482
144.935,469
144.960,451
144.985,431
145.010,409
145.035,382
145.060,352
145.085,321
145.110,294
145.135,269
145.160,243
145.185,210
145.210,171
145.235,134
145.260,104
145.285,81
145.310,55
145.335,21
145.360,-11
145.385,-25
145.410,-4
145.435,52
145.460,122
145.485,184
145.510,228
145.535,264
145.560,301
145.585,339
145.610,369
145.635,383
145.660,388
145.685,398
145.710,421
145.735,450
145.760,474
145.785,484
145.810,482
145.835,472
145.860,456
145.885,435
145.910,407
145.935,375
145.960,343
145.985,309
146.010,273
146.035,237
146.060,206
146.085,181
146.110,157
146.135,128
146.160,92
146.185,53
146.210,17
146.235,-11
146.260,-25
146.285,-15
146.310,25
146.335,93
146.360,168
146.385,231
146.410,272
146.435,301
146.460,333
146.485,369
146.510,396
146.535,405
146.560,402
146.585,403
146.610,420
146.635,449
146.660,474
146.685,482
146.710,476
146.735,464
146.760,451
146.785,435
146.810,411
146.835,382
146.860,355
146.885,331
146.910,307
146.935,278
146.960,243
146.985,206
147.010,168
147.035,131
147.060,89
147.085,43
147.110,-7
147.135,-55
147.160,-88
147.185,-92
147.210,-57
147.235,9
147.260,90
147.285,162
147.310,215
147.335,258
147.360,303
147.385,351
147.410,392
147.435,411
147.460,411
147.485,407
147.510,413
147.535,430
147.560,450
147.585,462
147.610,460
147.635,446
147.660,421
147.685,388
147.710,352
147.735,319
147.760,289
147.785,255
147.810,213
147.835,168
147.860,130
147.885,105
147.910,88
147.935,67
147.960,35
147.985,0
148.010,-36
148.035,-67
148.060,-95
148.085,-112
148.110,-105
148.135,-62
148.160,10
148.185,91
148.210,163
148.235,222
148.260,279
148.285,341
148.310,399
148.335,438
148.360,455
148.385,464
148.410,479
148.435,507
148.460,539
148.485,563
148.510,576
148.535,580
148.560,577
148.585,563
148.610,537
148.635,504
148.660,467
148.685,430
148.710,392
148.735,354
148.760,316
148.785,281
148.810,243
148.835,196
148.860,135
148.885,67
148.910,4
148.935,-48
148.960,-94
148.985,-134
149.010,-159
149.035,-153
149.060,-105
149.085,-24
149.110,68
149.135,149
149.160,216
149.185,276
149.210,337
149.235,395
149.260,439
149.285,463
149.310,476
149.335,495
149.360,525
149.385,558
149.410,581
149.435,584
149.460,568
149.485,542
149.510,514
149.535,486
149.560,458
149.585,428
149.610,395
149.635,357
149.660,314
149.685,267
149.710,219
149.735,170
149.760,119
149.785,62
149.810,5
149.835,-46
149.860,-93
149.885,-137
149.910,-175
149.935,-197
149.960,-189
149.985,-146
150.010,-81
150.035,-14
150.060,40
150.085,86
150.110,131
150.135,175
150.160,210
150.185,229
150.210,236
150.235,242
150.260,256
150.285,277
150.310,302
150.335,328
150.360,353
150.385,375
150.410,387
150.435,388
150.460,384
150.485,382
150.510,383
150.535,384
150.560,380
150.585,374
150.610,363
150.635,342
150.660,305
150.685,253
150.710,197
150.735,143
150.760,92
150.785,38
150.810,-13
150.835,-50
150.860,-57
150.885,-33
150.910,23
150.935,122
150.960,274
150.985,476
151.010,692
151.035,881
151.060,1020
151.085,1114
151.110,1165
151.135,1145
151.160,1012
151.185,763
151.210,462
151.235,203
151.260,41
151.285,-33
151.310,-67
151.335,-78
151.360,-45
151.385,50
151.410,189
151.435,315
151.460,389
151.485,418
151.510,435
151.535,466
151.560,503
151.585,528
151.610,531
151.635,505
151.660,447
151.685,355
151.710,252
151.735,173
151.760,134
151.785,112
151.810,59
151.835,-44
151.860,-170
151.885,-263
151.910,-299
151.935,-310
151.960,-346
151.985,-418
152.010,-486
152.035,-496
152.060,-430
152.085,-316
152.110,-198
152.135,-96
152.160,-3
152.185,95
152.210,196
152.235,278
152.260,322
152.285,332
152.310,346
152.335,408
152.360,535
152.385,695
152.410,812
152.435,824
152.460,722
152.485,561
152.510,418
152.535,332
152.560,290
152.585,256
152.610,213
152.635,180
152.660,184
152.685,228
152.710,290
152.735,342
152.760,375
152.785,398
152.810,419
152.835,438
152.860,448
152.885,449
152.910,449
152.935,453
152.960,458
152.985,459
153.010,452
153.035,438
153.060,422
153.085,405
153.110,382
153.135,350
153.160,312
153.185,274
153.210,244
153.235,226
153.260,215
153.285,203
153.310,184
153.335,158
153.360,129
153.385,103
153.410,82
153.435,60
153.460,34
153.485,9
153.510,-2
153.535,11
153.560,52
153.585,106
153.610,158
153.635,198
153.660,229
153.685,259
153.710,291
153.735,318
153.760,335
153.785,342
153.810,345
153.835,355
153.860,373
153.885,394
153.910,406
153.935,405
153.960,395
153.985,385
154.010,379
154.035,372
154.060,354
154.085,323
154.110,285
154.135,250
154.160,224
154.185,202
154.210,174
154.235,136
154.260,94
154.285,60
154.310,43
154.335,49
154.360,78
154.385,126
154.410,181
154.435,231
154.460,267
154.485,285
154.510,294
154.535,302
154.560,312
154.585,321
154.610,331
154.635,346
154.660,368
154.685,395
154.710,414
154.735,415
154.760,399
154.785,377
154.810,360
154.835,348
154.860,332
154.885,307
154.910,275
154.935,241
154.960,209
154.985,178
155.010,145
155.035,110
155.060,79
155.085,61
155.110,65
155.135,97
155.160,152
155.185,214
155.210,269
155.235,308
155.260,337
155.285,365
155.310,393
155.335,409
155.360,400
155.385,366
155.410,327
155.435,307
155.460,317
155.485,344
155.510,370
155.535,382
155.560,379
155.585,366
155.610,348
155.635,324
155.660,294
155.685,260
155.710,224
155.735,187
155.760,148
155.785,109
155.810,72
155.835,37
155.860,0
155.885,-38
155.910,-72
155.935,-87
155.960,-69
155.985,-20
156.010,47
156.035,115
156.060,175
156.085,226
156.110,274
156.135,323
156.160,366
156.185,397
156.210,414
156.235,421
156.260,429
156.285,445
156.310,468
156.335,489
156.360,500
156.385,498
156.410,489
156.435,479
156.460,469
156.485,456
156.510,434
156.535,404
156.560,370
156.585,333
156.610,292
156.635,242
156.660,185
156.685,126
156.710,69
156.735,15
156.760,-38
156.785,-89
156.810,-125
156.835,-131
156.860,-100
156.885,-42
156.910,25
156.935,87
156.960,139
156.985,188
157.010,238
157.035,287
157.060,327
157.085,352
157.110,364
157.135,371
157.160,384
157.185,407
157.210,433
157.235,456
157.260,471
157.285,480
157.310,486
157.335,490
157.360,491
157.385,484
157.410,467
157.435,441
157.460,409
157.485,377
157.510,346
157.535,315
157.560,282
157.585,243
157.610,196
157.635,143
157.660,86
157.685,29
157.710,-25
157.735,-73
157.760,-108
157.785,-120
157.810,-101
157.835,-54
157.860,10
157.885,77
157.910,138
157.935,192
157.960,241
157.985,285
158.010,322
158.035,348
158.060,364
158.085,378
158.110,397
158.135,424
158.160,454
158.185,476
158.210,487
158.235,484
158.260,472
158.285,456
158.310,438
158.335,419
158.360,397
158.385,373
158.410,347
158.435,320
158.460,293
158.485,266
158.510,237
158.535,206
158.560,172
158.585,138
158.610,104
158.635,70
158.660,30
158.685,-13
158.710,-53
158.735,-71
158.760,-53
158.785,0
158.810,71
158.835,139
158.860,190
158.885,228
158.910,262
158.935,299
158.960,335
158.985,360
159.010,371
159.035,378
159.060,389
159.085,410
159.110,433
159.135,450
159.160,453
159.185,446
159.210,432
159.235,415
159.260,394
159.285,369
159.310,342
159.335,312
159.360,283
159.385,256
159.410,231
159.435,206
159.460,178
159.485,142
159.510,98
159.535,52
159.560,18
159.585,9
159.610,30
159.635,72
159.660,124
159.685,172
159.710,210
159.735,242
159.760,269
159.785,295
159.810,316
159.835,331
159.860,340
159.885,351
159.910,367
159.935,389
159.960,410
159.985,422
160.010,421
160.035,410
160.060,397
160.085,383
160.110,366
160.135,342
160.160,312
160.185,281
160.210,253
160.235,227
160.260,197
160.285,157
160.310,110
160.335,61
160.360,16
160.385,-21
160.410,-48
160.435,-52
160.460,-25
160.485,26
160.510,84
160.535,132
160.560,165
160.585,193
160.610,228
160.635,267
160.660,299
160.685,315
160.710,319
160.735,325
160.760,341
160.785,361
160.810,377
160.835,381
160.860,373
160.885,357
160.910,338
160.935,317
160.960,296
160.985,277
161.010,255
161.035,233
161.060,224
161.085,248
161.110,316
161.135,411
161.160,492
161.185,520
161.210,483
161.235,401
161.260,308
161.285,234
161.310,187
161.335,164
161.360,152
161.385,141
161.410,122
161.435,100
161.460,88
161.485,99
161.510,130
161.535,165
161.560,185
161.585,186
161.610,186
161.635,198
161.660,224
161.685,252
161.710,269
161.735,275
161.760,281
161.785,293
161.810,309
161.835,321
161.860,331
161.885,340
161.910,354
161.935,370
161.960,385
161.985,396
162.010,404
162.035,410
162.060,411
162.085,402
162.110,379
162.135,343
162.160,301
162.185,260
162.210,228
162.235,210
162.260,206
162.285,212
162.310,227
162.335,251
162.360,282
162.385,312
162.410,329
162.435,325
162.460,305
162.485,280
162.510,264
162.535,260
162.560,264
162.585,270
162.610,277
162.635,283
162.660,288
162.685,289
162.710,283
162.735,269
162.760,245
162.785,209
162.810,164
162.835,116
162.860,71
162.885,32
162.910,-6
162.935,-52
162.960,-101
162.985,-141
163.010,-157
163.035,-140
163.060,-94
163.085,-29
163.110,43
163.135,117
163.160,185
163.185,245
163.210,298
163.235,346
163.260,388
163.285,423
163.310,451
163.335,478
163.360,511
163.385,551
163.410,590
163.435,617
163.460,624
163.485,614
163.510,595
163.535,576
163.560,557
163.585,533
163.610,502
163.635,465
163.660,429
163.685,397
163.710,366
163.735,329
163.760,280
163.785,219
163.810,155
163.835,95
163.860,43
163.885,-5
163.910,-55
163.935,-103
163.960,-135
163.985,-139
164.010,-109
164.035,-53
164.060,15
164.085,83
164.110,145
164.135,196
164.160,238
164.185,270
164.210,297
164.235,320
164.260,341
164.285,362
164.310,387
164.335,421
164.360,462
164.385,498
164.410,516
164.435,509
164.460,482
164.485,447
164.510,412
164.535,374
164.560,329
164.585,279
164.610,235
164.635,205
164.660,190
164.685,184
164.710,178
164.735,173
164.760,168
164.785,158
164.810,139
164.835,107
164.860,68
164.885,31
164.910,1
164.935,-20
164.960,-30
164.985,-20
165.010,16
165.035,77
165.060,147
165.085,210
165.110,262
165.135,308
165.160,354
165.185,397
165.210,427
165.235,443
165.260,452
165.285,467
165.310,495
165.335,530
165.360,560
165.385,576
165.410,573
165.435,555
165.460,527
165.485,492
165.510,456
165.535,420
165.560,385
165.585,347
165.610,307
165.635,266
165.660,229
165.685,201
165.710,177
165.735,150
165.760,115
165.785,74
165.810,33
165.835,-4
165.860,-41
165.885,-76
165.910,-98
165.935,-89
165.960,-36
165.985,54
166.010,156
166.035,240
166.060,293
166.085,321
166.110,340
166.135,355
166.160,364
166.185,363
166.210,359
166.235,365
166.260,388
166.285,422
166.310,452
166.335,467
166.360,468
166.385,462
166.410,450
166.435,432
166.460,405
166.485,373
166.510,339
166.535,301
166.560,256
166.585,206
166.610,159
166.635,126
166.660,107
166.685,94
166.710,77
166.735,55
166.760,34
166.785,13
166.810,-7
166.835,-27
166.860,-35
166.885,-10
166.910,55
166.935,147
166.960,234
166.985,292
167.010,319
167.035,334
167.060,351
167.085,370
167.110,380
167.135,382
167.160,386
167.185,404
167.210,434
167.235,459
167.260,465
167.285,453
167.310,436
167.335,423
167.360,411
167.385,391
167.410,359
167.435,322
167.460,287
167.485,258
167.510,230
167.535,203
167.560,177
167.585,151
167.610,123
167.635,91
167.660,66
167.685,65
167.710,99
167.735,159
167.760,221
167.785,267
167.810,297
167.835,319
167.860,340
167.885,352
167.910,349
167.935,336
167.960,327
167.985,334
168.010,353
168.035,371
168.060,374
168.085,360
168.110,335
168.135,309
168.160,282
168.185,252
168.210,218
168.235,182
168.260,151
168.285,129
168.310,117
168.335,107
168.360,94
168.385,76
168.410,67
168.435,82
168.460,128
168.485,195
168.510,261
168.535,310
168.560,343
168.585,367
168.610,385
168.635,393
168.660,386
168.685,370
168.710,363
168.735,371
168.760,388
168.785,399
168.810,398
168.835,388
168.860,376
168.885,362
168.910,339
168.935,305
168.960,265
168.985,230
169.010,199
169.035,163
169.060,115
169.085,58
169.110,10
169.135,-10
169.160,6
169.185,53
169.210,113
169.235,168
169.260,209
169.285,241
169.310,269
169.335,297
169.360,319
169.385,329
169.410,326
169.435,323
169.460,334
169.485,360
169.510,389
169.535,403
169.560,397
169.585,378
169.610,356
169.635,334
169.660,305
169.685,264
169.710,214
169.735,163
169.760,116
169.785,69
169.810,16
169.835,-41
169.860,-93
169.885,-123
169.910,-114
169.935,-64
169.960,16
169.985,108
170.010,191
170.035,255
170.060,308
170.085,360
170.110,416
170.135,466
170.160,502
170.185,525
170.210,547
170.235,577
170.260,610
170.285,631
170.310,629
170.335,606
170.360,572
170.385,536
170.410,495
170.435,445
170.460,382
170.485,300
170.510,191
170.535,57
170.560,-82
170.585,-196
170.610,-263
170.635,-289
170.660,-300
170.685,-309
170.710,-311
170.735,-290
170.760,-241
170.785,-175
170.810,-91
170.835,29
170.860,210
170.885,440
170.910,676
170.935,871
170.960,1005
170.985,1083
171.010,1101
171.035,1030
171.060,857
171.085,630
171.110,451
171.135,405
171.160,483
171.185,602
171.210,675
171.235,694
171.260,708
171.285,750
171.310,779
171.335,717
171.360,534
171.385,281
171.410,53
171.435,-97
171.460,-190
171.485,-279
171.510,-385
171.535,-488
171.560,-551
171.585,-568
171.610,-554
171.635,-522
171.660,-466
171.685,-372
171.710,-247
171.735,-122
171.760,-28
171.785,29
171.810,70
171.835,115
171.860,164
171.885,204
171.910,223
171.935,227
171.960,235
171.985,268
172.010,335
172.035,427
172.060,523
172.085,598
172.110,645
172.135,675
172.160,712
172.185,772
172.210,842
172.235,888
172.260,874
172.285,789
172.310,654
172.335,507
172.360,377
172.385,272
172.410,185
172.435,105
172.460,37
172.485,-9
172.510,-20
172.535,5
172.560,56
172.585,113
172.610,156
172.635,180
172.660,194
172.685,209
172.710,231
172.735,252
172.760,263
172.785,265
172.810,272
172.835,297
172.860,337
172.885,374
172.910,392
172.935,391
172.960,379
172.985,370
173.010,365
173.035,357
173.060,342
173.085,324
173.110,305
173.135,285
173.160,260
173.185,231
173.210,202
173.235,183
173.260,173
173.285,160
173.310,133
173.335,92
173.360,51
173.385,22
173.410,5
173.435,-8
173.460,-22
173.485,-28
173.510,-11
173.535,33
173.560,93
173.585,146
173.610,181
173.635,206
173.660,238
173.685,279
173.710,317
173.735,337
173.760,339
173.785,338
173.810,353
173.835,388
173.860,430
173.885,459
173.910,471
173.935,468
173.960,461
173.985,451
174.010,439
174.035,422
174.060,402
174.085,383
174.110,364
174.135,345
174.160,326
174.185,310
174.210,296
174.235,281
174.260,258
174.285,228
174.310,193
174.335,158
174.360,126
174.385,94
174.410,58
174.435,15
174.460,-26
174.485,-56
174.510,-62
174.535,-38
174.560,12
174.585,76
174.610,137
174.635,187
174.660,226
174.685,262
174.710,299
174.735,334
174.760,358
174.785,369
174.810,376
174.835,391
174.860,423
174.885,462
174.910,495
174.935,511
174.960,512
174.985,510
175.010,511
175.035,512
175.060,503
175.085,480
175.110,447
175.135,415
175.160,388
175.185,362
175.210,332
175.235,298
175.260,263
175.285,229
175.310,193
175.335,153
175.360,105
175.385,53
175.410,5
175.435,-26
175.460,-33
175.485,-10
175.510,35
175.535,91
175.560,142
175.585,183
175.610,219
175.635,259
175.660,300
175.685,332
175.710,347
175.735,351
175.760,357
175.785,376
175.810,401
175.835,420
175.860,424
175.885,415
175.910,403
175.935,390
175.960,374
175.985,352
176.010,327
176.035,304
176.060,282
176.085,253
176.110,212
176.135,163
176.160,117
176.185,81
176.210,47
176.235,8
176.260,-38
176.285,-83
176.310,-107
176.335,-100
176.360,-62
176.385,-6
176.410,56
176.435,115
176.460,167
176.485,211
176.510,251
176.535,289
176.560,321
176.585,346
176.610,363
176.635,383
176.660,413
176.685,456
176.710,500
176.735,530
176.760,538
176.785,530
176.810,517
176.835,506
176.860,491
176.885,465
176.910,428
176.935,389
176.960,354
176.985,324
177.010,291
177.035,251
177.060,207
177.085,168
177.110,137
177.135,105
177.160,67
177.185,29
177.210,9
177.235,25
177.260,75
177.285,143
177.310,210
177.335,268
177.360,318
177.385,358
177.410,378
177.435,370
177.460,337
177.485,296
177.510,266
177.535,258
177.560,268
177.585,288
177.610,312
177.635,336
177.660,355
177.685,361
177.710,355
177.735,342
177.760,330
177.785,321
177.810,309
177.835,289
177.860,267
177.885,249
177.910,238
177.935,224
177.960,198
177.985,159
178.010,117
178.035,80
178.060,46
178.085,7
178.110,-40
178.135,-89
178.160,-118
178.185,-114
178.210,-73
178.235,-7
178.260,70
178.285,147
178.310,217
178.335,278
178.360,331
178.385,377
178.410,413
178.435,436
178.460,449
178.485,459
178.510,475
178.535,502
178.560,534
178.585,559
178.610,571
178.635,571
178.660,564
178.685,551
178.710,531
178.735,502
178.760,467
178.785,435
178.810,405
178.835,372
178.860,333
178.885,291
178.910,255
178.935,229
178.960,204
178.985,172
179.010,126
179.035,73
179.060,19
179.085,-31
179.110,-78
179.135,-111
179.160,-115
179.185,-80
179.210,-17
179.235,46
179.260,87
179.285,100
179.310,108
179.335,130
179.360,173
179.385,223
179.410,261
179.435,285
179.460,307
179.485,337
179.510,379
179.535,424
179.560,460
179.585,480
179.610,484
179.635,480
179.660,469
179.685,455
179.710,437
179.735,415
179.760,390
179.785,363
179.810,332
179.835,299
179.860,266
179.885,235
179.910,204
179.935,171
179.960,134
179.985,94
180.010,55
180.035,16
180.060,-28
180.085,-81
180.110,-133
180.135,-162
180.160,-145
180.185,-80
180.210,12
180.235,100
180.260,161
180.285,199
180.310,229
180.335,263
180.360,299
180.385,326
180.410,342
180.435,354
180.460,373
180.485,401
180.510,432
180.535,456
180.560,470
180.585,475
180.610,477
180.635,477
180.660,476
180.685,470
180.710,460
180.735,447
180.760,435
180.785,424
180.810,415
180.835,408
180.860,401
180.885,394
180.910,382
180.935,361
180.960,336
180.985,319
181.010,330
181.035,374
181.060,443
181.085,516
181.110,578
181.135,628
181.160,667
181.185,677
181.210,628
181.235,502
181.260,324
181.285,149
181.310,31
181.335,-13
181.360,-11
181.385,1
181.410,9
181.435,14
181.460,22
181.485,26
181.510,15
181.535,-11
181.560,-43
181.585,-68
181.610,-88
181.635,-108
181.660,-131
181.685,-153
181.710,-173
181.735,-190
181.760,-200
181.785,-190
181.810,-143
181.835,-59
181.860,40
181.885,129
181.910,192
181.935,235
181.960,274
181.985,312
182.010,343
182.035,359
182.060,367
182.085,384
182.110,420
182.135,466
182.160,508
182.185,533
182.210,539
182.235,532
182.260,516
182.285,495
182.310,472
182.335,447
182.360,418
182.385,380
182.410,332
182.435,277
182.460,221
182.485,170
182.510,131
182.535,113
182.560,126
182.585,173
182.610,240
182.635,306
182.660,352
182.685,376
182.710,389
182.735,400
182.760,408
182.785,409
182.810,401
182.835,391
182.860,389
182.885,393
182.910,398
182.935,392
182.960,377
182.985,356
183.010,336
183.035,314
183.060,286
183.085,248
183.110,204
183.135,158
183.160,114
183.185,74
183.210,34
183.235,-9
183.260,-51
183.285,-83
183.310,-88
183.335,-57
183.360,8
183.385,91
183.410,171
183.435,234
183.460,282
183.485,327
183.510,373
183.535,414
183.560,437
183.585,439
183.610,433
183.635,436
183.660,457
183.685,485
183.710,503
183.735,500
183.760,480
183.785,454
183.810,429
183.835,402
183.860,369
183.885,330
183.910,288
183.935,249
183.960,210
183.985,169
184.010,122
184.035,71
184.060,21
184.085,-28
184.110,-78
184.135,-123
184.160,-150
184.185,-144
184.210,-98
184.235,-22
184.260,61
184.285,135
184.310,196
184.335,250
184.360,305
184.385,361
184.410,405
184.435,429
184.460,436
184.485,440
184.510,454
184.535,478
184.560,502
184.585,514
184.610,510
184.635,496
184.660,481
184.685,465
184.710,445
184.735,419
184.760,388
184.785,356
184.810,324
184.835,289
184.860,252
184.885,215
184.910,181
184.935,148
184.960,113
184.985,75
185.010,34
185.035,-6
185.060,-47
185.085,-91
185.110,-131
185.135,-153
185.160,-143
185.185,-95
185.210,-19
185.235,62
185.260,134
185.285,193
185.310,243
185.335,291
185.360,339
185.385,381
185.410,411
185.435,430
185.460,444
185.485,465
185.510,495
185.535,529
185.560,554
185.585,564
185.610,559
185.635,550
185.660,542
185.685,534
185.710,520
185.735,497
185.760,470
185.785,445
185.810,424
185.835,405
185.860,383
185.885,359
185.910,333
185.935,305
185.960,273
185.985,236
186.010,197
186.035,156
186.060,116
186.085,75
186.110,35
186.135,-4
186.160,-45
186.185,-92
186.210,-142
186.235,-188
186.260,-211
186.285,-197
186.310,-145
186.335,-69
186.360,6
186.385,68
186.410,114
186.435,152
186.460,191
186.485,230
186.510,262
186.535,279
186.560,285
186.585,289
186.610,305
186.635,334
186.660,364
186.685,384
186.710,388
186.735,386
186.760,390
186.785,402
186.810,412
186.835,409
186.860,393
186.885,375
186.910,363
186.935,355
186.960,344
186.985,331
187.010,334
187.035,375
187.060,458
187.085,553
187.110,611
187.135,592
187.160,495
187.185,350
187.210,203
187.235,83
187.260,0
187.285,-56
187.310,-85
187.335,-81
187.360,-41
187.385,26
187.410,97
187.435,153
187.460,190
187.485,219
187.510,251
187.535,286
187.560,313
187.585,328
187.610,336
187.635,351
187.660,376
187.685,404
187.710,422
187.735,428
187.760,426
187.785,422
187.810,416
187.835,404
187.860,385
187.885,366
187.910,349
187.935,333
187.960,312
187.985,283
188.010,252
188.035,225
188.060,205
188.085,183
188.110,156
188.135,123
188.160,89
188.185,57
188.210,21
188.235,-20
188.260,-61
188.285,-83
188.310,-71
188.335,-24
188.360,47
188.385,124
188.410,190
188.435,242
188.460,283
188.485,319
188.510,349
188.535,372
188.560,388
188.585,398
188.610,410
188.635,428
188.660,455
188.685,483
188.710,503
188.735,510
188.760,504
188.785,489
188.810,470
188.835,448
188.860,423
188.885,397
188.910,371
188.935,345
188.960,316
188.985,286
189.010,254
189.035,224
189.060,198
189.085,171
189.110,138
189.135,97
189.160,51
189.185,6
189.210,-35
189.235,-76
189.260,-114
189.285,-144
189.310,-150
189.335,-121
189.360,-55
189.385,31
189.410,116
189.435,184
189.460,234
189.485,273
189.510,312
189.535,351
189.560,383
189.585,404
189.610,418
189.635,433
189.660,453
189.685,479
189.710,503
189.735,518
189.760,523
189.785,518
189.810,508
189.835,493
189.860,473
189.885,450
189.910,425
189.935,402
189.960,379
189.985,354
190.010,327
190.035,296
190.060,263
190.085,228
190.110,192
190.135,153
190.160,111
190.185,67
190.210,22
190.235,-23
190.260,-71
190.285,-117
190.310,-152
190.335,-161
190.360,-134
190.385,-70
190.410,14
190.435,100
190.460,173
190.485,230
190.510,275
190.535,315
190.560,350
190.585,374
190.610,390
190.635,401
190.660,415
190.685,439
190.710,467
190.735,494
190.760,512
190.785,519
190.810,517
190.835,510
190.860,499
190.885,484
190.910,462
190.935,432
190.960,397
190.985,364
191.010,335
191.035,311
191.060,287
191.085,259
191.110,225
191.135,187
191.160,149
191.185,111
191.210,74
191.235,33
191.260,-10
191.285,-58
191.310,-102
191.335,-131
191.360,-133
191.385,-101
191.410,-38
191.435,41
191.460,117
191.485,179
191.510,224
191.535,260
191.560,295
191.585,326
191.610,350
191.635,364
191.660,376
191.685,394
191.710,421
191.735,451
191.760,472
191.785,479
191.810,477
191.835,473
191.860,469
191.885,460
191.910,442
191.935,419
191.960,396
191.985,378
192.010,361
192.035,340
192.060,312
192.085,282
192.110,256
192.135,235
192.160,213
192.185,184
192.210,147
192.235,108
192.260,73
192.285,42
192.310,10
192.335,-26
192.360,-66
192.385,-94
192.410,-90
192.435,-45
192.460,31
192.485,117
192.510,188
192.535,236
192.560,269
192.585,300
192.610,333
192.635,363
192.660,380
192.685,387
192.710,393
192.735,411
192.760,439
192.785,467
192.810,487
192.835,493
192.860,491
192.885,486
192.910,478
192.935,467
192.960,450
192.985,427
193.010,401
193.035,373
193.060,346
193.085,322
193.110,299
193.135,276
193.160,251
193.185,222
193.210,191
193.235,157
193.260,121
193.285,82
193.310,43
193.335,6
193.360,-30
193.385,-65
193.410,-91
193.435,-93
193.460,-60
193.485,5
193.510,84
193.535,151
193.560,191
193.585,213
193.610,232
193.635,257
193.660,281
193.685,293
193.710,294
193.735,292
193.760,300
193.785,320
193.810,343
193.835,356
193.860,356
193.885,349
193.910,342
193.935,339
193.960,335
193.985,325
194.010,307
194.035,286
194.060,264
194.085,244
194.110,228
194.135,213
194.160,200
194.185,188
194.210,174
194.235,154
194.260,128
194.285,105
194.310,99
194.335,125
194.360,183
194.385,257
194.410,327
194.435,376
194.460,403
194.485,418
194.510,431
194.535,449
194.560,467
194.585,483
194.610,495
194.635,504
194.660,509
194.685,511
194.710,508
194.735,502
194.760,488
194.785,464
194.810,427
194.835,379
194.860,328
194.885,281
194.910,241
194.935,205
194.960,170
194.985,133
195.010,96
195.035,62
195.060,32
195.085,5
195.110,-19
195.135,-44
195.160,-66
195.185,-77
195.210,-64
195.235,-20
195.260,52
195.285,136
195.310,212
195.335,271
195.360,316
195.385,362
195.410,412
195.435,460
195.460,495
195.485,512
195.510,515
195.535,514
195.560,510
195.585,500
195.610,477
195.635,439
195.660,389
195.685,334
195.710,285
195.735,246
195.760,220
195.785,200
195.810,178
195.835,146
195.860,106
195.885,62
195.910,18
195.935,-28
195.960,-77
195.985,-125
196.010,-160
196.035,-175
196.060,-172
196.085,-155
196.110,-122
196.135,-69
196.160,9
196.185,103
196.210,194
196.235,265
196.260,314
196.285,353
196.310,392
196.335,432
196.360,464
196.385,481
196.410,488
196.435,498
196.460,518
196.485,547
196.510,571
196.535,581
196.560,572
196.585,552
196.610,529
196.635,508
196.660,486
196.685,460
196.710,430
196.735,398
196.760,366
196.785,335
196.810,302
196.835,265
196.860,226
196.885,188
196.910,151
196.935,114
196.960,73
196.985,28
197.010,-18
197.035,-56
197.060,-75
197.085,-62
197.110,-14
197.135,55
197.160,127
197.185,182
197.210,216
197.235,239
197.260,265
197.285,295
197.310,322
197.335,339
197.360,351
197.385,370
197.410,402
197.435,437
197.460,460
197.485,463
197.510,452
197.535,440
197.560,432
197.585,423
197.610,408
197.635,386
197.660,361
197.685,341
197.710,324
197.735,308
197.760,290
197.785,267
197.810,241
197.835,210
197.860,177
197.885,145
197.910,116
197.935,87
197.960,53
197.985,12
198.010,-31
198.035,-69
198.060,-88
198.085,-80
198.110,-42
198.135,19
198.160,93
198.185,162
198.210,214
198.235,253
198.260,285
198.285,319
198.310,350
198.335,373
198.360,382
198.385,389
198.410,404
198.435,431
198.460,458
198.485,472
198.510,468
198.535,454
198.560,441
198.585,433
198.610,423
198.635,407
198.660,384
198.685,363
198.710,345
198.735,326
198.760,299
198.785,264
198.810,229
198.835,199
198.860,173
198.885,145
198.910,111
198.935,74
198.960,40
198.985,12
199.010,-7
199.035,-14
199.060,0
199.085,45
199.110,113
199.135,186
199.160,242
199.185,276
199.210,297
199.235,318
199.260,343
199.285,366
199.310,377
199.335,379
199.360,380
199.385,391
199.410,408
199.435,424
199.460,430
199.485,426
199.510,416
199.535,404
199.560,390
199.585,371
199.610,348
199.635,322
199.660,297
199.685,273
199.710,249
199.735,224
199.760,197
199.785,167
199.810,134
199.835,99
199.860,64
199.885,29
199.910,-4
199.935,-30
199.960,-38
199.985,-18
200.010,33
200.035,102
200.060,169
200.085,220
200.110,254
200.135,280
200.160,305
200.185,330
200.210,349
200.235,361
200.260,370
200.285,383
200.310,401
200.335,418
200.360,427
200.385,427
200.410,421
200.435,412
200.460,400
200.485,383
200.510,362
200.535,340
200.560,322
200.585,310
200.610,303
200.635,293
200.660,277
200.685,254
200.710,225
200.735,197
200.760,172
200.785,149
200.810,125
200.835,93
200.860,55
200.885,15
200.910,-16
200.935,-30
200.960,-16
200.985,26
201.010,86
201.035,147
201.060,195
201.085,227
201.110,253
201.135,281
201.160,312
201.185,340
201.210,356
201.235,362
201.260,367
201.285,381
201.310,405
201.335,430
201.360,446
201.385,450
201.410,445
201.435,436
201.460,426
201.485,412
201.510,395
201.535,376
201.560,355
201.585,334
201.610,312
201.635,289
201.660,266
201.685,243
201.710,223
201.735,201
201.760,176
201.785,145
201.810,107
201.835,67
201.860,31
201.885,1
201.910,-17
201.935,-20
201.960,-4
201.985,36
202.010,94
202.035,156
202.060,208
202.085,241
202.110,264
202.135,286
202.160,312
202.185,338
202.210,357
202.235,368
202.260,381
202.285,400
202.310,424
202.335,443
202.360,451
202.385,448
202.410,441
202.435,432
202.460,422
202.485,407
202.510,388
202.535,367
202.560,346
202.585,326
202.610,304
202.635,281
202.660,256
202.685,228
202.710,198
202.735,166
202.760,131
202.785,96
202.810,61
202.835,26
202.860,-4
202.885,-31
202.910,-50
202.935,-58
202.960,-47
202.985,-13
203.010,40
203.035,99
203.060,147
203.085,177
203.110,200
203.135,229
203.160,268
203.185,306
203.210,329
203.235,338
203.260,345
203.285,365
203.310,399
203.335,431
203.360,450
203.385,454
203.410,452
203.435,451
203.460,450
203.485,446
203.510,440
203.535,436
203.560,434
203.585,429
203.610,416
203.635,397
203.660,378
203.685,364
203.710,349
203.735,329
203.760,301
203.785,272
203.810,240
203.835,201
203.860,148
203.885,90
203.910,47
203.935,38
203.960,64
203.985,110
204.010,158
204.035,204
204.060,255
204.085,307
204.110,347
204.135,356
204.160,329
204.185,281
204.210,236
204.235,211
204.260,209
204.285,220
204.310,237
204.335,253
204.360,266
204.385,275
204.410,282
204.435,285
204.460,286
204.485,283
204.510,275
204.535,266
204.560,258
204.585,252
204.610,239
204.635,211
204.660,170
204.685,124
204.710,87
204.735,66
204.760,61
204.785,71
204.810,95
204.835,136
204.860,190
204.885,246
204.910,290
204.935,315
204.960,322
204.985,322
205.010,326
205.035,342
205.060,372
205.085,412
205.110,454
205.135,486
205.160,504
205.185,507
205.210,498
205.235,482
205.260,461
205.285,438
205.310,414
205.335,384
205.360,343
205.385,288
205.410,225
205.435,167
205.460,123
205.485,93
205.510,66
205.535,34
205.560,-4
205.585,-47
205.610,-89
205.635,-124
205.660,-146
205.685,-142
205.710,-105
205.735,-37
205.760,44
205.785,122
205.810,185
205.835,235
205.860,281
205.885,326
205.910,365
205.935,393
205.960,412
205.985,427
206.010,448
206.035,475
206.060,504
206.085,529
206.110,542
206.135,540
206.160,526
206.185,506
206.210,484
206.235,461
206.260,435
206.285,405
206.310,371
206.335,335
206.360,299
206.385,266
206.410,236
206.435,207
206.460,177
206.485,141
206.510,93
206.535,32
206.560,-31
206.585,-79
206.610,-93
206.635,-64
206.660,0
206.685,77
206.710,147
206.735,199
206.760,238
206.785,275
206.810,311
206.835,342
206.860,361
206.885,369
206.910,376
206.935,390
206.960,411
206.985,431
207.010,442
207.035,448
207.060,453
207.085,458
207.110,456
207.135,440
207.160,413
207.185,384
207.210,360
207.235,339
207.260,314
207.285,283
207.310,251
207.335,223
207.360,195
207.385,162
207.410,120
207.435,75
207.460,33
207.485,-4
207.510,-44
207.535,-84
207.560,-115
207.585,-117
207.610,-79
207.635,-7
207.660,75
207.685,150
207.710,207
207.735,252
207.760,294
207.785,336
207.810,371
207.835,395
207.860,411
207.885,428
207.910,455
207.935,489
207.960,519
207.985,536
208.010,540
208.035,535
208.060,529
208.085,520
208.110,505
208.135,481
208.160,450
208.185,419
208.210,388
208.235,356
208.260,321
208.285,284
208.310,246
208.335,211
208.360,177
208.385,142
208.410,104
208.435,64
208.460,20
208.485,-29
208.510,-82
208.535,-127
208.560,-147
208.585,-129
208.610,-72
208.635,7
208.660,90
208.685,156
208.710,202
208.735,235
208.760,265
208.785,296
208.810,322
208.835,336
208.860,340
208.885,346
208.910,363
208.935,391
208.960,420
208.985,440
209.010,444
209.035,437
209.060,425
209.085,412
209.110,395
209.135,373
209.160,347
209.185,321
209.210,296
209.235,269
209.260,239
209.285,207
209.310,176
209.335,145
209.360,113
209.385,75
209.410,34
209.435,-1
209.460,-15
209.485,5
209.510,60
209.535,135
209.560,209
209.585,270
209.610,313
209.635,345
209.660,369
209.685,387
209.710,396
209.735,399
209.760,404
209.785,416
209.810,434
209.835,451
209.860,458
209.885,454
209.910,441
209.935,427
209.960,412
209.985,395
210.010,371
210.035,339
210.060,303
210.085,267
210.110,234
210.135,205
210.160,177
210.185,144
210.210,104
210.235,58
210.260,13
210.285,-27
210.310,-64
210.335,-91
210.360,-101
210.385,-81
210.410,-28
210.435,48
210.460,127
210.485,191
210.510,239
210.535,278
210.560,315
210.585,348
210.610,370
210.635,379
210.660,384
210.685,395
210.710,416
210.735,443
210.760,466
210.785,480
210.810,481
210.835,471
210.860,454
210.885,434
210.910,416
210.935,397
210.960,375
210.985,345
211.010,309
211.035,275
211.060,248
211.085,225
211.110,197
211.135,157
211.160,110
211.185,66
211.210,27
211.235,-8
211.260,-44
211.285,-75
211.310,-87
211.335,-66
211.360,-15
211.385,52
211.410,119
211.435,176
211.460,222
211.485,264
211.510,302
211.535,334
211.560,359
211.585,375
211.610,389
211.635,406
211.660,430
211.685,459
211.710,487
211.735,503
211.760,504
211.785,491
211.810,473
211.835,454
211.860,437
211.885,417
211.910,392
211.935,362
211.960,329
211.985,296
212.010,266
212.035,239
212.060,213
212.085,187
212.110,159
212.135,127
212.160,90
212.185,50
212.210,7
212.235,-35
212.260,-71
212.285,-87
212.310,-71
212.335,-20
212.360,54
212.385,129
212.410,189
212.435,231
212.460,263
212.485,295
212.510,326
212.535,348
212.560,360
212.585,366
212.610,377
212.635,400
212.660,428
212.685,451
212.710,460
212.735,455
212.760,444
212.785,435
212.810,429
212.835,423
212.860,412
212.885,393
212.910,369
212.935,344
212.960,322
212.985,302
213.010,280
213.035,254
213.060,227
213.085,198
213.110,170
213.135,140
213.160,105
213.185,66
213.210,25
213.235,-11
213.260,-39
213.285,-50
213.310,-37
213.335,0
213.360,59
213.385,124
213.410,181
213.435,224
213.460,254
213.485,278
213.510,300
213.535,319
213.560,334
213.585,345
213.610,359
213.635,378
213.660,400
213.685,419
213.710,429
213.735,429
213.760,425
213.785,418
213.810,411
213.835,404
213.860,398
213.885,393
213.910,388
213.935,379
213.960,366
213.985,346
214.010,322
214.035,295
214.060,264
214.085,230
214.110,192
214.135,152
214.160,113
214.185,75
214.210,40
214.235,6
214.260,-17
214.285,-24
214.310,-7
214.335,34
214.360,90
214.385,148
214.410,196
214.435,230
214.460,253
214.485,272
214.510,290
214.535,307
214.560,320
214.585,329
214.610,338
214.635,353
214.660,375
214.685,398
214.710,412
214.735,413
214.760,401
214.785,387
214.810,378
214.835,373
214.860,368
214.885,357
214.910,340
214.935,319
214.960,299
214.985,279
215.010,260
215.035,241
215.060,223
215.085,205
215.110,184
215.135,158
215.160,128
215.185,94
215.210,59
215.235,28
215.260,10
215.285,19
215.310,58
215.335,121
215.360,189
215.385,243
215.410,277
215.435,298
215.460,315
215.485,331
215.510,344
215.535,351
215.560,357
215.585,367
215.610,383
215.635,400
215.660,412
215.685,415
215.710,411
215.735,400
215.760,386
215.785,369
215.810,351
215.835,332
215.860,312
215.885,289
215.910,261
215.935,234
215.960,207
215.985,180
216.010,148
216.035,109
216.060,67
216.085,26
216.110,-4
216.135,-21
216.160,-18
216.185,9
216.210,61
216.235,123
216.260,183
216.285,230
216.310,267
216.335,303
216.360,342
216.385,377
216.410,403
216.435,419
216.460,431
216.485,448
216.510,469
216.535,486
216.560,492
216.585,485
216.610,470
216.635,451
216.660,431
216.685,409
216.710,386
216.735,360
216.760,330
216.785,298
216.810,265
216.835,233
216.860,203
216.885,172
216.910,140
216.935,106
216.960,70
216.985,31
217.010,-10
217.035,-50
217.060,-75
217.085,-73
217.110,-36
217.135,25
217.160,93
217.185,151
217.210,197
217.235,234
217.260,269
217.285,302
217.310,329
217.335,347
217.360,361
217.385,377
217.410,399
217.435,426
217.460,451
217.485,467
217.510,472
217.535,467
217.560,458
217.585,447
217.610,433
217.635,415
217.660,392
217.685,367
217.710,340
217.735,311
217.760,281
217.785,249
217.810,218
217.835,187
217.860,155
217.885,119
217.910,78
217.935,34
217.960,-12
217.985,-58
218.010,-94
218.035,-108
218.060,-88
218.085,-33
218.110,42
218.135,117
218.160,176
218.185,221
218.210,262
218.235,305
218.260,348
218.285,379
218.310,396
218.335,403
218.360,414
218.385,436
218.410,465
218.435,491
218.460,504
218.485,505
218.510,497
218.535,485
218.560,472
218.585,456
218.610,437
218.635,414
218.660,389
218.685,361
218.710,332
218.735,301
218.760,270
218.785,238
218.810,206
218.835,173
218.860,138
218.885,101
218.910,62
218.935,19
218.960,-27
218.985,-76
219.010,-118
219.035,-138
219.060,-122
219.085,-68
219.110,10
219.135,92
219.160,157
219.185,202
219.210,235
219.235,267
219.260,302
219.285,333
219.310,353
219.335,366
219.360,382
219.385,408
219.410,436
219.435,457
219.460,462
219.485,456
219.510,448
219.535,443
219.560,433
219.585,412
219.610,381
219.635,350
219.660,325
219.685,305
219.710,284
219.735,257
219.760,227
219.785,198
219.810,169
219.835,138
219.860,100
219.885,59
219.910,16
219.935,-25
219.960,-61
219.985,-83
220.010,-73
220.035,-25
220.060,52
220.085,135
220.110,203
220.135,251
220.160,290
220.185,329
220.210,366
220.235,396
220.260,416
220.285,434
220.310,455
220.335,466
220.360,442
220.385,371
220.410,268
220.435,169
220.460,106
220.485,87
220.510,95
220.535,110
220.560,121
220.585,131
220.610,144
220.635,164
220.660,196
220.685,242
220.710,300
220.735,355
220.760,393
220.785,416
220.810,448
220.835,515
220.860,624
220.885,757
220.910,890
220.935,1019
220.960,1152
220.985,1290
221.010,1406
221.035,1461
221.060,1425
221.085,1293
221.110,1076
221.135,781
221.160,425
221.185,53
221.210,-255
221.235,-425
221.260,-430
221.285,-310
221.310,-145
221.335,-1
221.360,96
221.385,149
221.410,153
221.435,88
221.460,-68
221.485,-311
221.510,-607
221.535,-905
221.560,-1155
221.585,-1318
221.610,-1366
221.635,-1285
221.660,-1094
221.685,-835
221.710,-569
221.735,-344
221.760,-178
221.785,-55
221.810,49
221.835,158
221.860,272
221.885,384
221.910,488
221.935,585
221.960,679
221.985,768
222.010,839
222.035,878
222.060,881
222.085,858
222.110,824
222.135,790
222.160,754
222.185,706
222.210,642
222.235,567
222.260,491
222.285,422
222.310,357
222.335,290
222.360,219
222.385,154
222.410,112
222.435,110
222.460,150
222.485,222
222.510,304
222.535,377
222.560,434
222.585,482
222.610,529
222.635,575
222.660,606
222.685,608
222.710,573
222.735,516
222.760,461
222.785,430
222.810,433
222.835,461
222.860,500
222.885,536
222.910,560
222.935,567
222.960,557
222.985,536
223.010,504
223.035,460
223.060,395
223.085,305
223.110,198
223.135,92
223.160,3
223.185,-67
223.210,-127
223.235,-175
223.260,-198
223.285,-180
223.310,-123
223.335,-52
223.360,6
223.385,45
223.410,82
223.435,133
223.460,193
223.485,234
223.510,241
223.535,225
223.560,213
223.585,223
223.610,248
223.635,268
223.660,278
223.685,288
223.710,310
223.735,339
223.760,358
223.785,352
223.810,326
223.835,296
223.860,271
223.885,248
223.910,218
223.935,179
223.960,137
223.985,96
224.010,56
224.035,13
224.060,-25
224.085,-45
224.110,-29
224.135,22
224.160,98
224.185,175
224.210,239
224.235,290
224.260,329
224.285,356
224.310,365
224.335,352
224.360,327
224.385,310
224.410,316
224.435,346
224.460,383
224.485,408
224.510,414
224.535,408
224.560,399
224.585,394
224.610,387
224.635,374
224.660,354
224.685,330
224.710,303
224.735,274
224.760,243
224.785,208
224.810,169
224.835,125
224.860,79
224.885,38
224.910,12
224.935,14
224.960,47
224.985,104
225.010,172
225.035,240
225.060,300
225.085,349
225.110,388
225.135,421
225.160,448
225.185,468
225.210,475
225.235,468
225.260,453
225.285,438
225.310,426
225.335,408
225.360,377
225.385,333
225.410,292
225.435,271
225.460,274
225.485,289
225.510,296
225.535,288
225.560,268
225.585,248
225.610,231
225.635,214
225.660,194
225.685,172
225.710,148
225.735,124
225.760,97
225.785,65
225.810,31
225.835,0
225.860,-23
225.885,-37
225.910,-35
225.935,-11
225.960,36
225.985,101
226.010,168
226.035,226
226.060,276
226.085,321
226.110,365
226.135,406
226.160,441
226.185,468
226.210,493
226.235,518
226.260,542
226.285,558
226.310,565
226.335,559
226.360,536
226.385,493
226.410,434
226.435,375
226.460,336
226.485,322
226.510,320
226.535,312
226.560,287
226.585,254
226.610,228
226.635,212
226.660,196
226.685,167
226.710,125
226.735,81
226.760,44
226.785,13
226.810,-20
226.835,-60
226.860,-99
226.885,-122
226.910,-117
226.935,-81
226.960,-19
226.985,51
227.010,117
227.035,165
227.060,197
227.085,223
227.110,250
227.135,277
227.160,295
227.185,300
227.210,302
227.235,319
227.260,359
227.285,413
227.310,459
227.335,483
227.360,487
227.385,483
227.410,479
227.435,472
227.460,458
227.485,440
227.510,422
227.535,407
227.560,391
227.585,372
227.610,349
227.635,326
227.660,306
227.685,284
227.710,255
227.735,216
227.760,168
227.785,113
227.810,54
227.835,5
227.860,-17
227.885,-4
227.910,41
227.935,101
227.960,156
227.985,199
228.010,232
228.035,263
228.060,292
228.085,312
228.110,324
228.135,337
228.160,360
228.185,392
228.210,422
228.235,435
228.260,431
228.285,419
228.310,407
228.335,392
228.360,363
228.385,315
228.410,256
228.435,206
228.460,176
228.485,170
228.510,174
228.535,178
228.560,175
228.585,165
228.610,151
228.635,139
228.660,139
228.685,157
228.710,194
228.735,243
228.760,291
228.785,328
228.810,349
228.835,358
228.860,357
228.885,347
228.910,332
228.935,323
228.960,327
228.985,339
229.010,350
229.035,346
229.060,327
229.085,305
229.110,291
229.135,284
229.160,273
229.185,253
229.210,226
229.235,202
229.260,188
229.285,180
229.310,170
229.335,152
229.360,125
229.385,93
229.410,61
229.435,33
229.460,20
229.485,30
229.510,67
229.535,121
229.560,177
229.585,226
229.610,269
229.635,311
229.660,351
229.685,384
229.710,402
229.735,405
229.760,400
229.785,393
229.810,387
229.835,378
229.860,366
229.885,353
229.910,345
229.935,340
229.960,336
229.985,331
230.010,329
230.035,329
230.060,325
230.085,307
230.110,275
230.135,233
230.160,193
230.185,157
230.210,117
230.235,66
230.260,8
230.285,-36
230.310,-47
230.335,-19
230.360,37
230.385,101
230.410,158
230.435,206
230.460,250
230.485,293
230.510,332
230.535,362
230.560,380
230.585,388
230.610,393
230.635,401
230.660,418
230.685,439
230.710,456
230.735,463
230.760,455
230.785,439
230.810,419
230.835,398
230.860,372
230.885,339
230.910,299
230.935,261
230.960,230
230.985,203
231.010,174
231.035,140
231.060,101
231.085,61
231.110,23
231.135,-14
231.160,-50
231.185,-77
231.210,-78
231.235,-41
231.260,30
231.285,118
231.310,197
231.335,254
231.360,293
231.385,329
231.410,371
231.435,415
231.460,449
231.485,466
231.510,474
231.535,489
231.560,516
231.585,546
231.610,562
231.635,554
231.660,526
231.685,492
231.710,459
231.735,427
231.760,392
231.785,356
231.810,325
231.835,299
231.860,274
231.885,241
231.910,201
231.935,162
231.960,128
231.985,95
232.010,56
232.035,5
232.060,-51
232.085,-104
232.110,-147
232.135,-181
232.160,-200
232.185,-193
232.210,-148
232.235,-70
232.260,20
232.285,100
232.310,160
232.335,207
232.360,253
232.385,300
232.410,336
232.435,355
232.460,366
232.485,387
232.510,425
232.535,474
232.560,514
232.585,534
232.610,536
232.635,531
232.660,525
232.685,514
232.710,496
232.735,474
232.760,451
232.785,430
232.810,409
232.835,383
232.860,355
232.885,330
232.910,306
232.935,279
232.960,244
232.985,203
233.010,163
233.035,129
233.060,96
233.085,57
233.110,9
233.135,-39
233.160,-70
233.185,-70
233.210,-35
233.235,25
233.260,95
233.285,156
233.310,198
233.335,220
233.360,231
233.385,243
233.410,261
233.435,286
233.460,313
233.485,340
233.510,371
233.535,403
233.560,430
233.585,442
233.610,440
233.635,432
233.660,427
233.685,425
233.710,417
233.735,397
233.760,368
233.785,342
233.810,327
233.835,316
233.860,299
233.885,270
233.910,237
233.935,209
233.960,186
233.985,161
234.010,127
234.035,88
234.060,53
234.085,26
234.110,6
234.135,-5
234.160,1
234.185,35
234.210,97
234.235,169
234.260,227
234.285,263
234.310,287
234.335,312
234.360,339
234.385,359
234.410,366
234.435,367
234.460,373
234.485,391
234.510,410
234.535,417
234.560,408
234.585,391
234.610,376
234.635,362
234.660,342
234.685,310
234.710,273
234.735,240
234.760,218
234.785,205
234.810,195
234.835,184
234.860,169
234.885,149
234.910,126
234.935,99
234.960,72
234.985,49
235.010,34
235.035,35
235.060,56
235.085,95
235.110,145
235.135,194
235.160,233
235.185,264
235.210,293
235.235,323
235.260,351
235.285,369
235.310,378
235.335,386
235.360,398
235.385,411
235.410,417
235.435,411
235.460,399
235.485,387
235.510,382
235.535,378
235.560,371
235.585,358
235.610,341
235.635,324
235.660,305
235.685,280
235.710,249
235.735,211
235.760,172
235.785,137
235.810,113
235.835,99
235.860,93
235.885,85
235.910,71
235.935,50
235.960,35
235.985,39
236.010,71
236.035,125
236.060,185
236.085,237
236.110,274
236.135,301
236.160,324
236.185,349
236.210,370
236.235,383
236.260,388
236.285,392
236.310,403
236.335,421
236.360,437
236.385,440
236.410,427
236.435,408
236.460,396
236.485,393
236.510,390
236.535,377
236.560,352
236.585,326
236.610,307
236.635,291
236.660,268
236.685,232
236.710,190
236.735,155
236.760,132
236.785,117
236.810,98
236.835,71
236.860,40
236.885,15
236.910,4
236.935,12
236.960,41
236.985,87
237.010,140
237.035,186
237.060,215
237.085,228
237.110,234
237.135,240
237.160,251
237.185,267
237.210,291
237.235,326
237.260,366
237.285,400
237.310,412
237.335,398
237.360,370
237.385,348
237.410,344
237.435,357
237.460,371
237.485,372
237.510,357
237.535,330
237.560,301
237.585,274
237.610,251
237.635,230
237.660,211
237.685,195
237.710,180
237.735,166
237.760,149
237.785,124
237.810,91
237.835,55
237.860,29
237.885,29
237.910,61
237.935,116
237.960,172
237.985,211
238.010,227
238.035,231
238.060,234
238.085,244
238.110,260
238.135,281
238.160,312
238.185,352
238.210,394
238.235,428
238.260,451
238.285,468
238.310,482
238.335,489
238.360,483
238.385,466
238.410,447
238.435,436
238.460,430
238.485,416
238.510,394
238.535,373
238.560,365
238.585,366
238.610,358
238.635,332
238.660,292
238.685,251
238.710,207
238.735,144
238.760,60
238.785,-20
238.810,-66
238.835,-64
238.860,-30
238.885,16
238.910,76
238.935,164
238.960,268
238.985,348
239.010,370
239.035,348
239.060,328
239.085,324
239.110,287
239.135,157
239.160,-40
239.185,-174
239.210,-104
239.235,173
239.260,497
239.285,666
239.310,611
239.335,448
239.360,353
239.385,391
239.410,465
239.435,418
239.460,183
239.485,-164
239.510,-474
239.535,-634
239.560,-622
239.585,-487
239.610,-310
239.635,-161
239.660,-82
239.685,-67
239.710,-70
239.735,-39
239.760,35
239.785,124
239.810,192
239.835,239
239.860,289
239.885,343
239.910,362
239.935,316
239.960,237
239.985,213
240.010,311
240.035,512
240.060,728
240.085,886
240.110,984
240.135,1067
240.160,1172
240.185,1296
240.210,1415
240.235,1516
240.260,1591
240.285,1628
240.310,1622
240.335,1599
240.360,1599
240.385,1639
240.410,1677
240.435,1653
240.460,1551
240.485,1411
240.510,1256
240.535,1030
240.560,632
240.585,34
240.610,-653
240.635,-1238
240.660,-1585
240.685,-1686
240.710,-1622
240.735,-1470
240.760,-1273
240.785,-1073
240.810,-935
240.835,-895
240.860,-919
240.885,-925
240.910,-871
240.935,-793
240.960,-750
240.985,-736
241.010,-666
241.035,-473
241.060,-188
241.085,83
241.110,265
241.135,378
241.160,496
241.185,654
241.210,808
241.235,886
241.260,867
241.285,785
241.310,694
241.335,613
241.360,539
241.385,468
241.410,415
241.435,391
241.460,383
241.485,356
241.510,280
241.535,155
241.560,9
241.585,-114
241.610,-183
241.635,-193
241.660,-167
241.685,-126
241.710,-65
241.735,47
241.760,224
241.785,429
241.810,586
241.835,643
241.860,616
241.885,572
241.910,564
241.935,585
241.960,588
241.985,541
242.010,463
242.035,399
242.060,381
242.085,402
242.110,436
242.135,462
242.160,473
242.185,476
242.210,479
242.235,490
242.260,509
242.285,526
242.310,525
242.335,502
242.360,468
242.385,442
242.410,429
242.435,416
242.460,390
242.485,357
242.510,337
242.535,346
242.560,373
242.585,393
242.610,386
242.635,355
242.660,314
242.685,277
242.710,246
242.735,225
242.760,217
242.785,221
242.810,228
242.835,228
242.860,221
242.885,219
242.910,228
242.935,242
242.960,250
242.985,245
243.010,232
243.035,221
243.060,213
243.085,201
243.110,179
243.135,159
243.160,154
243.185,171
243.210,202
243.235,234
243.260,266
243.285,308
243.310,373
243.335,456
243.360,544
243.385,620
243.410,679
243.435,720
243.460,740
243.485,728
243.510,672
243.535,567
243.560,416
243.585,242
243.610,80
243.635,-28
243.660,-60
243.685,-25
243.710,35
243.735,78
243.760,86
243.785,74
243.810,64
243.835,52
243.860,16
243.885,-57
243.910,-146
243.935,-208
243.960,-213
243.985,-170
244.010,-111
244.035,-63
244.060,-30
244.085,-6
244.110,15
244.135,37
244.160,60
244.185,81
244.210,92
244.235,91
244.260,98
244.285,144
244.310,233
244.335,322
244.360,349
244.385,298
244.410,224
244.435,203
244.460,249
244.485,307
244.510,314
244.535,278
244.560,252
244.585,252
244.610,219
244.635,86
244.660,-120
244.685,-279
244.710,-285
244.735,-166
244.760,-54
244.785,-50
244.810,-121
244.835,-132
244.860,18
244.885,320
244.910,673
244.935,975
244.960,1170
244.985,1250
245.010,1241
245.035,1198
245.060,1172
245.085,1155
245.110,1069
245.135,848
245.160,530
245.185,265
245.210,180
245.235,249
245.260,318
245.285,264
245.310,125
245.335,34
245.360,57
245.385,109
245.410,52
245.435,-139
245.460,-352
245.485,-445
245.510,-383
245.535,-236
245.560,-79
245.585,60
245.610,182
245.635,256
245.660,253
245.685,205
245.710,205
245.735,319
245.760,515
245.785,702
245.810,826
245.835,916
245.860,1023
245.885,1128
245.910,1156
245.935,1065
245.960,899
245.985,751
246.010,663
246.035,601
246.060,513
246.085,395
246.110,283
246.135,188
246.160,85
246.185,-49
246.210,-189
246.235,-279
246.260,-300
246.285,-296
246.310,-320
246.335,-372
246.360,-395
246.385,-343
246.410,-232
246.435,-127
246.460,-72
246.485,-54
246.510,-31
246.535,17
246.560,69
246.585,95
246.610,100
246.635,114
246.660,159
246.685,221
246.710,265
246.735,273
246.760,259
246.785,248
246.810,246
246.835,242
246.860,232
246.885,232
246.910,261
246.935,303
246.960,312
246.985,264
247.010,208
247.035,234
247.060,385
247.085,593
247.110,716
247.135,668
247.160,497
247.185,344
247.210,298
247.235,324
247.260,313
247.285,215
247.310,95
247.335,54
247.360,120
247.385,218
247.410,256
247.435,223
247.460,181
247.485,191
247.510,244
247.535,285
247.560,281
247.585,253
247.610,242
247.635,259
247.660,282
247.685,289
247.710,283
247.735,283
247.760,290
247.785,289
247.810,270
247.835,239
247.860,209
247.885,178
247.910,133
247.935,77
247.960,34
247.985,32
248.010,77
248.035,146
248.060,212
248.085,265
248.110,309
248.135,349
248.160,381
248.185,405
248.210,430
248.235,464
248.260,502
248.285,531
248.310,547
248.335,563
248.360,592
248.385,622
248.410,616
248.435,553
248.460,452
248.485,361
248.510,314
248.535,299
248.560,279
248.585,233
248.610,178
248.635,142
248.660,124
248.685,93
248.710,28
248.735,-53
248.760,-106
248.785,-100
248.810,-52
248.835,-7
248.860,9
248.885,13
248.910,33
248.935,79
248.960,128
248.985,154
249.010,157
249.035,159
249.060,186
249.085,238
249.110,299
249.135,346
249.160,369
249.185,365
249.210,338
249.235,296
249.260,252
249.285,212
249.310,175
249.335,135
249.360,94
249.385,65
249.410,60
249.435,70
249.460,67
249.485,31
249.510,-32
249.535,-94
249.560,-125
249.585,-113
249.610,-67
249.635,0
249.660,80
249.685,172
249.710,270
249.735,368
249.760,467
249.785,564
249.810,649
249.835,705
249.860,723
249.885,713
249.910,696
249.935,690
249.960,701
249.985,731
250.010,779
250.035,828
250.060,833
250.085,745
250.110,568
250.135,376
250.160,270
250.185,291
250.210,374
250.235,404
250.260,321
250.285,165
250.310,32
250.335,-25
250.360,-41
250.385,-86
250.410,-192
250.435,-321
250.460,-408
250.485,-416
250.510,-353
250.535,-253
250.560,-151
250.585,-70
250.610,-20
250.635,17
250.660,79
250.685,191
250.710,335
250.735,457
250.760,512
250.785,514
250.810,523
250.835,579
250.860,663
250.885,715
250.910,703
250.935,654
250.960,620
250.985,620
251.010,620
251.035,579
251.060,498
251.085,417
251.110,368
251.135,342
251.160,305
251.185,239
251.210,164
251.235,103
251.260,53
251.285,-13
251.310,-113
251.335,-221
251.360,-290
251.385,-291
251.410,-242
251.435,-185
251.460,-144
251.485,-111
251.510,-62
251.535,5
251.560,71
251.585,112
251.610,129
251.635,142
251.660,170
251.685,216
251.710,262
251.735,298
251.760,325
251.785,349
251.810,377
251.835,404
251.860,424
251.885,433
251.910,435
251.935,434
251.960,435
251.985,440
252.010,448
252.035,454
252.060,449
252.085,433
252.110,410
252.135,386
252.160,362
252.185,331
252.210,293
252.235,257
252.260,239
252.285,250
252.310,289
252.335,347
252.360,416
252.385,482
252.410,525
252.435,527
252.460,486
252.485,430
252.510,390
252.535,375
252.560,360
252.585,318
252.610,242
252.635,157
252.660,89
252.685,45
252.710,14
252.735,-8
252.760,-7
252.785,27
252.810,79
252.835,114
252.860,107
252.885,69
252.910,32
252.935,16
252.960,12
252.985,0
253.010,-26
253.035,-57
253.060,-76
253.085,-78
253.110,-64
253.135,-32
253.160,21
253.185,98
253.210,186
253.235,267
253.260,326
253.285,358
253.310,366
253.335,355
253.360,340
253.385,341
253.410,365
253.435,405
253.460,439
253.485,452
253.510,452
253.535,453
253.560,464
253.585,477
253.610,480
253.635,474
253.660,468
253.685,465
253.710,455
253.735,428
253.760,385
253.785,337
253.810,294
253.835,256
253.860,220
253.885,192
253.910,186
253.935,204
253.960,233
253.985,253
254.010,262
254.035,273
254.060,299
254.085,334
254.110,356
254.135,353
254.160,333
254.185,318
254.210,321
254.235,337
254.260,353
254.285,358
254.310,353
254.335,341
254.360,321
254.385,293
254.410,260
254.435,229
254.460,200
254.485,175
254.510,148
254.535,121
254.560,93
254.585,62
254.610,26
254.635,-11
254.660,-43
254.685,-59
254.710,-51
254.735,-18
254.760,34
254.785,95
254.810,151
254.835,192
254.860,220
254.885,242
254.910,266
254.935,291
254.960,308
254.985,312
255.010,311
255.035,317
255.060,331
255.085,342
255.110,340
255.135,327
255.160,314
255.185,305
255.210,291
255.235,267
255.260,241
255.285,224
255.310,217
255.335,208
255.360,193
255.385,184
255.410,185
255.435,171
255.460,89
255.485,-75
255.510,-260
255.535,-348
255.560,-262
255.585,-35
255.610,215
255.635,383
255.660,451
255.685,470
255.710,479
255.735,471
255.760,422
255.785,353
255.810,326
255.835,398
255.860,555
255.885,729
255.910,849
255.935,881
255.960,830
255.985,719
256.010,577
256.035,444
256.060,358
256.085,319
256.110,292
256.135,231
256.160,136
256.185,51
256.210,17
256.235,31
256.260,43
256.285,13
256.310,-50
256.335,-106
256.360,-121
256.385,-93
256.410,-36
256.435,45
256.460,150
256.485,263
256.510,351
256.535,390
256.560,395
256.585,404
256.610,446
256.635,516
256.660,584
256.685,628
256.710,646
256.735,635
256.760,588
256.785,499
256.810,385
256.835,281
256.860,211
256.885,168
256.910,124
256.935,67
256.960,17
256.985,1
257.010,19
257.035,38
257.060,25
257.085,-21
257.110,-75
257.135,-112
257.160,-134
257.185,-152
257.210,-161
257.235,-144
257.260,-91
257.285,-31
257.310,-5
257.335,-33
257.360,-88
257.385,-122
257.410,-102
257.435,-36
257.460,48
257.485,127
257.510,188
257.535,225
257.560,237
257.585,234
257.610,244
257.635,287
257.660,357
257.685,423
257.710,458
257.735,470
257.760,487
257.785,526
257.810,576
257.835,611
257.860,622
257.885,622
257.910,625
257.935,631
257.960,638
257.985,658
258.010,709
258.035,790
258.060,865
258.085,893
258.110,862
258.135,801
258.160,736
258.185,666
258.210,567
258.235,441
258.260,334
258.285,296
258.310,335
258.335,405
258.360,451
258.385,454
258.410,431
258.435,396
258.460,332
258.485,217
258.510,60
258.535,-91
258.560,-195
258.585,-245
258.610,-271
258.635,-303
258.660,-346
258.685,-384
258.710,-404
258.735,-407
258.760,-396
258.785,-372
258.810,-333
258.835,-280
258.860,-223
258.885,-167
258.910,-111
258.935,-56
258.960,-9
258.985,22
259.010,40
259.035,54
259.060,74
259.085,102
259.110,135
259.135,176
259.160,231
259.185,301
259.210,372
259.235,424
259.260,446
259.285,444
259.310,428
259.335,408
259.360,383
259.385,354
259.410,322
259.435,293
259.460,266
259.485,241
259.510,218
259.535,204
259.560,210
259.585,242
259.610,295
259.635,358
259.660,416
259.685,459
259.710,483
259.735,491
259.760,493
259.785,495
259.810,499
259.835,497
259.860,483
259.885,458
259.910,428
259.935,397
259.960,366
259.985,341
260.010,339
260.035,387
260.060,503
260.085,674
260.110,855
260.135,985
260.160,1023
260.185,967
260.210,851
260.235,727
260.260,638
260.285,602
260.310,607
260.335,627
260.360,627
260.385,584
260.410,491
260.435,360
260.460,210
260.485,55
260.510,-111
260.535,-301
260.560,-509
260.585,-700
260.610,-818
260.635,-834
260.660,-764
260.685,-657
260.710,-560
260.735,-480
260.760,-392
260.785,-275
260.810,-133
260.835,7
260.860,120
260.885,197
260.910,243
260.935,263
260.960,264
260.985,255
261.010,249
261.035,250
261.060,252
261.085,249
261.110,241
261.135,244
261.160,269
261.185,310
261.210,349
261.235,366
261.260,357
261.285,331
261.310,307
261.335,299
261.360,313
261.385,348
261.410,397
261.435,453
261.460,513
261.485,585
261.510,668
261.535,754
261.560,821
261.585,850
261.610,837
261.635,788
261.660,711
261.685,608
261.710,486
261.735,366
261.760,272
261.785,213
261.810,173
261.835,123
261.860,50
261.885,-38
261.910,-127
261.935,-203
261.960,-263
261.985,-299
262.010,-299
262.035,-257
262.060,-185
262.085,-106
262.110,-34
262.135,33
262.160,106
262.185,187
262.210,259
262.235,306
262.260,324
262.285,327
262.310,331
262.335,349
262.360,378
262.385,408
262.410,427
262.435,427
262.460,407
262.485,381
262.510,361
262.535,351
262.560,343
262.585,324
262.610,291
262.635,254
262.660,223
262.685,201
262.710,181
262.735,159
262.760,134
262.785,108
262.810,79
262.835,49
262.860,21
262.885,0
262.910,-14
262.935,-33
262.960,-56
262.985,-70
263.010,-49
263.035,13
263.060,100
263.085,177
263.110,226
263.135,255
263.160,280
263.185,307
263.210,327
263.235,333
263.260,330
263.285,332
263.310,341
