df_hash,22ZHK4.YBNJA6
device,HZ2X61
project_hash,29R7
project_name,istanbul_aydin_university
person_hash,29R7.V8T1
person_label,V73
date_time_start,2025-11-03_13-10-52.149000_+03
date_time_start_unix,1762161052.149
date_time_end,2025-11-03_13-19-39.096000_+03
length_difference_noticed,no

time,ppg_ir,ppg_ambient,ppg_red
5.381,256174,791,166047
5.386,256223,796,166093
5.391,256239,784,166142
5.396,256300,788,166217
5.401,256360,787,166304
5.406,256459,789,166371
5.411,256521,785,166462
5.416,256611,787,166567
5.421,256699,788,166655
5.426,256802,788,166768
5.431,256878,784,166855
5.436,256945,788,166906
5.441,256974,784,166972
5.446,256995,777,167025
5.450,257039,772,167074
5.455,257073,776,167139
5.460,257133,776,167205
5.465,257213,776,167295
5.470,257243,773,167375
5.475,257323,777,167467
5.480,257384,777,167552
5.485,257459,774,167663
5.490,257564,772,167782
5.495,257644,767,167910
5.500,257741,769,168006
5.505,257847,772,168140
5.510,257931,767,168239
5.515,257997,770,168359
5.520,258070,771,168444
5.525,258147,766,168555
5.530,258190,760,168638
5.535,258244,761,168699
5.540,258299,762,168768
5.545,258327,765,168835
5.550,258357,761,168889
5.555,258402,762,168930
5.560,258440,765,168975
5.565,258476,766,169053
5.570,258542,764,169132
5.575,258635,756,169239
5.580,258690,763,169382
5.585,258753,762,169388
5.590,258785,757,169450
5.595,258847,759,169511
5.600,258870,760,169566
5.604,258933,762,169648
5.609,258975,751,169719
5.614,259012,752,169752
5.619,259014,754,169800
5.624,259064,755,169844
5.629,259050,507,169899
5.634,259090,546,169939
5.639,259109,568,169969
5.644,259118,583,170002
5.649,259132,581,170024
5.654,259154,590,170055
5.659,259143,597,170093
5.664,259205,606,170142
5.669,259229,607,170219
5.674,259256,613,170272
5.679,259301,618,170363
5.684,259349,619,170388
5.689,259358,612,170416
5.694,259388,617,170467
5.699,259417,622,170485
5.704,259420,626,170522
5.709,259419,626,170526
5.714,259391,621,170542
5.719,259435,624,170555
5.724,259451,627,170574
5.729,259461,631,170623
5.734,259470,895,170653
5.739,259510,842,170679
5.744,259498,823,170708
5.749,259517,808,170710
5.753,259493,798,170706
5.758,259518,792,170711
5.763,259533,788,170735
5.768,259559,782,170762
5.773,259610,771,170786
5.778,259651,772,170830
5.783,259697,773,170850
5.788,259701,769,170885
5.793,259723,760,170884
5.798,259729,759,170895
5.803,259745,762,170901
5.808,259739,758,170894
5.813,259767,758,170932
5.818,259799,750,170950
5.823,259847,752,170961
5.828,259881,751,171023
5.833,259935,744,171085
5.838,259927,745,171103
5.843,259925,746,171114
5.848,259928,744,171116
5.853,259916,745,171098
5.858,259905,746,171102
5.863,259924,739,171150
5.868,259970,739,171165
5.873,260015,756,171222
5.878,260054,737,171272
5.883,260084,741,171317
5.888,260117,738,171366
5.893,260144,738,171394
5.898,260159,730,171415
5.903,260150,734,171454
5.907,260157,733,171459
5.912,260158,731,171499
5.917,260189,733,171504
5.922,260205,729,171524
5.927,260172,728,171550
5.932,260185,726,171557
5.937,260173,729,171560
5.942,260192,731,171589
5.947,260211,731,171607
5.952,260209,729,171612
5.957,260244,722,171659
5.962,260278,724,171698
5.967,260287,724,171694
5.972,260268,725,171705
5.977,260312,726,171702
5.982,260316,727,171738
5.987,260315,720,171736
5.992,260332,718,171768
5.997,260356,719,171767
6.002,260376,722,171809
6.007,260382,721,171810
6.012,260404,720,171840
6.017,260407,721,171839
6.022,260440,717,171873
6.027,260440,719,171880
6.032,260460,718,171900
6.037,260474,717,171917
6.042,260502,720,171952
6.047,260534,713,171969
6.052,260532,709,171981
6.057,260563,710,171978
6.061,260563,711,171985
6.066,260591,712,171998
6.071,260616,713,172006
6.076,260598,715,171999
6.081,260602,708,172006
6.086,260594,708,171985
6.091,260606,706,171997
6.096,260600,709,172000
6.101,260631,711,172019
6.106,260650,712,172044
6.111,260664,709,171922
6.116,260778,704,171962
6.121,260758,707,171996
6.126,260777,708,172029
6.131,260805,705,172016
6.136,260802,708,172021
6.141,260782,709,172010
6.146,260765,711,171969
6.151,260758,701,171980
6.156,260719,705,171968
6.161,260739,705,171998
6.166,260756,707,171993
6.171,260773,703,172000
6.176,260772,706,172018
6.181,260759,706,172029
6.186,260757,701,172033
6.191,260769,697,172036
6.196,260765,701,172025
6.201,260754,702,172032
6.206,260775,704,172054
6.210,260766,699,172041
6.215,260767,698,172027
6.220,260770,697,172022
6.225,260778,699,172028
6.230,260767,694,172055
6.235,260782,699,172072
6.240,260782,699,172089
6.245,260783,701,172082
6.250,260777,698,172090
6.255,260789,701,172061
6.260,260763,701,172066
6.265,260751,700,172054
6.270,260728,697,172021
6.275,260719,700,171983
6.280,260649,691,171927
6.285,260637,693,171870
6.290,260591,689,171826
6.295,260594,692,171778
6.300,260600,692,171727
6.305,260610,695,171686
6.310,260628,693,171680
6.315,260660,691,171667
6.320,260693,692,171646
6.325,260687,693,171636
6.330,260704,689,171608
6.335,260739,692,171648
6.340,260824,693,171675
6.345,260885,696,171725
6.350,260934,685,171750
6.355,260983,687,171776
6.360,260953,684,171787
6.364,261054,694,171814
6.369,261081,684,171852
6.374,261116,686,171865
6.379,261127,686,171889
6.384,261092,689,171848
6.389,261083,686,171822
6.394,261060,689,171788
6.399,261032,683,171776
6.404,261009,685,171753
6.409,260991,683,171741
6.414,260987,686,171742
6.419,260984,686,171737
6.424,260997,689,171749
6.429,261015,686,171758
6.434,260991,687,171775
6.439,260960,681,171771
6.444,260952,682,171750
6.449,260940,680,171759
6.454,260936,682,171750
6.459,260888,685,171737
6.464,260905,679,171744
6.469,260895,676,171748
6.474,260896,677,171767
6.479,260898,678,171767
6.484,260909,680,171811
6.489,260874,676,171811
6.494,260882,679,171821
6.499,260876,679,171839
6.504,260919,674,171880
6.509,260917,674,171903
6.513,260959,676,171916
6.518,260934,676,171948
6.523,260954,677,171936
6.528,260939,675,171942
6.533,260958,676,171969
6.538,260989,677,171996
6.543,260973,680,172033
6.548,260993,679,172043
6.553,260995,672,172044
6.558,260992,677,172048
6.563,260996,678,172053
6.568,260981,677,172050
6.573,260966,678,172024
6.578,260958,673,172034
6.583,260937,674,172020
6.588,260962,673,172006
6.593,260936,674,172001
6.598,260937,674,172017
6.603,260935,657,171992
6.608,260944,675,171995
6.613,260941,675,172007
6.618,260934,677,171991
6.623,260942,671,172013
6.628,260962,443,172034
6.633,260962,482,172041
6.638,260975,501,172042
6.643,260963,515,172042
6.648,260974,522,172058
6.653,260994,532,172060
6.658,261008,539,172071
6.663,261013,545,172061
6.667,261001,547,172054
6.672,260988,541,172046
6.677,260979,544,172042
6.682,260987,547,172043
6.687,261007,548,172036
6.692,260987,552,172020
6.697,260968,554,172014
6.702,260953,561,172002
6.707,260968,562,171974
6.712,260938,562,171942
6.717,260913,565,171939
6.722,260890,569,171892
6.727,260900,569,171885
6.732,260890,825,171850
6.737,260856,768,171830
6.742,260861,749,171820
6.747,260849,735,171819
6.752,260847,721,171803
6.757,260838,714,171796
6.762,260847,712,171794
6.767,260870,708,171783
6.772,260877,704,171794
6.777,260886,703,171818
6.782,260880,694,171828
6.787,260912,691,171838
6.792,260923,689,171860
6.797,260927,689,171850
6.802,260947,692,171855
6.807,260936,690,171859
6.812,260925,682,171853
6.816,260926,683,171834
6.821,260882,683,171805
6.826,260898,683,171792
6.831,260881,680,171756
6.836,260873,679,171764
6.841,260889,680,171735
6.846,260894,674,171721
6.851,260878,679,171713
6.856,260896,681,171708
6.861,260879,679,171712
6.866,260892,680,171727
6.871,260893,677,171730
6.876,260904,676,171720
6.881,260908,678,171730
6.886,260917,678,171739
6.891,260920,675,171730
6.896,260923,670,171731
6.901,260931,669,171726
6.906,260939,671,171718
6.911,260943,668,171738
6.916,260975,671,171754
6.921,260995,672,171769
6.926,261027,672,171768
6.931,261018,669,171779
6.936,261033,672,171780
6.941,261054,672,171788
6.946,261044,668,171799
6.951,261067,666,171793
6.956,261074,666,171807
6.961,261091,667,171812
6.966,261109,667,171818
6.970,261099,666,171832
6.975,261122,666,171825
6.980,261103,667,171839
6.985,261081,670,171833
6.990,261052,667,171794
6.995,261051,665,171796
7.000,261004,667,171774
7.005,261005,668,171756
7.010,260986,657,171740
7.015,260971,660,171741
7.020,260942,660,171721
7.025,260950,662,171720
7.030,260921,659,171692
7.035,260916,661,171704
7.040,260950,661,171712
7.045,260968,668,171717
7.050,260957,655,171745
7.055,260976,658,171767
7.060,260970,659,171772
7.065,260976,660,171779
7.070,260980,656,171775
7.075,260983,658,171780
7.080,260999,658,171781
7.085,261001,661,171798
7.090,260979,663,171690
7.095,260949,655,171759
7.100,260955,654,171748
7.105,260942,656,171734
7.110,260930,653,171712
7.115,260906,653,171698
7.120,260869,662,171667
7.124,260856,662,171647
7.129,260859,658,171602
7.134,260819,661,171575
7.139,260840,661,171556
7.144,260800,659,171521
7.149,260813,655,171525
7.154,260841,658,171514
7.159,260820,659,171499
7.164,260811,660,171470
7.169,260801,658,171441
7.174,260798,650,171425
7.179,260798,652,171387
7.184,260772,652,171359
7.189,260781,651,171305
7.194,260724,654,171264
7.199,260714,656,171224
7.204,260671,657,171173
7.209,260662,654,171126
7.214,260658,657,171096
7.219,260641,658,171090
7.224,260610,650,171061
7.229,260585,649,171021
7.234,260596,650,171017
7.239,260637,641,171028
7.244,260591,652,170993
7.249,260581,649,170968
7.254,260567,651,170950
7.259,260560,652,170935
7.264,260547,654,170925
7.269,260562,653,170926
7.273,260543,653,170924
7.278,260521,656,170905
7.283,260512,657,170893
7.288,260525,648,170878
7.293,260477,649,170859
7.298,260476,651,170848
7.303,260446,651,170811
7.308,260452,650,170773
7.313,260384,649,170742
7.318,260365,651,170704
7.323,260336,652,170675
7.328,260314,650,170655
7.333,260270,651,170582
7.338,260285,654,170585
7.343,260245,656,170551
7.348,260237,646,170540
7.353,260169,645,170520
7.358,260166,648,170514
7.363,260182,650,170511
7.368,260147,647,170462
7.373,260154,647,170471
7.378,260120,648,170454
7.383,260148,652,170459
7.388,260102,651,170415
7.393,260048,649,170394
7.398,260032,651,170378
7.403,260000,654,170341
7.408,259968,652,170317
7.413,259970,651,170299
7.418,259973,652,170298
7.423,259976,654,170295
7.427,259949,652,170270
7.432,259956,645,170250
7.437,259933,647,170243
7.442,259907,648,170232
7.447,259928,646,170207
7.452,259902,646,170209
7.457,259917,646,170191
7.462,259903,649,170195
7.467,259899,647,170183
7.472,259861,647,170159
7.477,259866,647,170138
7.482,259809,652,170117
7.487,259807,649,170094
7.492,259744,650,170050
7.497,259747,651,170036
7.502,259693,652,169984
7.507,259693,650,169951
7.512,259669,648,169941
7.517,259670,648,169926
7.522,259633,651,169909
7.527,259629,648,169882
7.532,259616,642,169860
7.537,259588,643,169846
7.542,259583,643,169820
7.547,259540,643,169785
7.552,259526,640,169767
7.557,259513,643,169736
7.562,259514,643,169722
7.567,259466,644,169692
7.572,259478,642,169686
7.576,259452,642,169671
7.581,259449,646,169650
7.586,259433,646,169627
7.591,259439,645,169605
7.596,259433,647,169597
7.601,259435,649,169609
7.606,259419,650,169606
7.611,259396,641,169611
7.616,259408,643,169596
7.621,259403,643,169578
7.626,259437,395,169577
7.631,259402,459,169568
7.636,259420,481,169573
7.641,259418,494,169594
7.646,259432,505,169572
7.651,259452,508,169598
7.656,259449,515,169609
7.661,259469,521,169616
7.666,259482,525,169632
7.671,259511,516,169636
7.676,259556,532,169661
7.681,259564,532,169655
7.686,259577,526,169682
7.691,259583,528,169697
7.696,259617,531,169689
7.701,259598,534,169696
7.706,259622,537,169698
7.711,259599,536,169699
7.716,259597,540,169688
7.721,259578,543,169686
7.726,259601,516,169670
7.730,259893,845,169684
7.735,259606,745,169709
7.740,259604,721,169696
7.745,259615,710,169723
7.750,259611,697,169729
7.755,259617,693,169732
7.760,259657,688,169767
7.765,259669,685,169781
7.770,259705,683,169796
7.775,259700,675,169811
7.780,259711,673,169839
7.785,259720,674,169858
7.790,259753,669,169891
7.795,259748,670,169903
7.800,259771,670,169925
7.805,259786,661,169930
7.810,259770,658,169950
7.815,259763,658,169955
7.820,259777,657,169977
7.825,259777,663,169972
7.830,259768,659,169971
7.835,259768,661,169963
7.840,259783,664,169970
7.845,259764,654,169998
7.850,259744,649,169979
7.855,259741,652,169963
7.860,259733,652,169963
7.865,259719,654,169965
7.870,259723,651,169978
7.875,259725,656,169954
7.880,259719,659,169949
7.884,259672,652,169947
7.889,259677,647,169922
7.894,259645,649,169907
7.899,259631,650,169895
7.904,259582,651,169842
7.909,259576,649,169806
7.914,259554,652,169790
7.919,259555,645,169784
7.924,259517,647,169747
7.929,259501,644,169713
7.934,259494,646,169719
7.939,259475,647,169690
7.944,259454,647,169658
7.949,259417,643,169643
7.954,259400,647,169589
7.959,259373,645,169579
7.964,259374,649,169555
7.969,259392,630,169532
7.974,259335,647,169506
7.979,259331,648,169485
7.984,259306,650,169458
7.989,259285,646,169440
7.994,259278,649,169421
7.999,259266,648,169398
8.004,259254,651,169391
8.009,259244,639,169359
8.014,259253,641,169347
8.019,259246,644,169335
8.024,259215,647,169330
8.029,259219,644,169312
8.033,259210,646,169296
8.038,259198,647,169286
8.043,259173,649,169266
8.048,259152,638,169243
8.053,259158,639,169236
8.058,259145,640,169219
8.063,259150,639,169223
8.068,259110,643,169193
8.073,259101,644,169173
8.078,259107,646,169160
8.083,259107,646,169148
8.088,259080,644,169138
8.093,259070,644,169114
8.098,259055,646,169103
8.103,259050,638,169073
8.108,259044,636,169062
8.113,259053,648,169045
8.118,259038,641,169054
8.123,259038,642,169024
8.128,259022,642,169006
8.133,259004,642,168967
8.138,259006,643,168969
8.143,259000,645,168949
8.148,258997,644,168952
8.153,259018,644,168955
8.158,259031,636,168976
8.163,259024,639,168972
8.168,259069,639,168953
8.173,259011,638,168966
8.178,259009,640,168924
8.183,259007,644,168917
8.187,259009,643,168903
8.192,258998,633,168907
8.197,258958,636,168860
8.202,258952,636,168838
8.207,258944,637,168789
8.212,258910,640,168770
8.217,258870,643,168756
8.222,258859,644,168730
8.227,258827,635,168692
8.232,258848,633,168658
8.237,258822,635,168667
8.242,258821,636,168666
8.247,258843,634,168640
8.252,258837,633,168636
8.257,258827,635,168652
8.262,258811,638,168624
8.267,258862,636,168634
8.272,258837,635,168648
8.277,258866,636,168658
8.282,258893,638,168667
8.287,258894,637,168707
8.292,258921,635,168700
8.297,258958,637,168721
8.302,258986,638,168734
8.307,258998,637,168794
8.312,259042,631,168825
8.317,259072,633,168834
8.322,259116,634,168864
8.327,259116,634,168889
8.332,259124,633,168914
8.336,259172,636,168963
8.341,259216,635,169016
8.346,259247,638,169043
8.351,259311,636,169129
8.356,259385,639,169179
8.361,259420,635,169296
8.366,259493,637,169375
8.371,259539,636,169434
8.376,259605,637,169533
8.381,259728,639,169641
8.386,259837,639,169773
8.391,259927,637,169882
8.396,259947,640,169970
8.401,260033,632,170044
8.406,260099,635,170124
8.411,260161,633,170197
8.416,260218,635,170283
8.421,260298,637,170350
8.426,260340,638,170424
8.431,260385,637,170485
8.436,260403,629,170526
8.441,260454,630,170570
8.446,260470,631,170606
8.451,260476,628,170635
8.456,260487,633,170649
8.461,260472,635,170662
8.466,260476,636,170652
8.471,260425,634,170638
8.476,260412,628,170630
8.481,260409,626,170602
8.486,260360,629,170568
8.490,260310,626,170534
8.495,260276,627,170517
8.500,260254,628,170512
8.505,260238,632,170494
8.510,260220,631,170462
8.515,260171,635,170434
8.520,260130,625,170400
8.525,260087,627,170387
8.530,260078,623,170357
8.535,260022,626,170336
8.540,259988,627,170298
8.545,259929,628,170254
8.550,259889,625,170214
8.555,259838,630,170190
8.560,259794,630,170146
8.565,259745,633,170109
8.570,259735,630,170070
8.575,259683,632,170040
8.580,259635,633,170030
8.585,259661,626,170022
8.590,259663,622,170017
8.595,259626,624,169999
8.600,259630,626,170013
8.605,259642,630,169984
8.610,259594,626,169961
8.615,259576,631,169949
8.620,259543,620,169932
8.625,259535,624,170071
8.630,259569,426,169935
8.635,259549,455,169937
8.640,259559,471,169944
8.644,259550,482,169941
8.649,259511,496,169939
8.654,259534,491,169933
8.659,259512,496,169924
8.664,259532,502,169914
8.669,259522,500,169930
8.674,259543,506,169929
8.679,259524,508,169912
8.684,259520,512,169904
8.689,259516,510,169920
8.694,259516,514,169910
8.699,259518,520,169894
8.704,259501,525,169886
8.709,259477,523,169868
8.714,259463,528,169848
8.719,259452,531,169829
8.724,259451,524,169807
8.729,259442,522,169817
8.734,259446,737,169793
8.739,259443,705,169797
8.744,259430,689,169776
8.749,259401,678,169768
8.754,259415,674,169751
8.759,259386,667,169739
8.764,259367,666,169699
8.769,259351,658,169662
8.774,259348,657,169655
8.779,259316,655,169665
8.784,259332,655,169640
8.789,259319,651,169644
8.793,259317,658,169636
8.798,259291,647,169612
8.803,259298,650,169613
8.808,259276,646,169621
8.813,259285,648,169602
8.818,259279,639,169598
8.823,259265,641,169566
8.828,259249,639,169572
8.833,259261,639,169579
8.838,259256,642,169570
8.843,259253,645,169557
8.848,259280,636,169574
8.853,259269,637,169536
8.858,259257,639,169536
8.863,259249,639,169529
8.868,259223,637,169515
8.873,259251,637,169498
8.878,259228,639,169489
8.883,259230,632,169477
8.888,259211,630,169449
8.893,259145,656,169415
8.898,259151,634,169390
8.903,259122,636,169350
8.908,259105,634,169325
8.913,259093,635,169325
8.918,259077,628,169336
8.923,259079,629,169326
8.928,259081,626,169321
8.933,259084,627,169309
8.938,259072,626,169308
8.943,259086,631,169281
8.947,259069,631,169281
8.952,259050,630,169268
8.957,259025,630,169258
8.962,259034,631,169252
8.967,259021,629,169231
8.972,259004,628,169194
8.977,258989,629,169177
8.982,258940,631,169141
8.987,258915,628,169107
8.992,258874,624,169069
8.997,258870,624,169049
9.002,258859,623,169004
9.007,258848,623,168977
9.012,258801,623,168953
9.017,258795,623,168930
9.022,258744,624,168871
9.027,258720,622,168840
9.032,258731,622,168815
9.037,258695,623,168794
9.042,258691,627,168786
9.047,258696,626,168754
9.052,258664,627,168724
9.057,258653,629,168709
9.062,258651,631,168695
9.067,258621,622,168669
9.072,258617,619,168638
9.077,258584,621,168629
9.082,258584,625,168588
9.087,258572,624,168552
9.092,258516,627,168511
9.096,258510,629,168459
9.101,258471,620,168402
9.106,258428,620,168344
9.111,258383,619,168273
9.116,258314,621,168171
9.121,258240,622,168107
9.126,258160,623,168040
9.131,258101,622,167947
9.136,258093,626,167900
9.141,258032,625,167846
9.146,258007,626,167783
9.151,257960,624,167732
9.156,257931,626,167677
9.161,257891,628,167625
9.166,257860,622,167604
9.171,257842,621,167558
9.176,257797,621,167512
9.181,257749,624,167418
9.186,257676,629,167358
9.191,257643,628,167314
9.196,257607,622,167251
9.201,257561,620,167224
9.206,257526,623,167174
9.211,257494,621,167123
9.216,257453,623,167095
9.221,257433,623,167087
9.226,257412,626,167087
9.231,257403,624,167101
9.236,257428,628,167114
9.241,257412,624,167127
9.246,257421,625,167167
9.250,257442,623,167178
9.255,257472,625,167215
9.260,257483,626,167237
9.265,257493,628,167267
9.270,257509,617,167290
9.275,257550,619,167339
9.280,257556,621,167368
9.285,257576,626,167398
9.290,257594,625,167401
9.295,257590,619,167422
9.300,257588,620,167426
9.305,257575,622,167434
9.310,257569,621,167441
9.315,257599,623,167475
9.320,257564,626,167517
9.325,257584,620,167540
9.330,257606,618,167547
9.335,257602,625,167572
9.340,257599,625,167563
9.345,257593,620,167557
9.350,257562,616,167534
9.355,257520,619,167530
9.360,257454,620,167485
9.365,257417,622,167472
9.370,257382,618,167425
9.375,257330,621,167392
9.380,257297,625,167360
9.385,257213,619,167305
9.390,257171,615,167245
9.395,257121,618,167212
9.399,257070,619,167159
9.404,257024,621,167126
9.409,257036,617,167093
9.414,256965,620,167067
9.419,256949,620,167038
9.424,256925,622,167035
9.429,256917,621,167014
9.434,256873,615,166989
9.439,256853,616,166947
9.444,256807,619,166919
9.449,256775,616,166890
9.454,256743,619,166857
9.459,256712,622,166831
9.464,256699,624,166802
9.469,256668,622,166795
9.474,256671,614,166791
9.479,256622,636,166803
9.484,256702,615,166812
9.489,256659,612,166796
9.494,256689,615,166801
9.499,256692,623,166798
9.504,256657,624,166793
9.509,256659,620,166765
9.514,256648,622,166751
9.519,256638,623,166733
9.524,256632,615,166716
9.529,256649,615,166732
9.534,256654,616,166726
9.539,256653,618,166705
9.544,256652,618,166706
9.549,256637,615,166693
9.553,256651,617,166690
9.558,256632,617,166686
9.563,256647,618,166680
9.568,256663,616,166654
9.573,256655,618,166638
9.578,256633,614,166630
9.583,256632,617,166621
9.588,256640,612,166603
9.593,256637,614,166595
9.598,256634,617,166572
9.603,256590,619,166541
9.608,256568,616,166497
9.613,256565,618,166490
9.618,256543,621,166471
9.623,256546,622,166247
9.628,256541,420,166436
9.633,256521,447,166428
9.638,256504,462,166415
9.643,256512,472,166406
9.648,256467,479,166373
9.653,256471,485,166362
9.658,256457,491,166344
9.663,256464,496,166332
9.668,256464,497,166323
9.673,256504,501,166308
9.678,256488,509,166320
9.683,256511,502,166316
9.688,256536,503,166336
9.693,256563,504,166335
9.698,256595,507,166333
9.703,256573,510,166298
9.707,256548,510,166263
9.712,256523,513,166227
9.717,256468,513,166186
9.722,256447,520,166122
9.727,256410,521,166103
9.732,256468,730,166111
9.737,256471,699,166115
9.742,256486,676,166103
9.747,256516,665,166107
9.752,256502,658,166105
9.757,256531,653,166105
9.762,256555,649,166101
9.767,256553,646,166093
9.772,256579,653,166074
9.777,256593,640,166062
9.782,256592,639,166044
9.787,256567,636,166027
9.792,256570,635,166006
9.797,256561,636,165988
9.802,256535,637,165967
9.807,256526,636,165947
9.812,256508,634,165900
9.817,256504,626,165879
9.822,256467,629,165863
9.827,256467,628,165844
9.832,256465,627,165825
9.837,256436,628,165795
9.842,256445,628,165790
9.847,256403,626,165769
9.852,256396,626,165739
9.856,256373,626,165713
9.861,256346,628,165695
9.866,256366,618,165681
9.871,256341,621,165667
9.876,256325,625,165648
9.881,256324,627,165653
9.886,256305,618,165646
9.891,256287,618,165608
9.896,256260,620,165600
9.901,256236,621,165567
9.906,256202,622,165540
9.911,256193,623,165527
9.916,256163,613,165489
9.921,256099,621,165443
9.926,256080,621,165446
9.931,256064,621,165425
9.936,256028,621,165395
9.941,255997,623,165367
9.946,255945,620,165325
9.951,255912,617,165286
9.956,255877,618,165252
9.961,255837,618,165208
9.966,255787,622,165185
9.971,255760,621,165165
9.976,255711,623,165164
9.981,255717,615,165143
9.986,255703,615,165148
9.991,255669,613,165140
9.996,255676,614,165114
10.001,255684,615,165130
10.006,255670,616,165102
10.010,255612,613,165105
10.015,255601,618,165087
10.020,255597,620,165068
10.025,255538,620,165031
10.030,255499,619,165030
10.035,255481,612,165000
10.040,255425,612,164975
10.045,255391,613,164945
10.050,255389,611,164940
10.055,255355,612,164905
10.060,255321,622,164882
10.065,255294,618,164864
10.070,255288,617,164837
10.075,255263,619,164820
10.080,255234,611,164820
10.085,255227,613,164805
10.090,255209,613,164785
10.095,255181,613,164772
10.100,255173,616,164768
10.105,255208,618,164750
10.110,255227,615,164746
10.115,255223,615,164762
10.120,255236,616,164765
10.125,255258,618,164766
10.130,255281,607,164786
10.135,255292,610,164786
10.140,255315,610,164818
10.145,255334,611,164821
10.150,255377,608,164840
10.155,255381,611,164849
10.159,255405,640,164868
10.164,255425,611,164885
10.169,255440,607,164892
10.174,255456,609,164909
10.179,255453,611,164895
10.184,255450,613,164917
10.189,255458,613,164911
10.194,255464,616,164909
10.199,255446,606,164906
10.204,255432,608,164905
10.209,255415,609,164895
10.214,255434,612,164899
10.219,255423,614,164899
10.224,255408,616,164907
10.229,255414,603,164896
10.234,255410,606,164917
10.239,255382,606,164882
10.244,255407,608,164907
10.249,255420,604,164920
10.254,255422,606,164939
10.259,255445,610,164940
10.264,255426,611,164954
10.269,255408,608,164939
10.274,255394,611,164926
10.279,255386,613,164913
10.284,255322,605,164894
10.289,255311,601,164888
10.294,255275,605,164869
10.299,255301,606,164876
10.304,255279,606,164878
10.309,255280,606,164886
10.313,255265,609,164878
10.318,255249,611,164892
10.323,255263,612,164888
10.328,255232,608,164881
10.333,255195,602,164912
10.338,255197,604,164932
10.343,255191,604,164909
10.348,255180,601,164908
10.353,255130,605,164884
10.358,255103,609,164849
10.363,255055,611,164818
10.368,255003,600,164792
10.373,254993,602,164752
10.378,254934,604,164739
10.383,254921,605,164713
10.388,254911,605,164686
10.393,254856,606,164637
10.398,254834,605,164626
10.403,254846,607,164634
10.408,254858,609,164614
10.413,254850,602,164614
10.418,254895,603,164625
10.423,254896,605,164615
10.428,254908,603,164634
10.433,254938,606,164664
10.438,254983,607,164671
10.443,254974,608,164672
10.448,255009,608,164656
10.453,255008,603,164673
10.458,254975,604,164663
10.463,255014,606,164662
10.467,255011,603,164680
10.472,255038,604,164693
10.477,255049,606,164696
10.482,255074,606,164704
10.487,255068,605,164719
10.492,255061,607,164714
10.497,255079,608,164732
10.502,255079,604,164729
10.507,255065,601,164760
10.512,255060,603,164749
10.517,255046,602,164739
10.522,255035,603,164738
10.527,255042,602,164754
10.532,255029,601,164739
10.537,255021,601,164728
10.542,255013,603,164704
10.547,254986,602,164751
10.552,254979,604,164731
10.557,254996,606,164750
10.562,254991,607,164742
10.567,255015,605,164754
10.572,255017,609,164741
10.577,255032,600,164750
10.582,255045,600,164732
10.587,255016,599,164716
10.592,255015,599,164691
10.597,255006,600,164675
10.602,254994,609,164670
10.607,254980,598,164656
10.612,255016,598,164687
10.616,255013,601,164691
10.621,255043,600,164704
10.626,255042,406,164695
10.631,255041,433,164685
10.636,255009,451,164657
10.641,255014,462,164640
10.646,255007,478,164694
10.651,255019,470,164627
10.656,255040,477,164626
10.661,255058,482,164634
10.666,255059,485,164627
10.671,255062,487,164609
10.676,255046,490,164612
10.681,255043,493,164603
10.686,255099,495,164607
10.691,255119,494,164618
10.696,255143,507,164621
10.701,255175,497,164641
10.706,255218,497,164672
10.711,255267,510,164687
10.716,255304,508,164728
10.721,255328,512,164746
10.726,255318,513,164777
10.731,255327,727,164798
10.736,255363,690,164829
10.741,255357,671,164862
10.746,255388,655,164863
10.751,255366,648,164884
10.756,255331,642,164881
10.761,255275,637,164855
10.766,255247,633,164833
10.770,255202,630,164827
10.775,255180,626,164819
10.780,255124,624,164803
10.785,255104,623,164793
10.790,255079,618,164785
10.795,255038,622,164778
10.800,255004,622,164774
10.805,255012,620,164797
10.810,254988,618,164809
10.815,255003,617,164833
10.820,254968,617,164837
10.825,254977,616,164840
10.830,254942,614,164863
10.835,254942,613,164851
10.840,254911,614,164829
10.845,254929,618,164851
10.850,254913,614,164842
10.855,254883,615,164847
10.860,254880,614,164819
10.865,254840,614,164784
10.870,254802,612,164769
10.875,254821,612,164772
10.880,254799,612,164770
10.885,254765,612,164755
10.890,254774,609,164769
10.895,254750,607,164752
10.900,254769,608,164752
10.905,254735,607,164743
10.910,254745,604,164769
10.915,254743,605,164765
10.919,254726,605,164771
10.924,254757,605,164761
10.929,254757,603,164763
10.934,254767,606,164768
10.939,254708,602,164752
10.944,254757,602,164752
10.949,254727,599,164755
10.954,254766,602,164765
10.959,254794,603,164771
10.964,254839,603,164800
10.969,254861,600,164809
10.974,254894,602,164834
10.979,254908,601,164867
10.984,254947,604,164876
10.989,254924,603,164894
10.994,254961,608,164898
10.999,254964,607,164879
11.004,254950,599,164890
11.009,254930,596,164879
11.014,254956,598,164868
11.019,254924,598,164871
11.024,254941,599,164857
11.029,254915,596,164855
11.034,254875,597,164821
11.039,254868,601,164806
11.044,254837,602,164799
11.049,254843,598,164793
11.054,254848,600,164802
11.059,254824,600,164815
11.064,254861,601,164853
11.069,254919,597,164884
11.073,254976,600,164934
11.078,254988,599,164969
11.083,255018,609,165027
11.088,255030,593,165025
11.093,255085,604,165051
11.098,255103,603,165062
11.103,255118,595,165091
11.108,255098,593,165088
11.113,255130,595,165116
11.118,255167,595,165130
11.123,255225,594,165187
11.128,255234,595,165196
11.133,255275,596,165242
11.138,255289,600,165232
11.143,255306,601,165255
11.148,255312,599,165271
11.153,255350,600,165280
11.158,255357,601,165298
11.163,255427,601,165340
11.168,255450,600,165385
11.173,255474,599,165430
11.178,255532,601,165459
11.183,255578,600,165543
11.188,255654,594,165584
11.193,255707,594,165681
11.198,255757,595,165739
11.203,255828,595,165815
11.208,255901,594,165913
11.213,255923,595,165983
11.218,256000,595,166077
11.223,256061,596,166182
11.227,256169,593,166284
11.232,256235,597,166419
11.237,256319,598,166557
11.242,256422,598,166710
11.247,256500,597,166839
11.252,256631,595,167001
11.257,256699,596,167133
11.262,256794,597,167243
11.267,256833,596,167345
11.272,256895,595,167445
11.277,256934,595,167564
11.282,257007,598,167670
11.287,257073,593,167805
11.292,257119,593,167925
11.297,257202,594,168050
11.302,257264,594,168145
11.307,257336,591,168252
11.312,257370,590,168342
11.317,257418,591,168422
11.322,257498,593,168522
11.327,257530,591,168578
11.332,257588,594,168695
11.337,257679,594,168808
11.342,257753,596,168916
11.347,257830,594,169009
11.352,257904,594,169115
11.357,257947,596,169199
11.362,258017,596,169278
11.367,258045,594,169343
11.372,258112,592,169438
11.376,258163,594,169517
11.381,258177,589,169599
11.386,258219,588,169628
11.391,258233,587,169689
11.396,258267,587,169729
11.401,258292,586,169802
11.406,258328,588,169865
11.411,258371,587,169923
11.416,258400,588,169997
11.421,258437,589,170036
11.426,258451,592,170096
11.431,258482,592,170135
11.436,258530,592,170167
11.441,258529,593,170200
11.446,258557,593,170231
11.451,258571,592,170284
11.456,258608,594,170318
11.461,258641,594,170366
11.466,258670,592,170429
11.471,258706,591,170479
11.476,258776,586,170535
11.481,258811,586,170600
11.486,258817,586,170644
11.491,258847,585,170678
11.496,258855,585,170700
11.501,258875,587,170737
11.506,258878,587,170773
11.511,258909,586,170786
11.516,258929,588,170836
11.521,258967,588,170869
11.526,258985,592,170900
11.530,259007,592,170923
11.535,259008,594,170931
11.540,258957,584,170913
11.545,258957,584,170920
11.550,258929,583,170903
11.555,258901,584,170911
11.560,258922,584,170902
11.565,258889,585,170898
11.570,258891,583,170916
11.575,258895,590,170950
11.580,258933,591,170950
11.585,258966,591,170976
11.590,259044,589,171012
11.595,259078,591,171074
11.600,259116,592,171112
11.605,259168,592,171159
11.610,259202,590,171200
11.615,259236,592,171242
11.620,259284,590,171265
11.625,259314,398,171320
11.630,259334,417,171335
11.635,259335,437,171354
11.640,259329,449,171369
11.645,259354,457,171413
11.650,259397,460,171456
11.655,259441,466,171493
11.660,259463,470,171536
11.665,259485,475,171540
11.670,259504,477,171567
11.675,259547,479,171597
11.679,259558,481,171627
11.684,259592,487,171643
11.689,259602,487,171667
11.694,259592,489,171671
11.699,259645,492,171675
11.704,259625,495,171686
11.709,259624,485,171697
11.714,259643,487,171705
11.719,259712,490,171711
11.724,259631,497,171734
11.729,259643,719,171732
11.734,259650,671,171746
11.739,259681,653,171771
11.744,259674,643,171774
11.749,259645,631,171775
11.754,259653,628,171790
11.759,259687,623,171808
11.764,259680,620,171823
11.769,259712,609,171846
11.774,259713,609,171861
11.779,259707,608,171879
11.784,259718,607,171888
11.789,259739,603,171893
11.794,259733,604,171900
11.799,259771,604,171919
11.804,259762,604,171919
11.809,259780,600,171913
11.814,259747,602,171912
11.819,259734,596,171874
11.824,259666,596,171856
11.829,259654,593,171826
11.833,259632,594,171837
11.838,259685,594,171869
11.843,259714,592,171902
11.848,259756,591,171937
11.853,259788,590,171959
11.858,259834,590,171981
11.863,259843,586,172001
11.868,259823,590,172012
11.873,259807,590,172008
11.878,259815,591,172000
11.883,259830,590,172001
11.888,259856,588,172029
11.893,259883,588,172038
11.898,259965,588,172079
11.903,260015,590,172140
11.908,260098,586,172172
11.913,260171,587,172199
11.918,260253,592,172233
11.923,260312,584,172287
11.928,260317,582,172292
11.933,260304,584,172267
11.938,260330,586,172262
11.943,260322,586,172265
11.948,260331,584,172250
11.953,260289,585,172240
11.958,260307,585,172228
11.963,260261,572,172273
11.968,260248,580,172213
11.973,260218,590,172220
11.978,260225,590,172196
11.983,260184,589,172178
11.987,260141,579,172135
11.992,260103,579,172140
11.997,260102,580,172131
12.002,260067,580,172100
12.007,260026,579,172080
12.012,260038,589,172076
12.017,259990,579,172058
12.022,259990,579,172067
12.027,259989,580,172053
12.032,260015,579,172066
12.037,260021,579,172097
12.042,260042,580,172111
12.047,260070,581,172134
12.052,260075,579,172146
12.057,260094,582,172141
12.062,260090,585,172113
12.067,260101,586,172126
12.072,260124,587,172131
12.077,260135,578,172136
12.082,260178,580,172162
12.087,260200,580,172179
12.092,260242,579,172229
12.097,260263,579,172253
12.102,260286,581,172279
12.107,260323,581,172301
12.112,260337,585,172327
12.117,260359,577,172321
12.122,260378,577,172325
12.127,260374,576,172322
12.132,260370,575,172310
12.136,260373,577,172297
12.141,260349,576,172281
12.146,260361,584,172283
12.151,260370,584,172286
12.156,260376,585,172294
12.161,260396,579,172311
12.166,260422,578,172338
12.171,260442,577,172356
12.176,260449,578,172370
12.181,260487,578,172380
12.186,260502,578,172400
12.191,260506,577,172415
12.196,260539,580,172425
12.201,260557,580,172441
12.206,260578,580,172456
12.211,260587,576,172455
12.216,260623,578,172471
12.221,260617,579,172467
12.226,260621,579,172491
12.231,260617,578,172466
12.236,260635,577,172454
12.241,260584,580,172434
12.246,260604,581,172447
12.251,260577,579,172435
12.256,260602,575,172435
12.261,260631,574,172437
12.266,260625,574,172460
12.271,260628,573,172457
12.276,260653,573,172464
12.281,260692,573,172482
12.286,260720,574,172492
12.290,260741,572,172516
12.295,260727,572,172502
12.300,260751,573,172499
12.305,260766,577,172505
12.310,260780,574,172527
12.315,260777,574,172520
12.320,260782,573,172522
12.325,260791,574,172522
12.330,260809,572,172522
12.335,260801,572,172518
12.340,260799,572,172516
12.345,260836,573,172538
12.350,260840,570,172544
12.355,260834,575,172524
12.360,260816,576,172537
12.365,260834,577,172531
12.370,260841,574,172542
12.375,260880,573,172563
12.380,260884,577,172566
12.385,260904,578,172542
12.390,260913,577,172535
12.395,260893,577,172508
12.400,260836,577,172472
12.405,260835,576,172439
12.410,260809,574,172409
12.415,260809,575,172409
12.420,260831,575,172409
12.425,260845,577,172442
12.430,260862,573,172461
12.435,260882,574,172454
12.439,260899,574,172488
12.444,260912,575,172458
12.449,260891,575,172460
12.454,260884,572,172465
12.459,260867,572,172453
12.464,260839,574,172432
12.469,260852,571,172435
12.474,260841,573,172422
12.479,260805,572,172402
12.484,260803,574,172384
12.489,260753,571,172333
12.494,260740,572,172316
12.499,260670,576,172306
12.504,260698,576,172303
12.509,260721,572,172291
12.514,260719,574,172325
12.519,260744,576,172310
12.524,260723,568,172329
12.529,260738,565,172339
12.534,260756,566,172358
12.539,260767,568,172361
12.544,260760,567,172367
12.549,260775,568,172386
12.554,260768,571,172399
12.559,260790,570,172416
12.564,260776,571,172404
12.569,260764,568,172395
12.574,260768,570,172376
12.579,260746,570,172349
12.584,260728,570,172333
12.589,260708,567,172303
12.593,260678,570,172278
12.598,260680,573,172261
12.603,260681,575,172262
12.608,260680,564,172259
12.613,260689,565,172270
12.618,260717,567,172272
12.623,260735,366,172272
12.628,260732,403,172300
12.633,260749,421,172306
12.638,260768,434,172310
12.643,260752,441,172315
12.648,260760,449,172316
12.653,260765,453,172312
12.658,260754,462,172300
12.663,260744,466,172284
12.668,260766,468,172301
12.673,260741,470,172273
12.678,260757,464,172291
12.683,260753,466,172282
12.688,260763,465,172280
12.693,260765,468,172282
12.698,260792,479,172296
12.703,260805,470,172302
12.708,260798,471,172305
12.713,260831,474,172312
12.718,260817,477,172304
12.723,260801,479,172290
12.728,260755,727,172295
12.733,260791,655,172309
12.738,260808,634,172300
12.742,260811,626,172335
12.747,260833,617,172335
12.752,260845,604,172338
12.757,260840,601,172360
12.762,260847,598,172361
12.767,260840,595,172349
12.772,260847,592,172349
12.777,260838,590,172331
12.782,260839,588,172323
12.787,260843,587,172314
12.792,260864,589,172320
12.797,260849,590,172332
12.802,260878,581,172338
12.807,260874,579,172363
12.812,260874,580,172354
12.817,260865,579,172340
12.822,260896,579,172361
12.827,260871,577,172328
12.832,260886,576,172340
12.837,260874,576,172324
12.842,260841,581,172300
12.847,260857,578,172306
12.852,260862,577,172308
12.857,260869,578,172308
12.862,260880,579,172318
12.867,260893,578,172349
12.872,260926,578,172356
12.877,260925,579,172364
12.882,260941,579,172360
12.887,260945,584,172365
12.892,260934,573,172368
12.896,260938,572,172341
12.901,260969,573,172365
12.906,260951,573,172349
12.911,260975,572,172347
12.916,260999,573,172380
12.921,261019,573,172368
12.926,261029,571,172387
12.931,261030,570,172414
12.936,261037,572,172394
12.941,261028,575,172385
12.946,261021,576,172397
12.951,261011,566,172375
12.956,261029,568,172394
12.961,261052,569,172410
12.966,261064,569,172408
12.971,261074,568,172389
12.976,261092,568,172384
12.981,261077,568,172400
12.986,261075,596,172366
12.991,261084,570,172347
12.996,261079,572,172367
13.001,261083,573,172371
13.006,261107,572,172382
13.011,261122,572,172387
13.016,261121,573,172380
13.021,261125,566,172383
13.026,261115,566,172377
13.031,261117,564,172354
13.036,261122,568,172364
13.041,261139,568,172383
13.046,261175,568,172369
13.050,261187,567,172366
13.055,261227,569,172377
13.060,261253,569,172355
13.065,261217,570,172355
13.070,261225,567,172353
13.075,261208,570,172324
13.080,261221,569,172318
13.085,261225,571,172314
13.090,261207,563,172295
13.095,261221,564,172287
13.100,261209,564,172270
13.105,261201,565,172255
13.110,261194,563,172256
13.115,261212,563,172238
13.120,261205,563,172215
13.125,261231,564,172238
13.130,261235,563,172248
13.135,261258,568,172242
13.140,261268,569,172261
13.145,261267,568,172257
13.150,261250,558,172244
13.155,261275,559,172235
13.160,261281,568,172234
13.165,261282,568,172219
13.170,261276,557,172217
13.175,261290,559,172214
13.180,261310,559,172219
13.185,261286,564,172205
13.190,261259,562,172185
13.195,261226,563,172155
13.199,261218,564,172127
13.204,261204,564,172090
13.209,261172,561,172083
13.214,261150,564,172037
13.219,261131,564,172013
13.224,261121,566,172011
13.229,261063,562,171965
13.234,261051,559,171935
13.239,261023,559,171911
13.244,261021,560,171885
13.249,260971,558,171858
13.254,260966,561,171834
13.259,260925,561,171797
13.264,260898,562,171765
13.269,260875,559,171737
13.274,260850,561,171722
13.279,260843,557,171695
13.284,260826,559,171681
13.289,260800,557,171650
13.294,260777,560,171621
13.299,260699,560,171599
13.304,260719,562,171577
13.309,260667,558,171528
13.314,260657,562,171524
13.319,260667,560,171511
13.324,260656,562,171491
13.329,260645,555,171487
13.334,260612,557,171476
13.339,260605,557,171470
13.344,260585,558,171450
13.349,260603,554,171451
13.353,260591,558,171441
13.358,260561,559,171414
13.363,260566,561,171411
13.368,260558,560,171393
13.373,260537,561,171408
13.378,260529,565,171362
13.383,260505,557,171347
13.388,260474,556,171336
13.393,260461,557,171323
13.398,260450,558,171294
13.403,260457,558,171307
13.408,260458,556,171289
13.413,260448,556,171285
13.418,260454,558,171276
13.423,260426,559,171274
13.428,260426,556,171238
13.433,260385,555,171213
13.438,260373,558,171196
13.443,260367,559,171168
13.448,260339,557,171158
13.453,260324,558,171139
13.458,260324,561,171128
13.463,260339,560,171113
13.468,260312,559,171089
13.473,260318,561,171105
13.478,260308,564,171072
13.483,260305,564,171054
13.488,260288,554,171054
13.493,260296,556,171023
13.498,260294,557,171038
13.502,260282,558,171013
13.507,260269,557,170983
13.512,260268,557,170969
13.517,260243,558,170951
13.522,260193,561,170924
13.527,260172,563,170876
13.532,260166,562,170839
13.537,260152,564,170811
13.542,260140,556,170796
13.547,260098,555,170752
13.552,260083,555,170717
13.557,260049,557,170686
13.562,260034,557,170669
13.567,260054,555,170652
13.572,260033,559,170657
13.577,260004,561,170632
13.582,260010,560,170622
13.587,259998,559,170599
13.592,259996,560,170591
13.597,259998,560,170577
13.602,259989,562,170574
13.607,260007,561,170552
13.612,259999,561,170548
13.617,260020,563,170540
13.622,260010,332,170543
13.627,260011,393,170529
13.632,259982,414,170511
13.637,260037,426,170495
13.642,259977,438,170480
13.647,259990,444,170442
13.652,259954,450,170407
13.656,259975,456,170395
13.661,259970,451,170376
13.666,259978,455,170357
13.671,259991,460,170337
13.676,259963,464,170317
13.681,259993,467,170324
13.686,259972,467,170295
13.691,259957,469,170272
13.696,259960,471,170270
13.701,259946,473,170263
13.706,259991,473,170262
13.711,259958,474,170255
13.716,259974,476,170267
13.721,259993,479,170231
13.726,259997,477,170455
13.731,259989,654,170188
13.736,259956,631,170156
13.741,259918,618,170123
13.746,259907,610,170104
13.751,259934,603,170085
13.756,259926,601,170065
13.761,259915,597,170030
13.766,259835,590,169986
13.771,259862,585,169956
13.776,259833,584,169914
13.781,259837,582,169903
13.786,259808,582,169878
13.791,259778,580,169842
13.796,259794,578,169821
13.801,259794,577,169804
13.806,259804,576,169784
13.810,259789,572,169784
13.815,259806,581,169764
13.820,259785,580,169738
13.825,259780,578,169707
13.830,259738,576,169682
13.835,259711,575,169634
13.840,259672,575,169600
13.845,259635,574,169568
13.850,259605,573,169513
13.855,259578,574,169487
13.860,259545,573,169438
13.865,259506,568,169385
13.870,259489,567,169331
13.875,259460,568,169302
13.880,259450,569,169264
13.885,259454,570,169236
13.890,259408,567,169209
13.895,259400,570,169159
13.900,259358,570,169119
13.905,259346,568,169099
13.910,259300,569,169054
13.915,259267,564,169029
13.920,259265,565,168996
13.925,259216,566,168960
13.930,259204,563,168929
13.935,259177,565,168900
13.940,259160,565,168865
13.945,259164,566,168844
13.950,259115,563,168799
13.955,259096,565,168797
13.959,259090,565,168776
13.964,259076,571,168734
13.969,259051,568,168705
13.974,259018,562,168673
13.979,258995,561,168659
13.984,258992,561,168652
13.989,258973,561,168620
13.994,258981,562,168612
13.999,258980,562,168592
14.004,258950,562,168570
14.009,258959,579,168560
14.014,258938,565,168553
14.019,258919,567,168573
14.024,258950,568,168586
14.029,258948,566,168563
14.034,258923,568,168558
14.039,258938,568,168570
14.044,258923,568,168560
14.049,258932,558,168550
14.054,258914,560,168551
14.059,258919,563,168571
14.064,258913,563,168554
14.069,258956,561,168575
14.074,258948,563,168578
14.079,259002,563,168615
14.084,259006,563,168631
14.089,258981,560,168603
14.094,258935,563,168587
14.099,258881,562,168555
14.104,258832,563,168492
14.109,258776,564,168481
14.113,258760,566,168449
14.118,258718,566,168422
14.123,258682,566,168397
14.128,258653,565,168394
14.133,258594,566,168373
14.138,258541,565,168337
14.143,258494,566,168327
14.148,258459,563,168302
14.153,258391,565,168253
14.158,258311,560,168219
14.163,258257,559,168160
14.168,258162,557,168111
14.173,258077,557,168080
14.178,258033,559,168047
14.183,257976,557,168016
14.188,257912,565,167999
14.193,257855,566,167955
14.198,257800,568,167955
14.203,257790,568,167962
14.208,257799,563,167978
14.213,257781,565,167974
14.218,257776,565,167995
14.223,257754,565,167998
14.228,257757,563,168003
14.233,257740,563,168001
14.238,257697,565,167975
14.243,257718,565,167983
14.248,257736,563,167973
14.253,257772,564,167962
14.258,257796,562,167953
14.262,257817,564,167951
14.267,257867,560,167980
14.272,257880,562,168005
14.277,257930,562,168006
14.282,257971,563,168027
14.287,257955,561,168017
14.292,257977,560,168021
14.297,258007,561,168049
14.302,258056,569,168078
14.307,258056,558,168087
14.312,258096,558,168104
14.317,258121,559,168114
14.322,258130,560,168116
14.327,258137,559,168111
14.332,258109,558,168103
14.337,258104,560,168100
14.342,258122,559,168111
14.347,258128,559,168100
14.352,258111,561,168092
14.357,258106,564,168074
14.362,258095,564,168055
14.367,258079,562,168041
14.372,258068,562,168046
14.377,258085,562,168046
14.382,258127,561,168087
14.387,258174,562,168132
14.392,258239,561,168165
14.397,258263,561,168174
14.402,258241,566,168178
14.407,258244,565,168148
14.412,258233,564,168143
14.416,258232,566,168133
14.421,258258,566,168142
14.426,258258,566,168142
14.431,258337,565,168221
14.436,258455,565,168301
14.441,258544,566,168372
14.446,258658,564,168440
14.451,258761,558,168550
14.456,258879,559,168655
14.461,259044,557,168804
14.466,259235,558,168986
14.471,259405,556,169161
14.476,259638,566,169367
14.481,259815,557,169560
14.486,259970,566,169701
14.491,260097,554,169884
14.496,260173,556,170021
14.501,260267,563,170134
14.506,260345,563,170271
14.511,260446,562,170417
14.516,260516,563,170509
14.521,260597,563,170680
14.526,260650,564,170780
14.531,260618,553,170818
14.536,260572,553,170854
14.541,260535,555,170884
14.546,260600,555,170924
14.551,260585,557,170979
14.556,260601,559,171018
14.561,260639,560,171070
14.566,260645,560,171103
14.570,260688,556,171152
14.575,260694,558,171183
14.580,260699,559,171216
14.585,260699,559,171215
14.590,260669,558,171192
14.595,260669,559,171183
14.600,260638,556,171138
14.605,260620,556,171104
14.610,260565,555,171056
14.615,260542,555,171027
14.620,260527,554,171019
14.625,260468,386,170951
14.630,260466,405,170894
14.635,260419,418,170870
14.640,260439,436,170844
14.645,260421,436,170824
14.650,260414,438,170807
14.655,260400,443,170780
14.660,260363,456,170735
14.665,260325,458,170667
14.670,260288,459,170628
14.675,260264,462,170582
14.680,260261,462,170542
14.685,260261,466,170539
14.690,260268,465,170530
14.695,260293,460,170547
14.700,260309,471,170552
14.705,260305,472,170538
14.710,260299,472,170521
14.715,260315,473,170510
14.719,260303,473,170481
14.724,260296,476,170456
14.729,260278,659,170450
14.734,260257,629,170422
14.739,260229,616,170372
14.744,260172,601,170347
14.749,260117,592,170285
14.754,260113,589,170237
14.759,260049,585,170183
14.764,259990,583,170120
14.769,259929,577,170025
14.774,259858,576,169929
14.779,259806,574,169881
14.784,259744,575,169819
14.789,259724,601,169771
14.794,259696,578,169717
14.799,259664,578,169700
14.804,259650,578,169663
14.809,259582,575,169629
14.814,259570,575,169573
14.819,259543,573,169543
14.824,259536,574,169505
14.829,259506,571,169468
14.834,259493,572,169433
14.839,259456,565,169388
14.844,259429,566,169369
14.849,259462,563,169363
14.854,259486,563,169338
14.859,259457,564,169319
14.864,259426,565,169258
14.869,259399,562,169209
14.873,259343,562,169177
14.878,259327,562,169122
14.883,259274,566,169064
14.888,259265,565,169017
14.893,259233,568,168986
14.898,259194,570,168942
14.903,259128,569,168883
14.908,259096,567,168813
14.913,258994,560,168761
14.918,258955,561,168715
14.923,258935,562,168679
14.928,258865,561,168637
14.933,258827,562,168577
14.938,258807,567,168561
14.943,258779,567,168522
14.948,258759,565,168470
14.953,258715,565,168427
14.958,258699,564,168387
14.963,258617,564,168324
14.968,258567,562,168278
14.973,258523,561,168228
14.978,258489,563,168196
14.983,258495,563,168200
14.988,258482,564,168211
14.993,258521,564,168219
14.998,258535,565,168225
15.003,258541,565,168220
15.008,258512,564,168213
15.013,258519,564,168186
15.018,258467,564,168170
15.022,258416,566,168095
15.027,258362,565,168076
15.032,258321,560,167984
15.037,258309,561,168021
15.042,258289,563,167994
15.047,258280,563,167983
15.052,258243,563,167958
15.057,258221,566,167914
15.062,258191,557,167898
15.067,258158,557,167879
15.072,258155,556,167890
15.077,258168,558,167906
15.082,258178,561,167881
15.087,258164,560,167884
15.092,258191,561,167869
15.097,258144,562,167859
15.102,258142,563,167849
15.107,258131,562,167820
15.112,258089,563,167817
15.117,258103,566,167797
15.122,258069,566,167799
15.127,258072,556,167783
15.132,258035,560,167779
15.137,258060,561,167788
15.142,258064,562,167779
15.147,258056,560,167777
15.152,258044,560,167765
15.157,258044,560,167788
15.162,258023,561,167746
15.167,257996,562,167748
15.172,257965,561,167709
15.176,257942,564,167707
15.181,257964,565,167648
15.186,257915,557,167685
15.191,257896,559,167678
15.196,257891,559,167674
15.201,257864,560,167665
15.206,257863,560,167660
15.211,257836,560,167628
15.216,257813,561,167629
15.221,257814,561,167604
15.226,257780,559,167593
15.231,257777,565,167588
15.236,257753,566,167579
15.241,257767,556,167575
15.246,257763,555,167566
15.251,257784,556,167580
15.256,257744,557,167582
15.261,257759,558,167570
15.266,257762,558,167572
15.271,257737,557,167583
15.276,257763,560,167527
15.281,257736,562,167564
15.286,257754,562,167546
15.291,257751,561,167545
15.296,257758,560,167543
15.301,257737,564,167509
15.306,257710,563,167488
15.311,257719,561,167477
15.316,257710,563,167455
15.321,257705,565,167455
15.325,257785,556,167459
15.330,257738,557,167466
15.335,257753,558,167471
15.340,257767,560,167475
15.345,257758,560,167454
15.350,257760,559,167457
15.355,257770,558,167457
15.360,257759,559,167444
15.365,257713,559,167424
15.370,257751,558,167399
15.375,257746,562,167393
15.380,257713,554,167383
15.385,257708,554,167370
15.390,257702,553,167377
15.395,257701,553,167368
15.400,257692,554,167353
15.405,257698,554,167340
15.410,257700,553,167316
15.415,257682,554,167307
15.420,257683,555,167300
15.425,257686,559,167269
15.430,257702,557,167257
15.435,257658,555,167268
15.440,257650,557,167216
15.445,257634,556,167223
15.450,257640,553,167214
15.455,257670,554,167236
15.460,257669,561,167247
15.465,257707,561,167256
15.470,257689,550,167274
15.475,257717,560,167284
15.479,257713,559,167275
15.484,257725,557,167280
15.489,257757,553,167283
15.494,257757,553,167308
15.499,257751,561,167319
15.504,257764,560,167311
15.509,257774,555,167313
15.514,257790,557,167328
15.519,257787,555,167333
15.524,257828,558,167359
15.529,257797,554,167359
15.534,257816,554,167340
15.539,257791,553,167309
15.544,257767,554,167292
15.549,257753,558,167303
15.554,257711,558,167270
15.559,257713,556,167251
15.564,257704,556,167238
15.569,257686,561,167211
15.574,257715,554,167241
15.579,257711,555,167233
15.584,257719,554,167221
15.589,257741,559,167211
15.594,257720,557,167215
15.599,257725,557,167223
15.604,257710,556,167212
15.609,257713,552,167219
15.614,257712,551,167213
15.619,257758,557,167217
15.624,257724,377,167220
15.629,257759,400,167230
15.633,257776,413,167241
15.638,257759,431,167223
15.643,257758,437,167254
15.648,257779,438,167243
15.653,257776,441,167259
15.658,257782,444,167269
15.663,257782,458,167275
15.668,257818,450,167292
15.673,257816,452,167314
15.678,257851,462,167313
15.683,257865,462,167317
15.688,257865,460,167317
15.693,257873,460,167338
15.698,257892,471,167346
15.703,257914,470,167352
15.708,257939,468,167352
15.713,257972,466,167371
15.718,257939,472,167357
15.723,257954,472,167335
15.728,257921,677,167326
15.733,257914,631,167316
15.738,257916,620,167319
15.743,257933,608,167306
15.748,257946,597,167330
15.753,257966,590,167324
15.758,257971,593,167307
15.763,258010,587,167319
15.768,257997,586,167319
15.773,258023,582,167346
15.778,258033,579,167351
15.782,258035,576,167354
15.787,258023,571,167367
15.792,258046,576,167382
15.797,258028,574,167374
15.802,258052,572,167372
15.807,258033,569,167380
15.812,258015,566,167368
15.817,258004,568,167375
15.822,257992,567,167372
15.827,257983,571,167388
15.832,257998,567,167397
15.837,257999,566,167401
15.842,258006,563,167415
15.847,258011,569,167429
15.852,258011,564,167462
15.857,258004,564,167456
15.862,257991,569,167450
15.867,257989,568,167465
15.872,257990,563,167448
15.877,258010,563,167435
15.882,257988,560,167446
15.887,257978,567,167431
15.892,257959,563,167426
15.897,257948,562,167446
15.902,257945,561,167447
15.907,257945,567,167448
15.912,257918,558,167423
15.917,257911,566,167411
15.922,257907,564,167419
15.927,257895,562,167411
15.932,257878,558,167426
15.936,257893,558,167437
15.941,257873,566,167439
15.946,257844,563,167429
15.951,257867,560,167465
15.956,257865,558,167479
15.961,257879,562,167490
15.966,257866,560,167497
15.971,257886,556,167522
15.976,257928,555,167556
15.981,257907,563,167551
15.986,257903,560,167539
15.991,257859,556,167543
15.996,257860,557,167511
16.001,257871,554,167505
16.006,257819,563,167481
16.011,257786,554,167448
16.016,257751,563,167396
16.021,257720,561,167360
16.026,257682,559,167337
16.031,257645,556,167309
16.036,257597,555,167242
16.041,257554,554,167211
16.046,257537,562,167191
16.051,257506,559,167193
16.056,257507,558,167201
16.061,257522,554,167209
16.066,257532,563,167218
16.071,257569,559,167248
16.076,257574,557,167247
16.081,257571,555,167252
16.085,257571,555,167254
16.090,257568,560,167266
16.095,257566,561,167256
16.100,257584,558,167270
16.105,257584,562,167252
16.110,257594,557,167285
16.115,257619,558,167303
16.120,257614,555,167301
16.125,257630,554,167322
16.130,257638,558,167316
16.135,257653,559,167296
16.140,257637,556,167322
16.145,257644,555,167315
16.150,257627,550,167274
16.155,257581,554,167265
16.160,257607,552,167249
16.165,257591,563,167220
16.170,257582,557,167224
16.175,257579,557,167190
16.180,257552,557,167201
16.185,257575,556,167184
16.190,257566,552,167176
16.195,257509,552,167153
16.200,257489,560,167130
16.205,257493,554,167113
16.210,257464,558,167074
16.215,257462,559,167070
16.220,257447,556,167063
16.225,257449,556,167056
16.230,257444,550,167062
16.235,257444,559,167058
16.239,257435,558,167061
16.244,257450,557,167062
16.249,257421,552,167051
16.254,257405,555,167045
16.259,257386,555,167018
16.264,257365,554,166995
16.269,257346,549,166968
16.274,257317,559,166938
16.279,257293,557,166898
16.284,257257,557,166892
16.289,257211,553,166842
16.294,257186,552,166803
16.299,257132,553,166751
16.304,257065,558,166690
16.309,256993,554,166611
16.314,256946,553,166557
16.319,256894,561,166517
16.324,256870,560,166470
16.329,256837,555,166433
16.334,256798,554,166398
16.339,256730,553,166336
16.344,256675,563,166290
16.349,256650,559,166230
16.354,256572,557,166158
16.359,256544,555,166117
16.364,256525,555,166092
16.369,256507,562,166053
16.374,256474,559,166027
16.379,256450,559,166002
16.384,256459,559,165968
16.389,256433,556,165954
16.393,256434,553,165936
16.398,256427,574,165925
16.403,256385,554,165889
16.408,256382,551,165884
16.413,256387,562,165874
16.418,256380,561,165858
16.423,256350,562,165863
16.428,256356,559,165841
16.433,256367,558,165848
16.438,256373,556,165848
16.443,256397,556,165842
16.448,256392,557,165879
16.453,256428,556,165884
16.458,256434,557,165892
16.463,256456,555,165907
16.468,256469,563,165911
16.473,256450,559,165915
16.478,256477,558,165889
16.483,256451,557,165901
16.488,256459,555,165889
16.493,256462,552,165883
16.498,256456,556,165862
16.503,256429,555,165854
16.508,256407,562,165834
16.513,256416,558,165813
16.518,256374,558,165791
16.523,256360,557,165768
16.528,256346,555,165753
16.533,256337,553,165722
16.538,256337,562,165716
16.542,256301,560,165704
16.547,256299,564,165690
16.552,256280,559,165675
16.557,256263,558,165670
16.562,256236,557,165629
16.567,256246,556,165612
16.572,256220,552,165589
16.577,256189,563,165562
16.582,256178,560,165565
16.587,256205,558,165554
16.592,256171,554,165570
16.597,256195,559,165559
16.602,256194,558,165544
16.607,256187,557,165536
16.612,256164,553,165529
16.617,256185,563,165514
16.622,256192,335,165526
16.627,256113,396,165495
16.632,256135,412,165485
16.637,256125,423,165464
16.642,256120,430,165443
16.647,256123,441,165439
16.652,256089,441,165423
16.657,256091,445,165414
16.662,256113,458,165404
16.667,256095,460,165411
16.672,256083,458,165407
16.677,256085,459,165405
16.682,256103,460,165405
16.687,256104,470,165410
16.692,256072,469,165414
16.696,256104,468,165392
16.701,256112,469,165394
16.706,256109,469,165379
16.711,256112,467,165368
16.716,256091,468,165374
16.721,256089,477,165346
16.726,256092,477,165356
16.731,256058,653,165330
16.736,256074,626,165326
16.741,256058,619,165323
16.746,256024,607,165298
16.751,255990,597,165285
16.756,255968,594,165273
16.761,255977,589,165231
16.766,255947,593,165231
16.771,255927,585,165231
16.776,255934,583,165220
16.781,255889,580,165226
16.786,255879,578,165206
16.791,255862,575,165189
16.796,255839,584,165180
16.801,255795,579,165147
16.806,255754,577,165134
16.811,255706,571,165110
16.816,255697,570,165070
16.821,255660,578,165056
16.826,255631,573,165033
16.831,255598,570,164989
16.836,255542,569,164984
16.841,255536,572,164942
16.845,255489,569,164926
16.850,255454,565,164896
16.855,255405,573,164885
16.860,255366,572,164855
16.865,255325,570,164843
16.870,255315,566,164827
16.875,255282,575,164808
16.880,255249,573,164789
16.885,255227,572,164773
16.890,255204,572,164752
16.895,255183,571,164751
16.900,255162,570,164726
16.905,255130,568,164710
16.910,255107,565,164697
16.915,255085,564,164690
16.920,255084,573,164685
16.925,255048,572,164649
16.930,255026,568,164650
16.935,255023,578,164612
16.940,254995,569,164632
16.945,254972,568,164626
16.950,254978,564,164603
16.955,254955,563,164606
16.960,254929,571,164589
16.965,254943,567,164594
16.970,254946,565,164581
16.975,254922,564,164566
16.980,254896,564,164540
16.985,254903,571,164527
16.990,254849,567,164496
16.995,254847,566,164476
16.999,254829,564,164462
17.004,254818,563,164462
17.009,254782,570,164464
17.014,254786,567,164447
17.019,254775,566,164450
17.024,254763,564,164437
17.029,254748,570,164410
17.034,254742,564,164416
17.039,254731,563,164420
17.044,254741,571,164406
17.049,254723,567,164405
17.054,254712,566,164389
17.059,254693,565,164395
17.064,254695,565,164367
17.069,254693,563,164363
17.074,254652,570,164338
17.079,254651,569,164321
17.084,254624,563,164323
17.089,254613,571,164308
17.094,254597,568,164297
17.099,254585,567,164298
17.104,254564,564,164287
17.109,254576,563,164260
17.114,254578,569,164279
17.119,254584,568,164282
17.124,254580,568,164275
17.129,254565,565,164288
17.134,254593,567,164287
17.139,254584,567,164274
17.144,254558,564,164263
17.149,254556,562,164267
17.153,254555,561,164261
17.158,254549,561,164242
17.163,254543,569,164242
17.168,254535,566,164246
17.173,254508,565,164233
17.178,254536,564,164220
17.183,254536,568,164249
17.188,254527,565,164231
17.193,254553,562,164236
17.198,254557,562,164257
17.203,254542,563,164249
17.208,254552,561,164232
17.213,254549,568,164232
17.218,254531,568,164219
17.223,254537,566,164205
17.228,254525,547,164194
17.233,254495,567,164188
17.238,254517,566,164174
17.243,254514,564,164171
17.248,254507,564,164166
17.253,254495,561,164185
17.258,254523,560,164181
17.263,254518,570,164165
17.268,254504,569,164161
17.273,254508,566,164154
17.278,254487,570,164136
17.283,254502,570,164132
17.288,254501,568,164122
17.293,254503,564,164119
17.298,254492,565,164120
17.302,254502,564,164107
17.307,254509,564,164099
17.312,254492,561,164095
17.317,254499,561,164084
17.322,254477,570,164086
17.327,254440,564,164075
17.332,254487,560,164080
17.337,254468,560,164057
17.342,254483,569,164080
17.347,254494,568,164066
17.352,254500,563,164083
17.357,254526,564,164098
17.362,254521,562,164101
17.367,254541,564,164118
17.372,254552,560,164097
17.377,254580,564,164111
17.382,254568,561,164117
17.387,254591,564,164108
17.392,254603,559,164136
17.397,254605,560,164153
17.402,254656,567,164173
17.407,254667,565,164165
17.412,254695,561,164193
17.417,254675,562,164188
17.422,254707,560,164199
17.427,254693,568,164208
17.432,254692,564,164201
17.437,254699,564,164202
17.442,254725,563,164209
17.447,254736,563,164218
17.452,254741,557,164224
17.456,254751,569,164224
17.461,254737,567,164203
17.466,254747,567,164196
17.471,254757,571,164275
17.476,254753,559,164194
17.481,254785,567,164213
17.486,254788,567,164209
17.491,254815,562,164219
17.496,254822,562,164226
17.501,254832,560,164243
17.506,254833,560,164238
17.511,254833,556,164242
17.516,254858,566,164260
17.521,254799,559,164254
17.526,254906,569,164258
17.531,254902,563,164281
17.536,254944,564,164297
17.541,254944,563,164290
17.546,254939,562,164297
17.551,254933,557,164296
17.556,254939,556,164287
17.561,254932,566,164284
17.566,254932,564,164278
17.571,254968,561,164284
17.576,254936,560,164302
17.581,254956,560,164306
17.586,254949,567,164299
17.591,254960,563,164282
17.596,254947,562,164279
17.601,254940,560,164291
17.605,254938,561,164291
17.610,254954,557,164293
17.615,254923,566,164291
17.620,254966,559,164296
17.625,254922,380,164295
17.630,254931,405,164277
17.635,254920,417,164301
17.640,254932,436,164305
17.645,254922,442,164296
17.650,254933,443,164300
17.655,254932,447,164304
17.660,254937,448,164306
17.665,254920,462,164298
17.670,254907,458,164295
17.675,254889,460,164272
17.680,254880,461,164286
17.685,254857,469,164269
17.690,254845,468,164264
17.695,254867,468,164260
17.700,254845,468,164252
17.705,254849,468,164273
17.710,254828,467,164252
17.715,254836,477,164244
17.720,254826,475,164261
17.725,254824,476,164246
17.730,254837,680,164248
17.735,254834,637,164250
17.740,254836,619,164235
17.745,254834,608,164250
17.750,254839,599,164252
17.755,254845,601,164239
17.759,254859,597,164252
17.764,254873,624,164249
17.769,254849,590,164262
17.774,254875,587,164277
17.779,254908,586,164282
17.784,254911,583,164283
17.789,254916,580,164288
17.794,254907,577,164292
17.799,254936,575,164294
17.804,254925,577,164279
17.809,254923,574,164303
17.814,254946,576,164312
17.819,254945,575,164320
17.824,254981,573,164333
17.829,254979,573,164325
17.834,254989,570,164341
17.839,254980,569,164345
17.844,254990,568,164321
17.849,254976,575,164320
17.854,254977,572,164321
17.859,254966,571,164326
17.864,254980,575,164322
17.869,254991,571,164329
17.874,254989,567,164326
17.879,254973,566,164335
17.884,254974,565,164312
17.889,254980,563,164322
17.894,254967,571,164299
17.899,254964,570,164288
17.904,254926,568,164298
17.908,254954,566,164277
17.913,254934,567,164283
17.918,254936,568,164277
17.923,254944,568,164265
17.928,254934,566,164254
17.933,254913,564,164241
17.938,254941,561,164242
17.943,254929,563,164240
17.948,254925,563,164233
17.953,254930,558,164226
17.958,254941,559,164244
17.963,254938,562,164245
17.968,254946,561,164237
17.973,254948,557,164247
17.978,254949,566,164232
17.983,254966,564,164236
17.988,254964,563,164249
17.993,254946,560,164215
17.998,254974,561,164235
18.003,254969,559,164231
18.008,254946,562,164286
18.013,254970,559,164224
18.018,254957,559,164244
18.023,254966,558,164243
18.028,254983,566,164256
18.033,254993,563,164247
18.038,255008,563,164240
18.043,255001,561,164269
18.048,255004,561,164244
18.053,255000,557,164264
18.058,255086,560,164270
18.062,255031,560,164277
18.067,255047,560,164293
18.072,255072,556,164298
18.077,255089,555,164320
18.082,255110,556,164345
18.087,255104,565,164325
18.092,255122,561,164329
18.097,255128,561,164334
18.102,255144,560,164358
18.107,255167,572,164359
18.112,255171,555,164357
18.117,255216,556,164360
18.122,255201,556,164365
18.127,255202,556,164383
18.132,255201,561,164364
18.137,255224,563,164394
18.142,255189,560,164372
18.147,255204,560,164364
18.152,255203,553,164361
18.157,255215,556,164331
18.162,255194,561,164336
18.167,255207,561,164324
18.172,255180,558,164334
18.177,255182,559,164324
18.182,255209,559,164333
18.187,255216,560,164327
18.192,255227,556,164333
18.197,255236,557,164338
18.202,255226,555,164321
18.207,255248,560,164315
18.212,255241,556,164321
18.216,255254,554,164331
18.221,255249,556,164313
18.226,255260,557,164316
18.231,255278,553,164341
18.236,255276,555,164328
18.241,255267,554,164325
18.246,255309,554,164338
18.251,255287,552,164353
18.256,255318,555,164349
18.261,255306,556,164364
18.266,255328,556,164356
18.271,255317,552,164348
18.276,255315,552,164350
18.281,255341,554,164337
18.286,255308,553,164342
18.291,255330,551,164344
18.296,255334,551,164359
18.301,255354,574,164361
18.306,255331,554,164332
18.311,255343,551,164340
18.316,255351,551,164329
18.321,255317,561,164321
18.326,255351,561,164323
18.331,255325,559,164331
18.336,255345,558,164336
18.341,255331,558,164324
18.346,255368,558,164338
18.351,255358,551,164334
18.356,255373,561,164331
18.361,255375,559,164323
18.365,255373,558,164326
18.370,255362,557,164327
18.375,255391,555,164322
18.380,255379,554,164325
18.385,255371,553,164318
18.390,255371,550,164296
18.395,255381,556,164300
18.400,255367,551,164308
18.405,255365,560,164299
18.410,255398,558,164301
18.415,255384,556,164301
18.420,255413,555,164290
18.425,255401,555,164301
18.430,255396,553,164304
18.435,255393,553,164283
18.440,255387,551,164278
18.445,255366,559,164260
18.450,255364,551,164261
18.455,255373,550,164261
18.460,255385,549,164272
18.465,255343,560,164249
18.470,255352,558,164258
18.475,255356,558,164244
18.480,255319,556,164253
18.485,255321,557,164250
18.490,255297,555,164231
18.495,255266,553,164211
18.500,255277,557,164208
18.505,255238,559,164186
18.510,255221,557,164184
18.515,255210,556,164189
18.519,255197,556,164168
18.524,255167,555,164150
18.529,255142,554,164134
18.534,255109,552,164116
18.539,255061,551,164095
18.544,255047,558,164115
18.549,255028,557,164060
18.554,255009,555,164028
18.559,254998,555,164017
18.564,254965,554,164007
18.569,254948,552,164001
18.574,254957,549,164002
18.579,254938,550,164003
18.584,254928,558,163982
18.589,254901,557,163984
18.594,254869,549,163964
18.599,254883,548,163955
18.604,254877,558,163946
18.609,254859,557,163952
18.614,254861,553,163931
18.619,254843,555,163922
18.624,254822,355,163891
18.629,254775,394,163866
18.634,254776,407,163865
18.639,254729,419,163825
18.644,254723,430,163800
18.649,254688,435,163781
18.654,254669,447,163746
18.659,254633,449,163720
18.664,254584,451,163702
18.668,254588,454,163676
18.673,254546,453,163677
18.678,254529,455,163649
18.683,254523,457,163614
18.688,254498,457,163603
18.693,254470,460,163579
18.698,254450,462,163561
18.703,254455,462,163561
18.708,254460,463,163574
18.713,254467,462,163556
18.718,254455,474,163551
18.723,254467,473,163561
18.728,254377,726,163546
18.733,254434,642,163539
18.738,254433,619,163533
18.743,254409,610,163520
18.748,254418,601,163527
18.753,254386,593,163519
18.758,254368,590,163503
18.763,254374,585,163500
18.768,254366,582,163509
18.773,254387,574,163503
18.778,254382,575,163486
18.783,254362,571,163501
18.788,254352,571,163482
18.793,254350,573,163466
18.798,254330,572,163492
18.803,254341,572,163478
18.808,254355,570,163470
18.813,254334,565,163475
18.818,254320,564,163483
18.822,254315,562,163477
18.827,254321,562,163482
18.832,254313,566,163486
18.837,254313,564,163480
18.842,254307,561,163477
18.847,254297,560,163477
18.852,254317,566,163479
18.857,254313,566,163479
18.862,254296,566,163466
18.867,254287,565,163471
18.872,254289,561,163469
18.877,254291,562,163483
18.882,254313,562,163450
18.887,254308,557,163457
18.892,254310,562,163455
18.897,254292,562,163454
18.902,254312,560,163455
18.907,254291,561,163466
18.912,254341,554,163471
18.917,254327,558,163489
18.922,254341,556,163489
18.927,254342,557,163483
18.932,254376,555,163495
18.937,254384,558,163516
18.942,254392,557,163523
18.947,254403,558,163534
18.952,254413,554,163520
18.957,254430,554,163530
18.962,254430,553,163535
18.967,254458,552,163540
18.972,254441,557,163533
18.976,254450,559,163540
18.981,254477,559,163523
18.986,254482,552,163548
18.991,254482,549,163551
18.996,254505,551,163565
19.001,254507,550,163576
19.006,254507,560,163577
19.011,254524,557,163582
19.016,254535,556,163599
19.021,254580,555,163591
19.026,254602,555,163613
19.031,254603,554,163624
19.036,254633,554,163622
19.041,254612,555,163627
19.046,254606,555,163631
19.051,254614,550,163620
19.056,254604,552,163600
19.061,254604,550,163589
19.066,254588,550,163574
19.071,254578,548,163567
19.076,254547,556,163558
19.081,254547,562,163589
19.086,254501,553,163518
19.091,254447,549,163512
19.096,254459,548,163493
19.101,254468,557,163490
19.106,254463,557,163484
19.111,254455,555,163498
19.116,254468,554,163486
19.121,254468,552,163490
19.125,254463,553,163498
19.130,254429,553,163508
19.135,254511,553,163525
19.140,254517,553,163539
19.145,254579,552,163548
19.150,254591,550,163577
19.155,254594,548,163588
19.160,254606,549,163578
19.165,254623,548,163581
19.170,254626,547,163591
19.175,254634,555,163587
19.180,254629,549,163593
19.185,254625,549,163605
19.190,254646,544,163585
19.195,254662,554,163608
19.200,254661,553,163612
19.205,254670,555,163603
19.210,254667,552,163620
19.215,254693,549,163630
19.220,254699,548,163647
19.225,254748,549,163637
19.230,254748,558,163670
19.235,254750,545,163666
19.240,254775,553,163671
19.245,254782,552,163683
19.250,254802,551,163704
19.255,254810,547,163685
19.260,254835,548,163704
19.265,254816,546,163691
19.270,254809,554,163681
19.275,254822,548,163676
19.279,254829,545,163711
19.284,254820,554,163667
19.289,254849,554,163691
19.294,254849,549,163690
19.299,254856,549,163667
19.304,254841,546,163679
19.309,254864,547,163659
19.314,254822,543,163655
19.319,254840,552,163629
19.324,254820,551,163618
19.329,254795,554,163615
19.334,254810,551,163588
19.339,254784,549,163591
19.344,254793,551,163587
19.349,254787,551,163589
19.354,254817,547,163593
19.359,254788,546,163561
19.364,254765,546,163571
19.369,254755,553,163579
19.374,254755,585,163567
19.379,254735,544,163570
19.384,254756,551,163565
19.389,254750,552,163577
19.394,254738,547,163595
19.399,254729,549,163589
19.404,254761,547,163607
19.409,254732,547,163598
19.414,254736,543,163601
19.419,254699,544,163602
19.424,254678,545,163590
19.428,254692,545,163584
19.433,254668,549,163570
19.438,254672,550,163566
19.443,254674,549,163562
19.448,254639,549,163553
19.453,254643,544,163548
19.458,254614,545,163543
19.463,254601,543,163545
19.468,254591,542,163534
19.473,254579,543,163520
19.478,254581,543,163530
19.483,254561,551,163517
19.488,254542,551,163531
19.493,254563,546,163511
19.498,254559,548,163519
19.503,254570,547,163538
19.508,254559,546,163549
19.513,254562,542,163560
19.518,254579,542,163542
19.523,254562,550,163540
19.528,254574,550,163565
19.533,254557,548,163548
19.538,254533,548,163546
19.543,254525,548,163549
19.548,254539,547,163539
19.553,254545,545,163544
19.558,254540,546,163557
19.563,254514,545,163531
19.568,254522,546,163524
19.573,254520,540,163534
19.578,254482,543,163499
19.582,254493,551,163499
19.587,254472,551,163487
19.592,254462,548,163491
19.597,254493,546,163496
19.602,254491,546,163493
19.607,254497,544,163512
19.612,254487,543,163507
19.617,254508,549,163523
19.622,254514,547,163543
19.627,254526,383,163530
19.632,254510,401,163521
19.637,254523,414,163533
19.642,254517,422,163542
19.647,254511,429,163520
19.652,254511,432,163543
19.657,254508,435,163530
19.662,254509,439,163539
19.667,254483,451,163540
19.672,254491,449,163529
19.677,254487,451,163532
19.682,254480,453,163520
19.687,254484,454,163513
19.692,254456,453,163504
19.697,254442,451,163500
19.702,254429,452,163474
19.707,254418,464,163468
19.712,254408,463,163466
19.717,254414,458,163450
19.722,254381,458,163445
19.727,254390,470,163422
19.732,254386,650,163438
19.736,254356,619,163427
19.741,254355,604,163392
19.746,254346,592,163388
19.751,254353,585,163396
19.756,254357,579,163403
19.761,254351,574,163392
19.766,254359,573,163390
19.771,254377,569,163394
19.776,254364,565,163390
19.781,254366,571,163372
19.786,254357,569,163370
19.791,254336,565,163372
19.796,254356,562,163360
19.801,254336,561,163371
19.806,254346,559,163351
19.811,254365,560,163360
19.816,254347,556,163363
19.821,254346,555,163364
19.826,254354,564,163350
19.831,254343,560,163344
19.836,254321,558,163338
19.841,254351,556,163326
19.846,254346,555,163329
19.851,254328,553,163336
19.856,254354,551,163313
19.861,254346,560,163315
19.866,254346,552,163309
19.871,254337,551,163294
19.876,254314,557,163303
19.881,254348,558,163279
19.885,254319,554,163269
19.890,254313,553,163252
19.895,254330,551,163229
19.900,254305,550,163226
19.905,254323,557,163229
19.910,254284,583,163223
19.915,254289,552,163188
19.920,254278,552,163191
19.925,254301,552,163189
19.930,254283,549,163172
19.935,254290,555,163174
19.940,254298,554,163169
19.945,254292,551,163155
19.950,254287,551,163148
19.955,254288,547,163141
19.960,254306,550,163157
19.965,254323,549,163166
19.970,254315,548,163148
19.975,254324,554,163162
19.980,254316,554,163169
19.985,254321,551,163168
19.990,254337,551,163168
19.995,254325,547,163171
20.000,254341,547,163173
20.005,254352,546,163164
20.010,254333,550,163156
20.015,254351,547,163160
20.020,254331,546,163148
20.025,254340,544,163167
20.030,254360,546,163167
20.035,254361,552,163163
20.039,254380,549,163163
20.044,254380,548,163166
20.049,254395,546,163172
20.054,254386,543,163175
20.059,254395,546,163180
20.064,254387,545,163160
20.069,254392,554,163164
20.074,254397,549,163155
20.079,254374,548,163145
20.084,254363,545,163142
20.089,254373,547,163126
20.094,254378,542,163121
20.099,254376,553,163127
20.104,254366,549,163109
20.109,254377,544,163124
20.114,254382,548,163089
20.119,254360,550,163091
20.124,254371,547,163062
20.129,254365,548,163063
20.134,254361,543,163049
20.139,254347,543,163037
20.144,254327,551,163013
20.149,254300,551,162995
20.154,254291,547,162907
20.159,254259,551,162965
20.164,254239,547,162954
20.169,254227,549,162910
20.174,254218,545,162885
20.179,254183,545,162880
20.184,254149,543,162865
20.188,254133,553,162850
20.193,254102,549,162827
20.198,254089,547,162801
20.203,254125,548,162774
20.208,254053,551,162749
20.213,253991,546,162740
20.218,253967,546,162705
20.223,253959,545,162681
20.228,253915,545,162644
20.233,253886,549,162629
20.238,253873,548,162602
20.243,253850,546,162588
20.248,253826,546,162557
20.253,253793,545,162529
20.258,253769,545,162512
20.263,253756,553,162484
20.268,253724,551,162442
20.273,253706,547,162443
20.278,253675,545,162410
20.283,253664,545,162390
20.288,253615,544,162374
20.293,253627,550,162360
20.298,253596,550,162354
20.303,253583,546,162347
20.308,253606,544,162350
20.313,253595,550,162355
20.318,253582,549,162365
20.323,253579,548,162356
20.328,253579,547,162367
20.333,253585,543,162362
20.338,253581,551,162352
20.342,253547,548,162364
20.347,253572,549,162346
20.352,253539,542,162355
20.357,253557,541,162367
20.362,253540,549,162344
20.367,253522,548,162337
20.372,253509,543,162331
20.377,253480,542,162310
20.382,253486,551,162308
20.387,253490,549,162286
20.392,253467,546,162275
20.397,253456,544,162270
20.402,253439,549,162267
20.407,253424,546,162255
20.412,253426,544,162267
20.417,253455,543,162290
20.422,253453,542,162283
20.427,253477,551,162303
20.432,253486,548,162314
20.437,253516,546,162334
20.442,253495,542,162342
20.447,253502,543,162353
20.452,253480,543,162348
20.457,253510,540,162333
20.462,253482,550,162342
20.467,253494,548,162334
20.472,253480,545,162336
20.477,253479,543,162319
20.482,253466,542,162335
20.487,253466,549,162313
20.492,253461,546,162310
20.496,253449,546,162302
20.501,253444,547,162302
20.506,253451,546,162293
20.511,253427,542,162275
20.516,253440,539,162283
20.521,253426,549,162277
20.526,253405,548,162258
20.531,253408,546,162246
20.536,253387,544,162233
20.541,253384,544,162237
20.546,253395,554,162230
20.551,253387,543,162218
20.556,253399,541,162218
20.561,253378,541,162218
20.566,253387,540,162209
20.571,253402,550,162224
20.576,253385,547,162210
20.581,253400,546,162203
20.586,253391,548,162202
20.591,253383,547,162186
20.596,253397,546,162198
20.601,253389,545,162187
20.606,253362,544,162178
20.611,253370,545,162187
20.616,253388,543,162171
20.621,253378,545,162169
20.626,253393,366,162172
20.631,253389,395,162175
20.636,253404,409,162194
20.641,253436,420,162191
20.645,253411,431,162203
20.650,253443,436,162216
20.655,253433,439,162209
20.660,253458,443,162216
20.665,253438,446,162200
20.670,253445,449,162201
20.675,253447,450,162208
20.680,253452,451,162184
20.685,253466,454,162198
20.690,253451,457,162220
20.695,253465,450,162211
20.700,253497,452,162222
20.705,253514,464,162242
20.710,253514,466,162252
20.715,253528,463,162259
20.720,253543,464,162279
20.725,253535,466,162281
20.730,253543,468,162288
20.735,253561,642,162279
20.740,253550,587,162278
20.745,253556,597,162287
20.750,253559,589,162271
20.755,253565,578,162284
20.760,253556,576,162278
20.765,253560,572,162269
20.770,253583,571,162273
20.775,253557,567,162245
20.780,253551,566,162240
20.785,253550,562,162222
20.790,253539,565,162211
20.795,253557,561,162214
20.799,253539,561,162215
20.804,253529,560,162200
20.809,253545,560,162207
20.814,253543,559,162191
20.819,253531,560,162187
20.824,253551,558,162194
20.829,253578,559,162192
20.834,253548,554,162192
20.839,253578,559,162176
20.844,253571,558,162192
20.849,253592,559,162201
20.854,253583,554,162198
20.859,253604,554,162206
20.864,253599,556,162184
20.869,253595,557,162200
20.874,253610,552,162203
20.879,253634,554,162211
20.884,253630,549,162203
20.889,253628,548,162204
20.894,253631,546,162208
20.899,253614,556,162210
20.904,253643,555,162200
20.909,253618,557,162199
20.914,253637,554,162197
20.919,253637,555,162205
20.924,253642,553,162202
20.929,253651,554,162197
20.934,253654,551,162183
20.939,253667,546,162189
20.944,253653,545,162188
20.948,253646,546,162188
20.953,253656,553,162167
20.958,253673,552,162171
20.963,253677,552,162170
20.968,253690,553,162183
20.973,253700,551,162186
20.978,253701,552,162183
20.983,253706,573,162190
20.988,253709,548,162189
20.993,253715,544,162191
20.998,253712,544,162198
21.003,253716,547,162192
21.008,253710,549,162195
21.013,253724,547,162178
21.018,253687,547,162183
21.023,253697,545,162173
21.028,253687,545,162181
21.033,253672,553,162161
21.038,253667,541,162162
21.043,253641,543,162131
21.048,253637,544,162135
21.053,253603,542,162143
21.058,253608,542,162113
21.063,253587,543,162115
21.068,253571,544,162125
21.073,253558,542,162112
21.078,253553,541,162110
21.083,253541,546,162111
21.088,253497,547,162093
21.093,253525,545,162092
21.098,253478,545,162069
21.102,253474,547,162072
21.107,253437,548,162048
21.112,253433,547,162037
21.117,253393,547,162042
21.122,253388,546,162012
21.127,253358,548,162000
21.132,253377,544,161994
21.137,253342,543,161994
21.142,253318,546,161973
21.147,253290,546,161962
21.152,253286,546,161964
21.157,253290,546,161962
21.162,253279,548,161958
21.167,253250,547,161954
21.172,253254,546,161944
21.177,253238,546,161935
21.182,253229,542,161945
21.187,253210,543,161932
21.192,253222,542,161923
21.197,253188,542,161915
21.202,253174,543,161907
21.207,253149,544,161903
21.212,253129,542,161893
21.217,253113,541,161888
21.222,253099,541,161872
21.227,253109,550,161868
21.232,253098,545,161870
21.237,253117,543,161883
21.242,253102,544,161861
21.247,253117,545,161862
21.251,253077,544,161858
21.256,253069,542,161828
21.261,253047,543,161818
21.266,253022,544,161806
21.271,253029,542,161793
21.276,253007,545,161794
21.281,253029,548,161790
21.286,253007,547,161790
21.291,252996,549,161786
21.296,252999,548,161771
21.301,252994,548,161785
21.306,252995,548,161781
21.311,252993,547,161759
21.316,252975,546,161745
21.321,252972,546,161751
21.326,252957,543,161746
21.331,252965,542,161748
21.336,252963,542,161760
21.341,252976,545,161757
21.346,252954,544,161752
21.351,252955,545,161740
21.356,252958,544,161735
21.361,252921,545,161748
21.366,252948,546,161729
21.371,252910,548,161707
21.376,252889,540,161719
21.381,252920,541,161712
21.386,252884,542,161694
21.391,252883,541,161693
21.396,252866,540,161678
21.401,252859,541,161684
21.405,252860,542,161671
21.410,252828,543,161667
21.415,252819,540,161655
21.420,252797,544,161639
21.425,252787,542,161623
21.430,252770,542,161613
21.435,252761,543,161585
21.440,252743,543,161560
21.445,252724,543,161548
21.450,252714,546,161527
21.455,252694,544,161522
21.460,252679,545,161514
21.465,252683,544,161508
21.470,252678,547,161455
21.475,252673,542,161483
21.480,252668,544,161467
21.485,252663,544,161447
21.490,252635,545,161437
21.495,252650,543,161441
21.500,252591,545,161411
21.505,252595,546,161401
21.510,252578,547,161395
21.515,252591,545,161376
21.520,252646,540,161346
21.525,252560,542,161345
21.530,252563,543,161360
21.535,252569,540,161338
21.540,252565,542,161329
21.545,252561,542,161345
21.550,252576,543,161341
21.555,252559,540,161324
21.559,252580,542,161321
21.564,252555,543,161322
21.569,252576,548,161309
21.574,252562,544,161304
21.579,252554,548,161287
21.584,252555,538,161269
21.589,252548,541,161263
21.594,252530,537,161268
21.599,252554,541,161267
21.604,252547,541,161268
21.609,252564,542,161268
21.614,252558,540,161276
21.619,252556,546,161275
21.624,252588,355,161289
21.629,252587,397,161292
21.634,252597,411,161300
21.639,252617,424,161311
21.644,252644,421,161340
21.649,252687,427,161378
21.654,252686,429,161406
21.659,252742,435,161451
21.664,252799,437,161482
21.669,252825,448,161523
21.674,252841,449,161551
21.679,252869,453,161572
21.684,252907,457,161618
21.689,252913,449,161618
21.694,252947,447,161636
21.699,252953,452,161633
21.704,252941,454,161632
21.708,252983,455,161657
21.713,252963,457,161645
21.718,252967,456,161643
21.723,252964,457,161641
21.728,252916,704,161627
21.733,252949,623,161612
21.738,252924,603,161607
21.743,252926,591,161597
21.748,252922,585,161580
21.753,252889,577,161562
21.758,252879,573,161559
21.763,252895,581,161541
21.768,252897,573,161522
21.773,252888,570,161520
21.778,252871,567,161493
21.783,252873,567,161494
21.788,252853,566,161477
21.793,252852,565,161481
21.798,252856,562,161463
21.803,252865,562,161463
21.808,252847,561,161455
21.813,252857,555,161453
21.818,252866,553,161461
21.823,252838,552,161444
21.828,252836,561,161448
21.833,252837,557,161451
21.838,252836,557,161437
21.843,252822,557,161427
21.848,252826,557,161431
21.853,252821,557,161421
21.858,252806,555,161408
21.862,252796,551,161395
21.867,252791,551,161368
21.872,252760,551,161344
21.877,252765,549,161334
21.882,252720,550,161324
21.887,252712,550,161332
21.892,252708,547,161302
21.897,252703,547,161289
21.902,252674,547,161293
21.907,252687,548,161303
21.912,252694,549,161294
21.917,252683,547,161297
21.922,252661,549,161295
21.927,252636,547,161285
21.932,252607,546,161284
21.937,252594,546,161288
21.942,252571,546,161273
21.947,252567,546,161259
21.952,252526,545,161263
21.957,252529,544,161244
21.962,252481,549,161232
21.967,252476,550,161213
21.972,252435,549,161209
21.977,252401,549,161180
21.982,252400,549,161176
21.987,252370,550,161166
21.992,252337,550,161153
21.997,252321,549,161122
22.002,252316,550,161116
22.007,252289,550,161104
22.011,252279,545,161104
22.016,252255,542,161086
22.021,252235,544,161068
22.026,252218,543,161075
22.031,252208,542,161058
22.036,252198,541,161045
22.041,252160,543,161033
22.046,252154,543,161038
22.051,252158,544,161015
22.056,252144,550,160982
22.061,252098,541,160983
22.066,252082,542,160973
22.071,252051,543,160958
22.076,252019,540,160931
22.081,251995,541,160916
22.086,251964,542,160902
22.091,251981,541,160891
22.096,251970,541,160864
22.101,251922,542,160852
22.106,251927,546,160843
22.111,251928,546,160837
22.116,251899,544,160811
22.121,251872,546,160810
22.126,251847,544,160769
22.131,251840,545,160762
22.136,251792,540,160736
22.141,251804,542,160728
22.146,251799,542,160712
22.151,251782,542,160707
22.156,251777,545,160726
22.161,251764,548,160705
22.165,251777,548,160695
22.170,251763,548,160684
22.175,251741,546,160690
22.180,251759,548,160686
22.185,251736,548,160686
22.190,251734,548,160684
22.195,251720,546,160690
22.200,251709,547,160673
22.205,251720,545,160670
22.210,251702,547,160662
22.215,251706,546,160657
22.220,251699,547,160638
22.225,251681,547,160638
22.230,251660,547,160630
22.235,251670,545,160630
22.240,251666,547,160613
22.245,251628,546,160604
22.250,251635,549,160670
22.255,251648,540,160612
22.260,251617,542,160620
22.265,251616,542,160614
22.270,251614,544,160615
22.275,251626,542,160619
22.280,251623,544,160592
22.285,251640,545,160610
22.290,251659,547,160608
22.295,251653,543,160596
22.300,251591,548,160611
22.305,251644,538,160609
22.310,251661,541,160626
22.315,251670,536,160617
22.319,251654,539,160653
22.324,251671,538,160660
22.329,251710,539,160667
22.334,251709,536,160688
22.339,251757,538,160726
22.344,251777,539,160739
22.349,251787,542,160757
22.354,251834,540,160817
22.359,251853,542,160842
22.364,251886,542,160858
22.369,251920,542,160884
22.374,251927,539,160889
22.379,251933,541,160901
22.384,251950,541,160901
22.389,251970,541,160930
22.394,251993,539,160938
22.399,252020,541,160956
22.404,252030,541,160974
22.409,252045,541,160986
22.414,252099,536,161046
22.419,252126,537,161077
22.424,252183,538,161137
22.429,252238,539,161167
22.434,252266,536,161196
22.439,252301,537,161226
22.444,252302,538,161257
22.449,252348,537,161255
22.454,252349,535,161250
22.459,252335,535,161265
22.464,252316,536,161247
22.468,252319,537,161250
22.473,252313,534,161232
22.478,252296,544,161224
22.483,252278,545,161205
22.488,252295,545,161194
22.493,252254,544,161168
22.498,252237,538,161162
22.503,252231,539,161126
22.508,252188,538,161126
22.513,252190,537,161091
22.518,252161,537,161073
22.523,252130,538,161038
22.528,252119,536,161013
22.533,252076,536,160968
22.538,252068,537,160950
22.543,252021,533,160934
22.548,252010,542,160906
22.553,251984,541,160883
22.558,251951,542,160841
22.563,251929,543,160804
22.568,251922,544,160754
22.573,251904,544,160754
22.578,251878,544,160713
22.583,251852,545,160685
22.588,251831,545,160641
22.593,251797,539,160611
22.598,251793,539,160592
22.603,251778,540,160563
22.608,251757,544,160554
22.613,251774,541,160532
22.618,251751,541,160518
22.622,251964,306,160508
22.627,251756,387,160510
22.632,251719,405,160499
22.637,251750,418,160479
22.642,251761,429,160463
22.647,251753,432,160489
22.652,251749,435,160485
22.657,251746,438,160482
22.662,251758,443,160475
22.667,251773,444,160484
22.672,251739,446,160444
22.677,251742,446,160466
22.682,251749,449,160450
22.687,251746,463,160439
22.692,251716,460,160433
22.697,251738,459,160414
22.702,251727,462,160414
22.707,251740,464,160414
22.712,251718,464,160414
22.717,251716,464,160387
22.722,251698,465,160387
22.727,251717,467,160398
22.732,251728,641,160372
22.737,251735,613,160404
22.742,251750,595,160392
22.747,251749,588,160379
22.752,251748,581,160391
22.757,251740,576,160377
22.762,251749,574,160384
22.767,251760,572,160375
22.771,251725,568,160360
22.776,251705,567,160356
22.781,251685,564,160347
22.786,251700,560,160337
22.791,251666,565,160328
22.796,251660,562,160317
22.801,251651,560,160316
22.806,251621,558,160293
22.811,251599,560,160289
22.816,251594,557,160276
22.821,251588,558,160266
22.826,251562,559,160243
22.831,251537,557,160233
22.836,251520,557,160237
22.841,251484,554,160209
22.846,251462,556,160198
22.851,251445,556,160183
22.856,251453,553,160173
22.861,251399,554,160174
22.866,251412,553,160167
22.871,251381,553,160143
22.876,251342,551,160140
22.881,251324,550,160138
22.886,251296,556,160125
22.891,251294,554,160112
22.896,251288,545,160096
22.901,251262,546,160098
22.906,251220,547,160092
22.911,251209,547,160070
22.916,251195,545,160058
22.921,251184,547,160042
22.925,251161,547,160039
22.930,251133,549,160004
22.935,251117,551,160006
22.940,251078,550,159999
22.945,251085,550,159997
22.950,251069,552,159974
22.955,251032,549,159957
22.960,251022,549,159941
22.965,251022,550,159930
22.970,251015,551,159931
22.975,251002,549,159922
22.980,250990,550,159924
22.985,250965,545,159928
22.990,250966,546,159916
22.995,250955,545,159918
23.000,250965,545,159927
23.005,250960,545,159932
23.010,250979,547,159931
23.015,250964,546,159912
23.020,250947,546,159915
23.025,250937,546,159895
23.030,250919,549,159850
23.035,250909,538,159881
23.040,250902,541,159874
23.045,250899,540,159853
23.050,250861,541,159861
23.055,250869,539,159862
23.060,250889,541,159843
23.065,250861,542,159850
23.070,250870,542,159859
23.075,250865,539,159857
23.079,250883,543,159856
23.084,250891,543,159871
23.089,250884,546,159863
23.094,250875,541,159871
23.099,250863,544,159870
23.104,250871,545,159877
23.109,250886,545,159872
23.114,250882,542,159863
23.119,250869,544,159863
23.124,250886,544,159856
23.129,250871,550,159847
23.134,250877,539,159834
23.139,250885,539,159834
23.144,250847,539,159829
23.149,250856,541,159817
23.154,250825,539,159808
23.159,250841,540,159795
23.164,250809,540,159773
23.169,250826,541,159768
23.174,250798,538,159779
23.179,250789,543,159758
23.184,250786,546,159746
23.189,250768,547,159742
23.194,250797,544,159727
23.199,250781,545,159734
23.204,250780,546,159719
23.209,250777,547,159696
23.214,250756,543,159687
23.219,250754,545,159678
23.224,250759,545,159661
23.228,250726,541,159648
23.233,250731,538,159626
23.238,250727,539,159627
23.243,250710,539,159622
23.248,250734,540,159617
23.253,250732,538,159607
23.258,250727,540,159620
23.263,250724,539,159615
23.268,250744,542,159608
23.273,250751,540,159625
23.278,250747,540,159617
23.283,250726,542,159623
23.288,250740,542,159615
23.293,250740,542,159606
23.298,250754,544,159599
23.303,250739,544,159593
23.308,250742,545,159595
23.313,250736,544,159593
23.318,250726,544,159583
23.323,250742,546,159576
23.328,250739,545,159561
23.333,250747,544,159554
23.338,250727,545,159552
23.343,250724,546,159535
23.348,250716,539,159548
23.353,250731,538,159545
23.358,250749,539,159555
23.363,250762,540,159562
23.368,250752,542,159543
23.373,250756,545,159565
23.378,250775,544,159573
23.382,250786,547,159573
23.387,250793,548,159569
23.392,250812,538,159603
23.397,250824,540,159591
23.402,250856,540,159609
23.407,250843,542,159608
23.412,250847,543,159617
23.417,250881,543,159627
23.422,250870,538,159630
23.427,250900,540,159635
23.432,250906,540,159648
23.437,250926,540,159657
23.442,250920,542,159666
23.447,250947,545,159676
23.452,250943,546,159681
23.457,250962,538,159686
23.462,250985,539,159699
23.467,251008,540,159701
23.472,251013,544,159725
23.477,251039,546,159714
23.482,251042,539,159745
23.487,251069,541,159752
23.492,251112,540,159772
23.497,251096,541,159789
23.502,251155,543,159809
23.507,251173,545,159830
23.512,251194,545,159853
23.517,251223,535,159869
23.522,251235,540,159886
23.527,251243,540,159900
23.531,251272,539,159921
23.536,251301,539,159929
23.541,251304,541,159955
23.546,251322,541,159954
23.551,251302,541,159970
23.556,251320,540,159961
23.561,251325,542,159951
23.566,251322,542,159941
23.571,251354,535,159974
23.576,251345,536,159972
23.581,251381,538,159983
23.586,251369,539,159977
23.591,251387,540,159985
23.596,251388,539,159984
23.601,251406,541,160001
23.606,251417,542,160017
23.611,251423,541,160028
23.616,251470,535,160020
23.621,251471,536,160030
23.626,251459,374,160054
23.631,251495,396,160045
23.636,251490,407,160037
23.641,251501,417,160053
23.646,251497,426,160035
23.651,251520,431,160049
23.656,251538,437,160052
23.661,251556,441,160053
23.666,251546,439,160070
23.671,251560,442,160067
23.676,251572,444,160067
23.681,251608,449,160075
23.685,251599,454,160063
23.690,251633,457,160068
23.695,251614,448,160080
23.700,251634,451,160084
23.705,251625,454,160067
23.710,251647,463,160071
23.715,251653,452,160083
23.720,251667,456,160093
23.725,251668,459,160092
23.730,251672,641,160085
23.735,251706,610,160103
23.740,251712,598,160082
23.745,251704,582,160078
23.750,251694,576,160074
23.755,251697,570,160062
23.760,251680,568,160062
23.765,251669,570,160049
23.770,251674,570,160032
23.775,251654,564,160047
23.780,251655,563,160033
23.785,251651,564,160004
23.790,251641,555,160009
23.795,251626,551,160031
23.800,251650,553,160029
23.805,251618,554,160045
23.810,251614,564,160079
23.815,251599,555,160032
23.820,251594,548,160037
23.825,251580,549,160009
23.830,251557,549,160006
23.834,251531,548,160014
23.839,251526,549,159995
23.844,251519,551,159993
23.849,251490,551,159975
23.854,251468,550,159970
23.859,251464,546,159970
23.864,251448,547,159953
23.869,251442,547,159959
23.874,251430,547,159964
23.879,251433,550,159949
23.884,251449,551,159973
23.889,251406,543,159973
23.894,251435,540,159963
23.899,251398,542,159976
23.904,251408,544,159967
23.909,251414,546,159964
23.914,251399,543,159969
23.919,251399,544,159977
23.924,251364,545,159970
23.929,251345,546,159960
23.934,251347,544,159957
23.939,251324,547,159967
23.944,251324,547,159951
23.949,251329,549,159966
23.954,251335,537,159974
23.959,251352,546,159960
23.964,251317,537,159958
23.969,251299,538,159962
23.974,251295,535,159948
23.979,251284,537,159944
23.984,251278,538,159938
23.988,251266,538,159932
23.993,251254,536,159928
23.998,251255,538,159939
24.003,251256,538,159931
24.008,251271,542,159944
24.013,251268,540,159940
24.018,251276,542,159955
24.023,251272,542,159950
24.028,251289,544,159942
24.033,251304,542,159957
24.038,251279,543,159962
24.043,251286,535,159953
24.048,251289,537,159955
24.053,251308,530,159949
24.058,251318,539,159984
24.063,251310,541,159951
24.068,251314,541,159969
24.073,251297,540,159975
24.078,251301,542,159966
24.083,251306,533,159971
24.088,251284,535,159971
24.093,251299,534,159952
24.098,251286,536,159974
24.103,251326,545,159976
24.108,251296,536,159967
24.113,251303,534,159955
24.118,251279,535,159961
24.123,251275,537,159955
24.128,251271,538,159952
24.133,251275,536,159950
24.138,251257,537,159935
24.142,251253,539,159944
24.147,251246,541,159915
24.152,251254,533,159920
24.157,251241,534,159915
24.162,251258,534,159931
24.167,251241,535,159918
24.172,251228,533,159906
24.177,251220,534,159915
24.182,251230,535,159903
24.187,251242,535,159922
24.192,251244,534,159921
24.197,251239,531,159915
24.202,251257,537,159921
24.207,251242,538,159892
24.212,251227,537,159912
24.217,251241,537,159913
24.222,251235,538,159910
24.227,251241,540,159897
24.232,251247,540,159912
24.237,251255,531,159920
24.242,251265,532,159912
24.247,251267,534,159902
24.252,251271,529,159912
24.257,251288,530,159919
24.262,251290,532,159921
24.267,251290,533,159915
24.272,251330,531,159914
24.277,251306,530,159923
24.282,251319,531,159936
24.287,251344,533,159951
24.291,251346,531,159947
24.296,251337,533,159910
24.301,251352,537,159953
24.306,251357,539,159951
24.311,251342,538,159947
24.316,251362,539,159925
24.321,251342,530,159936
24.326,251335,533,159938
24.331,251350,532,159955
24.336,251357,532,159934
24.341,251356,533,159956
24.346,251371,537,159936
24.351,251375,537,159930
24.356,251345,537,159937
24.361,251330,539,159930
24.366,251348,538,159910
24.371,251348,537,159904
24.376,251320,527,159893
24.381,251327,530,159885
24.386,251318,531,159881
24.391,251333,529,159883
24.396,251332,534,159847
24.401,251296,535,159845
24.406,251291,536,159821
24.411,251288,535,159807
24.416,251259,536,159798
24.421,251243,537,159767
24.426,251244,539,159774
24.431,251257,529,159771
24.436,251263,529,159758
24.441,251261,529,159764
24.445,251244,533,159773
24.450,251247,533,159758
24.455,251260,533,159755
24.460,251251,535,159766
24.465,251234,538,159757
24.470,251232,536,159768
24.475,251252,526,159775
24.480,251261,529,159743
24.485,251248,530,159776
24.490,251262,531,159766
24.495,251272,533,159776
24.500,251270,535,159766
24.505,251282,536,159784
24.510,251306,537,159782
24.515,251307,536,159784
24.520,251314,538,159802
24.525,251323,529,159805
24.530,251359,528,159834
24.535,251375,526,159843
24.540,251399,529,159861
24.545,251428,532,159911
24.550,251442,533,159925
24.555,251453,532,159930
24.560,251473,535,159938
24.565,251483,534,159929
24.570,251484,536,159932
24.575,251477,534,159933
24.580,251487,535,159937
24.585,251491,527,159933
24.590,251561,531,159937
24.594,251512,531,159920
24.599,251522,533,159917
24.604,251506,535,159911
24.609,251511,536,159910
24.614,251527,533,159914
24.619,251528,536,159908
24.624,251521,372,159877
24.629,251507,387,159881
24.634,251508,398,159860
24.639,251512,417,159853
24.644,251474,425,159843
24.649,251489,419,159841
24.654,251490,423,159821
24.659,251503,429,159814
24.664,251474,433,159816
24.669,251482,436,159817
24.674,251501,438,159806
24.679,251504,443,159813
24.684,251502,445,159802
24.689,251512,441,159795
24.694,251507,443,159800
24.699,251509,444,159793
24.704,251537,446,159781
24.709,251553,448,159805
24.714,251534,448,159786
24.719,251537,450,159781
24.724,251564,454,159785
24.729,251540,641,159796
24.734,251557,605,159790
24.739,251582,588,159806
24.744,251584,579,159821
24.748,251596,574,159823
24.753,251597,564,159821
24.758,251619,562,159803
24.763,251614,561,159834
24.768,251655,560,159839
24.773,251644,556,159847
24.778,251681,556,159862
24.783,251692,555,159877
24.788,251705,549,159878
24.793,251710,545,159893
24.798,251736,545,159906
24.803,251743,546,159891
24.808,251748,546,159898
24.813,251770,544,159892
24.818,251771,545,159892
24.823,251755,545,159883
24.828,251768,546,159877
24.833,251749,531,159888
24.838,251746,540,159874
24.843,251777,539,159890
24.848,251775,540,159884
24.853,251777,539,159881
24.858,251796,539,159900
24.863,251798,540,159902
24.868,251827,541,159912
24.873,251809,540,159912
24.878,251828,541,159923
24.883,251859,537,159926
24.888,251866,537,159935
24.893,251862,534,159939
24.898,251886,535,159938
24.902,251886,538,159954
24.907,251883,539,159949
24.912,251925,538,159954
24.917,251926,539,159962
24.922,251947,541,159973
24.927,251955,542,159973
24.932,251962,535,159996
24.937,251972,536,159974
24.942,251973,537,159965
24.947,251966,538,159976
24.952,251972,537,159977
24.957,251979,539,159967
24.962,251972,540,159987
24.967,252010,533,159989
24.972,252025,534,159991
24.977,252037,541,160005
24.982,252054,538,160015
24.987,252067,538,160030
24.992,252094,539,160021
24.997,252087,538,160036
25.002,252116,539,160036
25.007,252121,540,160070
25.012,252126,539,160079
25.017,252128,538,160071
25.022,252144,539,160089
25.027,252148,539,160087
25.032,252127,537,160116
25.037,252152,535,160119
25.042,252136,537,160121
25.047,252123,539,160097
25.051,252143,529,160105
25.056,252109,529,160110
25.061,252120,530,160120
25.066,252118,531,160128
25.071,252119,530,160125
25.076,252115,565,160168
25.081,252111,532,160207
25.086,252151,535,160215
25.091,252161,536,160251
25.096,252186,527,160276
25.101,252189,529,160290
25.106,252176,530,160304
25.111,252201,531,160306
25.116,252199,531,160329
25.121,252200,533,160322
25.126,252193,529,160336
25.131,252200,529,160340
25.136,252192,529,160336
25.141,252184,531,160328
25.146,252185,533,160327
25.151,252174,533,160328
25.156,252183,533,160340
25.161,252160,526,160323
25.166,252174,528,160318
25.171,252143,527,160302
25.176,252137,532,160299
25.181,252103,534,160285
25.186,252112,528,160275
25.191,252102,527,160269
25.196,252092,528,160283
25.201,252085,530,160266
25.205,252079,531,160264
25.210,252085,533,160245
25.215,252087,532,160259
25.220,252062,525,160263
25.225,252052,529,160250
25.230,252045,531,160244
25.235,252038,530,160257
25.240,252030,532,160235
25.245,252043,533,160240
25.250,252039,526,160241
25.255,252028,525,160239
25.260,252011,529,160247
25.265,252002,529,160225
25.270,251986,531,160221
25.275,251953,525,160177
25.280,251930,527,160178
25.285,251910,527,160149
25.290,251883,530,160143
25.295,251898,529,160122
25.300,251872,532,160114
25.305,251857,533,160109
25.310,251868,525,160092
25.315,251854,526,160106
25.320,251852,524,160101
25.325,251830,527,160088
25.330,251818,529,160100
25.335,251851,530,160091
25.340,251839,532,160090
25.345,251838,525,160096
25.350,251828,525,160089
25.354,251822,527,160081
25.359,251826,529,160076
25.364,251825,530,160080
25.369,251798,530,160067
25.374,251791,530,160053
25.379,251773,532,160033
25.384,251761,534,160016
25.389,251736,526,160009
25.394,251725,524,159995
25.399,251717,527,159977
25.404,251702,530,159963
25.409,251695,531,159952
25.414,251688,529,159960
25.419,251695,526,159958
25.424,251707,527,159955
25.429,251681,528,159928
25.434,251684,527,159925
25.439,251689,530,159917
25.444,251690,530,159927
25.449,251665,531,159931
25.454,251658,530,159906
25.459,251642,533,159898
25.464,251655,525,159905
25.469,251653,529,159886
25.474,251645,527,159888
25.479,251632,530,159878
25.484,251619,529,159874
25.489,251658,531,159880
25.494,251637,528,159857
25.499,251627,530,159865
25.504,251625,530,159863
25.508,251622,531,159863
25.513,251628,529,159854
25.518,251624,525,159850
25.523,251624,525,159819
25.528,251602,527,159828
25.533,251605,526,159838
25.538,251584,526,159807
25.543,251614,527,159815
25.548,251590,529,159801
25.553,251594,527,159806
25.558,251606,530,159809
25.563,251591,541,159799
25.568,251616,526,159800
25.573,251613,523,159806
25.578,251613,526,159810
25.583,251640,526,159811
25.588,251638,526,159826
25.593,251627,524,159819
25.598,251631,526,159827
25.603,251648,527,159817
25.608,251656,528,159819
25.613,251652,534,159812
25.618,251645,525,159802
25.623,251645,358,159826
25.628,251654,386,159817
25.633,251680,397,159823
25.638,251644,408,159813
25.643,251664,415,159820
25.648,251673,423,159824
25.653,251688,424,159829
25.658,251681,430,159824
25.662,251679,427,159819
25.667,251681,432,159827
25.672,251692,432,159836
25.677,251715,437,159853
25.682,251733,439,159874
25.687,251749,444,159900
25.692,251773,445,159906
25.697,251768,449,159900
25.702,251784,441,159924
25.707,251774,443,159961
25.712,251801,447,159954
25.717,251786,451,159950
25.722,251814,453,159960
25.727,251821,650,159945
25.732,251816,596,159966
25.737,251803,582,159945
25.742,251786,574,159923
25.747,251787,567,159909
25.752,251763,561,159893
25.757,251738,557,159872
25.762,251748,549,159849
25.767,251715,556,159835
25.772,251707,552,159820
25.777,251712,553,159800
25.782,251688,545,159784
25.787,251676,544,159764
25.792,251655,543,159751
25.797,251643,543,159740
25.802,251630,543,159724
25.807,251635,552,159787
25.811,251628,541,159742
25.816,251681,542,159780
25.821,251710,542,159786
25.826,251694,545,159796
25.831,251730,535,159828
25.836,251758,537,159839
25.841,251786,537,159859
25.846,251786,538,159854
25.851,251803,538,159874
25.856,251806,533,159877
25.861,251794,534,159861
25.866,251789,533,159882
25.871,251782,535,159862
25.876,251798,536,159859
25.881,251805,536,159873
25.886,251826,539,159876
25.891,251796,538,159848
25.896,251806,539,159851
25.901,251795,530,159856
25.906,251778,535,159830
25.911,251784,538,159799
25.916,251754,537,159793
25.921,251763,538,159782
25.926,251758,530,159780
25.931,251749,530,159773
25.936,251752,530,159769
25.941,251761,531,159756
25.946,251765,533,159761
25.951,251788,531,159752
25.956,251761,534,159746
25.961,251772,534,159758
25.965,251781,536,159771
25.970,251785,536,159774
25.975,251805,536,159799
25.980,251855,538,159802
25.985,251853,529,159811
25.990,251879,528,159842
25.995,251906,527,159847
26.000,251897,528,159861
26.005,251927,535,159867
26.010,251955,530,159876
26.015,251954,528,159877
26.020,251946,531,159867
26.025,251950,530,159868
26.030,251964,531,159871
26.035,251974,531,159877
26.040,251975,533,159874
26.045,251995,536,159870
26.050,251989,527,159835
26.055,251999,530,159874
26.060,252019,532,159879
26.065,252004,534,159879
26.070,252001,535,159850
26.075,251993,526,159856
26.080,251998,526,159856
26.085,251984,529,159834
26.090,251993,529,159847
26.095,251995,530,159837
26.100,252070,535,159836
26.105,252017,527,159838
26.110,252013,529,159827
26.114,252015,528,159833
26.119,252009,530,159830
26.124,252031,530,159840
26.129,252042,531,159858
26.134,252060,531,159874
26.139,252110,533,159898
26.144,252138,531,159919
26.149,252135,527,159923
26.154,252133,526,159924
26.159,252152,527,159928
26.164,252159,528,159919
26.169,252168,530,159922
26.174,252144,528,159922
26.179,252147,531,159907
26.184,252148,532,159917
26.189,252166,532,159900
26.194,252147,530,159899
26.199,252166,533,159911
26.204,252156,531,159891
26.209,252150,531,159901
26.214,252111,530,159885
26.219,252089,531,159871
26.224,252097,532,159864
26.229,252065,533,159852
26.234,252046,531,159855
26.239,252029,533,159834
26.244,252005,533,159837
26.249,251994,528,159833
26.254,251981,526,159801
26.259,251953,527,159807
26.264,251926,526,159775
26.268,251897,528,159780
26.273,251881,526,159769
26.278,251900,527,159762
26.283,251870,527,159760
26.288,251840,529,159753
26.293,251837,530,159728
26.298,251807,525,159738
26.303,251822,525,159725
26.308,251823,527,159726
26.313,251786,525,159715
26.318,251802,527,159724
26.323,251799,527,159705
26.328,251766,531,159703
26.333,251745,527,159693
26.338,251729,530,159690
26.343,251728,518,159673
26.348,251732,525,159675
26.353,251690,525,159665
26.358,251688,527,159650
26.363,251662,527,159653
26.368,251662,529,159660
26.373,251639,528,159651
26.378,251650,531,159653
26.383,251643,531,159640
26.388,251634,533,159635
26.393,251624,524,159625
26.398,251617,525,159625
26.403,251610,528,159637
26.408,251584,529,159633
26.413,251601,527,159643
26.417,251603,529,159635
26.422,251610,528,159650
26.427,251602,531,159644
26.432,251596,522,159616
26.437,251565,522,159625
26.442,251609,521,159607
26.447,251543,532,159578
26.452,251524,530,159578
26.457,251504,532,159569
26.462,251513,523,159552
26.467,251495,524,159540
26.472,251489,523,159533
26.477,251475,523,159521
26.482,251472,524,159518
26.487,251459,524,159519
26.492,251489,525,159519
26.497,251464,524,159527
26.502,251472,526,159519
26.507,251484,525,159526
26.512,251490,523,159523
26.517,251494,522,159523
26.522,251471,531,159529
26.527,251484,530,159528
26.532,251465,526,159525
26.537,251479,526,159531
26.542,251455,530,159514
26.547,251444,528,159522
26.552,251439,527,159513
26.557,251431,526,159504
26.562,251417,524,159494
26.567,251373,524,159462
26.571,251385,522,159474
26.576,251355,520,159444
26.581,251374,531,159453
26.586,251363,523,159452
26.591,251379,523,159467
26.596,251390,530,159458
26.601,251378,529,159465
26.606,251389,527,159467
26.611,251407,525,159466
26.616,251386,524,159467
26.621,251376,347,159456
26.626,251370,379,159470
26.631,251372,393,159469
26.636,251363,404,159465
26.641,251371,411,159455
26.646,251385,413,159477
26.651,251395,428,159449
26.656,251381,430,159454
26.661,251384,433,159450
26.666,251410,434,159451
26.671,251383,435,159449
26.676,251396,436,159444
26.681,251395,438,159456
26.686,251393,442,159464
26.691,251393,441,159451
26.696,251390,440,159445
26.701,251383,439,159445
26.706,251419,441,159451
26.711,251418,451,159436
26.716,251387,449,159416
26.721,251393,449,159401
26.725,251386,663,159406
26.730,251388,603,159389
26.735,251357,587,159380
26.740,251372,577,159368
26.745,251360,569,159347
26.750,251357,561,159344
26.755,251344,555,159362
26.760,251358,552,159347
26.765,251364,557,159356
26.770,251361,552,159348
26.775,251357,549,159341
26.780,251361,546,159346
26.785,251366,549,159350
26.790,251377,545,159343
26.795,251389,543,159358
26.800,251403,541,159368
26.805,251405,541,159367
26.810,251390,538,159354
26.815,251407,536,159360
26.820,251404,536,159365
26.825,251433,535,159370
26.830,251398,535,159326
26.835,251423,537,159372
26.840,251423,535,159383
26.845,251421,534,159371
26.850,251436,534,159380
26.855,251437,530,159372
26.860,251439,539,159371
26.865,251436,538,159368
26.870,251453,536,159392
26.874,251466,533,159409
26.879,251500,541,159409
26.884,251492,531,159432
26.889,251517,530,159435
26.894,251521,527,159448
26.899,251522,537,159451
26.904,251547,536,159466
26.909,251561,535,159465
26.914,251562,533,159475
26.919,251593,533,159491
26.924,251581,532,159494
26.929,251589,536,159506
26.934,251597,533,159499
26.939,251598,531,159493
26.944,251620,531,159500
26.949,251607,531,159503
26.954,251625,528,159505
26.959,251630,528,159508
26.964,251631,528,159511
26.969,251640,528,159495
26.974,251654,524,159505
26.979,251610,529,159505
26.984,251647,528,159493
26.989,251632,528,159480
26.994,251634,523,159478
26.999,251625,526,159486
27.004,251621,524,159473
27.009,251623,523,159470
27.014,251604,530,159456
27.019,251621,531,159453
27.024,251601,536,159445
27.028,251603,524,159442
27.033,251628,531,159435
27.038,251608,532,159420
27.043,251609,532,159429
27.048,251630,531,159431
27.053,251655,528,159430
27.058,251631,529,159437
27.063,251625,528,159435
27.068,251652,528,159452
27.073,251642,525,159434
27.078,251675,531,159451
27.083,251685,531,159446
27.088,251683,530,159447
27.093,251683,526,159449
27.098,251703,528,159461
27.103,251702,527,159471
27.108,251694,528,159465
27.113,251744,526,159458
27.118,251721,523,159487
27.123,251726,540,159479
27.128,251722,524,159492
27.133,251739,521,159483
27.138,251712,529,159481
27.143,251743,530,159471
27.148,251724,529,159479
27.153,251722,525,159459
27.158,251715,525,159451
27.163,251701,524,159439
27.168,251710,524,159434
27.173,251708,530,159418
27.177,251699,521,159410
27.182,251675,521,159409
27.187,251689,531,159405
27.192,251721,528,159413
27.197,251719,529,159405
27.202,251678,527,159391
27.207,251690,528,159385
27.212,251683,525,159389
27.217,251670,525,159377
27.222,251674,529,159389
27.227,251692,528,159380
27.232,251695,527,159383
27.237,251701,526,159396
27.242,251724,526,159410
27.247,251755,527,159419
27.252,251731,524,159421
27.257,251746,522,159420
27.262,251746,524,159407
27.267,251723,524,159408
27.272,251722,525,159413
27.277,251703,525,159397
27.282,251701,526,159391
27.287,251703,526,159374
27.292,251689,525,159379
27.297,251672,523,159372
27.302,251643,522,159370
27.307,251651,521,159359
27.312,251619,528,159360
27.317,251597,525,159337
27.322,251567,529,159327
27.327,251523,528,159315
27.331,251506,525,159294
27.336,251467,524,159278
27.341,251445,523,159252
27.346,251418,523,159232
27.351,251389,522,159238
27.356,251358,528,159202
27.361,251322,528,159186
27.366,251283,530,159183
27.371,251271,530,159164
27.376,251263,529,159145
27.381,251247,527,159142
27.386,251220,526,159128
27.391,251209,524,159130
27.396,251203,522,159115
27.401,251194,522,159100
27.406,251178,522,159079
27.411,251142,529,159079
27.416,251186,521,159054
27.421,251090,522,159054
27.426,251076,521,159026
27.431,251052,528,159032
27.436,251033,526,159016
27.441,251020,525,158999
27.446,251011,524,159000
27.451,251013,523,159001
27.456,251011,519,158994
27.461,251005,529,158997
27.466,250990,522,159004
27.471,250986,520,158986
27.476,250986,527,158998
27.481,250969,526,158997
27.485,250970,524,158983
27.490,250960,523,158991
27.495,250944,521,158985
27.500,250921,521,158975
27.505,250934,520,158983
27.510,250920,529,158988
27.515,250929,521,158974
27.520,250929,520,158988
27.525,250935,528,158978
27.530,250906,527,158965
27.535,250905,521,158965
27.540,250890,522,158959
27.545,250893,522,158956
27.550,250879,530,158944
27.555,250873,528,158942
27.560,250887,532,158950
27.565,250859,523,158937
27.570,250878,521,158958
27.575,250873,519,158942
27.580,250872,528,158942
27.585,250856,526,158959
27.590,250856,526,158942
27.595,250862,524,158957
27.600,250898,524,158950
27.605,250880,524,158952
27.610,250870,523,158949
27.615,250859,524,158944
27.620,250835,274,158935
27.625,250829,372,158937
27.630,250819,389,158926
27.634,250813,397,158918
27.639,250795,405,158892
27.644,250795,411,158886
27.649,250770,426,158896
27.654,250737,426,158866
27.659,250740,426,158857
27.664,250737,425,158863
27.669,250732,427,158860
27.674,250732,437,158863
27.679,250686,438,158842
27.684,250679,440,158834
27.689,250675,439,158828
27.694,250661,437,158811
27.699,250648,438,158800
27.704,250639,437,158806
27.709,250677,450,158807
27.714,250644,442,158798
27.719,250644,443,158781
27.724,250644,443,158805
27.729,250641,611,158796
27.734,250660,590,158789
27.739,250640,577,158799
27.744,250657,569,158800
27.749,250633,562,158786
27.754,250633,555,158777
27.759,250636,556,158788
27.764,250634,552,158770
27.769,250637,550,158774
27.774,250643,544,158766
27.779,250650,544,158778
27.784,250647,542,158775
27.788,250651,539,158765
27.793,250656,542,158769
27.798,250662,541,158772
27.803,250646,539,158783
27.808,250653,541,158768
27.813,250648,537,158767
27.818,250641,535,158769
27.823,250649,534,158747
27.828,250642,533,158745
27.833,250630,538,158740
27.838,250630,537,158740
27.843,250644,535,158723
27.848,250616,534,158732
27.853,250632,529,158723
27.858,250621,533,158729
27.863,250632,532,158733
27.868,250648,532,158743
27.873,250646,529,158738
27.878,250657,528,158733
27.883,250632,536,158734
27.888,250663,535,158742
27.893,250669,532,158742
27.898,250650,531,158739
27.903,250653,532,158696
27.908,250662,534,158723
27.913,250637,531,158721
27.918,250657,531,158719
27.923,250657,528,158702
27.928,250635,529,158715
27.933,250641,525,158716
27.937,250640,525,158722
27.942,250639,525,158703
27.947,250659,534,158686
27.952,250670,526,158693
27.957,250651,524,158687
27.962,250636,532,158681
27.967,250636,531,158668
27.972,250632,529,158675
27.977,250638,525,158671
27.982,250640,525,158658
27.987,250628,525,158659
27.992,250624,530,158652
27.997,250629,528,158654
28.002,250636,536,158651
28.007,250624,531,158648
28.012,250650,530,158649
28.017,250646,527,158649
28.022,250647,528,158646
28.027,250652,525,158641
28.032,250661,524,158664
28.037,250635,522,158639
28.042,250653,531,158647
28.047,250655,531,158634
28.052,250668,521,158640
28.057,250666,531,158643
28.062,250664,531,158622
28.067,250668,529,158621
28.072,250669,527,158610
28.077,250656,524,158617
28.082,250666,525,158624
28.087,250669,524,158616
28.091,250686,521,158647
28.096,250706,521,158626
28.101,250704,524,158643
28.106,250707,523,158636
28.111,250711,521,158637
28.116,250727,529,158635
28.121,250719,528,158636
28.126,250741,526,158634
28.131,250750,524,158632
28.136,250737,521,158636
28.141,250748,530,158643
28.146,250754,528,158639
28.151,250762,521,158643
28.156,250772,529,158669
28.161,250786,527,158666
28.166,250815,525,158666
28.171,250796,526,158675
28.176,250806,522,158670
28.181,250811,523,158682
28.186,250825,522,158687
28.191,250812,521,158687
28.196,250819,517,158677
28.201,250847,523,158688
28.206,250846,524,158696
28.211,250856,522,158690
28.216,250857,519,158682
28.221,250853,520,158679
28.226,250860,528,158679
28.231,250854,525,158689
28.236,250855,525,158665
28.241,250843,525,158672
28.245,250858,534,158672
28.250,250880,523,158666
28.255,250877,520,158668
28.260,250849,529,158657
28.265,250864,527,158662
28.270,250879,526,158664
28.275,250874,523,158675
28.280,250871,523,158636
28.285,250867,522,158637
28.290,250842,523,158626
28.295,250848,524,158627
28.300,250847,524,158618
28.305,250857,522,158627
28.310,250848,523,158628
28.315,250851,518,158633
28.320,250866,520,158632
28.325,250881,528,158624
28.330,250880,528,158627
28.335,250884,524,158639
28.340,250918,526,158630
28.345,250897,527,158628
28.350,250896,528,158646
28.355,250916,524,158624
28.360,250897,523,158627
28.365,250909,523,158631
28.370,250909,520,158648
28.375,250892,518,158634
28.380,250878,526,158626
28.385,250882,525,158626
28.390,250873,525,158619
28.394,250852,525,158617
28.399,250847,525,158617
28.404,250819,524,158614
28.409,250821,523,158603
28.414,250789,519,158595
28.419,250771,519,158590
28.424,250745,520,158562
28.429,250711,529,158550
28.434,250696,524,158549
28.439,250688,524,158528
28.444,250648,527,158533
28.449,250628,526,158513
28.454,250633,522,158505
28.459,250605,523,158507
28.464,250574,521,158489
28.469,250590,520,158493
28.474,250572,518,158495
28.479,250576,526,158489
28.484,250538,525,158497
28.489,250480,523,158476
28.494,250517,525,158478
28.499,250498,527,158494
28.504,250491,524,158465
28.509,250504,523,158480
28.514,250486,521,158465
28.519,250496,520,158483
28.524,250491,519,158487
28.529,250496,528,158493
28.534,250473,525,158488
28.539,250480,519,158500
28.544,250447,518,158499
28.548,250456,528,158480
28.553,250463,524,158489
28.558,250429,523,158480
28.563,250419,523,158483
28.568,250415,523,158471
28.573,250391,520,158453
28.578,250385,519,158461
28.583,250369,528,158438
28.588,250402,509,158453
28.593,250359,522,158457
28.598,250366,520,158463
28.603,250407,520,158481
28.608,250398,519,158473
28.613,250385,527,158475
28.618,250389,525,158464
28.623,250399,362,158476
28.628,250379,385,158479
28.633,250372,397,158482
28.638,250404,408,158469
28.643,250374,413,158464
28.648,250389,416,158478
28.653,250398,418,158480
28.658,250394,430,158474
28.663,250389,430,158483
28.668,250387,430,158467
28.673,250358,429,158474
28.678,250363,429,158463
28.683,250352,441,158455
28.688,250350,440,158448
28.693,250332,440,158437
28.697,250316,439,158442
28.702,250334,439,158423
28.707,250313,439,158425
28.712,250332,448,158431
28.717,250331,446,158430
28.722,250320,446,158436
28.727,250315,631,158425
28.732,250314,597,158455
28.737,250299,576,158410
28.742,250282,566,158420
28.747,250292,566,158415
28.752,250288,559,158401
28.757,250274,552,158391
28.762,250264,548,158374
28.767,250250,543,158384
28.772,250242,548,158367
28.777,250263,544,158375
28.782,250261,546,158384
28.787,250236,541,158375
28.792,250247,540,158367
28.797,250251,536,158366
28.802,250216,533,158356
28.807,250211,532,158343
28.812,250222,540,158347
28.817,250180,534,158336
28.822,250217,533,158342
28.827,250206,530,158317
28.832,250186,530,158326
28.837,250194,536,158319
28.842,250220,533,158329
28.847,250207,531,158329
28.851,250202,529,158334
28.856,250198,527,158333
28.861,250223,534,158324
28.866,250234,532,158320
28.871,250224,529,158332
28.876,250220,525,158327
28.881,250216,530,158317
28.886,250214,531,158305
28.891,250208,527,158297
28.896,250221,524,158289
28.901,250178,531,158283
28.906,250203,529,158287
28.911,250226,528,158282
28.916,250202,524,158277
28.921,250204,523,158268
28.926,250204,532,158272
28.931,250212,524,158277
28.936,250200,522,158260
28.941,250196,530,158239
28.946,250204,527,158246
28.951,250199,527,158252
28.956,250177,523,158245
28.961,250203,523,158234
28.966,250191,521,158238
28.971,250195,529,158232
28.976,250209,528,158221
28.981,250203,525,158215
28.986,250203,525,158230
28.991,250197,524,158219
28.996,250218,521,158205
29.001,250208,522,158214
29.005,250210,530,158226
29.010,250212,528,158213
29.015,250224,524,158220
29.020,250231,523,158219
29.025,250232,498,158229
29.030,250231,526,158226
29.035,250247,521,158234
29.040,250261,521,158244
29.045,250284,521,158255
29.050,250288,520,158256
29.055,250307,525,158272
29.060,250338,525,158273
29.065,250336,523,158277
29.070,250340,523,158286
29.075,250336,524,158290
29.080,250373,524,158309
29.085,250343,522,158289
29.090,250366,521,158293
29.095,250370,517,158305
29.100,250359,526,158310
29.105,250366,525,158310
29.110,250374,525,158301
29.115,250387,521,158301
29.120,250387,521,158308
29.125,250383,522,158290
29.130,250391,522,158295
29.135,250403,518,158282
29.140,250364,527,158279
29.145,250402,525,158274
29.150,250381,525,158276
29.154,250381,521,158259
29.159,250363,521,158260
29.164,250379,520,158269
29.169,250386,519,158246
29.174,250377,520,158235
29.179,250401,519,158255
29.184,250403,518,158244
29.189,250425,527,158242
29.194,250425,524,158253
29.199,250417,523,158255
29.204,250443,519,158268
29.209,250432,522,158236
29.214,250435,519,158258
29.219,250451,518,158256
29.224,250457,520,158250
29.229,250447,520,158253
29.234,250470,517,158249
29.239,250454,525,158251
29.244,250480,524,158264
29.249,250485,523,158256
29.254,250486,520,158262
29.259,250508,519,158265
29.264,250528,518,158254
29.269,250509,524,158321
29.274,250501,518,158257
29.279,250486,518,158268
29.284,250491,517,158252
29.289,250492,528,158232
29.294,250515,524,158246
29.299,250512,521,158237
29.304,250505,521,158237
29.308,250498,520,158242
29.313,250513,517,158239
29.318,250518,518,158250
29.323,250529,518,158256
29.328,250522,517,158258
29.333,250553,524,158253
29.338,250574,521,158282
