df_hash,22ZHK4.S8EAUS
device,HZ2X61
project_hash,29R7
project_name,istanbul_aydin_university
person_hash,29R7.JA8X
person_label,V47(2)
date_time_start,2025-10-30_17-18-53.474000_+03
date_time_start_unix,1761830333.474
date_time_end,2025-10-30_17-27-40.229000_+03
length_difference_noticed,no

time,ppg_ir,ppg_ambient,ppg_red
5.622,122491,194,21096
5.627,122484,187,21096
5.632,122481,187,21097
5.636,122486,187,21100
5.641,122506,187,21102
5.646,122510,187,21107
5.651,122516,187,21106
5.656,122526,188,21101
5.661,122525,188,21106
5.666,122543,188,21106
5.671,122543,187,21109
5.676,122554,193,21102
5.681,122552,191,21101
5.686,122566,192,21101
5.691,122592,191,21110
5.696,122587,191,21104
5.701,122598,191,21109
5.706,122602,190,21114
5.711,122625,190,21108
5.716,122625,189,21106
5.721,122607,189,21113
5.726,122620,193,21111
5.731,122594,193,21106
5.736,122574,193,21097
5.741,122538,193,21095
5.746,122508,192,21095
5.751,122473,191,21081
5.756,122425,191,21084
5.761,122361,191,21083
5.766,122334,190,21078
5.771,122309,193,21045
5.776,122252,187,21069
5.781,122203,187,21066
5.786,122172,188,21065
5.791,122143,187,21066
5.796,122106,188,21056
5.800,122100,189,21061
5.805,122067,190,21057
5.810,122051,192,21054
5.815,122019,193,21053
5.820,121989,186,21050
5.825,121981,192,21050
5.830,121970,193,21050
5.835,121958,195,21040
5.840,121930,183,21048
5.845,121918,194,21038
5.850,121911,193,21042
5.855,121890,194,21039
5.860,121888,183,21042
5.865,121872,184,21044
5.870,121873,189,20998
5.875,121845,192,21036
5.880,121835,193,21034
5.885,121836,194,21034
5.890,121829,195,25051
5.895,121811,183,25047
5.900,121797,184,25047
5.905,121795,184,25048
5.910,121789,183,25049
5.915,121768,183,25053
5.920,121773,188,25042
5.925,121774,187,25045
5.930,121761,187,25044
5.935,121753,188,25046
5.940,121745,189,25040
5.945,121746,188,25041
5.950,121734,188,25045
5.955,121739,189,25046
5.960,121736,190,25043
5.964,121726,191,25043
5.969,121728,185,25046
5.974,121743,186,25044
5.979,121745,187,25050
5.984,121743,187,25050
5.989,121758,187,25055
5.994,121768,188,25050
5.999,121772,189,25054
6.004,121797,189,25058
6.009,121785,190,25057
6.014,121807,190,25016
6.019,121794,184,25055
6.024,121807,185,25061
6.029,121796,185,25053
6.034,121801,186,25064
6.039,121808,188,25063
6.044,121817,188,25057
6.049,121819,189,25061
6.054,121807,190,25057
6.059,121811,191,25057
6.064,121837,184,25043
6.069,121822,190,25062
6.074,121827,191,25060
6.079,121805,193,25056
6.084,121823,193,25057
6.089,121810,194,25065
6.094,121816,193,25059
6.099,121826,183,25061
6.104,121830,183,25068
6.109,121838,183,25064
6.114,121827,187,25062
6.119,121832,188,25063
6.124,121833,190,25059
6.128,121841,190,25059
6.133,121861,190,25064
6.138,121848,191,25065
6.143,121856,190,25063
6.148,121865,191,25064
6.153,121864,191,25067
6.158,121881,193,25061
6.163,121878,186,25068
6.168,121881,187,25053
6.173,121879,187,25069
6.178,121895,187,25066
6.183,121895,187,25069
6.188,121911,187,25069
6.193,121909,187,25067
6.198,121912,187,25072
6.203,121918,187,25074
6.208,121938,187,25070
6.213,121946,190,25074
6.218,121949,191,25070
6.223,121964,191,25080
6.228,121986,190,25086
6.233,121997,190,25080
6.238,121999,191,25082
6.243,122032,191,25094
6.248,122057,191,25097
6.253,122083,190,25104
6.258,122109,190,25107
6.263,122126,193,25110
6.268,122150,193,25115
6.273,122163,192,25122
6.278,122174,192,25128
6.283,122195,192,25134
6.288,122217,191,25138
6.292,122206,190,25140
6.297,122220,190,25137
6.302,122222,188,25143
6.307,122219,187,25139
6.312,122241,191,25137
6.317,122234,191,25132
6.322,122250,191,25141
6.327,122252,191,25139
6.332,122253,191,25143
6.337,122248,193,25140
6.342,122252,193,25139
6.347,122257,194,25141
6.352,122252,183,25142
6.357,122256,188,25138
6.362,122264,189,25140
6.367,122248,191,25145
6.372,122262,191,25137
6.377,122251,191,25138
6.382,122277,191,25138
6.387,122275,191,25133
6.392,122274,191,25134
6.397,122278,193,25136
6.402,122284,193,25132
6.407,122285,186,25141
6.412,122294,186,25137
6.417,122291,187,25138
6.422,122306,187,25138
6.427,122285,187,25140
6.432,122299,188,25134
6.437,122293,189,25133
6.442,122297,189,25131
6.447,122305,189,25124
6.452,122270,191,25127
6.456,122248,188,25120
6.461,122221,193,25112
6.466,122174,194,25109
6.471,122117,193,25105
6.476,122075,183,25092
6.481,122016,183,25088
6.486,121964,184,25077
6.491,121920,184,25070
6.496,121867,185,25068
6.501,121819,185,25059
6.506,121780,190,25050
6.511,121731,190,25048
6.516,121687,190,25042
6.521,121655,190,25039
6.526,121628,191,25036
6.531,121600,191,25035
6.536,121577,190,25025
6.541,121542,191,25022
6.546,121525,191,25022
6.551,121510,193,25021
6.556,121497,185,25023
6.561,121475,185,25017
6.566,121457,186,25008
6.571,121451,185,25010
6.576,121434,186,25005
6.581,121417,185,25006
6.586,121419,185,24995
6.591,121403,184,25007
6.596,121380,184,25000
6.601,121376,188,25010
6.606,121375,188,25003
6.611,121372,187,24996
6.616,121360,187,25003
6.620,121363,188,25000
6.625,121344,187,24999
6.630,121356,187,24996
6.635,121333,187,24994
6.640,121345,186,25001
6.645,121336,186,25000
6.650,121319,189,24999
6.655,121325,189,24996
6.660,121304,189,24996
6.665,121304,189,25000
6.670,121316,189,24999
6.675,121320,190,25000
6.680,121304,190,24995
6.685,121320,189,24996
6.690,121315,189,25003
6.695,121319,190,24986
6.700,121330,194,24993
6.705,121339,194,24998
6.710,121341,193,25002
6.715,121356,194,25004
6.720,121354,194,25000
6.725,121368,194,24999
6.730,121384,193,25001
6.735,121370,193,25000
6.740,121376,194,25003
6.745,121395,183,25007
6.750,121409,193,25011
6.755,121397,183,25012
6.760,121399,184,25009
6.765,121393,185,25014
6.770,121403,187,25013
6.775,121419,188,25010
6.780,121410,189,25013
6.784,121420,190,25014
6.789,121427,191,25013
6.794,121425,195,24952
6.799,121440,186,25011
6.804,121433,186,25018
6.809,121444,187,25024
6.814,121435,188,25017
6.819,121456,190,25022
6.824,121465,190,25017
6.829,121461,192,25016
6.834,121473,193,25014
6.839,121464,184,25020
6.844,121466,188,25018
6.849,121480,190,25021
6.854,121491,190,25021
6.859,121497,191,25016
6.864,121507,192,25014
6.869,121512,193,25023
6.874,121529,183,25028
6.879,121517,184,25027
6.884,121530,184,25030
6.889,121546,184,25034
6.894,121552,188,25030
6.899,121573,190,25032
6.904,121573,190,25030
6.909,121581,190,25032
6.914,121591,191,25033
6.919,121606,192,25034
6.924,121613,192,25034
6.929,121628,193,25035
6.934,121628,193,25036
6.939,121660,194,25039
6.944,121641,187,25039
6.948,121666,187,25041
6.953,121686,187,25046
6.958,121691,188,25044
6.963,121692,188,25047
6.968,121711,188,25047
6.973,121716,188,25046
6.978,121736,187,25050
6.983,121751,187,25051
6.988,121754,188,25048
6.993,121762,192,25051
6.998,121768,193,25054
7.003,121795,194,25055
7.008,121799,194,25060
7.013,121829,180,25063
7.018,121832,183,25065
7.023,121832,184,25066
7.028,121848,185,25062
7.033,121857,186,25061
7.038,121873,189,25026
7.043,121888,193,25068
7.048,121907,194,25070
7.053,121905,183,25069
7.058,121910,185,25075
7.063,121929,185,25069
7.068,121934,186,25079
7.073,121962,186,25071
7.078,121971,188,25070
7.083,121969,189,25075
7.088,121981,183,25079
7.093,121994,186,25080
7.098,122013,188,25082
7.103,122015,189,25086
7.108,122037,190,25085
7.112,122047,191,25089
7.117,122034,199,25085
7.122,122070,195,25087
7.127,122087,185,25087
7.132,122087,186,25085
7.137,122115,192,25094
7.142,122119,194,25087
7.147,122121,184,25093
7.152,122136,186,25098
7.157,122149,187,25101
7.162,122153,187,25098
7.167,122186,189,25102
7.172,122184,190,25106
7.177,122203,192,25107
7.182,122217,193,25110
7.187,122205,191,25103
7.192,122225,193,25105
7.197,122194,195,25100
7.202,122182,185,25095
7.207,122137,185,25095
7.212,122116,186,25089
7.217,122063,187,25080
7.222,122009,188,25073
7.227,121971,189,25069
7.232,121941,190,25069
7.237,121879,184,25064
7.242,121843,184,25056
7.247,121803,185,25054
7.252,121784,185,25050
7.257,121746,187,25049
7.262,121721,187,25049
7.267,121695,188,25038
7.272,121673,189,25039
7.276,121662,190,25037
7.281,121637,191,25060
7.286,121620,184,25035
7.291,121609,185,25037
7.296,121585,187,25033
7.301,121590,188,25036
7.306,121573,189,25032
7.311,121557,189,25038
7.316,121561,190,25037
7.321,121553,190,25034
7.326,121554,192,25036
7.331,121534,184,25032
7.336,121554,190,25031
7.341,121539,191,25037
7.346,121540,192,25035
7.351,121536,193,25029
7.356,121537,183,25037
7.361,121535,185,25038
7.366,121533,186,25039
7.371,121531,187,25039
7.376,121527,188,25040
7.381,121533,194,25038
7.386,121525,194,25043
7.391,121512,193,25041
7.396,121519,194,25041
7.401,121523,183,25044
7.406,121516,183,25044
7.411,121521,183,25040
7.416,121522,184,25047
7.421,121530,184,25036
7.426,121525,185,25045
7.431,121540,189,25045
7.436,121545,190,25052
7.440,121557,190,25052
7.445,121569,192,25057
7.450,121569,193,25060
7.455,121598,194,25066
7.460,121606,184,25061
7.465,121608,185,25060
7.470,121630,186,25065
7.475,121626,186,25064
7.480,121635,193,25063
7.485,121636,184,25067
7.490,121637,184,25069
7.495,121658,186,25062
7.500,121653,187,25068
7.505,121659,189,25069
7.510,121681,189,25069
7.515,121683,191,25073
7.520,121690,192,25068
7.525,121701,195,25078
7.530,121712,187,25081
7.535,121725,189,25077
7.540,121727,190,25079
7.545,121752,192,25083
7.550,121756,193,25077
7.555,121769,194,25085
7.560,121785,184,25064
7.565,121804,185,25085
7.570,121803,185,25092
7.575,121838,191,25095
7.580,121831,186,25099
7.585,121839,187,25103
7.590,121869,189,25106
7.595,121873,191,25104
7.600,121881,192,25112
7.604,121893,192,25113
7.609,121914,192,25113
7.614,121925,193,25118
7.619,121922,194,25115
7.624,121932,187,25119
7.629,121948,187,25115
7.634,121948,187,25123
7.639,121966,189,25124
7.644,121957,189,25132
7.649,121968,189,25128
7.654,121979,190,25128
7.659,121975,190,25127
7.664,121983,190,25130
7.669,122002,191,25134
7.674,122002,185,25131
7.679,121996,186,25132
7.684,122005,185,25135
7.689,122019,185,25133
7.694,122019,185,25135
7.699,122027,185,25120
7.704,122023,185,25137
7.709,122037,186,25135
7.714,122037,186,25135
7.719,122035,189,25137
7.724,122037,193,25134
7.729,122050,193,25138
7.734,122055,194,25133
7.739,122057,183,25138
7.744,122069,183,25138
7.749,122076,183,25137
7.754,122077,183,25135
7.759,122077,184,25139
7.764,122074,184,25135
7.768,122088,184,25139
7.773,122093,188,25139
7.778,122105,188,25137
7.783,122113,187,25139
7.788,122118,187,25142
7.793,122134,188,25142
7.798,122127,189,25144
7.803,122139,189,25140
7.808,122142,190,25138
7.813,122153,189,25144
7.818,122157,189,25137
7.823,122157,193,25141
7.828,122179,193,25148
7.833,122182,193,25145
7.838,122181,194,25141
7.843,122196,194,25144
7.848,122201,194,25145
7.853,122206,194,25158
7.858,122227,184,25152
7.863,122225,184,25151
7.868,122245,188,25150
7.873,122255,192,25152
7.878,122258,193,25154
7.883,122266,192,25154
7.888,122278,192,25155
7.893,122289,192,25157
7.898,122296,192,25160
7.903,122274,192,25150
7.908,122252,192,25151
7.913,122217,193,25150
7.918,122186,189,25137
7.923,122138,192,25132
7.928,122084,194,25135
7.932,122049,193,25125
7.937,122019,194,25124
7.942,121977,193,25118
7.947,121950,193,25120
7.952,121909,193,25111
7.957,121899,194,25113
7.962,121864,194,25088
7.967,121835,188,25105
7.972,121819,188,25102
7.977,121810,190,25104
7.982,121795,191,25107
7.987,121776,192,25104
7.992,121755,192,25103
7.997,121737,194,25099
8.002,121723,183,25101
8.007,121704,183,25096
8.012,121712,178,25101
8.017,121692,188,25098
8.022,121690,187,25098
8.027,121683,189,25098
8.032,121673,189,25099
8.037,121669,192,25097
8.042,121667,193,25095
8.047,121653,183,25102
8.052,121644,184,25094
8.057,121653,186,25094
8.062,121642,189,25020
8.067,121633,191,25092
8.072,121633,191,25092
8.077,121616,193,25099
8.082,121626,194,25095
8.087,121613,183,25096
8.092,121616,183,25094
8.096,121610,184,25089
8.101,121608,185,25092
8.106,121612,186,25090
8.111,121596,190,25093
8.116,121606,193,25072
8.121,121597,195,25085
8.126,121596,194,25090
8.131,121611,183,25091
8.136,121601,185,25091
8.141,121625,185,25096
8.146,121624,185,25093
8.151,121629,185,25100
8.156,121635,186,25097
8.161,121639,190,25096
8.166,121642,190,25098
8.171,121648,190,25100
8.176,121640,191,25096
8.181,121659,192,25097
8.186,121667,192,25097
8.191,121662,192,25101
8.196,121672,193,25097
8.201,121666,183,25098
8.206,121663,184,25091
8.211,121656,189,25102
8.216,121661,190,25098
8.221,121653,191,25101
8.226,121663,191,25101
8.231,121662,192,25102
8.236,121665,192,25096
8.241,121661,193,25101
8.246,121657,193,25100
8.251,121670,193,25096
8.256,121661,194,25108
8.260,121673,187,25113
8.265,121671,187,25102
8.270,121673,187,25098
8.275,121679,187,25098
8.280,121681,187,25104
8.285,121692,188,25103
8.290,121696,189,25106
8.295,121701,190,25100
8.300,121710,191,25107
8.305,121713,194,25082
8.310,121729,190,25106
8.315,121723,192,25110
8.320,121738,193,25111
8.325,121754,193,25108
8.330,121749,193,25113
8.335,121750,194,25116
8.340,121769,194,25114
8.345,121773,183,25118
8.350,121775,184,25114
8.355,121820,188,25115
8.360,121793,190,25112
8.365,121796,191,25120
8.370,121806,192,25114
8.375,121817,193,25122
8.380,121821,195,25120
8.385,121836,184,25122
8.390,121842,185,25126
8.395,121850,186,25131
8.400,121852,188,25115
8.405,121859,183,25129
8.410,121878,184,25127
8.415,121879,186,25125
8.420,121892,187,25134
8.425,121896,188,25129
8.429,121903,188,25130
8.434,121899,189,25126
8.439,121924,190,25128
8.444,121920,189,25129
8.449,121934,190,25133
8.454,121953,183,25134
8.459,121943,183,25136
8.464,121956,193,25137
8.469,121982,193,25129
8.474,121962,194,25137
8.479,121979,194,25138
8.484,121989,194,25138
8.489,121996,193,25141
8.494,122025,193,25139
8.499,122016,193,25138
8.504,122019,186,25142
8.509,122043,186,25143
8.514,122046,187,25140
8.519,122059,187,25137
8.524,122062,188,25147
8.529,122072,188,25145
8.534,122087,187,25151
8.539,122101,188,25125
8.544,122104,189,25147
8.549,122114,190,25144
8.554,122124,194,25154
8.559,122133,183,25151
8.564,122162,183,25156
8.569,122153,184,25151
8.574,122182,184,25154
8.579,122198,185,25158
8.584,122189,186,25159
8.589,122201,186,25164
8.593,122219,187,25165
8.598,122220,186,25157
8.603,122242,192,25159
8.608,122255,192,25159
8.613,122259,192,25171
8.618,122285,192,25168
8.623,122274,193,25166
8.628,122268,193,25167
8.633,122276,194,25161
8.638,122235,183,25167
8.643,122199,184,25161
8.648,122161,188,25157
8.653,122126,188,25149
8.658,122079,189,25155
8.663,122034,188,25143
8.668,122002,188,25138
8.673,121969,189,25147
8.678,121924,190,25143
8.683,121898,190,25131
8.688,121863,191,25124
8.693,121850,191,25130
8.698,121823,182,25131
8.703,121798,189,25124
8.708,121779,190,25122
8.713,121760,191,25122
8.718,121733,192,25119
8.723,121729,192,25111
8.728,121704,193,25124
8.733,121701,193,25114
8.738,121689,183,25108
8.743,121683,186,25113
8.748,121669,188,25118
8.753,121644,188,25110
8.757,121648,189,25109
8.762,121646,189,25112
8.767,121629,189,25107
8.772,121625,189,25105
8.777,121617,190,25107
8.782,121610,190,25110
8.787,121603,192,25106
8.792,121610,193,25103
8.797,121575,186,25100
8.802,121580,188,25101
8.807,121574,188,25099
8.812,121573,188,25104
8.817,121567,190,25096
8.822,121549,191,25099
8.827,121558,192,25103
8.832,121552,193,25102
8.837,121547,195,25101
8.842,121543,189,25102
8.847,121544,192,25100
8.852,121541,192,25102
8.857,121533,193,25100
8.862,121538,194,25099
8.867,121536,183,25103
8.872,121542,184,25103
8.877,121543,185,25103
8.882,121563,185,25108
8.887,121568,185,25107
8.892,121576,189,25109
8.897,121575,190,25106
8.902,121588,189,25106
8.907,121581,189,25112
8.912,121587,190,25112
8.917,121593,190,25104
8.921,121596,190,25111
8.926,121606,190,25109
8.931,121611,191,25098
8.936,121605,191,25102
8.941,121611,184,25109
8.946,121608,185,25108
8.951,121625,184,25116
8.956,121625,186,25117
8.961,121622,185,25108
8.966,121630,184,25106
8.971,121640,184,25110
8.976,121627,185,25108
8.981,121627,185,25104
8.986,121630,186,25106
8.991,121640,184,25113
8.996,121641,185,25112
9.001,121639,185,25109
9.006,121636,186,25107
9.011,121646,185,25136
9.016,121661,185,25109
9.021,121654,185,25108
9.026,121665,185,25115
9.031,121660,186,25114
9.036,121670,186,25109
9.041,121673,190,25110
9.046,121675,190,25113
9.051,121678,190,25116
9.056,121703,191,25112
9.061,121703,191,25117
9.066,121713,191,25115
9.071,121710,190,25121
9.076,121731,191,25121
9.081,121727,191,25119
9.085,121732,196,25076
9.090,121741,183,25130
9.095,121763,185,25123
9.100,121764,185,25125
9.105,121771,187,25127
9.110,121801,186,25125
9.115,121801,187,25127
9.120,121806,188,25130
9.125,121805,187,25129
9.130,121822,186,25126
9.135,121828,191,25127
9.140,121831,192,25135
9.145,121844,192,25132
9.150,121855,192,25130
9.155,121870,194,25133
9.160,121877,194,25133
9.165,121875,194,25137
9.170,121888,194,25135
9.175,121911,195,25132
9.180,121908,184,25141
9.185,121928,188,25141
9.190,121937,188,25142
9.195,121933,189,25137
9.200,121951,190,25144
9.205,121960,190,25142
9.210,121973,191,25146
9.215,121995,192,25141
9.220,121997,191,25147
9.225,122001,191,25148
9.230,122014,191,25148
9.235,122031,185,25150
9.240,122029,185,25146
9.245,122037,183,25155
9.249,122074,194,25153
9.254,122055,194,25156
9.259,122050,193,25156
9.264,122074,193,25153
9.269,122081,193,25157
9.274,122101,193,25155
9.279,122119,192,25160
9.284,122105,185,25160
9.289,122138,185,25163
9.294,122144,184,25163
9.299,122137,184,25161
9.304,122163,183,25159
9.309,122171,183,25161
9.314,122173,183,25168
9.319,122182,184,25165
9.324,122200,183,25174
9.329,122207,183,25134
9.334,122221,186,25171
9.339,122230,186,25168
9.344,122248,185,25171
9.349,122256,185,25174
9.354,122259,186,25177
9.359,122275,187,25176
9.364,122292,187,25180
9.369,122304,186,25188
9.374,122311,187,25187
9.379,122353,192,25184
9.384,122309,185,25188
9.389,122309,185,25178
9.394,122291,185,25174
9.399,122259,186,25161
9.404,122219,187,25165
9.409,122189,187,25158
9.413,122148,186,25155
9.418,122094,188,25150
9.423,122062,188,25146
9.428,122024,194,25143
9.433,121980,187,25132
9.438,121948,187,25128
9.443,121921,187,25126
9.448,121891,187,25124
9.453,121882,187,25124
9.458,121839,187,25118
9.463,121829,188,25117
9.468,121816,188,25116
9.473,121795,189,25115
9.478,121776,194,25109
9.483,121760,183,25113
9.488,121746,184,25114
9.493,121736,184,25115
9.498,121735,186,25109
9.503,121724,186,25106
9.508,121723,187,25111
9.513,121724,188,25107
9.518,121705,190,25108
9.523,121700,190,25099
9.528,121695,185,25105
9.533,121704,186,25101
9.538,121684,188,25102
9.543,121684,188,25102
9.548,121685,190,25106
9.553,121682,191,25106
9.558,121674,192,25101
9.563,121671,193,25104
9.568,121670,193,25103
9.573,121658,193,25094
9.577,121665,186,25101
9.582,121664,186,25102
9.587,121649,187,25105
9.592,121650,186,25101
9.597,121656,187,25105
9.602,121652,186,25098
9.607,121650,187,25108
9.612,121654,187,25097
9.617,121652,188,25109
9.622,121683,187,25103
9.627,121665,184,25107
9.632,121668,185,25112
9.637,121691,186,25110
9.642,121689,186,25110
9.647,121717,187,25120
9.652,121722,188,25099
9.657,121725,189,25108
9.662,121728,190,25114
9.667,121732,191,25115
9.672,121737,185,25112
9.677,121736,187,25114
9.682,121735,187,25115
9.687,121754,189,25116
9.692,121743,189,25117
9.697,121755,191,25111
9.702,121756,192,25114
9.707,121765,193,25118
9.712,121765,193,25117
9.717,121763,183,25118
9.722,121776,188,25124
9.727,121779,189,25119
9.732,121778,190,25124
9.737,121773,190,25121
9.741,121785,188,25122
9.746,121780,187,25115
9.751,121794,185,25131
9.756,121795,184,25129
9.761,121797,193,25119
9.766,121809,192,25125
9.771,121816,183,25130
9.776,121812,194,25126
9.781,121826,192,25129
9.786,121826,190,25141
9.791,121827,189,25130
9.796,121831,187,25126
9.801,121847,187,25130
9.806,121848,185,25135
9.811,121863,184,25127
9.816,121865,194,25129
9.821,121870,183,25133
9.826,121868,192,25135
9.831,121889,191,25138
9.836,121893,191,25134
9.841,121904,190,25138
9.846,121906,189,25140
9.851,121920,187,25144
9.856,121929,187,25139
9.861,121922,186,25139
9.866,121932,186,25143
9.871,121959,192,25141
9.876,121957,192,25145
9.881,121962,190,25143
9.886,121973,189,25147
9.891,121997,188,25147
9.896,121997,188,25151
9.901,122009,186,25149
9.905,122017,186,25151
9.910,122010,185,25149
9.915,122046,189,25153
9.920,122039,189,25157
9.925,122058,188,25164
9.930,122066,188,25154
9.935,122084,187,25156
9.940,122088,186,25157
9.945,122099,185,25161
9.950,122106,184,25165
9.955,122115,194,25171
9.960,122123,193,25164
9.965,122146,185,25165
9.970,122154,184,25172
9.975,122165,183,25172
9.980,122175,194,25168
9.985,122179,192,25172
9.990,122199,191,25175
9.995,122207,191,25175
10.000,122211,189,25176
10.005,122220,187,25182
10.010,122238,185,25186
10.015,122235,187,25189
10.020,122257,186,25183
10.025,122258,185,25178
10.030,122275,184,25190
10.035,122289,183,25184
10.040,122306,182,25190
10.045,122299,192,25187
10.050,122313,190,25188
10.055,122320,189,25188
10.060,122319,188,25192
10.065,122338,192,25189
10.069,122363,191,25196
10.074,122371,190,25190
10.079,122369,188,25200
10.084,122382,188,25200
10.089,122388,187,25195
10.094,122395,186,25201
10.099,122418,185,25201
10.104,122409,184,25197
10.109,122427,184,25168
10.114,122444,192,25195
10.119,122440,194,25200
10.124,122460,190,25210
10.129,122485,188,25204
10.134,122481,186,25204
10.139,122491,185,25214
10.144,122500,185,25207
10.149,122509,183,25218
10.154,122524,194,25219
10.159,122566,180,25209
10.164,122542,186,25216
10.169,122556,185,25218
10.174,122571,184,25218
10.179,122576,195,25221
10.184,122582,192,25221
10.189,122600,189,25223
10.194,122619,187,25230
10.199,122612,186,25229
10.204,122635,183,25236
10.209,122636,186,25224
10.214,122647,185,25234
10.219,122651,184,25236
10.224,122676,194,25231
10.229,122682,192,25234
10.233,122694,190,25240
10.238,122702,188,25236
10.243,122704,185,25241
10.248,122726,184,25236
10.253,122725,183,25244
10.258,122733,186,25241
10.263,122748,184,25250
10.268,122762,183,25248
10.273,122765,192,25249
10.278,122780,190,25248
10.283,122809,188,25249
10.288,122793,185,25251
10.293,122802,183,25254
10.298,122800,192,25253
10.303,122799,190,25243
10.308,122770,187,25232
10.313,122738,185,25236
10.318,122695,184,25224
10.323,122643,192,25228
10.328,122596,190,25217
10.333,122561,188,25210
10.338,122500,187,25202
10.343,122478,186,25206
10.348,122417,184,25182
10.353,122392,183,25196
10.358,122364,187,25189
10.363,122331,185,25185
10.368,122301,185,25185
10.373,122295,184,25182
10.378,122273,183,25178
10.383,122255,193,25181
10.388,122233,192,25175
10.393,122233,189,25183
10.397,122215,188,25176
10.402,122208,188,25174
10.407,122195,190,25175
10.412,122210,188,25173
10.417,122194,187,25172
10.422,122190,185,25174
10.427,122165,184,25175
10.432,122187,194,25177
10.437,122163,192,25171
10.442,122166,191,25171
10.447,122166,189,25168
10.452,122170,192,25170
10.457,122157,191,25164
10.462,122161,188,25174
10.467,122150,187,25171
10.472,122158,186,25170
10.477,122156,185,25171
10.482,122156,183,25176
10.487,122153,193,25174
10.492,122137,190,25174
10.497,122141,189,25175
10.502,122189,184,25172
10.507,122142,186,25169
10.512,122140,184,25169
10.517,122150,183,25168
10.522,122150,193,25172
10.527,122147,192,25170
10.532,122140,190,25166
10.537,122148,190,25164
10.542,122170,187,25168
10.547,122150,186,25169
10.552,122175,193,25175
10.557,122182,191,25170
10.561,122196,190,25175
10.566,122195,188,25175
10.571,122198,187,25176
10.576,122208,187,25174
10.581,122211,186,25174
10.586,122204,185,25172
10.591,122218,185,25176
10.596,122217,184,25176
10.601,122211,190,25176
10.606,122204,190,25171
10.611,122209,189,25179
10.616,122205,188,25176
10.621,122219,187,25181
10.626,122204,187,25171
10.631,122212,186,25173
10.636,122216,186,25174
10.641,122217,185,25171
10.646,122218,186,25140
10.651,122219,189,25171
10.656,122216,189,25173
10.661,122230,188,25173
10.666,122228,187,25176
10.671,122228,185,25171
10.676,122236,186,25178
10.681,122238,185,25176
10.686,122235,183,25176
10.691,122237,194,25177
10.696,122259,184,25180
10.701,122246,185,25181
10.706,122244,183,25178
10.711,122252,193,25177
10.716,122256,192,25180
10.721,122260,191,25177
10.725,122275,190,25177
10.730,122279,188,25175
10.735,122288,186,25177
10.740,122278,185,25178
10.745,122289,187,25179
10.750,122301,185,25178
10.755,122301,185,25184
10.760,122315,182,25195
10.765,122327,192,25179
10.770,122320,189,25181
10.775,122327,188,25184
10.780,122334,185,25184
10.785,122341,183,25183
10.790,122344,191,25181
10.795,122345,184,25185
10.800,122350,183,25184
10.805,122364,193,25187
10.810,122381,191,25189
10.815,122375,189,25193
10.820,122387,188,25188
10.825,122408,186,25192
10.830,122406,184,25196
10.835,122420,192,25196
10.840,122422,191,25192
10.845,122430,192,25194
10.850,122440,190,25197
10.855,122437,188,25201
10.860,122446,186,25200
10.865,122456,185,25194
10.870,122465,194,25197
10.875,122484,191,25205
10.880,122474,189,25198
10.885,122483,186,25203
10.889,122496,184,25211
10.894,122502,193,25207
10.899,122531,192,25204
10.904,122528,191,25213
10.909,122538,188,25211
10.914,122532,186,25218
10.919,122544,186,25214
10.924,122556,184,25215
10.929,122567,193,25214
10.934,122564,190,25213
10.939,122584,191,25219
10.944,122590,185,25215
10.949,122600,183,25223
10.954,122609,194,25221
10.959,122610,191,25218
10.964,122630,188,25228
10.969,122632,185,25224
10.974,122648,182,25225
10.979,122646,193,25225
10.984,122653,190,25226
10.989,122652,192,25230
10.994,122674,190,25230
10.999,122680,188,25226
11.004,122683,186,25229
11.009,122695,184,25227
11.014,122709,191,25236
11.019,122701,190,25234
11.024,122729,187,25234
11.029,122729,185,25236
11.034,122744,183,25234
11.039,122763,189,25187
11.044,122753,187,25235
11.049,122755,184,25243
11.053,122766,182,25244
11.058,122780,192,25242
11.063,122800,189,25248
11.068,122800,186,25242
11.073,122826,185,25249
11.078,122812,194,25241
11.083,122823,190,25242
11.088,122835,193,25248
11.093,122849,190,25255
11.098,122854,188,25255
11.103,122873,185,25259
11.108,122886,193,25253
11.113,122887,190,25257
11.118,122880,193,25256
11.123,122914,187,25269
11.128,122930,195,25271
11.133,122933,191,25267
11.138,122953,195,25273
11.143,122967,192,25275
11.148,122990,188,25272
11.153,122980,185,25274
11.158,123018,184,25283
11.163,123025,193,25282
11.168,123030,190,25281
11.173,123043,188,25289
11.178,123075,186,25298
11.183,123073,186,25311
11.188,123096,194,25284
11.193,123112,191,25299
11.198,123123,190,25299
11.203,123128,188,25299
11.208,123137,186,25296
11.213,123110,184,25300
11.217,123082,195,25293
11.222,123065,191,25284
11.227,123022,190,25278
11.232,122987,192,25276
11.237,122956,186,25271
11.242,122897,184,25266
11.247,122846,184,25262
11.252,122817,193,25256
11.257,122787,192,25249
11.262,122752,189,25246
11.267,122720,187,25244
11.272,122698,184,25253
11.277,122670,183,25242
11.282,122647,187,25241
11.287,122638,185,25237
11.292,122624,183,25238
11.297,122612,194,25237
11.302,122593,192,25243
11.307,122574,190,25238
11.312,122557,188,25237
11.317,122567,186,25240
11.322,122539,185,25225
11.327,122542,184,25237
11.332,122535,187,25234
11.337,122532,185,25234
11.342,122526,183,25230
11.347,122509,193,25228
11.352,122519,190,25231
11.357,122508,189,25234
11.362,122510,187,25230
11.367,122498,185,25233
11.372,122506,183,25232
11.377,122493,193,25240
11.381,122480,184,25225
11.386,122494,193,25228
11.391,122488,191,25230
11.396,122488,188,25227
11.401,122476,186,25228
11.406,122473,184,25235
11.411,122469,194,25229
11.416,122470,192,25224
11.421,122452,190,25225
11.426,122450,188,25227
11.431,122460,191,25227
11.436,122452,192,25222
11.441,122449,192,25227
11.446,122451,193,25224
11.451,122454,192,25224
11.456,122468,193,25237
11.461,122472,193,25228
11.466,122468,193,25232
11.471,122485,192,25229
11.476,122481,195,25127
11.481,122482,185,25230
11.486,122478,185,25227
11.491,122491,184,25227
11.496,122481,184,25231
11.501,122489,183,25229
11.506,122488,194,25230
11.511,122484,194,25225
11.516,122481,193,25223
11.521,122473,193,25224
11.526,122507,184,25229
11.531,122469,184,25226
11.536,122488,194,25229
11.541,122478,193,25223
11.545,122478,192,25224
11.550,122482,191,25223
11.555,122495,191,25229
11.560,122496,191,25226
11.565,122486,190,25226
11.570,122490,190,25224
11.575,122493,183,25221
11.580,122495,184,25224
11.585,122504,184,25226
11.590,122497,184,25224
11.595,122519,184,25229
11.600,122533,184,25236
11.605,122540,183,25226
11.610,122544,183,25234
11.615,122568,194,25235
11.620,122574,192,25233
11.625,122576,189,25238
11.630,122598,190,25243
11.635,122617,190,25251
11.640,122626,191,25246
11.645,122643,191,25250
11.650,122674,190,25252
11.655,122691,190,25261
11.660,122708,190,25262
11.665,122744,189,25277
11.670,122768,189,25273
11.675,122783,183,25284
11.680,122811,183,25285
11.685,122834,194,25291
11.690,122865,194,25292
11.695,122887,183,25306
11.700,122915,184,25309
11.705,122920,195,25306
11.709,122950,194,25318
11.714,122978,194,25317
11.719,122992,184,25326
11.724,123025,187,25334
11.729,123061,188,25343
11.734,123081,189,25342
11.739,123121,189,25366
11.744,123156,190,25366
11.749,123197,189,25372
11.754,123227,188,25387
11.759,123262,189,25393
11.764,123286,189,25400
11.769,123323,183,25404
11.774,123359,194,25412
11.779,123377,194,25422
11.784,123422,194,25429
11.789,123443,195,25435
11.794,123485,195,25443
11.799,123498,195,25447
11.804,123529,195,25454
11.809,123553,194,25465
11.814,123568,194,25475
11.819,123601,189,25474
11.824,123622,193,25485
11.829,123633,194,25487
11.834,123658,193,25498
11.839,123683,192,25500
11.844,123712,192,25511
11.849,123731,193,25513
11.854,123758,194,25521
11.859,123766,183,25527
11.864,123787,184,25535
11.869,123819,189,25545
11.873,123827,189,25553
11.878,123856,190,25556
11.883,123877,190,25570
11.888,123903,191,25564
11.893,123920,190,25580
11.898,123936,191,25583
11.903,123963,191,25595
11.908,123987,192,25594
11.913,123996,190,25607
11.918,124022,189,25612
11.923,124061,189,25615
11.928,124065,189,25622
11.933,124096,189,25631
11.938,124100,191,25637
11.943,124115,190,25638
11.948,124126,191,25647
11.953,124150,191,25649
11.958,124173,192,25660
11.963,124199,192,25656
11.968,124201,186,25658
11.973,124234,186,25672
11.978,124243,187,25673
11.983,124266,188,25682
11.988,124260,189,25689
11.993,124282,189,25690
11.998,124295,190,25697
12.003,124320,190,25701
12.008,124320,191,25710
12.013,124354,193,25710
12.018,124357,185,25719
12.023,124380,184,25726
12.028,124389,185,25734
12.033,124410,185,25741
12.037,124429,185,25749
12.042,124465,186,25753
12.047,124497,187,25766
12.052,124531,187,25768
12.057,124544,189,25773
12.062,124566,193,25781
12.067,124585,194,25793
12.072,124602,195,25798
12.077,124622,184,25805
12.082,124650,184,25814
12.087,124666,186,25817
12.092,124692,185,25828
12.097,124720,186,25833
12.102,124719,186,25842
12.107,124745,187,25853
12.112,124759,191,25856
12.117,124795,193,25867
12.122,124820,194,25870
12.127,124840,196,25882
12.132,124871,185,25887
12.137,124887,186,25896
12.142,124901,186,25904
12.147,124918,186,25912
12.152,124943,185,25927
12.157,124954,187,25932
12.162,124951,192,25926
12.167,124950,193,25932
12.172,124934,192,25928
12.177,124921,192,25930
12.182,124903,192,25928
12.187,124843,192,25931
12.192,124815,192,25929
12.197,124797,193,25932
12.201,124761,193,25929
12.206,124720,193,25940
12.211,124705,186,25940
12.216,124671,187,25938
12.221,124645,187,25940
12.226,124617,188,25951
12.231,124610,187,25951
12.236,124593,187,25953
12.241,124582,187,25962
12.246,124578,188,25961
12.251,124563,187,25975
12.256,124562,190,25982
12.261,124563,191,25979
12.266,124545,190,25984
12.271,124551,188,25994
12.276,124562,187,26002
12.281,124549,186,26004
12.286,124564,186,26013
12.291,124577,185,26028
12.296,124557,186,26027
12.301,124572,184,26028
12.306,124560,189,26027
12.311,124575,194,26034
12.316,124584,194,26037
12.321,124583,194,26043
12.326,124591,194,26051
12.331,124593,193,26052
12.336,124594,193,26055
12.341,124600,193,26065
12.346,124608,193,26072
12.351,124621,193,26073
12.356,124618,186,26079
12.361,124620,185,26081
12.365,124642,185,26091
12.370,124648,184,26094
12.375,124645,195,26098
12.380,124652,195,26107
12.385,124667,194,26106
12.390,124670,194,26111
12.395,124668,194,26114
12.400,124667,195,26129
12.405,124681,191,26125
12.410,124701,191,26132
12.415,124708,192,26141
12.420,124717,191,26141
12.425,124736,190,26147
12.430,124775,189,26166
12.435,124791,190,26147
12.440,124808,190,26167
12.445,124817,190,26176
12.450,124822,189,26180
12.455,124842,188,26187
12.460,124865,188,26189
12.465,124874,188,26195
12.470,124891,187,26201
12.475,124905,186,26204
12.480,124901,186,26205
12.485,124916,186,26207
12.490,124927,186,26216
12.495,124937,186,26214
12.500,124948,188,26253
12.505,124946,192,26223
12.510,124954,193,26226
12.515,124959,194,26231
12.520,124971,184,26234
12.525,124975,185,26234
12.529,124982,186,26237
12.534,124988,186,26244
12.539,124991,188,26237
12.544,124982,187,26243
12.549,124951,192,26244
12.554,125001,193,26243
12.559,124985,192,26245
12.564,125008,192,26247
12.569,125009,191,26244
12.574,125000,190,26248
12.579,124998,191,26248
12.584,125014,190,26245
12.589,125008,189,26249
12.594,125005,188,26251
12.599,125013,194,26251
12.604,125015,192,26256
12.609,125024,192,26255
12.614,125032,191,26261
12.619,125031,191,26263
12.624,125045,190,26262
12.629,125051,189,26261
12.634,125061,187,26264
12.639,125052,187,26270
12.644,125071,186,26274
12.649,125056,190,26274
12.654,125065,188,26278
12.659,125061,188,26270
12.664,125079,187,26278
12.669,125086,186,26281
12.674,125097,185,26277
12.679,125101,185,26277
12.684,125107,184,26280
12.689,125099,183,26278
12.693,125106,192,26286
12.698,125104,187,26283
12.703,125104,185,26283
12.708,125123,185,26292
12.713,125127,195,26295
12.718,125133,194,26288
12.723,125137,192,26293
12.728,125141,193,26287
12.733,125149,192,26285
12.738,125150,193,26292
12.743,125158,193,26303
12.748,125163,190,26298
12.753,125176,189,26299
12.758,125176,190,26300
12.763,125181,188,26303
12.768,125190,188,26304
12.773,125201,187,26307
12.778,125205,187,26301
12.783,125209,187,26308
12.788,125210,187,26310
12.793,125220,187,26310
12.798,125222,192,26309
12.803,125240,190,26310
12.808,125231,191,26314
12.813,125254,191,26319
12.818,125249,190,26314
12.823,125258,191,26313
12.828,125258,191,26312
12.833,125256,190,26318
12.838,125268,191,26318
12.843,125266,195,26311
12.848,125265,195,26319
12.853,125287,195,26324
12.857,125279,184,26320
12.862,125286,185,26320
12.867,125303,186,26317
12.872,125304,186,26318
12.877,125296,188,26320
12.882,125309,188,26326
12.887,125309,189,26324
12.892,125327,195,26318
12.897,125314,185,26321
12.902,125334,186,26323
12.907,125334,187,26321
12.912,125321,186,26322
12.917,125341,186,26323
12.922,125323,185,26325
12.927,125326,186,26324
12.932,125335,186,26326
12.937,125342,187,26321
12.942,125337,191,26328
12.947,125342,191,26330
12.952,125346,190,26323
12.957,125351,191,26329
12.962,125350,190,26331
12.967,125360,190,26330
12.972,125353,189,26332
12.977,125355,191,26330
12.982,125354,190,26331
12.987,125362,190,26334
12.992,125353,184,26337
12.997,125357,184,26329
13.002,125350,184,26328
13.007,125345,185,26332
13.012,125342,184,26333
13.017,125366,182,26333
13.021,125350,182,26327
13.026,125356,194,26333
13.031,125350,193,26334
13.036,125355,185,26333
13.041,125343,191,26333
13.046,125358,191,26328
13.051,125353,190,26332
13.056,125344,191,26331
13.061,125329,190,26327
13.066,125316,189,26323
13.071,125275,189,26315
13.076,125231,188,26308
13.081,125181,187,26303
13.086,125145,191,26298
13.091,125099,192,26295
13.096,125057,192,26290
13.101,125007,192,26286
13.106,124965,192,26283
13.111,124923,192,26280
13.116,124894,192,26271
13.121,124850,192,26265
13.126,124819,190,26268
13.131,124775,190,26247
13.136,124756,195,26259
13.141,124716,195,26246
13.146,124693,194,26250
13.151,124659,194,26253
13.156,124634,193,26245
13.161,124606,193,26248
13.166,124591,193,26236
13.171,124569,192,26236
13.176,124539,192,26235
13.181,124538,192,26241
13.185,124522,184,26234
13.190,124504,183,26227
13.195,124489,183,26229
13.200,124471,195,26231
13.205,124474,193,26224
13.210,124451,193,26229
13.215,124441,192,26229
13.220,124436,192,26224
13.225,124419,191,26224
13.230,124404,191,26220
13.235,124400,184,26223
13.240,124378,184,26220
13.245,124388,195,26221
13.250,124381,194,26219
13.255,124371,194,26220
13.260,124365,194,26215
13.265,124365,193,26220
13.270,124350,193,26217
13.275,124341,192,26217
13.280,124337,194,26163
13.285,124329,190,26214
13.290,124335,190,26211
13.295,124334,189,26209
13.300,124329,189,26215
13.305,124332,188,26214
13.310,124312,188,26206
13.315,124328,187,26214
13.320,124312,188,26209
13.325,124316,188,26214
13.330,124329,191,26209
13.335,124324,191,26209
13.340,124322,191,26209
13.345,124297,190,26206
13.349,124298,190,26205
13.354,124294,190,26209
13.359,124288,189,26209
13.364,124290,187,26213
13.369,124262,186,26210
13.374,124270,185,26205
13.379,124255,190,26200
13.384,124251,188,26204
13.389,124246,188,26205
13.394,124231,187,26200
13.399,124225,187,26199
13.404,124224,186,26204
13.409,124213,186,26205
13.414,124200,185,26202
13.419,124191,186,26198
13.424,124187,184,26201
13.429,124198,191,26190
13.434,124175,194,26194
13.439,124155,194,26192
13.444,124155,193,26189
13.449,124156,192,26194
13.454,124163,190,26201
13.459,124150,190,26197
13.464,124152,189,26195
13.469,124143,189,26193
13.474,124153,187,26202
13.479,124142,194,26192
13.484,124140,192,26198
13.489,124147,192,26200
13.494,124140,191,26188
13.499,124131,191,26194
13.504,124135,189,26196
13.509,124122,188,26193
13.513,124137,187,26194
13.518,124135,187,26195
13.523,124143,186,26200
13.528,124128,191,26196
13.533,124136,189,26192
13.538,124138,189,26193
13.543,124155,189,26188
13.548,124151,188,26198
13.553,124154,186,26197
13.558,124172,185,26198
13.563,124177,185,26201
13.568,124186,184,26200
13.573,124200,193,26205
13.578,124215,189,26208
13.583,124238,189,26214
13.588,124248,189,26223
13.593,124252,188,26231
13.598,124265,187,26230
13.603,124281,187,26237
13.608,124298,185,26236
13.613,124308,185,26244
13.618,124308,185,26248
13.623,124314,189,26254
13.628,124331,189,26255
13.633,124353,188,26256
13.638,124357,188,26260
13.643,124388,187,26264
13.648,124395,187,26273
13.653,124401,187,26273
13.658,124414,189,26272
13.663,124422,189,26278
13.668,124438,189,26276
13.673,124443,193,26275
13.677,124465,194,26276
13.682,124460,193,26293
13.687,124469,194,26284
13.692,124478,193,26287
13.697,124495,195,26283
13.702,124488,195,26290
13.707,124510,192,26289
13.712,124511,189,26289
13.717,124512,188,26299
13.722,124510,192,26292
13.727,124518,189,26294
13.732,124520,186,26296
13.737,124516,185,26297
13.742,124537,194,26290
13.747,124526,192,26286
13.752,124537,189,26292
13.757,124527,187,26287
13.762,124544,186,26291
13.767,124554,184,26296
13.772,124550,187,26295
13.777,124557,186,26293
13.782,124560,195,26289
13.787,124562,193,26288
13.792,124580,190,26292
13.797,124575,189,26292
13.802,124570,187,26284
13.807,124566,185,26283
13.812,124571,193,26287
13.817,124579,195,26343
13.822,124572,194,26286
13.827,124576,193,26292
13.832,124584,190,26288
13.837,124588,188,26282
13.841,124593,186,26284
13.846,124593,184,26287
13.851,124611,194,26282
13.856,124600,192,26284
13.861,124611,191,26285
13.866,124602,193,26285
13.871,124612,186,26282
13.876,124628,185,26284
13.881,124631,194,26291
13.886,124647,192,26290
13.891,124641,189,26289
13.896,124652,188,26291
13.901,124651,187,26290
13.906,124667,185,26286
13.911,124666,194,26285
13.916,124679,187,26290
13.921,124693,185,26291
13.926,124683,195,26285
13.931,124680,192,26295
13.936,124689,189,26290
13.941,124656,188,26282
13.946,124637,185,26279
13.951,124589,195,26273
13.956,124572,191,26267
13.961,124505,189,26270
13.966,124461,186,26251
13.971,124412,186,26246
13.976,124382,195,26240
13.981,124335,192,26236
13.986,124293,189,26236
13.991,124255,187,26223
13.996,124215,184,26218
14.001,124173,195,26213
14.005,124127,191,26208
14.010,124101,188,26209
14.015,124071,190,26215
14.020,124033,189,26205
14.025,124007,186,26202
14.030,123978,184,26192
14.035,123960,193,26186
14.040,123924,191,26191
14.045,123911,189,26188
14.050,123898,186,26194
14.055,123874,184,26178
14.060,123866,194,26176
14.065,123840,184,26173
14.070,123827,193,26173
14.075,123821,190,26172
14.080,123800,189,26180
14.085,123787,187,26178
14.090,123786,185,26170
14.095,123785,194,26167
14.100,123771,192,26178
14.105,123767,189,26169
14.110,123761,195,26165
14.115,123759,183,26169
14.120,123735,197,26163
14.125,123745,192,26164
14.130,123740,189,26167
14.135,123753,186,26167
14.140,123748,195,26171
14.145,123746,192,26160
14.150,123742,190,26165
14.155,123750,187,26165
14.160,123763,191,26164
14.165,123765,189,26171
14.169,123773,188,26164
14.174,123793,187,26168
14.179,123776,185,26168
14.184,123793,184,26165
14.189,123807,194,26170
14.194,123816,191,26175
14.199,123806,190,26169
14.204,123816,187,26174
14.209,123836,190,26173
14.214,123828,187,26169
14.219,123825,186,26163
14.224,123827,183,26173
14.229,123813,193,26167
14.234,123826,190,26164
14.239,123832,188,26177
14.244,123820,186,26166
14.249,123809,185,26167
14.254,123807,184,26165
14.259,123806,188,26164
14.264,123815,186,26165
14.269,123813,186,26166
14.274,123805,185,26161
14.279,123810,195,26164
14.284,123802,192,26157
14.289,123811,190,26159
14.294,123786,188,26160
14.299,123781,187,26165
14.304,123780,185,26164
14.309,123795,189,26157
14.314,123802,187,26165
14.319,123794,186,26166
14.324,123791,185,26156
14.329,123796,184,26162
14.333,123781,195,26159
14.338,123805,194,26160
14.343,123791,191,26161
14.348,123797,189,26161
14.353,123806,188,26125
14.358,123796,192,26154
14.363,123805,189,26164
14.368,123803,188,26165
14.373,123808,186,26167
14.378,123800,185,26172
14.383,123813,184,26172
14.388,123791,193,26160
14.393,123798,192,26164
14.398,123791,191,26163
14.403,123827,187,26160
14.408,123785,194,26157
14.413,123773,192,26166
14.418,123778,191,26156
14.423,123777,189,26164
14.428,123765,188,26159
14.433,123779,185,26162
14.438,123765,184,26152
14.443,123761,184,26156
14.448,123765,193,26153
14.453,123764,184,26156
14.458,123778,195,26155
14.463,123772,192,26148
14.468,123772,189,26150
14.473,123776,188,26146
14.478,123771,186,26152
14.483,123760,183,26154
14.488,123770,193,26150
14.493,123787,190,26147
14.497,123781,188,26150
14.502,123777,192,26150
14.507,123788,190,26146
14.512,123771,187,26150
14.517,123793,186,26146
14.522,123772,184,26158
14.527,123793,183,26149
14.532,123778,193,26148
14.537,123800,191,26150
14.542,123807,188,26144
14.547,123787,188,26147
14.552,123799,194,26147
14.557,123793,191,26145
14.562,123784,189,26146
14.567,123801,187,26144
14.572,123791,185,26145
14.577,123795,194,26142
14.582,123802,191,26141
14.587,123796,189,26143
14.592,123792,186,26151
14.597,123803,184,26145
14.602,123800,187,26142
14.607,123800,184,26143
14.612,123815,193,26141
14.617,123808,190,26140
14.622,123801,189,26144
14.627,123810,187,26149
14.632,123823,186,26143
14.637,123809,183,26142
14.642,123821,193,26141
14.647,123815,193,26153
14.652,123810,194,26139
14.657,123828,192,26140
14.661,123838,191,26139
14.666,123837,189,26142
14.671,123846,187,26139
14.676,123855,186,26136
14.681,123856,184,26139
14.686,123866,192,26137
14.691,123865,189,26142
14.696,123877,192,26145
14.701,123877,191,26140
14.706,123888,188,26143
14.711,123894,185,26146
14.716,123905,184,26148
14.721,123928,195,26150
14.726,123951,192,26150
14.731,123943,189,26147
14.736,123939,188,26155
14.741,123969,187,26149
14.746,123965,190,26149
14.751,123957,188,26154
14.756,123969,187,26154
14.761,123964,186,26153
14.766,123973,185,26153
14.771,123972,195,26152
14.776,123988,192,26148
14.781,123987,192,26144
14.786,123992,190,26151
14.791,123971,189,26148
14.796,123976,176,26143
14.801,123941,187,26139
14.806,123909,185,26130
14.811,123865,195,26122
14.816,123823,192,26120
14.821,123765,192,26112
14.825,123716,190,26104
14.830,123670,189,26096
14.835,123617,186,26088
14.840,123581,185,26076
14.845,123523,187,26072
14.850,123491,185,26068
14.855,123442,195,26065
14.860,123398,193,26061
14.865,123372,190,26050
14.870,123332,189,26048
14.875,123299,187,26048
14.880,123261,186,26041
14.885,123238,184,26036
14.890,123207,195,26045
14.895,123184,184,26017
14.900,123159,184,26015
14.905,123137,193,26013
14.910,123117,193,26009
14.915,123095,191,26005
14.920,123083,190,25999
14.925,123074,189,26000
14.930,123062,188,26000
14.935,123059,186,25996
14.940,123016,188,25987
14.945,123027,188,25994
14.950,123028,186,25982
14.955,123018,184,25983
14.960,123009,184,25974
14.965,123004,193,25973
14.970,122981,190,25966
14.975,122990,188,25967
14.980,122968,186,25959
14.985,122943,183,25959
14.989,122948,188,25948
14.994,122931,190,25950
14.999,122917,190,25940
15.004,122890,187,25927
15.009,122896,185,25931
15.014,122882,168,25923
15.019,122863,191,25914
15.024,122844,189,25909
15.029,122851,187,25905
15.034,122857,185,25908
15.039,122853,189,25897
15.044,122826,187,25896
15.049,122841,185,25896
15.054,122859,183,25901
15.059,122847,194,25890
15.064,122844,192,25886
15.069,122847,190,25883
15.074,122847,187,25892
15.079,122849,187,25870
15.084,122851,185,25887
15.089,122837,191,25880
15.094,122837,187,25876
15.099,122839,185,25873
15.104,122840,195,25875
15.109,122827,192,25870
15.114,122815,189,25858
15.119,122810,187,25860
15.124,122799,186,25862
15.129,122792,194,25853
15.134,122786,191,25847
15.139,122776,195,25849
15.144,122779,192,25846
15.149,122778,190,25846
15.153,122769,187,25839
15.158,122772,184,25836
15.163,122765,193,25829
15.168,122764,190,25835
15.173,122766,186,25836
15.178,122769,184,25835
15.183,122751,185,25748
15.188,122768,185,25833
15.193,122751,183,25829
15.198,122753,194,25824
15.203,122756,192,25824
15.208,122763,189,25820
15.213,122761,186,25831
15.218,122751,187,25819
15.223,122760,184,25823
15.228,122755,194,25816
15.233,122768,183,25820
15.238,122751,191,25814
15.243,122760,188,25809
15.248,122762,186,25806
15.253,122771,183,25811
15.258,122769,193,25814
15.263,122759,190,25806
15.268,122758,188,25798
15.273,122760,187,25803
15.278,122763,186,25801
15.283,122754,189,25794
15.288,122752,187,25794
15.293,122764,185,25792
15.298,122755,184,25788
15.303,122762,193,25784
15.308,122761,190,25780
15.313,122767,188,25782
15.317,122761,186,25780
15.322,122756,184,25780
15.327,122759,193,25772
15.332,122766,185,25772
15.337,122779,195,25772
15.342,122763,193,25769
15.347,122780,190,25771
15.352,122786,187,25780
15.357,122794,186,25774
15.362,122798,184,25768
15.367,122806,195,25765
15.372,122808,192,25775
15.377,122812,187,25766
15.382,122819,186,25767
15.387,122826,183,25767
15.392,122845,191,25761
15.397,122820,189,25765
15.402,122836,187,25765
15.407,122848,184,25768
15.412,122859,194,25767
15.417,122874,192,25762
15.422,122879,191,25764
15.427,122879,188,25772
15.432,122876,191,25763
15.437,122900,189,25761
15.442,122906,188,25764
15.447,122907,185,25765
15.452,122917,194,25762
15.457,122933,191,25766
15.462,122931,190,25764
15.467,122950,188,25768
15.472,122950,186,25761
15.477,122952,196,25766
15.481,122969,187,25763
15.486,122976,185,25765
15.491,122993,194,25773
15.496,122986,193,25771
15.501,123000,190,25770
15.506,123013,187,25768
15.511,123019,185,25773
15.516,123036,193,25762
15.521,123025,192,25765
15.526,123028,183,25769
15.531,123036,192,25765
15.536,123046,190,25769
15.541,123050,189,25771
15.546,123059,187,25774
15.551,123062,185,25769
15.556,123069,194,25768
15.561,123078,192,25767
15.566,123075,188,25768
15.571,123083,186,25773
15.576,123096,189,25768
15.581,123096,188,25769
15.586,123095,186,25771
15.591,123097,184,25767
15.596,123107,193,25764
15.601,123102,192,25765
15.606,123105,189,25769
15.611,123122,186,25767
15.616,123122,184,25767
15.621,123131,194,25778
15.626,123129,185,25767
15.631,123153,183,25771
15.636,123155,193,25768
15.641,123147,191,25768
15.645,123151,188,25770
15.650,123139,187,25767
15.655,123089,185,25751
15.660,123066,184,25750
15.665,123016,195,25746
15.670,122944,192,25734
15.675,122928,189,25728
15.680,122872,189,25724
15.685,122814,186,25715
15.690,122776,185,25715
15.695,122730,195,25706
15.700,122685,192,25697
15.705,122647,190,25694
15.710,122610,188,25694
15.715,122592,186,25689
15.720,122555,187,25651
15.725,122530,188,25680
15.730,122508,185,25680
15.735,122493,183,25674
15.740,122459,193,25671
15.745,122435,190,25668
15.750,122434,187,25665
15.755,122407,183,25666
15.760,122383,192,25662
15.765,122377,189,25663
15.770,122422,190,25664
15.775,122350,189,25664
15.780,122342,187,25659
15.785,122356,184,25661
15.790,122335,195,25656
15.795,122319,192,25655
15.800,122318,189,25658
15.805,122318,187,25659
15.809,122311,185,25652
15.814,122302,183,25652
15.819,122297,187,25652
15.824,122307,186,25651
15.829,122281,184,25647
15.834,122273,193,25650
15.839,122285,192,25641
15.844,122259,191,25645
15.849,122270,189,25644
15.854,122255,187,25644
15.859,122259,186,25641
15.864,122255,184,25647
15.869,122248,187,25643
15.874,122247,185,25643
15.879,122248,183,25648
15.884,122253,192,25630
15.889,122246,189,25638
15.894,122260,187,25643
15.899,122268,185,25636
15.904,122264,184,25642
15.909,122273,195,25646
15.914,122267,193,25653
15.919,122265,185,25642
15.924,122256,185,25638
15.929,122268,183,25643
15.934,122266,193,25634
15.939,122271,192,25633
15.944,122269,190,25636
15.949,122270,190,25636
15.954,122256,187,25631
15.959,122247,186,25633
15.964,122256,185,25627
15.969,122242,191,25627
15.973,122247,188,25625
15.978,122242,187,25625
15.983,122231,185,25630
15.988,122239,185,25622
15.993,122236,183,25621
15.998,122238,193,25625
16.003,122219,191,25624
16.008,122233,189,25627
16.013,122227,191,25628
16.018,122237,190,25630
16.023,122237,189,25626
16.028,122242,188,25630
16.033,122248,186,25627
16.038,122264,184,25631
16.043,122272,184,25635
16.048,122292,194,25630
16.053,122267,193,25631
16.058,122289,190,25629
16.063,122304,195,25634
16.068,122306,188,25634
16.073,122310,187,25633
16.078,122327,186,25642
16.083,122330,185,25644
16.088,122331,195,25638
16.093,122339,193,25641
16.098,122352,191,25644
16.103,122357,190,25636
16.108,122361,187,25640
16.113,122369,192,25637
16.118,122369,188,25643
16.123,122365,190,25640
16.128,122384,186,25646
16.133,122392,195,25648
16.137,122412,193,25645
16.142,122412,191,25649
16.147,122417,189,25645
16.152,122440,187,25646
16.157,122436,185,25647
16.162,122436,189,25646
16.167,122448,187,25647
16.172,122456,185,25656
16.177,122459,195,25648
16.182,122477,194,25651
16.187,122488,192,25645
16.192,122501,191,25650
16.197,122510,189,25656
16.202,122511,188,25654
16.207,122535,187,25660
16.212,122515,192,25656
16.217,122548,189,25660
16.222,122561,188,25654
16.227,122554,186,25657
16.232,122572,184,25659
16.237,122574,194,25665
16.242,122584,193,25663
16.247,122593,192,25670
16.252,122595,190,25666
16.257,122618,189,25689
16.262,122619,185,25668
16.267,122617,184,25669
16.272,122618,194,25670
16.277,122614,191,25669
16.282,122620,190,25664
16.287,122628,188,25659
16.292,122627,185,25666
16.297,122623,184,25666
16.301,122631,194,25667
16.306,122619,182,25668
16.311,122637,185,25669
16.316,122634,184,25666
16.321,122641,195,25662
16.326,122644,192,25666
16.331,122643,189,25674
16.336,122649,187,25669
16.341,122642,185,25668
16.346,122653,194,25675
16.351,122649,191,25673
16.356,122671,184,25680
16.361,122661,187,25675
16.366,122680,185,25675
16.371,122679,184,25677
16.376,122679,193,25677
16.381,122675,192,25676
16.386,122686,190,25671
16.391,122697,189,25676
16.396,122709,188,25679
16.401,122717,187,25677
16.406,122709,191,25680
16.411,122728,189,25683
16.416,122719,187,25683
16.421,122720,186,25679
16.426,122741,184,25686
16.431,122739,194,25685
16.436,122750,192,25683
16.441,122751,191,25689
16.446,122760,188,25688
16.451,122767,186,25688
16.456,122779,189,25692
16.461,122782,189,25691
16.465,122805,187,25699
16.470,122814,188,25679
16.475,122827,187,25698
16.480,122822,186,25699
16.485,122835,184,25695
16.490,122853,183,25701
16.495,122862,192,25697
16.500,122886,193,25703
16.505,122889,185,25703
16.510,122905,185,25704
16.515,122911,183,25712
16.520,122920,184,25713
16.525,122918,195,25706
16.530,122908,193,25700
16.535,122881,192,25697
16.540,122845,191,25698
16.545,122821,190,25692
16.550,122766,193,25695
16.555,122742,193,25676
16.560,122679,193,25676
16.565,122635,191,25666
16.570,122598,191,25662
16.575,122557,189,25668
16.580,122523,188,25658
16.585,122485,188,25652
16.590,122438,187,25649
16.595,122422,185,25645
16.600,122386,189,25646
16.605,122375,189,25650
16.610,122355,189,25630
16.615,122329,188,25639
16.620,122326,188,25637
16.625,122309,188,25641
16.629,122302,188,25641
16.634,122293,186,25637
16.639,122291,186,25635
16.644,122270,185,25632
16.649,122280,188,25626
16.654,122274,186,25639
16.659,122264,185,25635
16.664,122265,183,25634
16.669,122262,193,25637
16.674,122273,192,25642
16.679,122264,191,25636
16.684,122268,190,25637
16.689,122262,189,25640
16.694,122263,187,25630
16.699,122269,191,25641
16.704,122278,190,25642
16.709,122287,189,25638
16.714,122286,188,25644
16.719,122283,188,25639
16.724,122278,188,25644
16.729,122291,188,25644
16.734,122300,187,25649
16.739,122309,186,25648
16.744,122305,185,25652
16.749,122313,190,25649
16.754,122315,189,25648
16.759,122331,188,25649
16.764,122324,187,25645
16.769,122342,187,25657
16.774,122347,185,25654
16.779,122351,184,25658
16.784,122383,184,25658
16.789,122394,194,25658
16.793,122396,184,25657
16.798,122390,193,25667
16.803,122412,193,25665
16.808,122422,191,25662
16.813,122403,190,25665
16.818,122421,189,25665
16.823,122423,189,25666
16.828,122435,188,25665
16.833,122438,187,25670
16.838,122418,187,25668
16.843,122453,192,25653
16.848,122436,193,25662
16.853,122454,193,25664
16.858,122457,192,25665
16.863,122456,192,25674
16.868,122445,191,25669
16.873,122447,189,25668
16.878,122448,188,25667
16.883,122456,188,25667
16.888,122465,187,25656
16.893,122483,193,25671
16.898,122477,185,25674
16.903,122489,184,25674
16.908,122478,184,25678
16.913,122475,185,25675
16.918,122489,186,25672
16.923,122496,187,25675
16.928,122503,188,25674
16.933,122525,189,25678
16.938,122519,189,25678
16.943,122522,184,25677
16.948,122527,184,25676
16.953,122545,185,25682
16.957,122546,185,25683
16.962,122543,186,25679
16.967,122559,187,25681
16.972,122569,189,25682
16.977,122588,190,25684
16.982,122568,192,25688
16.987,122601,191,25687
16.992,122591,187,25682
16.997,122613,187,25687
17.002,122614,189,25686
17.007,122622,188,25690
17.012,122628,189,25689
17.017,122666,187,25697
17.022,122672,192,25687
17.027,122673,192,25695
17.032,122666,183,25698
17.037,122680,184,25704
17.042,122682,184,25697
17.047,122697,185,25701
17.052,122690,186,25700
17.057,122721,186,25696
17.062,122730,189,25700
17.067,122738,188,25702
17.072,122746,189,25701
17.077,122749,190,25702
17.082,122774,192,25704
17.087,122790,178,25711
17.092,122790,185,25704
17.097,122803,186,25708
17.102,122796,187,25715
17.107,122825,187,25708
17.112,122823,188,25714
17.117,122840,189,25713
17.121,122797,200,25711
17.126,122847,194,25709
17.131,122867,194,25714
17.136,122875,187,25716
17.141,122894,189,25712
17.146,122898,189,25717
17.151,122908,191,25718
17.156,122910,192,25716
17.161,122924,193,25722
17.166,122922,195,25722
17.171,122935,184,25719
17.176,122945,184,25723
17.181,122968,185,25719
17.186,122976,192,25722
17.191,122967,193,25722
17.196,122986,184,25730
17.201,123003,186,25730
17.206,122998,187,25730
17.211,123019,188,25723
17.216,123026,188,25734
17.221,123027,189,25731
17.226,123043,190,25735
17.231,123042,192,25737
17.236,123035,185,25737
17.241,123047,186,25735
17.246,123041,186,25732
17.251,123063,188,25740
17.256,123068,188,25738
17.261,123077,191,25734
17.266,123064,191,25733
17.271,123078,193,25738
17.276,123088,194,25738
17.281,123098,184,25736
17.285,123097,188,25739
17.290,123092,190,25743
17.295,123115,191,25746
17.300,123111,193,25744
17.305,123107,195,25735
17.310,123110,185,25740
17.315,123121,185,25742
17.320,123109,187,25741
17.325,123107,188,25743
17.330,123081,192,25741
17.335,123050,183,25735
17.340,123012,185,25719
17.345,122960,185,25719
17.350,122921,186,25711
17.355,122877,186,25705
17.360,122838,188,25705
17.365,122781,190,25699
17.370,122741,192,25696
17.375,122708,192,25683
17.380,122677,186,25681
17.385,122635,187,25679
17.390,122606,189,25674
17.395,122572,189,25668
17.400,122553,191,25666
17.405,122550,192,25667
17.410,122518,193,25670
17.415,122504,193,25660
17.420,122487,183,25660
17.425,122471,183,25661
17.430,122475,188,25657
17.435,122445,189,25656
17.440,122446,190,25660
17.445,122431,192,25656
17.449,122439,192,25660
17.454,122430,193,25656
17.459,122420,195,25655
17.464,122428,184,25661
17.469,122427,185,25654
17.474,122423,187,25662
17.479,122403,186,25656
17.484,122423,188,25658
17.489,122420,190,25657
17.494,122412,192,25655
17.499,122417,195,25659
17.504,122426,185,25659
17.509,122423,188,25658
17.514,122437,189,25661
17.519,122435,191,25663
17.524,122443,194,25666
17.529,122448,188,25664
17.534,122452,189,25664
17.539,122454,192,25666
17.544,122467,194,25664
17.549,122461,184,25669
17.554,122470,186,25674
17.559,122482,188,25676
17.564,122505,190,25678
17.569,122503,192,25675
17.574,122521,182,25668
17.579,122527,187,25690
17.584,122522,189,25675
17.589,122531,192,25685
17.594,122536,193,25678
17.599,122532,184,25679
17.604,122532,186,25684
17.609,122528,187,25682
17.613,122536,188,25682
17.618,122524,190,25678
17.623,122509,184,25678
17.628,122511,187,25677
17.633,122537,188,25681
17.638,122511,189,25681
17.643,122497,191,25678
17.648,122501,194,25670
17.653,122492,183,25674
17.658,122486,185,25671
17.663,122487,187,25670
17.668,122480,188,25671
17.673,122471,194,25670
17.678,122467,183,25674
17.683,122455,185,25664
17.688,122452,187,25669
17.693,122449,189,25664
17.698,122449,191,25670
17.703,122434,193,25668
17.708,122440,184,25666
17.713,122425,186,25664
17.718,122441,188,25666
17.723,122438,195,25666
17.728,122421,185,25670
17.733,122433,187,25668
17.738,122449,189,25668
17.743,122439,191,25664
17.748,122433,193,25669
17.753,122433,183,25672
17.758,122436,185,25668
17.763,122451,186,25665
17.768,122444,187,25670
17.773,122457,185,25671
17.777,122457,186,25672
17.782,122457,188,25674
17.787,122472,189,25669
17.792,122484,192,25672
17.797,122485,183,25675
17.802,122485,186,25678
17.807,122492,187,25677
17.812,122498,189,25675
17.817,122501,194,25694
17.822,122490,184,25674
17.827,122504,185,25675
17.832,122517,186,25679
17.837,122512,187,25685
17.842,122517,188,25685
17.847,122536,189,25680
17.852,122553,191,25687
17.857,122551,193,25681
17.862,122562,194,25684
17.867,122542,189,25693
17.872,122572,194,25687
17.877,122585,183,25695
17.882,122572,185,25689
17.887,122580,186,25694
17.892,122587,187,25693
17.897,122586,189,25691
17.902,122604,191,25695
17.907,122602,192,25698
17.912,122604,183,25695
17.917,122607,188,25700
17.922,122616,190,25702
17.927,122628,191,25699
17.932,122623,192,25705
17.937,122639,193,25700
17.941,122634,184,25704
17.946,122651,185,25705
17.951,122659,186,25712
17.956,122667,187,25713
17.961,122672,190,25695
17.966,122669,184,25714
17.971,122666,186,25710
17.976,122686,188,25716
17.981,122674,191,25720
17.986,122676,192,25719
17.991,122687,194,25719
17.996,122707,184,25729
18.001,122687,186,25718
18.006,122711,188,25721
18.011,122714,190,25726
18.016,122734,178,25728
18.021,122720,184,25728
18.026,122734,185,25722
18.031,122713,189,25726
18.036,122705,192,25722
18.041,122674,184,25719
18.046,122626,185,25714
18.051,122589,188,25710
18.056,122544,190,25703
18.061,122504,187,25688
18.066,122446,189,25693
18.071,122411,191,25683
18.076,122366,194,25677
18.081,122324,184,25680
18.086,122307,186,25676
18.091,122267,189,25672
18.096,122236,191,25666
18.101,122217,194,25674
18.105,122200,184,25665
18.110,122167,191,25662
18.115,122140,192,25661
18.120,122115,190,25646
18.125,122103,186,25657
18.130,122075,188,25654
18.135,122084,189,25660
18.140,122057,191,25657
18.145,122054,193,25661
18.150,122060,194,25657
18.155,122046,184,25654
18.160,122051,192,25651
18.165,122026,185,25655
18.170,122023,188,25652
18.175,122020,189,25652
18.180,122027,191,25649
18.185,122026,192,25650
18.190,122011,194,25653
18.195,122016,184,25651
18.200,122015,185,25650
18.205,121994,186,25636
18.210,122008,192,25650
18.215,122013,193,25654
18.220,122004,184,25649
18.225,122007,184,25650
18.230,121997,186,25656
18.235,122004,187,25657
18.240,122011,189,25652
18.245,121995,191,25655
18.250,122010,193,25650
18.255,122009,183,25653
18.260,122011,189,25652
18.265,122013,191,25651
18.269,122026,194,25654
18.274,122034,184,25661
18.279,122037,188,25638
18.284,122044,189,25655
18.289,122051,192,25656
18.294,122047,194,25660
18.299,122062,184,25655
18.304,122065,188,25590
18.309,122065,192,25653
18.314,122056,193,25662
18.319,122055,184,25659
18.324,122058,184,25658
18.329,122069,185,25659
18.334,122067,186,25661
18.339,122060,188,25651
18.344,122066,190,25655
18.349,122074,193,25652
18.354,122073,186,25654
18.359,122071,192,25655
18.364,122084,193,25649
18.369,122082,194,25655
18.374,122067,194,25652
18.379,122079,184,25652
18.384,122076,184,25654
18.389,122070,186,25656
18.394,122061,188,25657
18.399,122074,189,25657
18.404,122079,193,25652
18.409,122082,194,25654
18.414,122095,184,25660
18.419,122091,185,25651
18.424,122104,186,25661
18.429,122104,188,25653
18.433,122116,188,25657
18.438,122127,190,25663
18.443,122131,191,25659
18.448,122133,192,25653
18.453,122158,186,25659
18.458,122163,187,25664
18.463,122163,188,25665
18.468,122177,190,25665
18.473,122189,192,25665
18.478,122190,183,25667
18.483,122203,185,25671
18.488,122208,187,25668
18.493,122216,188,25672
18.498,122225,190,25674
18.503,122237,184,25674
18.508,122254,185,25675
18.513,122262,186,25674
18.518,122257,189,25673
18.523,122259,190,25671
18.528,122272,192,25673
18.533,122262,194,25669
18.538,122280,184,25677
18.543,122289,185,25675
18.548,122290,188,25721
18.553,122291,191,25676
18.558,122330,193,25674
18.563,122319,183,25683
18.568,122320,186,25680
18.573,122333,188,25682
18.578,122347,190,25680
18.583,122347,191,25687
18.588,122350,193,25682
18.593,122366,193,25692
18.597,122365,187,25688
18.602,122387,183,25693
18.607,122403,185,25694
18.612,122412,185,25693
18.617,122437,186,25699
18.622,122445,187,25699
18.627,122448,187,25696
18.632,122471,188,25701
18.637,122475,189,25707
18.642,122475,191,25707
18.647,122508,185,25705
18.652,122511,186,25707
18.657,122528,187,25707
18.662,122540,187,25714
18.667,122559,187,25714
18.672,122561,188,25719
18.677,122591,189,25724
18.682,122602,191,25721
18.687,122620,191,25730
18.692,122650,191,25736
18.697,122658,185,25735
18.702,122684,186,25741
18.707,122729,186,25741
18.712,122739,187,25752
18.717,122765,187,25747
18.722,122788,188,25752
18.727,122812,188,25752
18.732,122832,189,25757
18.737,122830,189,25763
18.742,122848,191,25756
18.747,122804,184,25751
18.752,122777,185,25751
18.757,122728,186,25749
18.761,122703,187,25739
18.766,122670,188,25738
18.771,122634,189,25737
18.776,122605,191,25735
18.781,122573,193,25726
18.786,122544,183,25737
18.791,122516,185,25721
18.796,122503,189,25726
18.801,122472,190,25726
18.806,122453,190,25729
18.811,122443,191,25720
18.816,122420,192,25728
18.821,122416,193,25725
18.826,122404,195,25723
18.831,122411,183,25731
18.836,122387,184,25730
18.841,122426,187,25724
18.846,122382,190,25724
18.851,122370,190,25726
18.856,122390,191,25726
18.861,122376,192,25723
18.866,122386,192,25733
18.871,122375,193,25728
18.876,122387,193,25736
18.881,122401,193,25738
18.886,122405,193,25739
18.891,122403,186,25742
18.896,122406,186,25742
18.901,122401,186,25743
18.906,122412,186,25746
18.911,122416,185,25746
18.916,122416,184,25746
18.921,122427,185,25743
18.925,122420,185,25753
18.930,122419,186,25752
18.935,122437,185,25757
18.940,122440,193,25743
18.945,122430,192,25758
18.950,122440,193,25754
18.955,122445,193,25748
18.960,122437,193,25752
18.965,122443,193,25762
18.970,122464,193,25763
18.975,122465,183,25754
18.980,122479,185,25759
18.985,122488,184,25766
18.990,122512,183,25769
18.995,122503,184,25775
19.000,122527,185,25764
19.005,122545,186,25778
19.010,122546,188,25774
19.015,122588,172,25788
19.020,122566,187,25781
19.025,122567,189,25780
19.030,122579,191,25778
19.035,122582,193,25786
19.040,122582,186,25785
19.045,122599,187,25784
19.050,122586,189,25784
19.055,122604,189,25791
19.060,122606,191,25779
19.065,122607,192,25790
19.070,122605,192,25787
19.075,122611,194,25792
19.080,122609,184,25788
19.085,122639,181,25790
19.089,122623,189,25793
19.094,122621,189,25788
19.099,122630,191,25795
19.104,122649,191,25800
19.109,122666,192,25798
19.114,122660,193,25798
19.119,122667,183,25804
19.124,122665,185,25804
19.129,122661,185,25802
19.134,122678,189,25804
19.139,122688,190,25803
19.144,122689,190,25807
19.149,122698,190,25814
19.154,122689,191,25805
19.159,122689,192,25803
19.164,122680,192,25804
19.169,122686,192,25800
19.174,122698,193,25800
19.179,122695,194,25805
19.184,122698,186,25802
19.189,122706,187,25804
19.194,122709,188,25801
19.199,122708,189,25799
19.204,122699,189,25798
19.209,122714,188,25798
19.214,122724,189,25797
19.219,122726,191,25798
19.224,122736,191,25802
19.229,122739,192,25801
19.234,122737,189,25803
19.239,122745,191,25799
19.244,122766,191,25803
19.249,122767,192,25798
19.253,122771,192,25802
19.258,122781,193,25805
19.263,122785,193,25808
19.268,122789,183,25805
19.273,122792,194,25806
19.278,122803,193,25808
19.283,122808,193,25799
19.288,122821,193,25806
19.293,122825,190,25809
19.298,122837,190,25811
19.303,122841,188,25807
19.308,122850,187,25806
19.313,122858,185,25812
19.318,122862,195,25813
19.323,122887,192,25807
19.328,122892,191,25807
19.333,122894,192,25817
19.338,122904,191,25813
19.343,122914,188,25815
19.348,122927,187,25818
19.353,122944,184,25818
19.358,122952,194,25819
19.363,122956,193,25818
19.368,122955,190,25822
19.373,122968,187,25826
19.378,122996,189,25817
19.383,122985,188,25823
19.388,122987,185,25828
19.393,123002,185,25828
19.398,122996,184,25817
19.403,122982,183,25820
19.408,122970,195,25814
19.413,122935,193,25815
19.417,122897,193,25802
19.422,122845,191,25798
19.427,122808,184,25790
19.432,122776,193,25782
19.437,122723,192,25779
19.442,122676,190,25771
19.447,122641,189,25766
19.452,122625,187,25763
19.457,122584,187,25762
19.462,122560,187,25757
19.467,122523,186,25752
19.472,122496,186,25761
19.477,122469,191,25747
19.482,122461,192,25746
19.487,122438,191,25747
19.492,122408,191,25742
19.497,122389,190,25742
19.502,122394,189,25739
19.507,122376,189,25737
19.512,122369,187,25735
19.517,122373,186,25737
19.522,122358,185,25733
19.527,122340,187,25736
19.532,122344,187,25731
19.537,122328,186,25727
19.542,122332,185,25736
19.547,122330,184,25732
19.552,122332,194,25737
19.557,122327,194,25732
19.562,122336,192,25728
19.567,122323,191,25733
19.572,122319,190,25718
19.577,122311,184,25727
19.581,122314,193,25732
19.586,122307,191,25735
19.591,122313,189,25730
19.596,122305,188,25734
19.601,122293,187,25736
19.606,122302,185,25730
19.611,122309,183,25736
19.616,122306,183,25738
19.621,122362,185,25727
19.626,122315,187,25734
19.631,122324,187,25733
19.636,122322,186,25738
19.641,122339,185,25738
19.646,122346,185,25746
19.651,122358,183,25746
19.656,122376,194,25744
19.661,122371,194,25745
19.666,122389,193,25758
19.671,122400,186,25753
19.676,122412,185,25749
19.681,122408,185,25749
19.686,122407,184,25758
19.691,122417,185,25750
19.696,122417,184,25756
19.701,122412,185,25751
19.706,122424,184,25750
19.711,122423,183,25753
19.716,122433,193,25754
19.721,122438,185,25754
19.726,122422,189,25754
19.731,122435,188,25754
19.736,122446,186,25755
19.741,122448,185,25759
19.745,122457,183,25758
19.750,122457,193,25757
19.755,122453,191,25756
19.760,122462,190,25758
19.765,122466,190,25759
19.770,122467,186,25762
19.775,122481,184,25762
19.780,122490,184,25763
19.785,122491,183,25760
19.790,122492,194,25765
19.795,122503,192,25766
19.800,122509,190,25763
19.805,122516,187,25778
19.810,122518,186,25771
19.815,122526,185,25765
19.820,122530,190,25764
19.825,122541,188,25770
19.830,122539,187,25766
19.835,122557,185,25767
19.840,122560,183,25771
19.845,122563,192,25770
19.850,122568,189,25771
19.855,122572,187,25768
19.860,122590,187,25776
19.865,122597,184,25776
19.870,122601,183,25779
19.875,122609,193,25775
19.880,122628,193,25774
19.885,122629,191,25781
19.890,122641,189,25777
19.895,122633,187,25777
19.900,122646,186,25780
19.905,122660,185,25778
19.909,122663,183,25786
19.914,122681,186,25785
19.919,122693,192,25783
19.924,122694,189,25786
19.929,122696,189,25782
19.934,122722,187,25794
19.939,122714,186,25779
19.944,122738,184,25795
19.949,122735,184,25784
19.954,122750,183,25792
19.959,122759,195,25789
19.964,122774,186,25791
19.969,122783,186,25793
19.974,122786,185,25787
19.979,122796,184,25796
19.984,122800,194,25797
19.989,122810,193,25798
19.994,122823,191,25799
19.999,122836,190,25797
20.004,122847,190,25798
20.009,122852,190,25807
20.014,122882,195,25801
20.019,122889,192,25808
20.024,122894,191,25802
20.029,122906,190,25806
20.034,122911,189,25812
20.039,122913,189,25808
20.044,122884,188,25805
20.049,122870,188,25797
20.054,122834,187,25796
20.059,122789,186,25789
20.064,122757,189,25781
20.069,122728,188,25774
20.073,122679,186,25771
20.078,122634,186,25767
20.083,122596,184,25765
20.088,122570,184,25758
20.093,122531,183,25764
20.098,122509,193,25743
20.103,122480,193,25745
20.108,122460,193,25721
20.113,122438,188,25745
20.118,122423,188,25741
20.123,122392,189,25738
20.128,122373,187,25733
20.133,122361,185,25735
20.138,122362,184,25736
20.143,122343,184,25728
20.148,122325,194,25727
20.153,122321,193,25730
20.158,122329,186,25766
20.163,122322,187,25729
20.168,122303,186,25726
20.173,122302,185,25730
20.178,122307,185,25729
20.183,122286,184,25726
20.188,122294,194,25723
20.193,122288,192,25724
20.198,122293,191,25721
20.203,122279,190,25723
20.208,122287,194,25726
20.213,122293,192,25726
20.218,122283,190,25724
20.223,122277,189,25726
20.228,122279,188,25721
20.233,122288,187,25725
20.237,122273,187,25723
20.242,122279,186,25725
20.247,122279,184,25727
20.252,122288,195,25724
20.257,122296,186,25729
20.262,122294,185,25728
20.267,122306,183,25724
20.272,122315,192,25731
20.277,122323,190,25731
20.282,122337,189,25732
20.287,122343,186,25736
20.292,122345,183,25736
20.297,122349,193,25732
20.302,122365,189,25735
20.307,122367,194,25727
20.312,122375,192,25739
20.317,122370,190,25737
20.322,122362,190,25732
20.327,122373,188,25739
20.332,122373,186,25735
20.337,122378,184,25738
20.342,122385,185,25734
20.347,122381,193,25737
20.352,122395,192,25729
20.357,122383,183,25737
20.362,122408,195,25736
20.367,122397,193,25741
20.372,122404,192,25741
20.377,122414,190,25736
20.382,122399,189,25739
20.387,122418,186,25740
20.392,122417,185,25744
20.397,122417,184,25739
20.401,122441,191,25739
20.406,122438,190,25740
20.411,122441,187,25747
20.416,122441,185,25744
20.421,122453,184,25745
20.426,122458,193,25745
20.431,122466,191,25744
20.436,122471,189,25749
20.441,122488,188,25749
20.446,122482,185,25750
20.451,122485,189,25751
20.456,122506,186,25752
20.461,122504,186,25756
20.466,122513,184,25751
20.471,122519,194,25747
20.476,122524,192,25751
20.481,122535,190,25752
20.486,122545,188,25756
20.491,122555,186,25756
20.496,122567,184,25755
20.501,122573,187,25759
20.506,122591,185,25757
20.511,122582,183,25756
20.516,122599,192,25757
20.521,122600,191,25757
20.526,122626,187,25761
20.531,122618,186,25757
20.536,122634,184,25761
20.541,122632,184,25766
20.546,122645,193,25780
20.551,122669,185,25766
20.556,122663,185,25769
20.561,122667,183,25768
20.565,122679,193,25773
20.570,122694,193,25766
20.575,122699,193,25767
20.580,122706,192,25772
20.585,122718,191,25766
20.590,122726,189,25770
20.595,122740,187,25768
20.600,122749,190,25773
20.605,122771,188,25772
20.610,122752,186,25770
20.615,122779,185,25780
20.620,122781,184,25778
20.625,122784,183,25779
20.630,122807,194,25777
20.635,122812,193,25782
20.640,122826,192,25787
20.645,122836,193,25742
20.650,122846,183,25783
20.655,122861,192,25787
20.660,122884,191,25783
20.665,122880,189,25790
20.670,122891,187,25789
20.675,122905,185,25791
20.680,122905,185,25792
20.685,122916,184,25795
20.690,122947,194,25796
20.695,123001,184,25802
20.700,122956,184,25800
20.705,122960,194,25799
20.710,122968,192,25796
20.715,122973,189,25796
20.720,122968,189,25791
20.725,122927,187,25788
20.729,122893,187,25782
20.734,122846,186,25774
20.739,122811,184,25767
20.744,122779,191,25766
20.749,122736,194,25762
20.754,122700,192,25757
20.759,122678,191,25758
20.764,122636,189,25752
20.769,122600,188,25750
20.774,122575,187,25741
20.779,122562,186,25750
20.784,122527,185,25741
20.789,122526,183,25738
20.794,122512,186,25739
20.799,122494,190,25732
20.804,122482,188,25734
20.809,122472,187,25734
20.814,122467,186,25732
20.819,122428,184,25728
20.824,122435,183,25737
20.829,122438,193,25729
20.834,122411,191,25728
20.839,122427,190,25729
20.844,122409,193,25725
20.849,122418,193,25728
20.854,122413,192,25725
20.859,122405,192,25722
20.864,122403,190,25723
20.869,122403,190,25730
20.874,122405,189,25725
20.879,122393,188,25726
20.884,122397,186,25727
20.889,122394,186,25720
20.893,122387,189,25725
20.898,122403,189,25724
20.903,122400,188,25728
20.908,122396,187,25726
20.913,122408,186,25731
20.918,122409,185,25736
20.923,122392,185,25723
20.928,122408,184,25730
20.933,122408,183,25735
20.938,122418,188,25732
20.943,122420,186,25739
20.948,122433,184,25735
20.953,122449,182,25736
20.958,122459,193,25740
20.963,122466,191,25736
20.968,122474,189,25740
20.973,122476,187,25745
20.978,122485,186,25740
20.983,122492,185,25741
20.988,122487,188,25742
20.993,122498,188,25741
20.998,122504,187,25749
21.003,122497,186,25749
21.008,122500,184,25745
21.013,122490,194,25748
21.018,122535,189,25748
21.023,122516,189,25748
21.028,122521,187,25747
21.033,122519,187,25744
21.038,122521,194,25744
21.043,122526,192,25741
21.048,122530,191,25742
21.053,122538,189,25750
21.057,122537,188,25752
21.062,122536,187,25738
21.067,122546,186,25749
21.072,122561,185,25749
21.077,122559,184,25755
21.082,122558,194,25768
21.087,122575,185,25755
21.092,122581,184,25753
21.097,122594,182,25756
21.102,122599,193,25757
21.107,122617,192,25750
21.112,122607,191,25760
21.117,122630,189,25756
21.122,122609,192,25755
21.127,122641,187,25758
21.132,122639,184,25760
21.137,122663,187,25755
21.142,122655,186,25758
21.147,122670,194,25758
21.152,122679,191,25763
21.157,122683,188,25760
21.162,122692,187,25762
21.167,122702,184,25763
21.172,122712,195,25764
21.177,122724,191,25766
21.182,122734,191,25718
21.187,122732,192,25769
21.192,122747,191,25771
21.197,122762,188,25785
21.202,122773,188,25774
21.207,122773,187,25772
21.212,122782,185,25775
21.217,122792,184,25780
21.221,122791,194,25777
21.226,122816,192,25781
21.231,122863,177,25760
21.236,122828,189,25777
21.241,122856,189,25786
21.246,122848,188,25783
21.251,122862,187,25789
21.256,122876,186,25783
21.261,122880,186,25790
21.266,122902,184,25792
21.271,122917,184,25789
21.276,122925,194,25792
21.281,122936,186,25786
21.286,122946,184,25794
21.291,122949,183,25795
21.296,122954,183,25801
21.301,122967,195,25798
21.306,122969,193,25801
21.311,122979,191,25798
21.316,123000,189,25801
21.321,123012,188,25807
21.326,123024,187,25802
21.331,123030,181,25803
21.336,123036,182,25823
21.341,123049,193,25813
21.346,123057,192,25806
21.351,123065,191,25811
21.356,123077,189,25808
21.361,123082,189,25808
21.366,123102,187,25819
21.371,123115,184,25814
21.376,123123,194,25822
21.381,123131,186,25817
21.385,123138,184,25819
21.390,123136,194,25818
21.395,123148,191,25824
21.400,123173,190,25822
21.405,123178,187,25824
21.410,123190,186,25821
21.415,123199,184,25827
21.420,123211,184,25828
21.425,123214,193,25826
21.430,123227,185,25827
21.435,123247,183,25827
21.440,123252,193,25829
21.445,123257,192,25829
21.450,123265,190,25826
21.455,123304,189,25837
21.460,123298,187,25841
21.465,123298,186,25837
21.470,123291,184,25833
21.475,123263,185,25832
21.480,123231,187,25819
21.485,123204,186,25812
21.490,123152,186,25813
21.495,123133,184,25801
21.500,123074,183,25801
21.505,123050,194,25794
21.510,123025,193,25788
21.515,122992,192,25784
21.520,122966,191,25783
21.525,122944,183,25781
21.530,122918,188,25780
21.535,122902,186,25777
21.540,122873,186,25776
21.545,122855,185,25774
21.549,122849,183,25772
21.554,122829,193,25768
21.559,122826,191,25765
21.564,122815,188,25766
21.569,122810,186,25762
21.574,122788,190,25765
21.579,122803,190,25764
21.584,122797,188,25768
21.589,122778,187,25763
21.594,122785,185,25770
21.599,122787,184,25763
21.604,122776,194,25765
21.609,122783,192,25764
21.614,122771,189,25772
21.619,122763,189,25763
21.624,122762,192,25759
21.629,122768,192,25763
21.634,122762,191,25763
21.639,122755,190,25760
21.644,122767,188,25758
21.649,122763,186,25764
21.654,122755,185,25763
21.659,122753,184,25761
21.664,122759,183,25762
21.669,122742,194,25762
21.674,122743,186,25763
21.679,122751,184,25766
21.684,122743,184,25760
21.689,122756,194,25764
21.694,122762,192,25761
21.699,122765,190,25765
21.704,122780,189,25764
21.709,122802,187,25764
21.713,122787,186,25761
21.718,122802,186,25730
21.723,122815,188,25769
21.728,122803,187,25772
21.733,122822,186,25769
21.738,122817,184,25770
21.743,122812,183,25767
21.748,122817,183,25766
21.753,122824,193,25773
21.758,122823,191,25769
21.763,122820,190,25774
21.768,122889,192,25769
21.773,122832,193,25771
21.778,122836,191,25771
21.783,122825,190,25772
21.788,122835,189,25765
21.793,122842,188,25762
21.798,122834,187,25769
21.803,122851,185,25764
21.808,122853,184,25771
21.813,122849,183,25767
21.818,122863,186,25765
21.823,122859,186,25766
21.828,122864,185,25773
21.833,122868,184,25770
21.838,122875,183,25774
21.843,122872,194,25763
21.848,122869,192,25772
21.853,122877,191,25776
21.858,122893,190,25772
21.863,122883,189,25773
21.868,122901,193,25771
21.873,122911,193,25776
21.877,122909,191,25770
21.882,122928,190,25778
21.887,122932,188,25779
21.892,122938,187,25784
21.897,122951,186,25781
21.902,122955,186,25783
21.907,122959,185,25783
21.912,122973,185,25783
21.917,122946,182,25780
21.922,122990,184,25785
21.927,122995,194,25785
21.932,122999,192,25783
21.937,123013,191,25783
21.942,123002,191,25785
21.947,123009,189,25787
21.952,123030,189,25795
21.957,123048,188,25789
21.962,123045,187,25782
21.967,123063,193,25792
21.972,123073,192,25790
21.977,123074,191,25799
21.982,123081,189,25795
21.987,123093,188,25796
21.992,123104,186,25799
21.997,123113,185,25800
22.002,123121,184,25800
22.007,123125,193,25799
22.012,123144,192,25799
22.017,123148,168,25813
22.022,123162,192,25805
22.027,123161,190,25804
22.032,123170,189,25808
22.037,123189,187,25811
22.041,123191,187,25802
22.046,123189,186,25809
22.051,123213,184,25808
22.056,123217,183,25811
22.061,123226,187,25812
22.066,123236,187,25811
22.071,123245,186,25823
22.076,123264,184,25812
22.081,123276,183,25818
22.086,123269,194,25816
22.091,123276,193,25815
22.096,123292,191,25819
22.101,123294,192,25821
22.106,123316,191,25819
22.111,123321,183,25821
22.116,123325,194,25819
22.121,123344,192,25822
22.126,123339,192,25826
22.131,123351,191,25820
22.136,123360,190,25825
22.141,123367,189,25822
22.146,123377,187,25829
22.151,123393,187,25832
22.156,123409,185,25812
22.161,123416,189,25837
22.166,123422,187,25839
22.171,123439,187,25842
22.176,123458,185,25852
22.181,123465,184,25839
22.186,123480,194,25840
22.191,123510,192,25846
22.196,123510,190,25850
22.201,123528,189,25847
22.205,123544,187,25845
22.210,123556,185,25850
22.215,123550,183,25853
22.220,123550,194,25851
22.225,123543,192,25842
22.230,123507,192,25837
22.235,123488,190,25839
22.240,123454,190,25834
22.245,123426,188,25832
22.250,123395,187,25826
22.255,123374,188,25873
22.260,123339,184,25822
22.265,123304,184,25815
22.270,123290,184,25821
22.275,123273,183,25815
22.280,123256,183,25817
22.285,123243,183,25815
22.290,123218,184,25812
22.295,123192,183,25810
22.300,123189,194,25808
22.305,123116,186,25810
22.310,123178,184,25810
22.315,123165,183,25803
22.320,123160,194,25801
22.325,123155,192,25809
22.330,123142,192,25807
22.335,123134,191,25801
22.340,123125,191,25802
22.345,123131,189,25799
22.350,123116,187,25802
22.355,123119,191,25795
22.360,123105,189,25797
22.365,123115,188,25797
22.369,123091,187,25795
22.374,123105,185,25799
22.379,123104,184,25804
22.384,123108,183,25799
22.389,123095,193,25799
22.394,123092,191,25801
22.399,123103,190,25798
22.404,123084,194,25790
22.409,123085,193,25792
22.414,123081,191,25793
22.419,123066,190,25790
22.424,123080,189,25797
22.429,123077,187,25795
22.434,123092,186,25797
22.439,123082,185,25796
22.444,123089,184,25792
22.449,123091,183,25799
22.454,123103,187,25793
22.459,123111,185,25802
22.464,123115,184,25797
22.469,123134,194,25797
22.474,123146,193,25797
22.479,123132,191,25797
22.484,123122,190,25803
22.489,123147,188,25802
22.494,123153,186,25806
22.499,123149,186,25805
22.504,123157,189,25802
22.509,123160,189,25806
22.514,123154,188,25804
22.519,123176,186,25801
22.524,123158,185,25799
22.529,123165,194,25797
22.533,123164,192,25802
22.538,123167,191,25802
22.543,123174,190,25806
22.548,123189,201,25805
22.553,123175,191,25800
22.558,123178,188,25803
22.563,123191,186,25799
22.568,123190,184,25808
22.573,123186,194,25800
22.578,123199,192,25806
22.583,123200,190,25804
22.588,123211,187,25807
22.593,123215,186,25813
22.598,123202,189,25849
22.603,123208,191,25801
22.608,123218,188,25807
22.613,123208,186,25809
22.618,123221,185,25803
22.623,123237,184,25805
22.628,123239,193,25803
22.633,123242,191,25805
22.638,123253,189,25805
22.643,123260,187,25807
22.648,123237,194,25808
22.653,123275,184,25811
22.658,123286,194,25808
22.663,123275,193,25812
22.668,123290,191,25815
22.673,123289,189,25815
22.678,123298,187,25812
22.683,123300,185,25819
22.688,123311,194,25812
22.693,123322,192,25795
22.697,123318,184,25817
22.702,123334,194,25815
22.707,123343,191,25815
22.712,123337,189,25818
22.717,123357,188,25817
22.722,123363,187,25821
22.727,123375,185,25810
22.732,123384,185,25827
22.737,123393,183,25826
22.742,123384,194,25829
22.747,123409,186,25825
22.752,123408,185,25824
22.757,123430,183,25825
22.762,123435,195,25826
22.767,123434,193,25822
22.772,123445,193,25836
22.777,123459,190,25831
22.782,123454,190,25831
22.787,123458,188,25829
22.792,123495,187,25889
22.797,123490,190,25831
22.802,123499,188,25837
22.807,123510,187,25834
22.812,123506,186,25835
22.817,123525,184,25839
22.822,123543,183,25838
22.827,123530,193,25842
22.832,123537,192,25838
22.837,123565,191,25838
22.842,123584,195,25843
22.847,123571,187,25843
22.852,123583,186,25843
22.857,123573,185,25848
22.862,123591,184,25844
22.866,123612,183,25855
22.871,123602,193,25855
22.876,123602,192,25843
22.881,123614,191,25844
22.886,123631,190,25853
22.891,123643,184,25853
22.896,123647,187,25852
22.901,123643,186,25848
22.906,123651,185,25852
22.911,123659,185,25856
22.916,123672,184,25855
22.921,123677,185,25855
22.926,123689,183,25857
22.931,123694,194,25855
22.936,123707,192,25850
22.941,123747,188,25861
22.946,123714,188,25860
22.951,123727,187,25862
22.956,123739,185,25856
22.961,123744,185,25864
22.966,123752,184,25863
22.971,123754,183,25868
22.976,123764,193,25866
22.981,123779,192,25862
22.986,123774,189,25869
22.991,123789,193,25872
22.996,123799,191,25870
23.001,123804,190,25870
23.006,123821,188,25872
23.011,123821,186,25880
23.016,123820,184,25871
23.021,123843,192,25880
23.025,123848,191,25872
23.030,123863,190,25876
23.035,123861,188,25880
23.040,123860,186,25872
23.045,123869,185,25875
23.050,123893,194,25878
23.055,123900,192,25878
23.060,123912,191,25882
23.065,123909,188,25879
23.070,123927,186,25880
23.075,123926,184,25881
23.080,123930,194,25876
23.085,123943,188,25881
23.090,123905,183,25875
23.095,123894,193,25866
23.100,123854,191,25862
23.105,123832,189,25859
23.110,123789,188,25858
23.115,123759,187,25851
23.120,123718,186,25842
23.125,123679,187,25837
23.130,123645,185,25833
23.135,123569,188,25834
23.140,123595,190,25826
23.145,123576,187,25839
23.150,123567,187,25813
23.155,123542,185,25822
23.160,123523,185,25817
23.165,123513,184,25822
23.170,123492,194,25818
23.175,123486,193,25813
23.180,123479,193,25815
23.185,123469,186,25814
23.189,123456,185,25813
23.194,123458,185,25813
23.199,123442,184,25811
23.204,123439,194,25809
23.209,123421,192,25806
23.214,123433,192,25815
23.219,123415,191,25814
23.224,123418,190,25810
23.229,123423,189,25796
23.234,123414,184,25813
23.239,123420,183,25807
23.244,123402,195,25811
23.249,123410,193,25814
23.254,123395,192,25809
23.259,123405,192,25809
23.264,123396,193,25807
23.269,123394,192,25806
23.274,123403,190,25810
23.279,123390,188,25809
23.284,123387,193,25814
23.289,123386,192,25805
23.294,123386,190,25799
23.299,123378,189,25799
23.304,123373,187,25807
23.309,123378,186,25807
23.314,123384,184,25803
23.319,123390,183,25803
23.324,123375,194,25802
23.329,123376,184,25844
23.334,123377,190,25808
23.339,123397,189,25804
23.344,123405,188,25812
23.349,123409,187,25809
23.354,123411,186,25809
23.358,123411,185,25808
23.363,123419,185,25809
23.368,123409,183,25812
23.373,123410,193,25807
23.378,123413,184,25809
23.383,123421,188,25806
23.388,123421,187,25809
23.393,123422,186,25810
23.398,123413,184,25814
23.403,123414,184,25808
23.408,123421,194,25804
23.413,123419,193,25804
23.418,123431,192,25808
23.423,123430,192,25808
23.428,123420,184,25800
23.433,123425,184,25805
23.438,123426,183,25806
23.443,123430,195,25806
23.448,123423,194,25800
23.453,123419,193,25805
23.458,123430,192,25803
23.463,123427,192,25808
23.468,123427,191,25806
23.473,123427,190,25811
23.478,123440,194,25805
23.483,123444,193,25813
23.488,123443,193,25805
23.493,123451,191,25804
23.498,123463,190,25807
23.503,123455,190,25809
23.508,123457,188,25807
23.513,123450,189,25805
23.518,123473,188,25811
23.522,123460,187,25808
23.527,123463,192,25809
23.532,123472,191,25806
23.537,123485,190,25813
23.542,123485,189,25808
23.547,123485,189,25808
23.552,123503,189,25808
23.557,123508,187,25812
23.562,123516,186,25804
23.567,123513,186,25814
23.572,123520,185,25814
23.577,123513,189,25812
23.582,123531,188,25813
23.587,123526,186,25810
23.592,123554,186,25813
23.597,123542,185,25819
23.602,123551,185,25810
23.607,123555,184,25816
23.612,123560,183,25816
23.617,123573,194,25818
23.622,123584,179,25817
23.627,123567,186,25818
23.632,123579,185,25824
23.637,123581,185,25816
23.642,123594,185,25816
23.647,123602,183,25822
23.652,123604,183,25821
23.657,123618,193,25817
23.662,123628,192,25819
23.667,123621,190,25820
23.672,123632,183,25824
23.677,123631,183,25822
23.682,123646,194,25822
23.686,123645,193,25819
23.691,123653,192,25821
23.696,123667,190,25819
23.701,123673,190,25822
23.706,123681,189,25821
23.711,123691,189,25826
23.716,123685,187,25824
23.721,123708,179,25873
23.726,123706,192,25822
23.731,123713,191,25826
23.736,123713,190,25826
23.741,123718,190,25830
23.746,123716,189,25825
23.751,123726,189,25826
23.756,123728,188,25834
23.761,123733,187,25827
23.766,123740,186,25828
23.771,123741,190,25825
23.776,123749,189,25831
23.781,123758,189,25829
23.786,123755,189,25827
23.791,123768,189,25825
23.796,123768,188,25823
23.801,123778,189,25822
23.806,123785,188,25828
23.811,123778,188,25823
23.816,123791,188,25825
23.821,123787,193,25827
23.826,123788,193,25820
23.831,123805,193,25821
23.836,123794,191,25824
23.841,123816,191,25826
23.846,123792,191,25816
23.850,123807,190,25816
23.855,123802,190,25812
23.860,123801,190,25807
23.865,123800,192,25831
23.870,123797,193,25814
23.875,123794,193,25810
23.880,123809,193,25809
23.885,123816,193,25808
23.890,123802,191,25809
23.895,123813,191,25805
23.900,123804,191,25805
23.905,123797,190,25803
23.910,123812,189,25798
23.915,123811,192,25794
23.920,123812,192,25799
23.925,123796,192,25791
23.930,123806,191,25788
23.935,123791,189,25785
23.940,123788,189,25780
23.945,123784,188,25777
23.950,123761,188,25762
23.955,123763,187,25761
23.960,123755,186,25761
23.965,123736,190,25744
23.970,123731,190,25739
23.975,123727,189,25734
23.980,123715,188,25735
23.985,123712,188,25715
23.990,123695,186,25713
23.995,123688,185,25703
24.000,123679,184,25697
24.005,123669,195,25687
24.010,123657,192,25678
24.014,123648,185,25677
24.019,123658,180,25669
24.024,123634,193,25661
24.029,123633,191,25653
24.034,123630,190,25642
24.039,123615,189,25637
24.044,123617,188,25629
24.049,123608,187,25628
24.054,123604,185,25619
24.059,123630,185,25623
24.064,123608,189,25616
24.069,123627,188,25612
24.074,123639,187,25612
24.079,123646,186,25612
24.084,123654,185,25614
24.089,123658,183,25616
24.094,123692,194,25611
24.099,123684,192,25613
24.104,123702,192,25610
24.109,123702,192,25599
24.114,123723,184,25611
24.119,123739,182,25618
24.124,123738,194,25609
24.129,123762,193,25610
24.134,123754,194,25612
24.139,123771,192,25608
24.144,123765,192,25608
24.149,123758,190,25607
24.154,123723,190,25598
24.159,123716,193,25590
24.164,123657,188,25585
24.169,123620,186,25578
24.174,123582,185,25577
24.178,123542,184,25565
24.183,123506,183,25557
24.188,123457,193,25553
24.193,123443,192,25545
24.198,123406,191,25538
24.203,123373,191,25539
24.208,123326,183,25531
24.213,123312,183,25532
24.218,123288,194,25518
24.223,123263,194,25523
24.228,123261,193,25510
24.233,123245,193,25517
24.238,123228,192,25510
24.243,123211,192,25511
24.248,123194,192,25501
24.253,123177,191,25506
24.258,123173,183,25498
24.263,123168,183,25502
24.268,123164,193,25496
24.273,123166,192,25493
24.278,123158,192,25495
24.283,123144,192,25494
24.288,123147,191,25490
24.293,123149,190,25491
24.298,123147,191,25492
24.303,123144,194,25491
24.308,123145,188,25476
24.313,123137,188,25484
24.318,123134,188,25476
24.323,123133,187,25473
24.328,123126,187,25479
24.333,123129,186,25474
24.338,123131,184,25473
24.342,123126,195,25468
24.347,123121,192,25467
24.352,123122,191,25461
24.357,123127,188,25465
24.362,123118,187,25464
24.367,123118,186,25464
24.372,123120,185,25467
24.377,123132,184,25467
24.382,123139,183,25463
24.387,123126,193,25465
24.392,123136,193,25466
24.397,123149,192,25479
24.402,123153,181,25466
24.407,123176,184,25467
24.412,123173,184,25470
24.417,123173,194,25471
24.422,123174,193,25466
24.427,123176,192,25467
24.432,123183,192,25474
24.437,123180,190,25475
24.442,123195,189,25466
24.447,123187,189,25468
24.452,123208,193,25471
24.457,123202,188,25473
24.462,123207,187,25470
24.467,123198,187,25475
24.472,123217,186,25473
24.477,123204,185,25473
24.482,123197,185,25465
24.487,123205,185,25467
24.492,123204,184,25473
24.497,123218,183,25471
24.502,123196,188,25472
24.506,123207,187,25477
24.511,123203,185,25472
24.516,123211,184,25469
24.521,123219,183,25471
24.526,123216,193,25473
24.531,123222,192,25478
24.536,123229,191,25479
24.541,123218,191,25458
24.546,123236,190,25459
24.551,123250,183,25478
24.556,123248,183,25475
24.561,123258,193,25477
24.566,123256,191,25474
24.571,123261,190,25480
24.576,123272,189,25480
24.581,123268,189,25479
24.586,123279,188,25476
24.591,123270,188,25476
24.596,123299,187,25479
24.601,123300,192,25479
24.606,123283,191,25476
24.611,123297,190,25484
24.616,123308,189,25478
24.621,123318,187,25483
24.626,123318,185,25485
24.631,123319,184,25485
24.636,123323,194,25484
24.641,123337,193,25481
24.646,123332,185,25554
24.651,123342,186,25487
24.656,123348,186,25485
24.661,123362,187,25489
24.666,123368,188,25488
24.670,123374,187,25488
24.675,123385,188,25485
24.680,123393,188,25500
24.685,123387,188,25496
24.690,123404,188,25502
24.695,123396,190,25493
24.700,123412,193,25493
24.705,123421,191,25493
24.710,123424,190,25499
24.715,123440,188,25498
24.720,123447,188,25495
24.725,123449,187,25500
24.730,123453,186,25506
24.735,123458,185,25503
24.740,123476,183,25494
24.745,123473,186,25501
24.750,123490,186,25501
24.755,123497,185,25510
24.760,123508,184,25505
24.765,123505,183,25505
24.770,123516,193,25512
24.775,123516,192,25510
24.780,123545,190,25517
24.785,123539,190,25514
24.790,123551,189,25517
24.795,123546,192,25516
24.800,123565,191,25520
24.805,123574,191,25523
24.810,123589,190,25525
24.815,123582,189,25528
24.820,123606,188,25532
24.825,123616,188,25521
24.830,123621,187,25532
24.834,123627,187,25536
24.839,123644,185,25535
24.844,123651,184,25540
24.849,123654,194,25539
24.854,123671,192,25541
24.859,123684,190,25547
24.864,123696,189,25546
24.869,123690,187,25545
24.874,123717,186,25551
24.879,123724,185,25555
24.884,123728,184,25558
24.889,123751,184,25559
24.894,123760,187,25559
24.899,123769,186,25563
24.904,123786,185,25565
24.909,123795,185,25565
24.914,123794,184,25572
24.919,123807,184,25572
24.924,123821,184,25572
24.929,123832,183,25572
24.934,123836,194,25577
24.939,123861,187,25569
24.944,123865,187,25582
24.949,123880,185,25588
24.954,123886,184,25597
24.959,123892,183,25576
24.964,123907,195,25593
24.969,123907,192,25601
24.974,123925,191,25600
24.979,123928,189,25602
24.984,123935,189,25598
24.989,123937,193,25596
24.994,123954,192,25605
24.998,123972,190,25611
25.003,123968,190,25611
25.008,123993,189,25617
25.013,124004,189,25617
25.018,124004,168,25633
25.023,124015,185,25623
25.028,124026,185,25626
25.033,124042,185,25630
25.038,124044,187,25635
25.043,124055,187,25634
25.048,124074,186,25634
25.053,124090,184,25639
25.058,124106,183,25644
25.063,124117,195,25643
25.068,124128,192,25648
25.073,124137,191,25656
25.078,124163,190,25652
25.083,124163,191,25662
25.088,124177,194,25662
25.093,124183,193,25676
25.098,124206,192,25660
25.103,124203,191,25674
25.108,124219,190,25675
25.113,124222,188,25679
25.118,124238,189,25681
25.123,124256,189,25680
25.128,124252,190,25687
25.133,124272,189,25695
25.138,124262,192,25696
25.143,124282,191,25693
25.148,124280,189,25695
25.153,124295,188,25697
25.158,124303,186,25707
25.162,124318,185,25698
25.167,124316,194,25705
25.172,124334,192,25710
25.177,124347,189,25716
25.182,124354,191,25665
25.187,124371,192,25716
25.192,124387,190,25721
25.197,124408,188,25722
25.202,124418,186,25726
25.207,124418,184,25729
25.212,124434,195,25730
25.217,124413,192,25727
25.222,124396,191,25727
25.227,124366,189,25720
25.232,124346,192,25714
25.237,124309,185,25719
25.242,124280,195,25710
25.247,124239,194,25713
25.252,124206,193,25707
25.257,124188,191,25703
25.262,124152,191,25705
25.267,124134,189,25704
25.272,124099,187,25705
25.277,124077,187,25700
25.282,124067,193,25715
25.287,124050,183,25701
25.292,124025,194,25701
25.297,124011,192,25704
25.302,123992,190,25702
25.307,123996,189,25704
25.312,123989,188,25707
25.317,123966,186,25704
25.322,123982,184,25708
25.326,123961,193,25711
25.331,123959,189,25715
25.336,123940,188,25716
25.341,123944,187,25720
25.346,123942,186,25713
25.351,123933,185,25721
25.356,123945,184,25719
25.361,123942,184,25724
25.366,123935,194,25725
25.371,123943,192,25735
25.376,123944,191,25735
25.381,123929,189,25729
25.386,123923,188,25729
25.391,123920,186,25732
25.396,123931,185,25729
25.401,123922,185,25729
25.406,123913,184,25728
25.411,123927,194,25737
25.416,123911,192,25736
25.421,123912,191,25730
25.426,123900,191,25734
25.431,123914,193,25736
25.436,123901,193,25739
25.441,123897,192,25741
25.446,123896,191,25743
25.451,123886,190,25743
25.456,123886,189,25739
25.461,123896,189,25748
25.466,123901,189,25741
25.471,123883,187,25743
25.476,123901,184,25744
25.481,123888,191,25739
25.486,123894,190,25741
25.490,123881,188,25745
25.495,123872,187,25739
25.500,123877,186,25737
25.505,123855,185,25742
25.510,123861,184,25748
25.515,123843,195,25744
25.520,123848,192,25733
25.525,123854,186,25736
25.530,123827,189,25733
25.535,123827,188,25737
25.540,123813,187,25735
25.545,123799,186,25733
25.550,123800,184,25733
25.555,123785,183,25732
25.560,123786,194,25733
25.565,123761,194,25723
25.570,123764,192,25724
25.575,123745,184,25727
25.580,123747,184,25724
25.585,123729,194,25726
25.590,123714,193,25725
25.595,123708,191,25714
25.600,123696,190,25712
25.605,123705,190,25707
25.610,123681,188,25710
25.615,123682,187,25710
25.620,123666,185,25709
25.625,123659,190,25705
25.630,123650,187,25702
25.635,123646,187,25700
25.640,123628,185,25699
25.645,123639,185,25702
25.650,123630,183,25706
25.654,123623,194,25707
25.659,123621,192,25700
25.664,123594,192,25694
25.669,123600,190,25694
25.674,123591,193,25693
25.679,123587,191,25687
25.684,123585,191,25685
25.689,123568,189,25687
25.694,123571,188,25687
25.699,123570,187,25687
25.704,123556,187,25680
25.709,123541,185,25677
25.714,123547,184,25682
25.719,123555,187,25669
25.724,123538,186,25671
25.729,123534,185,25671
25.734,123526,194,25666
25.739,123528,192,25673
25.744,123519,190,25663
25.749,123506,187,25666
25.754,123509,185,25663
25.759,123499,195,25656
25.764,123503,192,25657
25.769,123512,184,25658
25.774,123495,195,25657
25.779,123485,192,25656
25.784,123479,191,25658
25.789,123488,187,25662
25.794,123478,186,25659
25.799,123498,184,25649
25.804,123476,195,25654
25.809,123486,193,25648
25.814,123494,192,25648
25.818,123501,185,25666
25.823,123498,188,25652
25.828,123486,186,25651
25.833,123498,184,25649
25.838,123492,183,25643
25.843,123491,193,25646
25.848,123482,191,25642
25.853,123484,189,25641
25.858,123487,187,25635
25.863,123482,185,25635
25.868,123487,188,25639
25.873,123481,187,25634
25.878,123483,185,25638
25.883,123487,184,25636
25.888,123484,183,25641
25.893,123487,194,25634
25.898,123487,192,25640
25.903,123496,192,25634
25.908,123491,190,25631
25.913,123491,189,25626
25.918,123476,192,25636
25.923,123484,191,25631
25.928,123498,189,25633
25.933,123483,189,25636
25.938,123487,188,25628
25.943,123490,187,25634
25.948,123486,185,25631
25.953,123499,184,25626
25.958,123494,194,25631
25.963,123505,193,25623
25.968,123506,190,25625
25.973,123491,190,25626
25.978,123509,189,25632
25.982,123525,189,25626
25.987,123522,188,25628
25.992,123533,188,25631
25.997,123543,186,25628
26.002,123542,185,25634
26.007,123564,184,25633
26.012,123563,182,25635
26.017,123576,187,25639
26.022,123586,185,25639
26.027,123581,184,25640
26.032,123581,183,25634
26.037,123596,182,25631
26.042,123604,193,25643
26.047,123611,192,25646
26.052,123616,191,25636
26.057,123626,189,25650
26.062,123643,193,25650
26.067,123652,192,25660
26.072,123661,191,25653
26.077,123672,190,25652
26.082,123666,189,25653
26.087,123672,188,25658
26.092,123656,188,25651
26.097,123634,185,25649
26.102,123618,184,25644
26.107,123575,193,25632
26.112,123538,187,25630
26.117,123513,186,25621
26.122,123467,185,25627
26.127,123412,187,25614
26.132,123399,184,25617
26.137,123363,195,25604
26.142,123341,194,25606
26.146,123316,192,25606
26.151,123295,190,25608
26.156,123276,189,25606
26.161,123244,193,25597
26.166,123225,192,25597
26.171,123197,191,25598
26.176,123195,190,25595
26.181,123181,189,25599
26.186,123159,188,25596
26.191,123152,187,25592
26.196,123134,185,25596
26.201,123113,185,25594
26.206,123110,184,25596
26.211,123084,187,25594
26.216,123076,187,25586
26.221,123079,187,25588
26.226,123057,186,25588
26.231,123039,185,25585
26.236,123040,185,25583
26.241,123015,184,25594
26.246,123009,194,25585
26.251,123004,193,25581
26.256,122999,197,25573
26.261,122980,184,25584
26.266,122964,195,25578
26.271,122972,192,25576
26.276,122949,191,25576
26.281,122946,189,25574
26.286,122933,188,25576
26.291,122924,186,25575
26.296,122922,184,25570
26.301,122907,195,25570
26.306,122899,186,25573
26.310,122906,185,25573
26.315,122897,183,25575
26.320,122891,192,25570
26.325,122877,190,25565
26.330,122877,187,25566
26.335,122890,186,25566
26.340,122891,184,25569
26.345,122889,193,25570
26.350,122884,190,25573
26.355,122890,184,25569
26.360,122882,187,25565
26.365,122874,186,25565
26.370,122864,184,25566
26.375,122861,193,25559
26.380,122845,190,25563
26.385,122843,189,25557
26.390,122833,186,25556
26.395,122837,184,25556
26.400,122817,193,25545
26.405,122807,185,25551
26.410,122803,194,25547
26.415,122793,190,25555
26.420,122791,188,25544
26.425,122772,186,25546
26.430,122784,184,25544
26.435,122771,194,25540
26.440,122775,192,25537
26.445,122756,190,25537
26.450,122756,188,25536
26.455,122741,191,25538
26.460,122743,190,25537
26.465,122737,188,25534
26.470,122730,186,25542
26.474,122732,185,25539
26.479,122724,183,25534
26.484,122725,194,25538
26.489,122717,194,25541
26.494,122719,192,25528
26.499,122711,191,25529
26.504,122703,183,25530
26.509,122696,194,25533
26.514,122694,193,25533
26.519,122693,191,25527
26.524,122686,189,25526
26.529,122685,188,25529
26.534,122686,187,25523
26.539,122678,186,25528
26.544,122677,186,25523
26.549,122686,184,25528
26.554,122675,189,25524
26.559,122668,188,25522
26.564,122675,186,25528
26.569,122661,185,25529
26.574,122678,184,25527
26.579,122675,184,25528
26.584,122665,183,25523
26.589,122665,193,25527
26.594,122681,192,25528
26.599,122691,184,25526
26.604,122672,194,25527
26.609,122678,192,25528
26.614,122671,191,25532
26.619,122698,190,25531
26.624,122698,188,25527
26.629,122700,186,25536
26.634,122718,185,25535
26.638,122713,183,25539
26.643,122734,192,25532
26.648,122749,191,25538
26.653,122734,191,25536
26.658,122743,189,25542
26.663,122747,189,25540
26.668,122759,188,25543
26.673,122766,186,25542
26.678,122766,185,25543
26.683,122778,195,25551
26.688,122781,192,25550
26.693,122775,191,25546
26.698,122788,188,25550
26.703,122808,186,25553
26.708,122806,184,25557
26.713,122816,194,25553
26.718,122826,192,25556
26.723,122837,191,25553
26.728,122838,190,25562
26.733,122850,189,25560
26.738,122849,188,25566
26.743,122851,187,25566
26.748,122879,190,25568
26.753,122883,189,25570
26.758,122887,187,25570
26.763,122901,187,25583
26.768,122905,186,25570
26.773,122913,186,25574
26.778,122912,184,25580
26.783,122942,184,25579
26.788,122962,194,25584
26.793,122960,186,25586
26.798,122967,184,25580
26.802,122980,195,25587
26.807,122993,193,25590
26.812,123006,192,25592
26.817,123002,191,25588
26.822,122997,191,25592
26.827,123014,190,25592
26.832,123010,189,25593
26.837,122996,187,25585
26.842,122969,191,25577
26.847,122943,191,25577
26.852,122911,190,25574
26.857,122879,188,25567
26.862,122849,188,25566
26.867,122815,185,25560
26.872,122790,184,25561
26.877,122754,193,25553
26.882,122730,192,25559
26.887,122696,190,25551
26.892,122676,194,25549
26.897,122664,193,25549
26.902,122628,191,25554
26.907,122615,190,25536
26.912,122595,188,25547
26.917,122567,187,25545
26.922,122568,185,25540
26.927,122543,183,25541
26.932,122520,194,25538
26.937,122505,192,25534
26.942,122497,184,25538
26.947,122492,194,25538
26.952,122464,192,25534
26.957,122472,189,25539
26.962,122454,188,25528
26.966,122453,186,25534
26.971,122451,185,25538
26.976,122441,184,25523
26.981,122442,194,25534
26.986,122440,192,25531
26.991,122425,187,25533
26.996,122418,186,25530
27.001,122405,186,25529
27.006,122393,185,25526
27.011,122381,184,25521
27.016,122389,195,25524
27.021,122389,189,25529
27.026,122375,190,25526
27.031,122376,189,25526
27.036,122376,189,25542
27.041,122364,192,25534
27.046,122355,192,25523
27.051,122365,191,25525
27.056,122361,189,25523
27.061,122345,188,25522
27.066,122348,188,25523
27.071,122354,186,25522
27.076,122366,185,25523
27.081,122377,184,25525
27.086,122368,186,25523
27.091,122377,191,25525
27.096,122388,189,25530
27.101,122395,188,25538
27.106,122388,185,25529
27.111,122402,183,25539
27.116,122411,193,25536
27.121,122397,191,25524
27.126,122456,199,25524
27.130,122409,189,25530
27.135,122400,193,25527
27.140,122406,191,25529
27.145,122393,189,25526
27.150,122383,187,25533
27.155,122396,185,25530
27.160,122385,183,25526
27.165,122395,194,25529
27.170,122401,192,25534
27.175,122401,190,25527
27.180,122394,187,25535
27.185,122405,191,25528
27.190,122397,189,25531
27.195,122398,188,25534
27.200,122399,186,25536
27.205,122392,185,25524
27.210,122391,185,25533
27.215,122391,183,25529
27.220,122406,194,25529
27.225,122407,193,25532
27.230,122403,191,25530
27.235,122409,184,25535
27.240,122403,183,25535
27.245,122414,193,25535
27.250,122405,191,25531
27.255,122410,191,25533
27.260,122414,188,25531
27.265,122427,188,25534
27.270,122418,187,25531
27.275,122428,186,25537
27.280,122430,184,25542
27.285,122434,189,25535
27.290,122445,187,25535
27.294,122449,186,25537
27.299,122457,184,25544
27.304,122450,183,25540
27.309,122463,193,25544
27.314,122459,191,25538
27.319,122458,189,25545
27.324,122464,188,25541
27.329,122474,192,25535
27.334,122500,191,25540
27.339,122501,194,25548
27.344,122509,191,25543
27.349,122512,188,25550
27.354,122513,186,25549
27.359,122522,185,25548
27.364,122526,183,25552
27.369,122548,192,25556
27.374,122544,191,25558
27.379,122563,193,25557
27.384,122577,193,25553
27.389,122591,191,25558
27.394,122599,191,25561
27.399,122598,190,25565
27.404,122627,189,25567
27.409,122630,187,25570
27.414,122645,186,25569
27.419,122658,184,25569
27.424,122670,183,25572
27.429,122692,187,25576
27.434,122688,186,25583
27.439,122702,185,25580
27.444,122710,184,25583
27.449,122730,194,25580
27.454,122751,193,25589
27.458,122761,192,25591
27.463,122777,191,25593
27.468,122777,189,25589
27.473,122788,188,25584
27.478,122810,192,25591
27.483,122819,189,25597
27.488,122819,187,25594
27.493,122830,186,25600
27.498,122841,185,25602
27.503,122852,195,25599
27.508,122869,193,25605
27.513,122877,192,25605
27.518,122901,190,25610
27.523,122907,189,25609
27.528,122919,192,25613
27.533,122917,190,25615
27.538,122916,188,25611
27.543,122940,186,25617
27.548,122948,185,25619
27.553,122955,184,25613
27.558,122965,194,25617
27.563,122942,191,25611
27.568,122933,188,25606
27.573,122902,187,25628
27.578,122873,191,25598
27.583,122834,188,25593
27.588,122799,186,25585
27.593,122749,184,25585
27.598,122712,193,25584
27.603,122669,191,25572
27.608,122614,190,25565
27.613,122588,188,25561
27.618,122547,186,25561
27.622,122487,184,25552
27.627,122458,188,25549
27.632,122438,185,25550
27.637,122404,184,25546
27.642,122382,194,25535
27.647,122353,193,25537
27.652,122337,191,25533
27.657,122308,190,25526
27.662,122300,188,25530
27.667,122292,188,25526
27.672,122267,190,25524
27.677,122264,189,25526
27.682,122239,188,25519
27.687,122233,186,25524
27.692,122230,185,25523
27.697,122217,183,25519
27.702,122209,193,25526
27.707,122199,191,25517
27.712,122199,189,25518
27.717,122176,187,25517
27.722,122173,192,25523
27.727,122163,190,25511
27.732,122172,187,25517
27.737,122154,184,25524
27.742,122156,194,25522
27.747,122147,191,25521
27.752,122152,188,25515
27.757,122119,187,25524
27.762,122125,185,25517
27.767,122110,195,25521
27.772,122110,191,25515
27.777,122092,188,25511
27.782,122092,185,25508
27.786,122074,183,25505
27.791,122057,192,25508
27.796,122057,189,25508
27.801,122030,187,25500
27.806,122028,186,25504
27.811,122043,193,25501
27.816,122037,189,25504
27.821,122011,191,25506
27.826,122011,188,25503
27.831,121989,184,25497
27.836,121993,193,25495
27.841,121970,189,25494
27.846,121974,187,25491
27.851,121960,184,25489
27.856,121953,195,25485
27.861,121930,191,25482
27.866,121939,192,25453
27.871,121922,193,25486
27.876,121935,190,25488
27.881,121913,189,25485
27.886,121920,187,25481
27.891,121920,185,25480
27.896,121910,194,25485
27.901,121905,191,25485
27.906,121905,189,25480
27.911,121907,186,25478
27.916,121925,187,25459
27.921,121922,190,25481
27.926,121922,188,25478
27.931,121930,187,25487
27.936,121922,185,25482
27.941,121930,194,25483
27.946,121927,191,25482
27.950,121948,188,25487
27.955,121936,187,25484
27.960,121947,184,25485
27.965,121948,187,25482
27.970,121957,184,25489
27.975,121949,194,25485
27.980,121958,190,25487
27.985,121971,187,25493
27.990,121960,186,25486
27.995,121956,195,25492
28.000,121961,191,25491
28.005,121967,189,25496
28.010,121979,185,25497
28.015,121978,189,25495
28.020,121986,187,25497
28.025,121999,183,25495
28.030,122001,192,25494
28.035,122013,190,25495
28.040,122006,187,25503
28.045,122022,185,25500
28.050,122026,183,25503
28.055,122029,192,25494
28.060,122050,187,25496
28.065,122054,193,25501
28.070,122051,189,25493
28.075,122067,188,25501
28.080,122057,185,25504
28.085,122073,184,25504
28.090,122097,193,25504
28.095,122088,189,25503
28.100,122095,187,25507
28.105,122103,185,25507
28.110,122117,183,25510
28.114,122134,186,25513
28.119,122132,184,25512
28.124,122147,183,25510
28.129,122138,194,25505
28.134,122162,191,25520
28.139,122159,188,25519
28.144,122172,186,25519
28.149,122172,194,25515
28.154,122184,191,25521
28.159,122186,195,25514
28.164,122204,193,25520
28.169,122204,191,25519
28.174,122217,189,25522
28.179,122225,188,25523
28.184,122236,187,25522
28.189,122222,187,25520
28.194,122233,185,25519
28.199,122244,184,25523
28.204,122237,183,25517
28.209,122256,187,25523
28.214,122254,191,25527
28.219,122260,191,25522
28.224,122271,190,25523
28.229,122278,187,25523
28.234,122299,187,25525
28.239,122295,185,25529
28.244,122301,185,25529
28.249,122317,183,25529
28.254,122312,195,25530
28.259,122323,188,25549
28.264,122334,185,25529
28.269,122329,184,25533
28.274,122337,183,25539
28.278,122349,183,25530
28.283,122356,194,25537
28.288,122358,194,25535
28.293,122378,192,25540
28.298,122365,192,25527
28.303,122391,191,25523
28.308,122386,184,25544
28.313,122406,183,25544
28.318,122413,183,25545
28.323,122408,193,25537
28.328,122438,193,25540
28.333,122433,193,25541
28.338,122431,191,25543
28.343,122438,191,25540
28.348,122415,189,25542
28.353,122413,188,25538
28.358,122363,191,25531
28.363,122339,190,25524
28.368,122285,190,25516
28.373,122235,189,25507
28.378,122211,189,25504
28.383,122152,189,25503
28.388,122115,188,25494
28.393,122080,187,25490
28.398,122042,187,25488
28.403,122002,188,25546
28.408,121962,190,25475
28.413,121941,188,25479
28.418,121915,187,25473
28.423,121885,187,25469
28.428,121852,186,25470
28.433,121834,185,25478
28.438,121822,185,25470
28.442,121804,183,25460
28.447,121777,183,25463
28.452,121752,186,25463
28.457,121761,191,25458
28.462,121746,191,25458
28.467,121738,190,25454
28.472,121727,189,25453
28.477,121709,188,25455
28.482,121711,187,25462
28.487,121699,186,25458
28.492,121692,184,25450
28.497,121698,195,25445
28.502,121688,186,25454
28.507,121678,186,25455
28.512,121668,185,25450
28.517,121661,185,25453
28.522,121650,184,25454
28.527,121646,184,25455
28.532,121641,183,25454
28.537,121633,194,25452
28.542,121623,192,25448
28.547,121624,191,25448
28.552,121616,183,25446
28.557,121608,194,25445
28.562,121613,193,25441
28.567,121588,193,25447
28.572,121598,192,25447
28.577,121597,191,25445
28.582,121594,191,25444
28.587,121605,190,25443
28.592,121613,190,25446
28.597,121604,190,25446
28.602,121622,183,25450
28.606,121632,194,25452
28.611,121650,194,25448
28.616,121648,194,25456
28.621,121651,183,25459
28.626,121646,183,25458
28.631,121658,194,25452
28.636,121656,194,25458
28.641,121661,193,25461
28.646,121658,195,25452
28.651,121658,187,25460
28.656,121664,187,25458
28.661,121661,187,25462
28.666,121654,187,25462
28.671,121654,186,25460
28.676,121656,186,25456
28.681,121658,185,25455
28.686,121676,186,25455
28.691,121668,186,25460
28.696,121661,184,25460
28.701,121676,189,25460
28.706,121661,189,25458
28.711,121668,188,25470
28.716,121660,187,25456
28.721,121658,187,25457
28.726,121675,187,25460
28.731,121676,186,25458
28.736,121692,184,25464
28.741,121697,183,25468
28.746,121689,188,25465
28.751,121684,187,25465
28.756,121699,188,25465
28.761,121706,186,25463
28.766,121713,185,25467
28.770,121710,184,25465
28.775,121713,183,25464
28.780,121729,193,25467
28.785,121725,193,25470
28.790,121734,192,25471
28.795,121759,182,25466
28.800,121764,189,25477
28.805,121760,189,25472
28.810,121767,188,25480
28.815,121767,187,25472
28.820,121774,186,25480
28.825,121791,185,25480
28.830,121796,184,25478
28.835,121807,184,25480
28.840,121801,183,25481
28.845,121813,187,25480
28.850,121837,187,25476
28.855,121835,186,25483
28.860,121841,185,25486
28.865,121850,185,25486
28.870,121856,184,25487
28.875,121866,184,25489
28.880,121885,195,25493
28.885,121896,193,25492
28.890,121897,192,25493
28.895,121899,191,25495
28.900,121923,188,25498
28.905,121934,187,25494
28.910,121938,185,25501
28.915,121934,184,25504
28.920,121952,183,25499
28.925,121966,193,25499
28.930,121974,192,25504
28.934,121980,190,25506
28.939,121989,192,25521
28.944,121995,193,25504
28.949,122018,191,25510
28.954,122018,189,25510
28.959,122019,187,25513
28.964,122042,186,25512
28.969,122050,184,25513
28.974,122054,183,25513
28.979,122053,194,25516
28.984,122076,193,25518
28.989,122060,185,25517
28.994,122100,183,25523
28.999,122091,192,25519
29.004,122095,191,25521
29.009,122120,190,25523
29.014,122125,189,25521
29.019,122131,187,25526
29.024,122146,183,25531
29.029,122150,183,25527
29.034,122147,183,25537
29.039,122161,186,25529
29.044,122180,185,25532
29.049,122177,184,25532
29.054,122188,193,25534
29.059,122205,191,25535
29.064,122205,189,25536
29.069,122214,187,25536
29.074,122209,186,25541
29.079,122228,185,25541
29.084,122243,183,25528
29.089,122250,189,25538
29.094,122251,187,25543
29.098,122256,186,25542
29.103,122268,184,25544
29.108,122284,183,25545
29.113,122281,193,25540
29.118,122291,191,25548
29.123,122300,190,25545
29.128,122313,192,25550
29.133,122315,188,25559
29.138,122330,192,25553
29.143,122332,191,25547
29.148,122332,191,25550
29.153,122337,188,25549
29.158,122368,187,25557
29.163,122362,184,25558
29.168,122380,183,25554
29.173,122395,193,25563
29.178,122390,192,25560
29.183,122405,189,25587
29.188,122408,193,25563
29.193,122415,190,25562
29.198,122425,189,25560
29.203,122428,187,25560
29.208,122417,186,25563
29.213,122410,184,25555
29.218,122387,195,25549
29.223,122347,192,25547
29.228,122314,192,25537
29.233,122239,190,25534
29.238,122219,193,25528
29.243,122176,191,25523
29.248,122125,190,25511
29.253,122081,188,25512
29.258,122046,187,25507
29.262,122024,185,25506
29.267,121997,185,25500
29.272,121962,184,25502
29.277,121929,194,25496
29.282,121936,187,25495
29.287,121881,191,25491
29.292,121876,188,25492
29.297,121850,187,25480
29.302,121824,185,25485
29.307,121814,195,25484
29.312,121801,191,25483
29.317,121789,189,25477
29.322,121788,186,25474
29.327,121769,184,25474
29.332,121764,187,25481
29.337,121750,186,25483
29.342,121738,184,25479
29.347,121735,195,25472
29.352,121730,192,25477
29.357,121719,191,25475
29.362,121717,188,25475
29.367,121722,186,25480
29.372,121708,185,25478
29.377,121704,183,25476
29.382,121699,186,25474
29.387,121698,185,25474
29.392,121700,183,25477
29.397,121683,193,25472
29.402,121658,190,25471
29.407,121679,189,25479
29.412,121660,188,25451
29.417,121668,187,25475
29.422,121667,185,25472
29.426,121652,184,25476
29.431,121638,188,25474
29.436,121649,186,25468
29.441,121654,185,25472
29.446,121648,184,25479
29.451,121650,194,25472
29.456,121655,192,25474
29.461,121661,190,25474
29.466,121683,189,25474
29.471,121677,185,25479
29.476,121686,189,25473
29.481,121694,187,25475
29.486,121697,184,25481
29.491,121703,193,25480
29.496,121685,192,25481
29.501,121694,190,25478
29.506,121702,189,25481
29.511,121695,187,25485
29.516,121703,186,25480
29.521,121708,184,25478
29.526,121711,187,25482
29.531,121696,188,25480
29.536,121710,186,25481
29.541,121718,184,25484
29.546,121723,183,25489
29.551,121706,194,25485
29.556,121729,192,25487
29.561,121713,191,25488
29.566,121709,189,25483
29.571,121722,187,25486
29.576,121746,193,25500
29.581,121727,183,25490
29.586,121723,193,25490
29.590,121729,192,25490
29.595,121742,192,25495
29.600,121739,189,25487
29.605,121750,188,25492
29.610,121745,185,25493
29.615,121763,184,25489
29.620,121761,194,25493
29.625,121776,185,25489
29.630,121772,184,25498
29.635,121782,193,25495
29.640,121790,192,25492
29.645,121797,190,25493
29.650,121792,188,25498
29.655,121818,186,25501
29.660,121812,184,25501
29.665,121826,184,25504
29.670,121831,193,25504
29.675,121846,190,25510
29.680,121840,188,25506
29.685,121847,187,25514
29.690,121862,187,25513
29.695,121861,186,25515
29.700,121877,185,25509
29.705,121886,184,25511
29.710,121885,195,25517
29.715,121905,193,25510
29.720,121901,192,25517
29.725,121918,184,25515
29.730,121925,183,25521
29.735,121927,193,25524
29.740,121951,192,25521
29.745,121955,190,25525
29.750,121956,190,25523
29.754,121971,188,25531
29.759,121998,187,25528
29.764,121985,185,25527
29.769,121999,182,25525
29.774,122016,188,25531
29.779,122021,187,25537
29.784,122025,185,25532
29.789,122034,184,25535
29.794,122044,194,25535
29.799,122048,192,25539
29.804,122063,191,25545
29.809,122073,191,25542
29.814,122087,190,25545
29.819,122091,194,25546
29.824,122099,192,25552
29.829,122117,192,25537
29.834,122121,191,25545
29.839,122120,190,25549
29.844,122136,190,25551
29.849,122147,190,25552
29.854,122153,189,25555
29.859,122163,189,25551
29.864,122164,187,25555
29.869,122176,191,25563
29.874,122184,190,25558
29.879,122189,189,25559
29.884,122212,188,25563
29.889,122205,187,25564
29.894,122212,185,25559
29.899,122230,184,25564
29.904,122228,195,25559
29.909,122247,193,25561
29.914,122247,193,25562
29.918,122258,185,25561
29.923,122255,194,25568
29.928,122264,193,25565
29.933,122272,191,25569
29.938,122287,189,25572
29.943,122297,187,25567
29.948,122292,185,25573
29.953,122308,183,25573
29.958,122306,192,25571
29.963,122339,190,25570
29.968,122323,194,25571
29.973,122334,193,25580
29.978,122345,192,25579
29.983,122344,190,25579
29.988,122351,190,25585
29.993,122367,188,25581
29.998,122372,187,25581
30.003,122375,185,25578
30.008,122393,184,25587
30.013,122389,187,25577
30.018,122394,193,25582
30.023,122417,185,25588
30.028,122408,188,25586
30.033,122419,186,25586
30.038,122437,185,25589
30.043,122451,184,25589
30.048,122441,183,25595
30.053,122446,193,25589
30.058,122466,190,25596
30.063,122477,193,25593
30.068,122475,188,25602
30.073,122470,186,25595
30.078,122499,185,25599
30.082,122502,184,25600
30.087,122500,183,25599
30.092,122524,194,25601
30.097,122526,192,25594
30.102,122535,190,25609
30.107,122547,189,25583
30.112,122553,193,25600
30.117,122552,193,25604
30.122,122539,192,25597
30.127,122518,191,25518
30.132,122474,191,25589
30.137,122437,189,25584
30.142,122401,189,25575
30.147,122346,187,25571
30.152,122308,185,25564
30.157,122262,184,25555
30.162,122234,187,25557
30.167,122197,186,25549
30.172,122158,184,25544
30.177,122134,194,25540
30.182,122112,192,25540
30.187,122088,191,25530
30.192,122054,189,25534
30.197,122048,188,25531
30.202,122039,186,25533
30.207,122029,186,25533
30.212,122000,189,25532
30.217,121987,187,25530
30.222,121970,186,25531
30.227,121964,185,25530
30.232,121964,184,25529
30.237,121950,194,25524
30.242,121951,191,25534
30.246,121941,191,25526
30.251,121944,190,25528
30.256,121934,189,25535
30.261,121940,192,25526
30.266,121915,191,25528
30.271,121923,190,25522
30.276,121906,188,25524
30.281,121921,187,25526
30.286,121915,187,25522
30.291,121906,186,25526
30.296,121902,184,25521
30.301,121903,194,25524
30.306,121900,184,25527
30.311,121903,189,25523
30.316,121898,187,25524
30.321,121880,185,25525
30.326,121892,183,25522
30.331,121884,192,25524
30.336,121880,190,25524
30.341,121883,187,25519
30.346,121884,186,25524
30.351,121883,184,25525
30.356,121895,187,25526
30.361,121904,185,25525
30.366,121905,183,25527
30.371,121921,193,25529
30.376,121920,190,25524
30.381,121934,187,25532
30.386,121937,186,25538
30.391,121950,184,25531
30.396,121941,194,25530
30.401,121946,191,25527
30.406,121944,181,25531
30.410,121934,187,25533
30.415,121941,186,25531
30.420,121956,185,25529
30.425,121939,184,25528
30.430,121950,194,25527
30.435,121952,193,25528
30.440,121947,191,25529
30.445,121946,188,25534
30.450,121942,187,25532
30.455,121914,184,25532
30.460,121956,184,25534
30.465,121968,194,25528
30.470,121963,193,25532
30.475,121956,192,25529
30.480,121952,190,25526
30.485,121959,188,25531
30.490,121958,187,25533
30.495,121957,186,25532
30.500,121975,184,25531
30.505,121996,188,25539
30.510,121984,186,25534
30.515,121986,184,25538
30.520,121996,194,25539
30.525,121991,191,25527
30.530,122011,191,25534
30.535,122003,190,25539
30.540,122021,187,25539
30.545,122031,186,25542
30.550,122036,190,25522
30.555,122030,188,25544
30.560,122052,187,25547
30.565,122060,185,25540
30.570,122058,185,25550
30.574,122060,194,25542
30.579,122068,193,25546
