df_hash,22ZHK4.A59L8C
device,HZ2X61
project_hash,29R7
project_name,istanbul_aydin_university
person_hash,29R7.FQLE
person_label,V55
date_time_start,2025-10-31_14-37-37.768000_+03
date_time_start_unix,1761907057.768
date_time_end,2025-10-31_14-46-18.487000_+03
length_difference_noticed,no

time,ppg_ir,ppg_ambient,ppg_red
5.492,139035,354,185844
5.497,166950,353,185848
5.502,166718,353,185845
5.507,166732,349,185846
5.512,166740,360,185858
5.517,166725,347,185860
5.522,166737,348,185850
5.527,166735,345,185860
5.532,166735,355,185862
5.537,166721,353,185858
5.542,166745,354,185879
5.547,166741,350,185852
5.552,166754,350,185869
5.556,166759,347,185871
5.561,166756,353,185874
5.566,166760,351,185862
5.571,166747,351,185885
5.576,166766,350,185874
5.581,166751,350,185890
5.586,166761,348,185869
5.591,166771,349,185892
5.596,166773,347,185872
5.601,166777,350,185896
5.606,166781,349,185888
5.611,166773,344,185898
5.616,166781,342,185888
5.621,166781,353,185885
5.626,166795,351,185889
5.631,166793,351,185890
5.636,166796,351,185898
5.641,166804,351,185906
5.646,166814,348,185894
5.651,166816,348,185907
5.656,166823,344,185909
5.661,166835,351,185908
5.666,166818,350,185916
5.671,166830,351,185921
5.676,166832,350,185918
5.681,166830,349,185914
5.686,166820,347,185909
5.691,166829,347,185912
5.696,166823,345,185892
5.701,166803,345,185882
5.706,166807,344,185890
5.711,166793,344,185864
5.716,166777,342,185862
5.720,166783,342,185871
5.725,166771,349,185864
5.730,166752,349,185849
5.735,166729,348,185846
5.740,166725,347,185837
5.745,166712,347,185836
5.750,166698,347,185827
5.755,166691,367,185819
5.760,166659,344,185817
5.765,166681,343,185819
5.770,166667,344,185803
5.775,166657,342,185787
5.780,166636,342,185821
5.785,166627,341,185805
5.790,166618,341,185800
5.795,166623,341,185806
5.800,166618,341,185798
5.805,166616,346,185796
5.810,166618,338,185788
5.815,166600,349,185793
5.820,166609,348,185787
5.825,166607,347,185795
5.830,166616,347,185798
5.835,166614,346,185803
5.840,166603,344,185810
5.845,166600,344,185806
5.850,166591,344,185804
5.855,166597,347,185802
5.860,166586,346,185786
5.865,166584,345,185795
5.870,166580,342,185784
5.875,166571,343,185780
5.880,166570,342,185780
5.885,166577,342,185771
5.889,166571,342,185774
5.894,166566,342,185771
5.899,166572,341,185781
5.904,166544,345,185778
5.909,166575,344,185772
5.914,166555,345,185784
5.919,166566,343,185781
5.924,166556,342,185768
5.929,166553,341,185793
5.934,166568,341,185779
5.939,166564,342,185775
5.944,166555,341,185788
5.949,166563,339,185779
5.954,166564,338,185781
5.959,166566,337,185770
5.964,166563,338,185783
5.969,166570,337,185768
5.974,166574,338,185775
5.979,166556,335,185777
5.984,166554,336,185769
5.989,166553,335,185778
5.994,166569,336,185785
5.999,166559,341,185774
6.004,166560,340,185780
6.009,166563,338,185774
6.014,166537,338,185764
6.019,166568,338,185770
6.024,166544,339,185786
6.029,166569,338,185763
6.034,166558,338,185772
6.039,166562,337,185770
6.044,166558,339,185774
6.049,166573,343,185761
6.053,166544,344,185757
6.058,166554,344,185791
6.063,166567,263,185759
6.068,166562,271,185775
6.073,166547,276,185770
6.078,166553,279,185778
6.083,166544,281,185768
6.088,166559,283,185782
6.093,166568,284,185774
6.098,166558,279,185769
6.103,166565,280,185775
6.108,166569,292,185776
6.113,166561,293,185763
6.118,166585,294,185780
6.123,166570,295,185777
6.128,166562,294,185768
6.133,166565,294,185769
6.138,166576,293,185788
6.143,166570,295,185784
6.148,166590,287,185773
6.153,166579,288,185786
6.158,166579,298,185775
6.163,166581,299,185783
6.168,166576,387,185763
6.173,166568,375,185766
6.178,166577,367,185771
6.183,166580,364,185782
6.188,166590,360,185773
6.193,166595,359,185769
6.198,166588,350,185769
6.203,166596,350,185775
6.208,166602,346,185777
6.213,166605,346,185781
6.217,166607,344,185782
6.222,166594,344,185789
6.227,166599,343,185777
6.232,166619,343,185776
6.237,166624,342,185772
6.242,166623,344,185786
6.247,166616,344,185780
6.252,166606,345,185777
6.257,166629,343,185799
6.262,166623,344,185787
6.267,166635,342,185777
6.272,166635,343,185786
6.277,166649,341,185792
6.282,166630,341,185789
6.287,166662,341,185794
6.292,166622,346,185798
6.297,166641,344,185800
6.302,166650,345,185797
6.307,166653,345,185777
6.312,166661,346,185787
6.317,166652,334,185795
6.322,166662,336,185798
6.327,166664,335,185793
6.332,166675,335,185784
6.337,166668,335,185805
6.342,166672,342,185790
6.347,166682,335,185793
6.352,166677,335,185807
6.357,166686,335,185811
6.362,166700,336,185814
6.367,166688,334,185813
6.372,166707,336,185797
6.377,166715,334,185804
6.381,166699,334,185810
6.386,166704,333,185801
6.391,166707,335,185817
6.396,166716,342,185827
6.401,166726,342,185820
6.406,166728,342,185821
6.411,166734,342,185811
6.416,166744,331,185832
6.421,166741,333,185816
6.426,166729,331,185808
6.431,166746,333,185826
6.436,166753,339,185811
6.441,166754,336,185821
6.446,166755,335,185838
6.451,166740,334,185823
6.456,166755,333,185826
6.461,166782,334,185830
6.466,166773,333,185827
6.471,166778,333,185816
6.476,166790,332,185821
6.481,166786,333,185825
6.486,166784,331,185822
6.491,166790,334,185832
6.496,166779,334,185841
6.501,166791,334,185835
6.506,166793,334,185822
6.511,166796,333,185826
6.516,166798,332,185835
6.521,166789,333,185824
6.526,166791,334,185826
6.531,166805,332,185840
6.536,166826,327,185839
6.541,166824,335,185854
6.546,166827,335,185841
6.550,166816,334,185850
6.555,166818,333,185840
6.560,166823,331,185831
6.565,166812,331,185822
6.570,166817,330,185810
6.575,166808,330,185819
6.580,166782,329,185782
6.585,166770,332,185768
6.590,166752,330,185767
6.595,166741,330,185768
6.600,166715,330,185742
6.605,166706,330,185732
6.610,166701,328,185740
6.615,166684,328,185733
6.620,166668,327,185722
6.625,166667,328,185719
6.630,166655,337,185706
6.635,166628,334,185705
6.640,166612,336,185689
6.645,166620,335,185671
6.650,166606,334,185667
6.655,166609,333,185671
6.660,166579,332,185664
6.665,166573,333,185647
6.670,166568,330,185654
6.675,166550,329,185658
6.680,166557,329,185642
6.685,166548,334,185661
6.690,166536,333,185641
6.695,166534,333,185646
6.700,166537,333,185645
6.705,166537,334,185650
6.710,166523,331,185645
6.714,166530,331,185640
6.719,166525,329,185630
6.724,166521,328,185633
6.729,166500,327,185629
6.734,166519,331,185610
6.739,166514,330,185632
6.744,166500,329,185611
6.749,166504,328,185603
6.754,166498,328,185624
6.759,166503,327,185616
6.764,166509,329,185612
6.769,166495,329,185604
6.774,166498,331,185603
6.779,166488,334,185599
6.784,166494,328,185618
6.789,166492,328,185627
6.794,166485,329,185615
6.799,166499,331,185627
6.804,166488,334,185629
6.809,166490,333,185626
6.814,166492,335,185624
6.819,166497,325,185624
6.824,166505,328,185639
6.829,166478,331,185615
6.834,166501,334,185623
6.839,166504,326,185610
6.844,166498,327,185614
6.849,166500,328,185619
6.854,166507,331,185619
6.859,166490,331,185610
6.864,166493,334,185603
6.869,166491,325,185604
6.874,166494,325,185600
6.878,166484,329,185616
6.883,166492,331,185607
6.888,166487,331,185612
6.893,166486,334,185616
6.898,166496,333,185611
6.903,166486,324,185614
6.908,166466,324,185612
6.913,166477,326,185616
6.918,166489,325,185620
6.923,166496,327,185607
6.928,166484,332,185604
6.933,166481,334,185602
6.938,166484,324,185596
6.943,166469,326,185610
6.948,166486,326,185603
6.953,166481,328,185606
6.958,166487,329,185620
6.963,166491,333,185602
6.968,166493,323,185614
6.973,166498,327,185618
6.978,166500,330,185607
6.983,166491,333,185608
6.988,166495,322,185617
6.993,166495,325,185615
6.998,166516,325,185614
7.003,166507,328,185604
7.008,166499,328,185608
7.013,166494,330,185623
7.018,166504,331,185616
7.023,166500,334,185648
7.028,166506,327,185612
7.033,166504,328,185615
7.038,166506,329,185604
7.043,166511,333,185613
7.047,166529,322,185607
7.052,166515,325,185637
7.057,166528,325,185626
7.062,166535,248,185632
7.067,166529,257,185643
7.072,166528,269,185641
7.077,166535,265,185640
7.082,166554,271,185648
7.087,166550,274,185635
7.092,166563,279,185643
7.097,166553,280,185652
7.102,166566,284,185645
7.107,166565,274,185650
7.112,166564,278,185661
7.117,166562,277,185668
7.122,166571,284,185660
7.127,166577,285,185662
7.132,166579,289,185673
7.137,166589,279,185667
7.142,166584,282,185659
7.147,166598,283,185663
7.152,166598,285,185666
7.157,166588,286,185674
7.162,166611,290,185679
7.167,166605,382,185677
7.172,166611,362,185667
7.177,166607,356,185676
7.182,166620,353,185666
7.187,166607,352,185667
7.192,166629,350,185680
7.197,166616,338,185674
7.202,166629,339,185673
7.207,166635,338,185675
7.211,166640,337,185686
7.216,166639,337,185691
7.221,166651,334,185680
7.226,166638,335,185675
7.231,166642,335,185689
7.236,166648,336,185684
7.241,166655,336,185691
7.246,166650,335,185680
7.251,166668,336,185697
7.256,166674,336,185688
7.261,166658,339,185701
7.266,166694,328,185697
7.271,166671,332,185706
7.276,166673,330,185698
7.281,166692,332,185693
7.286,166683,332,185706
7.291,166683,334,185708
7.296,166698,335,185710
7.301,166710,326,185709
7.306,166691,327,185692
7.311,166704,328,185706
7.316,166713,326,185718
7.321,166715,335,185726
7.326,166720,335,185718
7.331,166721,335,185693
7.336,166715,324,185727
7.341,166736,324,185739
7.346,166737,325,185718
7.351,166733,325,185707
7.356,166728,325,185711
7.361,166724,326,185711
7.366,166747,331,185721
7.371,166757,332,185719
7.375,166736,332,185710
7.380,166751,323,185716
7.385,166760,324,185706
7.390,166744,322,185702
7.395,166753,322,185712
7.400,166747,324,185715
7.405,166735,324,185691
7.410,166728,324,185690
7.415,166710,331,185674
7.420,166709,332,185668
7.425,166696,324,185669
7.430,166675,324,185666
7.435,166664,326,185637
7.440,166650,326,185640
7.445,166633,329,185618
7.450,166630,328,185620
7.455,166606,330,185621
7.460,166604,325,185592
7.465,166587,327,185604
7.470,166557,328,185589
7.475,166543,331,185587
7.480,166555,321,185571
7.485,166535,323,185578
7.490,166525,322,185570
7.495,166522,324,185570
7.500,166510,324,185571
7.505,166492,325,185541
7.510,166493,326,185542
7.515,166516,327,185558
7.520,166496,330,185546
7.525,166494,331,185553
7.530,166482,320,185566
7.535,166484,321,185549
7.540,166490,323,185542
7.544,166477,325,185549
7.549,166457,323,185534
7.554,166470,325,185547
7.559,166466,325,185530
7.564,166456,331,185518
7.569,166462,319,185526
7.574,166441,321,185525
7.579,166446,321,185528
7.584,166446,323,185523
7.589,166435,323,185511
7.594,166430,325,185514
7.599,166436,325,185525
7.604,166421,328,185514
7.609,166429,321,185512
7.614,166432,323,185503
7.619,166441,322,185511
7.624,166428,325,185530
7.629,166433,324,185530
7.634,166449,327,185513
7.639,166428,329,185523
7.644,166433,320,185534
7.649,166449,320,185537
7.654,166427,323,185534
7.659,166435,326,185516
7.664,166451,319,185522
7.669,166447,318,185544
7.674,166446,321,185546
7.679,166434,322,185530
7.684,166438,326,185529
7.689,166437,326,185522
7.694,166448,319,185528
7.699,166456,319,185534
7.704,166445,322,185529
7.708,166463,326,185548
7.713,166452,328,185538
7.718,166436,318,185542
7.723,166449,322,185521
7.728,166443,321,185527
7.733,166438,323,185526
7.738,166441,324,185531
7.743,166446,327,185519
7.748,166450,327,185529
7.753,166438,318,185519
7.758,166438,327,185532
7.763,166425,320,185518
7.768,166433,320,185530
7.773,166428,323,185519
7.778,166444,324,185516
7.783,166435,327,185526
7.788,166417,328,185528
7.793,166435,319,185535
7.798,166435,319,185527
7.803,166448,322,185526
7.808,166452,319,185528
7.813,166450,323,185523
7.818,166447,324,185529
7.823,166446,329,185530
7.828,166467,317,185534
7.833,166458,320,185537
7.838,166445,321,185536
7.843,166452,324,185532
7.848,166472,326,185538
7.853,166448,321,185540
7.858,166461,322,185535
7.863,166461,324,185539
7.868,166463,326,185528
7.872,166467,317,185535
7.877,166461,316,185535
7.882,166476,320,185535
7.887,166485,321,185547
7.892,166478,324,185547
7.897,166485,325,185547
7.902,166483,321,185542
7.907,166502,320,185556
7.912,166491,322,185556
7.917,166511,324,185558
7.922,166500,326,185562
7.927,166509,315,185558
7.932,166504,318,185561
7.937,166514,319,185560
7.942,166506,322,185554
7.947,166505,323,185555
7.952,166523,317,185573
7.957,166503,319,185565
7.962,166513,323,185556
7.967,166532,324,185570
7.972,166520,327,185580
7.977,166546,315,185565
7.982,166552,318,185586
7.987,166540,320,185577
7.992,166561,322,185590
7.997,166548,324,185589
8.002,166564,318,185589
8.007,166550,319,185591
8.012,166551,321,185579
8.017,166576,321,185583
8.022,166568,324,185591
8.027,166564,325,185595
8.032,166563,316,185599
8.036,166573,316,185598
8.041,166582,319,185583
8.046,166589,328,185610
8.051,166566,325,185594
8.056,166573,314,185601
8.061,166583,239,185588
8.066,166592,250,185605
8.071,166596,258,185609
8.076,166596,264,185596
8.081,166603,270,185608
8.086,166598,261,185607
8.091,166607,264,185608
8.096,166614,271,185610
8.101,166617,276,185598
8.106,166621,278,185609
8.111,166636,269,185623
8.116,166613,271,185622
8.121,166639,275,185623
8.126,166624,277,185602
8.131,166637,279,185639
8.136,166657,282,185626
8.141,166648,273,185634
8.146,166641,279,185641
8.151,166661,279,185631
8.156,166658,281,185633
8.161,166670,285,185636
8.166,166651,377,185627
8.171,166658,352,185630
8.176,166666,345,185611
8.181,166667,341,185624
8.186,166653,340,185606
8.191,166672,337,185606
8.196,166657,342,185618
8.201,166636,336,185577
8.205,166617,335,185588
8.210,166619,334,185571
8.215,166604,334,185555
8.220,166577,334,185555
8.225,166574,324,185560
8.230,166545,324,185518
8.235,166545,323,185529
8.240,166512,324,185518
8.245,166515,331,185501
8.250,166501,320,185507
8.255,166487,323,185506
8.260,166477,323,185492
8.265,166463,326,185477
8.270,166461,326,185492
8.275,166451,327,185474
8.280,166450,317,185476
8.285,166449,320,185451
8.290,166430,326,185515
8.295,166440,326,185472
8.300,166416,318,185459
8.305,166424,320,185469
8.310,166419,318,185470
8.315,166411,320,185468
8.320,166411,320,185451
8.325,166417,321,185451
8.330,166399,321,185441
8.335,166389,322,185441
8.340,166404,317,185436
8.345,166372,319,185439
8.350,166372,320,185443
8.355,166380,321,185443
8.360,166377,321,185430
8.365,166356,323,185426
8.369,166361,322,185436
8.374,166362,324,185431
8.379,166372,315,185440
8.384,166378,317,185442
8.389,166369,321,185439
8.394,166361,324,185428
8.399,166351,325,185427
8.404,166359,317,185448
8.409,166362,316,185442
8.414,166360,316,185453
8.419,166381,315,185457
8.424,166359,317,185439
8.429,166374,316,185449
8.434,166382,317,185440
8.439,166380,321,185452
8.444,166376,324,185440
8.449,166374,313,185438
8.454,166366,314,185449
8.459,166368,314,185441
8.464,166374,316,185433
8.469,166358,316,185450
8.474,166367,318,185443
8.479,166367,318,185447
8.484,166383,319,185431
8.489,166374,312,185444
8.494,166381,313,185437
8.499,166375,313,185432
8.504,166375,314,185432
8.509,166370,313,185447
8.514,166383,314,185452
8.519,166372,314,185446
8.524,166362,315,185446
8.529,166376,314,185442
8.533,166361,317,185458
8.538,166362,323,185439
8.543,166371,313,185444
8.548,166359,313,185446
8.553,166366,316,185448
8.558,166367,315,185441
8.563,166375,317,185449
8.568,166377,318,185446
8.573,166370,320,185439
8.578,166365,321,185445
8.583,166369,316,185441
8.588,166375,321,185447
8.593,166372,323,185449
8.598,166397,312,185458
8.603,166382,315,185459
8.608,166396,313,185465
8.613,166388,315,185460
8.618,166383,314,185453
8.623,166400,316,185457
8.628,166390,315,185458
8.633,166383,323,185461
8.638,166395,321,185469
8.643,166403,323,185466
8.648,166417,311,185458
8.653,166394,312,185469
8.658,166404,312,185464
8.663,166414,314,185466
8.668,166411,314,185452
8.673,166413,314,185470
8.678,166402,315,185478
8.683,166431,309,185483
8.688,166433,314,185479
8.693,166423,316,185487
8.698,166431,315,185498
8.702,166426,318,185494
8.707,166429,317,185492
8.712,166431,318,185469
8.717,166428,319,185491
8.722,166453,320,185494
8.727,166453,315,185491
8.732,166436,318,185496
8.737,166460,318,185494
8.742,166457,320,185515
8.747,166447,320,185513
8.752,166467,323,185492
8.757,166462,311,185495
8.762,166470,311,185502
8.767,166472,311,185501
8.772,166469,311,185509
8.777,166473,311,185501
8.782,166478,316,185505
8.787,166473,316,185512
8.792,166488,317,185503
8.797,166478,317,185513
8.802,166493,320,185510
8.807,166489,320,185522
8.812,166499,321,185513
8.817,166503,310,185521
8.822,166518,312,185519
8.827,166505,300,185523
8.832,166501,317,185495
8.837,166514,316,185529
8.842,166517,320,185531
8.847,166523,309,185515
8.852,166509,311,185534
8.857,166520,311,185533
8.862,166522,313,185525
8.866,166540,313,185523
8.871,166528,315,185517
8.876,166554,311,185541
8.881,166528,316,185550
8.886,166529,316,185538
8.891,166549,319,185546
8.896,166553,320,185530
8.901,166549,310,185523
8.906,166553,311,185535
8.911,166545,313,185527
8.916,166524,314,185517
8.921,166527,316,185513
8.926,166504,310,185499
8.931,166504,310,185506
8.936,166490,311,185486
8.941,166476,313,185468
8.946,166472,315,185485
8.951,166454,316,185457
8.956,166431,318,185454
8.961,166409,310,185435
8.966,166414,312,185431
8.971,166407,314,185437
8.976,166386,319,185434
8.981,166376,311,185426
8.986,166369,312,185427
8.991,166359,312,185432
8.996,166347,313,185417
9.001,166326,314,185387
9.006,166328,314,185407
9.011,166327,314,185401
9.016,166308,315,185400
9.021,166325,317,185401
9.026,166301,311,185398
9.030,166313,311,185393
9.035,166297,312,185390
9.040,166304,314,185405
9.045,166292,316,185387
9.050,166313,317,185399
9.055,166299,320,185400
9.060,166302,232,185401
9.065,166290,245,185383
9.070,166282,247,185307
9.075,166273,253,185392
9.080,166274,257,185388
9.085,166272,261,185385
9.090,166276,264,185382
9.095,166265,265,185384
9.100,166266,267,185363
9.105,166272,270,185386
9.110,166273,270,185381
9.115,166257,271,185398
9.120,166228,269,185369
9.125,166250,271,185386
9.130,166264,273,185374
9.135,166266,274,185383
9.140,166259,276,185384
9.145,166260,279,185389
9.150,166281,280,185402
9.155,166268,282,185389
9.160,166277,271,185387
9.165,166261,368,185384
9.170,166260,361,185407
9.175,166253,340,185384
9.180,166281,333,185403
9.185,166266,332,185376
9.190,166275,330,185407
9.194,166281,330,185379
9.199,166266,329,185397
9.204,166271,331,185402
9.209,166268,320,185387
9.214,166277,321,185399
9.219,166278,326,185393
9.224,166281,327,185391
9.229,166275,318,185395
9.234,166252,319,185394
9.239,166261,319,185389
9.244,166263,321,185395
9.249,166285,322,185400
9.254,166280,325,185387
9.259,166276,313,185389
9.264,166273,315,185407
9.269,166275,320,185394
9.274,166278,323,185394
9.279,166250,313,185400
9.284,166270,314,185385
9.289,166270,314,185413
9.294,166278,317,185384
9.299,166279,318,185402
9.304,166278,320,185404
9.309,166273,320,185400
9.314,166275,314,185427
9.319,166272,320,185425
9.324,166277,313,185408
9.329,166285,314,185409
9.334,166281,317,185427
9.339,166289,317,185430
9.344,166288,312,185423
9.349,166287,312,185416
9.354,166290,314,185426
9.359,166291,317,185429
9.363,166300,313,185387
9.368,166290,309,185416
9.373,166285,312,185425
9.378,166299,312,185435
9.383,166320,316,185420
9.388,166306,315,185434
9.393,166305,321,185424
9.398,166310,317,185438
9.403,166329,318,185440
9.408,166323,317,185425
9.413,166331,313,185440
9.418,166333,317,185458
9.423,166332,318,185439
9.428,166332,316,185457
9.433,166331,316,185444
9.438,166349,314,185456
9.443,166358,315,185448
9.448,166350,314,185460
9.453,166367,313,185464
9.458,166360,312,185465
9.463,166338,300,185466
9.468,166342,314,185446
9.473,166353,313,185455
9.478,166372,311,185464
9.483,166370,313,185472
9.488,166378,311,185471
9.493,166388,312,185470
9.498,166384,311,185474
9.503,166377,313,185474
9.508,166381,313,185473
9.513,166395,308,185483
9.518,166378,306,185483
9.523,166398,308,185480
9.527,166413,307,185483
9.532,166405,307,185479
9.537,166399,307,185481
9.542,166393,309,185488
9.547,166433,308,185483
9.552,166431,309,185489
9.557,166425,314,185545
9.562,166433,308,185491
9.567,166435,307,185502
9.572,166433,309,185504
9.577,166444,308,185504
9.582,166455,309,185500
9.587,166448,309,185505
9.592,166437,310,185523
9.597,166460,308,185510
9.602,166456,308,185513
9.607,166479,308,185509
9.612,166473,311,185518
9.617,166489,308,185518
9.622,166486,309,185526
9.627,166475,308,185530
9.632,166468,308,185511
9.637,166453,309,185523
9.642,166460,308,185497
9.647,166445,307,185494
9.652,166442,307,185488
9.657,166427,310,185480
9.662,166411,311,185456
9.667,166396,310,185466
9.672,166396,309,185462
9.677,166370,310,185426
9.682,166358,310,185419
9.687,166354,309,185425
9.691,166346,308,185424
9.696,166349,308,185424
9.701,166322,308,185410
9.706,166307,313,185396
9.711,166301,313,185403
9.716,166297,313,185390
9.721,166294,313,185396
9.726,166284,312,185384
9.731,166262,311,185392
9.736,166266,311,185368
9.741,166268,311,185386
9.746,166262,311,185374
9.751,166241,310,185371
9.756,166226,315,185375
9.761,166239,316,185378
9.766,166237,315,185370
9.771,166230,305,185354
9.776,166229,315,185374
9.781,166234,315,185360
9.786,166224,315,185362
9.791,166220,314,185366
9.796,166229,316,185369
9.801,166223,306,185374
9.806,166215,311,185356
9.811,166216,310,185385
9.816,166220,312,185363
9.821,166206,312,185361
9.826,166201,313,185362
9.831,166201,314,185365
9.836,166200,315,185365
9.841,166193,316,185354
9.846,166187,306,185357
9.851,166198,303,185354
9.856,166197,310,185366
9.860,166187,311,185350
9.865,166194,312,185380
9.870,166185,312,185360
9.875,166195,310,185360
9.880,166204,311,185374
9.885,166206,311,185381
9.890,166207,311,185375
9.895,166206,312,185398
9.900,166205,306,185380
9.905,166206,306,185380
9.910,166198,306,185400
9.915,166208,308,185383
9.920,166212,307,185395
9.925,166200,309,185371
9.930,166204,308,185385
9.935,166202,310,185387
9.940,166201,308,185382
9.945,166211,309,185370
9.950,166223,313,185388
9.955,166226,314,185382
9.960,166210,312,185384
9.965,166195,314,185400
9.970,166219,313,185389
9.975,166208,314,185387
9.980,166220,313,185389
9.985,166217,314,185385
9.990,166209,313,185390
9.995,166218,314,185385
10.000,166218,312,185408
10.005,166211,312,185398
10.010,166203,311,185394
10.015,166228,312,185388
10.020,166219,311,185408
10.024,166222,311,185410
10.029,166206,309,185402
10.034,166223,311,185411
10.039,166227,310,185394
10.044,166233,310,185406
10.049,166222,303,185408
10.054,166212,314,185409
10.059,166239,233,185411
10.064,166236,248,185421
10.069,166230,254,185412
10.074,166237,258,185417
10.079,166248,260,185426
10.084,166249,262,185422
10.089,166254,263,185426
10.094,166239,266,185410
10.099,166243,261,185428
10.104,166258,263,185438
10.109,166241,263,185434
10.114,166254,265,185422
10.119,166248,266,185440
10.124,166241,270,185430
10.129,166264,269,185444
10.134,166281,270,185439
10.139,166284,269,185424
10.144,166274,276,185441
10.149,166297,276,185454
10.154,166294,278,185442
10.159,166288,277,185443
10.164,166244,392,185438
10.169,166313,351,185452
10.174,166296,333,185458
10.179,166299,325,185452
10.184,166323,325,185462
10.188,166310,321,185464
10.193,166324,329,185456
10.198,166323,319,185467
10.203,166324,289,185463
10.208,166334,283,185484
10.213,166341,281,185487
10.218,166343,279,185486
10.223,166326,278,185487
10.228,166348,275,185506
10.233,166354,276,185484
10.238,166359,273,185508
10.243,166352,266,185488
10.248,166380,263,185498
10.253,166371,262,185497
10.258,166364,259,185502
10.263,166361,259,185500
10.268,166389,257,185498
10.273,166381,257,185509
10.278,166386,255,185515
10.283,166386,254,185500
10.288,166389,264,185512
10.293,166409,255,185544
10.298,166404,253,185522
10.303,166409,251,185537
10.308,166410,248,185533
10.313,166433,246,185542
10.318,166430,243,185556
10.323,166439,241,185562
10.328,166448,240,185552
10.333,166448,239,185566
10.338,166446,242,185583
10.343,166458,245,185557
10.348,166445,243,185561
10.353,166455,242,185558
10.357,166463,238,185565
10.362,166469,234,185584
10.367,166490,231,185578
10.372,166483,233,185570
10.377,166482,230,185572
10.382,166483,231,185568
10.387,166467,235,185549
10.392,166481,228,185557
10.397,166458,228,185545
10.402,166441,228,185533
10.407,166421,228,185521
10.412,166414,228,185513
10.417,166407,228,185504
10.422,166384,228,185480
10.427,166378,227,185493
10.432,166359,240,185469
10.437,166353,233,185476
10.442,166354,236,185493
10.447,166330,235,185475
10.452,166336,234,185478
10.457,166310,233,185465
10.462,166319,232,185451
10.467,166295,232,185461
10.472,166293,231,185458
10.477,166289,229,185454
10.482,166292,228,185447
10.487,166283,232,185443
10.492,166281,231,185450
10.497,166286,229,185464
10.502,166269,228,185444
10.507,166280,226,185454
10.512,166265,226,185427
10.517,166261,226,185444
10.521,166260,225,185436
10.526,166255,226,185427
10.531,166252,224,185419
10.536,166257,231,185439
10.541,166260,231,185437
10.546,166239,230,185440
10.551,166229,230,185441
10.556,166243,230,185431
10.561,166238,231,185434
10.566,166218,231,185420
10.571,166234,231,185424
10.576,166220,230,185425
10.581,166229,232,185432
10.586,166214,237,185432
10.591,166215,236,185412
10.596,166231,237,185432
10.601,166225,237,185443
10.606,166215,238,185428
10.611,166225,237,185427
10.616,166245,237,185430
10.621,166224,238,185431
10.626,166223,225,185437
10.631,166247,220,185446
10.636,166233,228,185436
10.641,166260,227,185451
10.646,166241,229,185444
10.651,166247,227,185458
10.656,166249,228,185451
10.661,166253,227,185459
10.666,166244,227,185446
10.671,166239,226,185451
10.676,166247,226,185450
10.681,166241,230,185454
10.685,166240,230,185446
10.690,166243,228,185456
10.695,166256,228,185455
10.700,166248,226,185456
10.705,166242,226,185456
10.710,166239,226,185448
10.715,166254,227,185459
10.720,166247,228,185475
10.725,166251,229,185472
10.730,166255,233,185475
10.735,166260,233,185474
10.740,166265,232,185473
10.745,166255,232,185478
10.750,166260,231,185475
10.755,166258,231,185479
10.760,166270,231,185469
10.765,166285,230,185489
10.770,166267,228,185497
10.775,166282,228,185488
10.780,166288,226,185510
10.785,166285,228,185507
10.790,166284,227,185486
10.795,166282,227,185491
10.800,166297,226,185488
10.805,166275,226,185509
10.810,166284,238,185503
10.815,166304,237,185513
10.820,166292,237,185494
10.825,166295,237,185507
10.830,166297,231,185506
10.835,166304,225,185501
10.840,166296,236,185504
10.845,166309,237,185511
10.849,166299,234,185503
10.854,166307,233,185515
10.859,166323,230,185521
10.864,166318,231,185522
10.869,166331,229,185525
10.874,166331,236,185514
10.879,166330,225,185527
10.884,166328,240,185528
10.889,166337,236,185539
10.894,166359,238,185540
10.899,166340,236,185543
10.904,166351,236,185554
10.909,166366,234,185552
10.914,166377,234,185564
10.919,166382,232,185553
10.924,166371,240,185562
10.929,166377,238,185569
10.934,166380,237,185574
10.939,166390,235,185564
10.944,166382,235,185566
10.949,166388,233,185567
10.954,166396,233,185570
10.959,166395,231,185577
10.964,166408,232,185558
10.969,166399,230,185574
10.974,166400,237,185586
10.979,166421,236,185588
10.984,166412,237,185586
10.989,166422,236,185577
10.994,166420,237,185601
10.999,166427,235,185595
11.004,166424,236,185597
11.009,166426,234,185586
11.014,166432,234,185589
11.018,166445,232,185585
11.023,166436,239,185598
11.028,166432,238,185608
11.033,166456,238,185585
11.038,166467,238,185598
11.043,166454,238,185596
11.048,166458,237,185593
11.053,166461,237,185583
11.058,166466,236,185651
11.063,166484,236,185623
11.068,166469,236,185591
11.073,166481,234,185605
11.078,166481,234,185611
11.083,166481,234,185611
11.088,166493,233,185619
11.093,166497,232,185615
11.098,166508,231,185628
11.103,166517,231,185631
11.108,166524,230,185644
11.113,166529,230,185643
11.118,166533,230,185677
11.123,166545,235,185682
11.128,166560,234,185672
11.133,166552,234,185670
11.138,166585,233,185685
11.143,166573,232,185692
11.148,166570,230,185692
11.153,166598,230,185699
11.158,166590,230,185692
11.163,166590,231,185684
11.168,166582,236,185685
11.173,166586,235,185673
11.178,166569,233,185677
11.182,166553,234,185661
11.187,166551,233,185653
11.192,166548,233,185669
11.197,166524,232,185648
11.202,166511,230,185654
11.207,166510,230,185608
11.212,166498,229,185640
11.217,166495,233,185618
11.222,166481,231,185627
11.227,166466,229,185612
11.232,166461,227,185608
11.237,166465,227,185611
11.242,166441,226,185604
11.247,166441,239,185599
11.252,166445,238,185579
11.257,166423,236,185589
11.262,166418,235,185579
11.267,166398,227,185553
11.272,166402,226,185565
11.277,166398,238,185561
11.282,166381,236,185570
11.287,166382,236,185545
11.292,166386,234,185551
11.297,166374,232,185551
11.302,166371,231,185550
11.307,166377,231,185541
11.312,166362,228,185525
11.317,166350,233,185517
11.322,166363,231,185526
11.327,166369,230,185518
11.332,166343,228,185515
11.337,166353,228,185500
11.342,166340,226,185502
11.346,166326,227,185503
11.351,166331,238,185511
11.356,166309,236,185500
11.361,166326,235,185492
11.366,166327,230,185500
11.371,166313,228,185478
11.376,166314,228,185506
11.381,166315,227,185490
11.386,166322,227,185495
11.391,166319,226,185502
11.396,166326,238,185503
11.401,166328,237,185497
11.406,166340,236,185510
11.411,166332,240,185521
11.416,166340,226,185504
11.421,166329,239,185515
11.426,166326,227,185502
11.431,166357,226,185512
11.436,166342,240,185509
11.441,166343,238,185515
11.446,166337,237,185521
11.451,166347,234,185510
11.456,166334,233,185509
11.461,166337,236,185517
11.466,166341,236,185525
11.471,166345,233,185510
11.476,166343,232,185499
11.481,166334,230,185497
11.486,166336,230,185509
11.491,166343,227,185524
11.496,166333,227,185515
11.501,166319,238,185509
11.506,166340,237,185505
11.511,166338,229,185503
11.515,166322,234,185508
11.520,166331,232,185507
11.525,166320,233,185506
11.530,166330,231,185515
11.535,166329,230,185519
11.540,166325,229,185506
11.545,166342,231,185527
11.550,166336,228,185536
11.555,166332,229,185514
11.560,166341,233,185509
11.565,166352,234,185526
11.570,166336,233,185518
11.575,166347,232,185525
11.580,166355,231,185523
11.585,166345,231,185510
11.590,166359,230,185546
11.595,166359,230,185538
11.600,166355,229,185537
11.605,166357,229,185529
11.610,166344,232,185531
11.615,166339,233,185534
11.620,166361,230,185533
11.625,166378,232,185542
11.630,166375,230,185539
11.635,166357,231,185560
11.640,166372,229,185539
11.645,166383,229,185555
11.650,166378,227,185541
11.655,166390,228,185531
11.660,166388,231,185552
11.665,166385,231,185540
11.670,166385,228,185551
11.675,166382,228,185538
11.679,166395,226,185544
11.684,166385,240,185555
11.689,166390,238,185553
11.694,166412,238,185551
11.699,166400,235,185563
11.704,166368,238,185605
11.709,166425,232,185551
11.714,166410,232,185569
11.719,166417,230,185564
11.724,166418,230,185558
11.729,166417,227,185550
11.734,166426,228,185552
11.739,166409,226,185559
11.744,166440,227,185558
11.749,166421,239,185563
11.754,166445,231,185545
11.759,166429,229,185563
11.764,166422,232,185572
11.769,166438,231,185566
11.774,166438,231,185566
11.779,166451,229,185571
11.784,166447,230,185578
11.789,166451,230,185562
11.794,166457,229,185569
11.799,166454,228,185578
11.804,166451,239,185550
11.809,166472,226,185567
11.814,166462,239,185579
11.819,166473,237,185576
11.824,166472,237,185591
11.829,166480,234,185586
11.834,166467,234,185576
11.839,166485,235,185572
11.843,166476,235,185586
11.848,166484,237,185596
11.853,166482,227,185596
11.858,166504,228,185595
11.863,166485,228,185592
11.868,166498,227,185588
11.873,166503,227,185585
11.878,166496,227,185578
11.883,166491,228,185567
11.888,166462,227,185569
11.893,166456,227,185558
11.898,166462,227,185547
11.903,166437,231,185531
11.908,166431,231,185524
11.913,166412,229,185533
11.918,166404,228,185537
11.923,166398,228,185522
11.928,166386,227,185507
11.933,166379,227,185512
11.938,166359,228,185504
11.943,166373,228,185502
11.948,166354,226,185489
11.953,166344,233,185491
11.958,166350,234,185486
11.963,166327,236,185477
11.968,166315,237,185478
11.973,166327,236,185468
11.978,166318,237,185481
11.983,166319,237,185479
11.988,166306,239,185472
11.993,166299,237,185479
11.998,166310,230,185458
12.003,166314,231,185474
12.007,166294,233,185467
12.012,166301,233,185463
12.017,166284,235,185462
12.022,166308,237,185457
12.027,166292,239,185456
12.032,166283,237,185452
12.037,166286,237,185446
12.042,166271,237,185433
12.047,166282,230,185448
12.052,166287,230,185438
12.057,166273,230,185444
12.062,166268,229,185449
12.067,166270,232,185440
12.072,166279,233,185451
12.077,166276,234,185440
12.082,166289,236,185453
12.087,166273,237,185450
12.092,166273,236,185445
12.097,166268,229,185455
12.102,166289,228,185471
12.107,166276,230,185458
12.112,166285,229,185460
12.117,166289,230,185469
12.122,166279,229,185478
12.127,166297,230,185480
12.132,166286,229,185472
12.137,166291,229,185480
12.142,166289,228,185475
12.147,166294,235,185475
12.152,166290,235,185470
12.157,166298,236,185457
12.162,166289,235,185470
12.167,166281,238,185470
12.172,166291,236,185472
12.176,166300,236,185476
12.181,166297,237,185488
12.186,166295,237,185468
12.191,166294,242,185505
12.196,166293,237,185480
12.201,166295,237,185480
12.206,166309,240,185466
12.211,166302,226,185468
12.216,166300,228,185478
12.221,166297,228,185471
12.226,166306,229,185489
12.231,166299,230,185487
12.236,166306,231,185498
12.241,166306,236,185479
12.246,166306,239,185493
12.251,166313,238,185493
12.256,166305,240,185487
12.261,166325,239,185499
12.266,166315,240,185495
12.271,166317,238,185485
12.276,166317,240,185502
12.281,166325,239,185488
12.286,166316,228,185498
12.291,166327,235,185521
12.296,166327,239,185504
12.301,166323,227,185499
12.306,166330,229,185515
12.311,166331,227,185498
12.316,166337,228,185513
12.321,166323,229,185499
12.326,166347,231,185523
12.331,166333,230,185505
12.336,166337,231,185500
12.340,166342,236,185505
12.345,166342,237,185517
12.350,166351,237,185509
12.355,166337,239,185513
12.360,166363,239,185535
12.365,166360,228,185515
12.370,166372,227,185532
12.375,166377,229,185525
12.380,166387,229,185531
12.385,166381,231,185536
12.390,166379,235,185542
12.395,166402,236,185544
12.400,166401,235,185542
12.405,166394,238,185551
12.410,166419,237,185543
12.415,166411,241,185550
12.420,166423,228,185533
12.425,166402,231,185546
12.430,166427,231,185537
12.435,166414,234,185569
12.440,166423,227,185550
12.445,166433,230,185554
12.450,166422,229,185556
12.455,166432,231,185542
12.460,166429,233,185560
12.465,166447,235,185561
12.470,166427,236,185552
12.475,166435,236,185553
12.480,166427,236,185558
12.485,166442,227,185560
12.490,166462,230,185549
12.495,166444,231,185557
12.500,166464,230,185562
12.504,166446,232,185559
12.509,166460,233,185561
12.514,166459,234,185554
12.519,166460,235,185580
12.524,166466,237,185566
12.529,166458,238,185558
12.534,166467,231,185578
12.539,166470,231,185580
12.544,166482,232,185576
12.549,166498,232,185573
12.554,166501,233,185573
12.559,166502,233,185599
12.564,166526,236,185595
12.569,166516,235,185600
12.574,166519,237,185596
12.579,166522,238,185596
12.584,166526,232,185618
12.589,166528,232,185611
12.594,166524,234,185624
12.599,166528,234,185599
12.604,166538,236,185591
12.609,166525,236,185576
12.614,166483,238,185591
12.619,166492,238,185571
12.624,166493,240,185559
12.629,166471,238,185541
12.634,166469,231,185551
12.639,166451,231,185542
12.644,166435,231,185526
12.649,166413,231,185523
12.654,166415,231,185517
12.659,166414,231,185514
12.664,166381,231,185496
12.669,166382,232,185499
12.673,166373,232,185495
12.678,166367,232,185482
12.683,166358,239,185494
12.688,166349,238,185495
12.693,166349,239,185484
12.698,166340,239,185476
12.703,166332,238,185466
12.708,166316,239,185474
12.713,166318,238,185459
12.718,166311,239,185460
12.723,166306,239,185475
12.728,166303,242,185471
12.733,166285,236,185476
12.738,166292,237,185462
12.743,166296,237,185464
12.748,166280,237,185442
12.753,166295,236,185457
12.758,166279,236,185462
12.763,166281,236,185457
12.768,166272,237,185443
12.773,166264,236,185458
12.778,166285,228,185442
12.783,166263,229,185451
12.788,166248,229,185448
12.793,166253,228,185452
12.798,166247,228,185447
12.803,166241,227,185438
12.808,166230,228,185431
12.813,166240,227,185430
12.818,166248,227,185444
12.823,166240,227,185433
12.828,166242,233,185439
12.833,166233,231,185446
12.837,166243,230,185460
12.842,166255,230,185445
12.847,166251,230,185443
12.852,166262,228,185465
12.857,166270,228,185457
12.862,166257,228,185446
12.867,166249,228,185460
12.872,166269,226,185446
12.877,166250,232,185453
12.882,166265,231,185446
12.887,166235,231,185451
12.892,166249,230,185441
12.897,166255,230,185475
12.902,166247,229,185433
12.907,166255,229,185456
12.912,166245,227,185437
12.917,166240,228,185445
12.922,166266,227,185448
12.927,166253,239,185443
12.932,166252,237,185441
12.937,166249,237,185462
12.942,166252,236,185455
12.947,166248,237,185452
12.952,166254,236,185462
12.957,166262,237,185471
12.962,166264,237,185459
12.967,166257,237,185459
12.972,166256,239,185416
12.977,166259,229,185468
12.982,166266,229,185462
12.987,166246,229,185450
12.992,166256,228,185479
12.997,166237,230,185460
13.001,166255,229,185488
13.006,166250,228,185462
13.011,166260,226,185478
13.016,166273,228,185453
13.021,166295,231,185467
13.026,166284,232,185477
13.031,166271,230,185470
13.036,166280,231,185477
13.041,166273,229,185473
13.046,166295,232,185488
13.051,166297,230,185483
13.056,166291,230,185492
13.061,166303,226,185506
13.066,166296,230,185504
13.071,166302,236,185498
13.076,166308,235,185501
13.081,166293,234,185488
13.086,166312,237,185526
13.091,166295,235,185506
13.096,166314,237,185524
13.101,166315,236,185513
13.106,166322,238,185505
13.111,166328,235,185505
13.116,166332,236,185493
13.121,166324,227,185514
13.126,166320,228,185530
13.131,166331,227,185522
13.136,166345,227,185519
13.141,166337,240,185521
13.146,166361,240,185528
13.151,166363,240,185530
13.156,166368,239,185536
13.161,166359,238,185542
13.166,166343,245,185540
13.170,166332,232,185538
13.175,166376,238,185551
13.180,166379,236,185545
13.185,166381,238,185564
13.190,166385,235,185564
13.195,166379,236,185556
13.200,166391,235,185567
13.205,166402,237,185562
13.210,166405,236,185566
13.215,166405,238,185581
13.220,166405,229,185581
13.225,166409,230,185576
13.230,166423,229,185584
13.235,166417,231,185584
13.240,166423,232,185571
13.245,166430,234,185582
13.250,166432,233,185593
13.255,166420,234,185602
13.260,166450,233,185588
13.265,166403,235,185594
13.270,166447,227,185588
13.275,166450,227,185588
13.280,166448,238,185610
13.285,166463,237,185606
13.290,166464,235,185621
13.295,166472,235,185592
13.300,166480,233,185607
13.305,166469,233,185611
13.310,166480,232,185610
13.315,166488,229,185611
13.320,166486,231,185629
13.325,166485,232,185614
13.330,166508,230,185610
13.334,166505,229,185630
13.339,166506,229,185635
13.344,166488,229,185623
13.349,166489,228,185633
13.354,166543,227,185628
13.359,166530,226,185635
13.364,166527,231,185630
13.369,166533,230,185628
13.374,166546,230,185651
13.379,166543,230,185649
13.384,166529,231,185634
13.389,166536,231,185638
13.394,166541,232,185641
13.399,166542,230,185652
13.404,166560,230,185645
13.409,166564,230,185646
13.414,166574,233,185638
13.419,166569,234,185646
13.424,166575,234,185630
13.429,166562,233,185644
13.434,166560,234,185650
13.439,166563,235,185647
13.444,166560,236,185623
13.449,166548,236,185626
13.454,166533,236,185614
13.459,166525,237,185582
13.464,166491,228,185587
13.469,166483,228,185565
13.474,166482,227,185570
13.479,166449,228,185566
13.484,166450,227,185555
13.489,166433,227,185557
13.494,166428,227,185556
13.498,166416,227,185536
13.503,166389,229,185524
13.508,166395,228,185507
13.513,166384,233,185521
13.518,166369,233,185514
13.523,166372,234,185517
13.528,166365,236,185491
13.533,166353,235,185494
13.538,166354,235,185499
13.543,166337,235,185488
13.548,166348,235,185494
13.553,166330,233,185482
13.558,166327,226,185492
13.563,166327,226,185488
13.568,166319,226,185492
13.573,166325,239,185484
13.578,166314,239,185476
13.583,166297,239,185470
13.588,166310,239,185482
13.593,166298,237,185467
13.598,166298,237,185454
13.603,166291,235,185466
13.608,166288,227,185466
13.613,166264,239,185457
13.618,166277,239,185466
13.623,166257,238,185450
13.628,166280,239,185476
13.633,166273,238,185462
13.638,166276,238,185459
13.643,166261,238,185453
13.648,166261,238,185468
13.653,166259,237,185466
13.658,166255,229,185447
13.662,166268,227,185461
13.667,166253,228,185461
13.672,166257,227,185452
13.677,166261,227,185457
13.682,166268,226,185468
13.687,166260,241,185457
13.692,166278,238,185473
13.697,166281,238,185462
13.702,166254,238,185488
13.707,166268,232,185472
13.712,166287,229,185479
13.717,166279,230,185485
13.722,166281,230,185468
13.727,166279,232,185484
13.732,166274,230,185477
13.737,166275,231,185480
13.742,166261,230,185463
13.747,166272,231,185467
13.752,166282,230,185456
13.757,166278,226,185477
13.762,166282,234,185473
13.767,166271,235,185465
13.772,166276,234,185474
13.777,166260,234,185474
13.782,166263,233,185484
13.787,166273,234,185459
13.792,166268,232,185480
13.797,166269,232,185475
13.802,166247,235,185481
13.807,166271,237,185471
13.812,166264,236,185491
13.817,166263,237,185484
13.822,166273,236,185480
13.827,166268,237,185466
13.831,166270,235,185493
13.836,166260,236,185480
13.841,166276,235,185479
13.846,166278,236,185502
13.851,166286,227,185497
13.856,166281,228,185491
13.861,166279,226,185498
13.866,166283,239,185488
13.871,166294,237,185490
13.876,166303,237,185490
13.881,166303,235,185514
13.886,166294,235,185509
13.891,166303,232,185503
13.896,166320,233,185504
13.901,166314,237,185521
13.906,166305,239,185524
13.911,166315,237,185512
13.916,166318,238,185545
13.921,166325,237,185515
13.926,166337,238,185548
13.931,166342,236,185540
13.936,166351,236,185554
13.941,166358,235,185548
13.946,166354,234,185548
13.951,166363,227,185549
13.956,166354,229,185544
13.961,166360,227,185565
13.966,166368,229,185563
13.971,166373,228,185558
13.976,166376,228,185568
13.981,166385,227,185572
13.986,166380,229,185559
13.991,166388,228,185578
13.995,166393,228,185565
14.000,166393,228,185557
14.005,166392,229,185562
14.010,166407,229,185564
14.015,166401,229,185559
14.020,166407,228,185578
14.025,166394,230,185560
14.030,166411,229,185584
14.035,166429,230,185587
14.040,166437,230,185593
14.045,166439,225,185578
14.050,166451,235,185598
14.055,166429,236,185600
14.060,166381,219,185616
14.065,166454,236,185619
14.070,166445,236,185615
14.075,166467,237,185638
14.080,166475,237,185631
14.085,166480,238,185636
14.090,166490,238,185644
14.095,166483,231,185654
14.100,166523,231,185645
14.105,166499,233,185663
14.110,166524,233,185674
14.115,166525,234,185679
14.120,166536,233,185684
14.125,166545,231,185696
14.130,166554,232,185676
14.135,166563,232,185720
14.140,166563,232,185724
14.145,166581,238,185727
14.150,166580,238,185746
14.155,166605,237,185731
14.159,166619,235,185731
14.164,166625,235,185754
14.169,166615,236,185770
14.174,166621,234,185779
14.179,166642,234,185793
14.184,166655,233,185809
14.189,166643,233,185810
14.194,166660,239,185813
14.199,166687,239,185834
14.204,166688,237,185832
14.209,166711,237,185847
14.214,166698,234,185847
14.219,166717,233,185872
14.224,166727,233,185894
14.229,166725,234,185895
14.234,166740,233,185892
14.239,166764,232,185925
14.244,166764,237,185928
14.249,166775,237,185925
14.254,166786,234,185937
14.259,166791,232,185936
14.264,166809,229,185956
14.269,166811,230,185962
14.274,166809,227,185971
14.279,166833,227,185985
14.284,166835,226,185966
14.289,166834,232,185972
14.294,166864,229,185997
14.299,166861,229,186001
14.304,166875,227,186014
14.309,166888,227,186024
14.314,166884,226,186027
14.319,166900,227,186034
14.324,166904,240,186039
14.328,166892,240,186037
14.333,166918,239,186034
14.338,166928,230,186039
14.343,166918,231,186052
14.348,166921,232,186040
14.353,166903,230,186024
14.358,166890,229,186030
14.363,166890,228,186028
14.368,166864,228,185996
14.373,166854,227,186025
14.378,166843,239,185993
14.383,166846,238,186002
14.388,166839,230,185992
14.393,166821,227,185997
14.398,166805,226,185986
14.403,166801,226,185983
14.408,166782,227,185987
14.413,166779,225,185988
14.418,166785,240,185984
14.423,166758,238,185976
14.428,166764,239,185983
14.433,166764,237,185993
14.438,166756,228,185968
14.443,166747,237,185972
14.448,166745,239,185968
14.453,166731,237,185969
14.458,166734,237,185969
14.463,166744,236,185972
14.468,166733,236,185965
14.473,166736,234,185974
14.478,166723,234,185969
14.483,166730,233,185977
14.488,166720,240,185970
14.492,166712,237,185963
14.497,166721,235,185956
14.502,166712,233,185974
14.507,166710,233,185969
14.512,166693,231,185952
14.517,166708,232,185964
14.522,166710,230,185958
14.527,166722,231,185938
14.532,166706,230,185983
14.537,166696,233,185955
14.542,166701,230,185970
14.547,166690,233,185967
14.552,166683,231,185960
14.557,166690,231,185950
14.562,166690,229,185947
14.567,166691,229,185960
14.572,166689,228,185955
14.577,166692,229,185959
14.582,166675,226,185963
14.587,166698,233,185976
14.592,166714,231,185972
14.597,166718,232,185980
14.602,166720,231,185978
14.607,166709,231,185969
14.612,166704,229,185981
14.617,166709,229,185981
14.622,166721,227,185967
14.627,166720,228,185985
14.632,166719,231,185984
14.637,166718,231,185987
14.642,166724,229,185995
14.647,166708,230,185988
14.652,166721,227,185995
14.656,166714,227,185991
14.661,166725,225,185995
14.666,166714,227,185990
14.671,166708,225,186004
14.676,166722,239,185981
14.681,166739,219,186000
14.686,166715,235,185992
14.691,166713,234,185986
14.696,166727,234,185990
14.701,166708,231,185999
14.706,166728,232,186013
14.711,166727,230,186006
14.716,166714,229,186004
14.721,166721,228,186008
14.726,166735,229,186013
14.731,166734,225,186017
14.736,166729,239,186020
14.741,166734,237,186015
14.746,166728,238,186017
14.751,166735,237,186022
14.756,166745,236,186010
14.761,166760,234,186011
14.766,166732,235,186016
14.771,166754,233,186012
14.776,166758,233,186029
14.781,166750,225,186027
14.786,166765,239,186011
14.791,166769,236,186023
14.796,166764,236,186028
14.801,166756,234,186028
14.806,166755,235,186027
14.811,166762,233,186033
14.816,166770,232,186040
14.820,166780,230,186043
14.825,166788,234,186038
14.830,166776,236,186043
14.835,166778,235,186055
14.840,166785,233,186035
14.845,166790,233,186042
14.850,166792,231,186057
14.855,166799,231,186054
14.860,166789,229,186042
14.865,166810,228,186056
14.870,166812,227,186057
14.875,166830,231,186062
14.880,166819,229,186066
14.885,166823,229,186053
14.890,166829,227,186079
14.895,166849,227,186075
14.900,166822,226,186086
14.905,166839,239,186081
14.910,166847,238,186076
14.915,166845,237,186080
14.920,166863,238,186090
14.925,166853,229,186074
14.930,166861,228,186080
14.935,166864,227,186088
14.940,166879,227,186107
14.945,166860,226,186094
14.950,166863,239,186094
14.955,166863,236,186085
14.960,166869,233,186094
14.965,166880,233,186075
14.970,166883,232,186098
14.975,166879,235,186105
14.980,166877,234,186119
14.985,166907,232,186112
14.989,166911,230,186101
14.994,166894,227,186109
14.999,166922,226,186127
15.004,166925,238,186130
15.009,166930,237,186124
15.014,166926,233,186129
15.019,166941,231,186122
15.024,166928,235,186121
15.029,166920,234,186120
15.034,166925,231,186131
15.039,166934,229,186129
15.044,166937,226,186126
15.049,166948,239,186123
15.054,166964,236,186130
15.059,166955,236,186131
15.064,166968,232,186140
15.069,166969,232,186159
15.074,166972,234,186142
15.079,166989,233,186129
15.084,166968,232,186155
15.089,166964,231,186138
15.094,166989,229,186161
15.099,166989,229,186163
15.104,166988,228,186164
15.109,166978,229,186142
15.114,166996,227,186147
15.119,166973,232,186148
15.124,167006,226,186165
15.129,167008,226,186164
15.134,167011,226,186147
15.139,167024,227,186167
15.144,167017,227,186157
15.149,167022,230,186168
15.153,167049,229,186163
15.158,167022,231,186155
15.163,167044,232,186165
15.168,167036,228,186155
15.173,167046,226,186158
15.178,167052,225,186168
15.183,167056,238,186180
15.188,167058,238,186172
15.193,167060,236,186168
15.198,167069,237,186193
15.203,167081,235,186179
15.208,167074,236,186174
15.213,167093,234,186186
15.218,167071,226,186192
15.223,167091,226,186192
15.228,167100,227,186181
15.233,167111,224,186188
15.238,167107,238,186194
15.243,167082,235,186187
15.248,167105,236,186178
15.253,167089,234,186179
15.258,167108,233,186166
15.263,167108,233,186168
15.268,167085,230,186161
15.273,167077,229,186141
15.278,167070,228,186128
15.283,167053,229,186129
15.288,167021,230,186116
15.293,167022,229,186115
15.298,167006,229,186102
15.303,167004,228,186097
15.308,166972,229,186087
15.313,166975,228,186066
15.317,166951,226,186071
15.322,166948,224,186067
15.327,166930,238,186050
15.332,166918,236,186049
15.337,166918,236,186044
15.342,166899,233,186031
15.347,166897,235,186042
15.352,166879,233,186044
15.357,166875,232,186029
15.362,166863,232,186031
15.367,166857,238,186021
15.372,166854,237,186017
15.377,166860,236,186018
15.382,166855,235,186005
15.387,166833,235,185988
15.392,166819,233,185998
15.397,166828,234,185991
15.402,166833,232,185990
15.407,166820,232,185979
15.412,166819,237,185994
15.417,166807,237,185998
15.422,166805,236,185974
15.427,166808,236,185983
15.432,166808,234,185969
15.437,166794,234,185961
15.442,166783,233,185959
15.447,166797,234,185976
15.452,166801,234,185965
15.457,166791,235,185957
15.462,166795,225,185959
15.467,166789,227,185966
15.472,166774,226,185945
15.477,166789,226,185957
15.482,166787,225,185949
15.486,166773,226,185955
15.491,166777,225,185957
15.496,166779,225,185959
15.501,166784,224,185981
15.506,166779,225,185984
15.511,166805,231,185973
15.516,166812,233,185976
15.521,166804,236,185965
15.526,166781,237,185955
15.531,166797,237,185964
15.536,166810,236,185967
15.541,166798,236,185954
15.546,166793,236,185956
15.551,166793,235,185964
15.556,166781,234,185948
15.561,166783,234,185956
15.566,166799,235,185946
15.571,166782,234,185949
15.576,166781,234,185952
15.581,166782,234,185933
15.586,166797,235,185943
15.591,166768,234,185935
15.596,166777,235,185944
15.601,166762,236,185947
15.606,166791,227,185982
15.611,166758,229,185947
15.616,166762,229,185941
15.621,166764,229,185934
15.626,166774,230,185925
15.631,166772,231,185930
15.636,166769,231,185940
15.641,166781,233,185936
15.646,166773,232,185932
15.650,166772,233,185930
15.655,166724,225,185924
15.660,166769,225,185934
15.665,166762,225,185924
15.670,166763,225,185930
15.675,166777,224,185936
15.680,166770,237,185928
15.685,166761,237,185923
15.690,166777,238,185935
15.695,166782,237,185921
15.700,166770,238,185931
15.705,166784,229,185950
15.710,166782,229,185935
15.715,166784,228,185941
15.720,166803,227,185944
15.725,166797,226,185946
15.730,166804,226,185930
15.735,166798,225,185935
15.740,166790,227,185940
15.745,166799,226,185938
15.750,166796,227,185940
15.755,166796,231,185924
15.760,166810,231,185931
15.765,166808,232,185934
15.770,166798,233,185931
15.775,166822,232,185914
15.780,166811,233,185922
15.785,166826,233,185931
15.790,166818,233,185943
15.795,166830,232,185918
15.800,166832,232,185930
15.805,166834,227,185949
15.810,166820,235,185946
15.814,166837,233,185946
15.819,166841,235,185954
15.824,166835,235,185936
15.829,166852,236,185938
15.834,166852,235,185956
15.839,166849,235,185956
15.844,166841,234,185943
15.849,166863,235,185950
15.854,166851,225,185944
15.859,166877,225,185957
15.864,166854,236,185940
15.869,166866,236,185949
15.874,166863,234,185936
15.879,166872,232,185932
15.884,166878,230,185939
15.889,166882,231,185944
15.894,166873,229,185940
15.899,166883,223,185933
15.904,166885,231,185954
15.909,166891,232,185965
15.914,166891,229,185965
15.919,166903,229,185954
15.924,166897,226,185949
15.929,166913,227,185969
15.934,166929,224,185975
15.939,166906,225,185993
15.944,166936,236,185973
15.949,166930,228,185957
15.954,166932,226,185969
15.959,166938,225,185972
15.964,166926,237,185979
15.969,166942,237,185971
15.974,166934,236,185964
15.979,166931,234,185973
15.983,166941,233,185977
15.988,166942,234,185964
15.993,166940,232,185946
15.998,166947,237,185963
16.003,166950,234,185960
16.008,166956,235,185961
16.013,166944,232,185979
16.018,166956,232,185968
16.023,166957,230,185979
16.028,166978,230,185969
16.033,166959,228,185978
16.038,166975,228,185971
16.043,166993,227,185995
16.048,166995,233,185987
16.053,166991,231,185981
16.058,166992,232,185993
16.063,167008,229,185991
16.068,166991,231,185989
16.073,167019,230,185994
16.078,166991,233,185970
16.083,167018,231,186003
16.088,167010,234,186002
16.093,167023,232,186001
16.098,167015,225,186000
16.103,167039,237,185991
16.108,167037,237,185992
16.113,167020,236,185986
16.118,167016,237,185985
16.123,167021,237,185990
16.128,167020,237,185975
16.133,167012,237,185971
16.138,167001,237,185943
16.143,166962,230,185921
16.147,166960,235,185943
16.152,166959,234,185915
16.157,166952,235,185913
16.162,166928,234,185902
16.167,166895,238,185901
16.172,166898,233,185891
16.177,166898,233,185883
16.182,166862,233,185867
16.187,166866,234,185869
16.192,166853,226,185854
16.197,166838,231,185864
16.202,166818,230,185846
16.207,166818,231,185855
16.212,166820,231,185844
16.217,166791,232,185831
16.222,166786,232,185826
16.227,166794,232,185827
16.232,166796,232,185824
16.237,166779,232,185828
16.242,166771,227,185801
16.247,166762,228,185828
16.252,166756,227,185807
16.257,166763,227,185811
16.262,166741,227,185806
16.267,166745,226,185808
16.272,166734,226,185786
16.277,166737,226,185789
16.282,166733,226,185795
16.287,166728,226,185765
16.292,166730,232,185782
16.297,166731,231,185768
16.302,166701,232,185777
16.307,166709,233,185766
16.311,166705,233,185770
16.316,166703,233,185782
16.321,166717,233,185762
16.326,166703,235,185771
16.331,166711,234,185777
16.336,166709,233,185772
16.341,166709,225,185755
16.346,166695,226,185766
16.351,166694,238,185768
16.356,166694,237,185777
16.361,166693,237,185775
16.366,166683,238,185776
16.371,166707,225,185770
16.376,166707,238,185784
16.381,166699,238,185771
16.386,166712,227,185777
16.391,166701,229,185777
16.396,166699,227,185779
16.401,166722,226,185784
16.406,166709,226,185779
16.411,166706,227,185772
16.416,166706,224,185755
16.421,166704,237,185755
16.426,166698,236,185754
16.431,166712,237,185769
16.436,166686,224,185760
16.441,166703,226,185770
16.446,166702,225,185757
16.451,166691,238,185751
16.456,166705,235,185757
16.461,166690,235,185744
16.466,166682,233,185747
16.471,166677,234,185744
16.475,166681,232,185747
16.480,166675,231,185735
16.485,166680,235,185729
16.490,166677,236,185741
16.495,166673,236,185723
16.500,166674,236,185736
16.505,166673,235,185737
16.510,166669,236,185736
16.515,166682,234,185725
16.520,166662,235,185732
16.525,166678,234,185735
16.530,166694,235,185731
16.535,166681,225,185742
16.540,166673,238,185733
16.545,166679,237,185739
16.550,166691,237,185757
16.555,166693,237,185755
16.560,166707,238,185765
16.565,166716,238,185763
16.570,166722,239,185792
16.575,166731,237,185794
16.580,166741,240,185810
16.585,166749,228,185822
16.590,166760,229,185810
16.595,166763,227,185812
16.600,166755,228,185837
16.605,166771,227,185834
16.610,166771,229,185833
16.615,166758,227,185841
16.620,166762,229,185847
16.625,166786,228,185835
16.630,166782,230,185864
16.635,166813,233,185876
16.640,166811,236,185869
16.644,166838,234,185885
16.649,166832,236,185875
16.654,166829,236,185886
16.659,166833,237,185888
16.664,166841,236,185878
16.669,166829,237,185873
16.674,166830,234,185858
16.679,166812,236,185848
16.684,166793,232,185827
16.689,166785,234,185828
16.694,166785,233,185789
16.699,166763,233,185786
16.704,166753,232,185761
16.709,166749,232,185765
16.714,166754,231,185758
16.719,166754,233,185746
16.724,166740,235,185713
16.729,166741,229,185747
16.734,166748,232,185722
16.739,166736,233,185729
16.744,166750,233,185711
16.749,166743,235,185718
16.754,166755,234,185702
16.759,166736,234,185696
16.764,166746,233,185699
16.769,166748,235,185690
16.774,166735,234,185661
16.779,166728,230,185675
16.784,166731,232,185668
16.789,166735,234,185659
16.794,166756,232,185684
16.799,166753,233,185668
16.804,166745,231,185676
16.808,166752,233,185657
16.813,166746,231,185651
16.818,166740,232,185656
16.823,166749,230,185641
16.828,166756,238,185636
16.833,166736,236,185661
16.838,166743,236,185665
16.843,166757,235,185648
16.848,166760,237,185656
16.853,166754,235,185651
16.858,166765,235,185649
16.863,166762,234,185645
16.868,166771,233,185646
16.873,166761,233,185626
16.878,166763,226,185639
16.883,166764,238,185634
16.888,166769,238,185621
16.893,166745,237,185617
16.898,166759,237,185617
16.903,166754,237,185615
16.908,166755,237,185620
16.913,166746,238,185589
16.918,166731,238,185586
16.923,166745,241,185574
16.928,166733,227,185556
16.933,166724,226,185568
16.938,166703,227,185545
16.943,166714,226,185545
16.948,166681,226,185516
16.953,166673,239,185521
16.958,166639,238,185517
16.963,166650,237,185515
16.968,166642,236,185501
16.972,166602,221,185536
16.977,166616,234,185477
16.982,166607,234,185474
16.987,166597,233,185484
16.992,166598,233,185462
16.997,166587,232,185485
17.002,166579,231,185485
17.007,166580,230,185470
17.012,166576,230,185471
17.017,166551,230,185470
17.022,166536,235,185462
17.027,166553,236,185466
17.032,166531,236,185462
17.037,166536,236,185456
17.042,166514,235,185442
17.047,166517,235,185447
17.052,166503,235,185444
17.057,166517,234,185450
17.062,166540,224,185443
17.067,166496,232,185427
17.072,166482,237,185422
17.077,166474,236,185420
17.082,166477,235,185425
17.087,166467,233,185407
17.092,166471,233,185407
17.097,166460,230,185433
17.102,166466,231,185426
17.107,166473,230,185422
17.112,166470,230,185428
17.117,166482,227,185425
17.122,166474,234,185432
17.127,166478,233,185426
17.132,166484,233,185443
17.137,166484,232,185437
17.141,166484,232,185452
17.146,166472,231,185460
17.151,166481,231,185449
17.156,166486,230,185457
17.161,166487,235,185441
17.166,166472,232,185546
17.171,166470,227,185425
17.176,166477,226,185440
17.181,166478,226,185426
17.186,166470,228,185424
17.191,166458,228,185409
17.196,166468,228,185422
17.201,166468,228,185415
17.206,166467,227,185415
17.211,166469,228,185416
17.216,166496,231,185367
17.221,166485,236,185430
17.226,166474,236,185423
17.231,166480,237,185424
17.236,166479,236,185429
17.241,166484,236,185423
17.246,166478,235,185427
17.251,166484,235,185435
17.256,166491,234,185438
17.261,166486,233,185439
17.266,166491,226,185454
17.271,166477,226,185428
17.276,166473,224,185437
17.281,166474,237,185419
17.286,166474,237,185419
17.291,166466,237,185415
17.296,166457,238,185436
17.301,166465,225,185413
17.305,166467,238,185409
17.310,166458,238,185423
17.315,166464,227,185432
17.320,166460,228,185413
17.325,166478,226,185426
17.330,166475,227,185423
17.335,166489,226,185431
17.340,166486,226,185440
17.345,166493,225,185441
17.350,166494,239,185435
17.355,166485,236,185442
17.360,166490,237,185435
17.365,166521,233,185449
17.370,166498,235,185450
17.375,166518,233,185436
17.380,166504,234,185441
17.385,166506,232,185422
17.390,166504,233,185432
17.395,166493,231,185424
17.400,166488,232,185408
17.405,166483,230,185430
17.410,166493,232,185414
17.415,166492,235,185416
17.420,166472,237,185412
17.425,166482,236,185413
17.430,166498,237,185403
17.435,166487,235,185403
17.440,166500,235,185391
17.445,166502,233,185414
17.450,166499,233,185412
17.455,166504,231,185398
17.460,166494,239,185405
17.465,166510,235,185398
17.469,166510,235,185416
17.474,166517,233,185415
17.479,166518,233,185407
17.484,166530,231,185405
17.489,166523,232,185407
17.494,166531,229,185415
17.499,166520,229,185401
17.504,166530,228,185410
17.509,166567,234,185412
17.514,166525,235,185406
17.519,166526,235,185395
17.524,166548,235,185403
17.529,166536,235,185391
17.534,166532,233,185396
17.539,166534,233,185400
17.544,166531,231,185408
17.549,166550,233,185399
17.554,166542,231,185403
17.559,166550,237,185407
17.564,166569,234,185407
17.569,166558,234,185406
17.574,166564,231,185395
17.579,166555,231,185390
17.584,166581,228,185392
17.589,166572,228,185401
17.594,166580,226,185374
17.599,166574,226,185385
17.604,166583,236,185412
17.609,166601,228,185397
17.614,166570,225,185386
17.619,166580,225,185381
17.624,166568,235,185399
17.629,166572,235,185381
17.633,166550,233,185363
17.638,166546,233,185332
17.643,166526,231,185330
17.648,166518,231,185323
17.653,166489,230,185308
17.658,166488,229,185287
17.663,166464,229,185275
17.668,166436,229,185259
17.673,166423,228,185250
17.678,166398,227,185254
17.683,166398,226,185231
17.688,166371,226,185218
17.693,166373,225,185212
17.698,166359,225,185212
17.703,166329,224,185212
17.708,166339,228,185192
17.713,166323,227,185184
17.718,166305,225,185170
17.723,166310,238,185167
17.728,166290,236,185163
17.733,166286,235,185157
17.738,166274,234,185136
17.743,166274,231,185143
17.748,166270,232,185163
17.753,166238,235,185140
17.758,166270,228,185149
17.763,166257,226,185132
17.768,166253,225,185146
17.773,166250,238,185128
17.778,166244,236,185136
17.783,166266,236,185141
17.788,166240,235,185128
17.793,166253,234,185128
17.798,166238,232,185138
17.802,166246,225,185125
17.807,166226,237,185124
17.812,166222,237,185132
17.817,166235,234,185117
17.822,166232,234,185113
17.827,166222,234,185127
17.832,166214,233,185111
17.837,166224,232,185108
17.842,166222,230,185128
17.847,166240,229,185134
17.852,166230,234,185118
17.857,166222,231,185120
17.862,166223,229,185124
17.867,166216,229,185112
17.872,166228,228,185116
17.877,166222,225,185132
17.882,166236,224,185133
17.887,166223,237,185133
17.892,166225,236,185130
17.897,166240,232,185138
17.902,166224,238,185124
17.907,166220,235,185127
17.912,166217,235,185119
17.917,166241,233,185141
17.922,166237,231,185136
17.927,166257,231,185134
17.932,166243,230,185137
17.937,166254,229,185166
17.942,166217,228,185152
17.947,166248,227,185143
17.952,166232,236,185135
17.957,166232,233,185128
17.962,166211,235,185111
17.966,166199,234,185088
17.971,166193,234,185089
17.976,166185,232,185085
17.981,166166,232,185049
17.986,166154,231,185031
17.991,166144,232,185031
17.996,166131,236,185027
18.001,166134,237,184998
18.006,166127,234,184986
18.011,166109,233,184973
18.016,166109,231,184962
18.021,166108,229,184953
18.026,166099,228,184941
18.031,166088,229,184921
18.036,166093,227,184918
18.041,166084,226,184895
18.046,166081,229,184869
18.051,166069,228,184885
18.056,166054,227,184858
18.061,166060,226,184856
18.066,166054,223,184847
18.071,166047,237,184846
18.076,166060,236,184837
18.081,166051,234,184836
18.086,166048,232,184825
18.091,166055,232,184832
18.096,166040,225,184834
18.101,166051,229,184827
18.106,166059,228,184830
18.111,166065,228,184828
18.116,166056,226,184844
18.121,166067,226,184841
18.126,166067,224,184834
18.130,166076,225,184837
18.135,166073,237,184830
18.140,166058,237,184841
18.145,166057,226,184817
18.150,166073,226,184850
18.155,166069,237,184840
18.160,166081,237,184826
18.165,166074,235,184817
18.170,166070,237,184835
18.175,166064,234,184837
18.180,166089,235,184834
18.185,166082,231,184833
18.190,166092,232,184832
18.195,166090,228,184848
18.200,166085,228,184839
18.205,166106,225,184855
18.210,166108,239,184844
18.215,166115,236,184847
18.220,166122,235,184845
18.225,166128,233,184842
18.230,166118,233,184855
18.235,166146,230,184862
18.240,166147,230,184904
18.245,166156,229,184879
18.250,166154,228,184886
18.255,166161,226,184897
18.260,166156,227,184892
18.265,166178,226,184893
18.270,166183,226,184912
18.275,166189,238,184922
18.280,166192,236,184946
18.285,166212,234,184945
18.290,166184,237,185018
18.295,166225,234,184965
18.299,166231,233,184965
18.304,166236,233,184929
18.309,166219,233,184947
18.314,166215,231,184964
18.319,166198,231,184937
18.324,166189,230,184927
18.329,166177,230,184907
18.334,166160,230,184895
18.339,166153,235,184891
18.344,166135,233,184871
18.349,166124,232,184875
18.354,166131,231,184879
18.359,166116,231,184875
18.364,166087,230,184882
18.369,166106,231,184888
18.374,166095,227,184898
18.379,166098,227,184891
18.384,166091,227,184900
18.389,166101,232,184923
18.394,166078,231,184923
18.399,166080,231,184931
18.404,166072,231,184919
18.409,166059,231,184907
18.414,166053,231,184919
18.419,166055,231,184919
18.424,166043,231,184903
18.429,166044,231,184885
18.434,166027,235,184899
18.439,166034,235,184902
18.444,166029,235,184891
18.449,166029,237,184923
18.454,166023,235,184925
18.459,166019,236,184923
18.463,166027,235,184925
18.468,166018,234,184906
18.473,166016,234,184926
18.478,166027,232,184912
18.483,166013,232,184942
18.488,166015,225,184939
18.493,166015,238,184922
18.498,166006,236,184925
18.503,166016,236,184934
18.508,166016,236,184922
18.513,166012,235,184918
18.518,166004,233,184911
18.523,166000,234,184910
18.528,165989,233,184923
18.533,165990,233,184890
18.538,165995,232,184948
18.543,166001,232,184941
18.548,166001,231,184941
18.553,166012,232,184948
18.558,166020,230,184957
18.563,166005,230,184945
18.568,166018,229,184940
18.573,166008,229,184939
18.578,166014,228,184964
18.583,166015,235,184957
18.588,166029,234,184953
18.593,166032,233,184971
18.598,166025,232,184963
18.603,166030,232,184963
18.608,166032,230,184980
18.613,166026,228,184953
18.618,166034,227,184972
18.623,166030,239,184972
18.627,166015,236,184978
18.632,166017,228,184974
18.637,166040,226,184968
18.642,166032,226,184996
18.647,166026,225,184979
18.652,166024,225,184971
18.657,166021,237,184995
18.662,166019,236,184977
18.667,166022,236,184962
18.672,166018,236,184977
18.677,166008,234,184990
18.682,166021,226,184971
18.687,166025,225,184969
18.692,166016,226,184980
18.697,166011,237,184983
18.702,166044,237,184999
18.707,166033,235,184988
18.712,166035,235,184997
18.717,166034,233,185013
18.722,166052,234,185004
18.727,166042,232,185010
18.732,166063,238,185029
18.737,166059,235,185028
18.742,166073,235,185029
18.747,166083,232,185037
18.752,166071,233,185027
18.757,166077,231,185037
18.762,166078,230,185026
18.767,166077,228,185032
18.772,166071,229,185023
18.777,166087,228,184975
18.782,166076,232,185011
18.787,166073,229,185007
18.792,166078,230,185010
18.796,166073,228,185015
18.801,166095,227,185024
18.806,166085,238,185023
18.811,166082,237,185017
18.816,166091,233,185028
18.821,166106,231,185034
18.826,166112,224,185025
18.831,166106,237,185026
18.836,166109,235,185036
18.841,166117,237,185037
18.846,166118,235,185047
18.851,166121,236,185049
18.856,166135,236,185059
18.861,166146,235,185063
18.866,166140,234,185083
18.871,166126,235,185065
18.876,166168,227,185044
18.881,166157,238,185063
18.886,166150,236,185068
18.891,166147,236,185062
18.896,166137,234,185059
18.901,166151,234,185049
18.906,166154,233,185054
18.911,166166,233,185060
18.916,166152,232,185059
18.921,166164,231,185074
18.926,166178,238,185086
18.931,166167,239,185081
18.936,166177,237,185090
18.941,166174,237,185077
18.946,166197,236,185080
18.951,166203,237,185097
18.956,166221,235,185084
18.960,166218,237,185101
18.965,166215,236,185124
18.970,166218,237,185107
18.975,166217,227,185116
18.980,166215,227,185118
18.985,166224,226,185131
18.990,166231,226,185120
18.995,166240,224,185132
19.000,166223,226,185106
19.005,166210,238,185092
19.010,166208,238,185085
19.015,166200,236,185070
19.020,166172,238,185071
19.025,166181,229,185058
19.030,166168,229,185054
19.035,166144,230,185046
19.040,166127,230,185035
19.045,166119,229,185021
19.050,166107,229,185013
19.055,166099,226,185024
19.060,166087,226,185007
19.065,166082,223,185008
19.070,166067,223,184995
19.075,166056,227,184986
19.080,166032,227,184977
19.085,166027,227,184950
19.090,166013,225,184942
19.095,166021,225,184960
19.100,165984,225,184962
19.105,165992,237,184939
19.110,165980,237,184939
19.115,165978,235,184949
19.120,165977,228,184920
19.124,165963,228,184943
19.129,165962,227,184937
19.134,165961,225,184959
19.139,165964,226,184953
19.144,165958,226,184951
19.149,165965,225,184941
19.154,165938,225,184933
19.159,165943,227,184922
19.164,165929,226,184938
19.169,165912,240,184903
19.174,165923,228,184921
19.179,165902,228,184898
19.184,165905,229,184913
19.189,165904,230,184909
19.194,165882,229,184901
19.199,165875,229,184897
19.204,165883,228,184893
19.209,165874,228,184892
19.214,165859,227,184888
19.219,165916,238,184914
19.224,165865,232,184893
19.229,165865,233,184909
19.234,165870,231,184914
19.239,165895,231,184910
19.244,165895,230,184922
19.249,165884,230,184919
19.254,165888,229,184909
19.259,165885,228,184924
19.264,165904,226,184907
19.269,165896,232,184916
19.274,165889,231,184929
19.279,165888,231,184922
19.284,165902,231,184930
19.288,165903,231,184926
19.293,165911,231,184943
19.298,165903,230,184937
19.303,165902,230,184947
19.308,165901,229,184944
19.313,165909,234,184952
19.318,165910,234,184936
19.323,165924,233,184957
19.328,165926,234,184960
19.333,165907,234,184963
19.338,165919,232,184977
19.343,165918,232,184955
19.348,165924,231,184958
19.353,165917,231,184971
19.358,165922,230,184968
19.363,165904,234,184975
19.368,165930,234,184979
19.373,165934,234,184982
19.378,165923,232,184998
19.383,165921,233,185009
19.388,165916,232,184997
19.393,165929,234,184996
19.398,165927,233,184998
19.403,165956,233,184982
19.408,165946,232,184997
19.413,165936,225,185008
19.418,165944,225,185005
19.423,165937,225,184999
19.428,165945,237,185012
19.433,165947,237,185015
19.438,165958,236,185024
19.443,165961,237,185011
19.448,165950,236,185028
19.453,165965,238,185015
19.457,165974,236,185033
19.462,165966,228,185036
19.467,165969,227,185051
19.472,165978,229,185046
19.477,165987,228,185052
19.482,166001,229,185062
19.487,166002,229,185066
19.492,166002,231,185066
19.497,165994,230,185058
19.502,166028,232,185079
19.507,166024,232,185077
19.512,166010,239,185080
19.517,166024,226,185083
19.522,166043,226,185080
19.527,166028,226,185084
19.532,166037,228,185081
19.537,166041,228,185095
19.542,166040,230,185101
19.547,166032,229,185083
19.552,166059,231,185098
19.557,166054,229,185128
19.562,166049,235,185093
19.567,166066,235,185106
19.572,166054,236,185122
19.577,166045,235,185103
19.582,166078,236,185116
19.587,166082,235,185112
19.592,166074,237,185118
19.597,166073,235,185118
19.602,166085,235,185124
19.607,166081,225,185133
19.612,166082,234,185134
19.617,166106,233,185135
19.621,166105,234,185141
19.626,166116,232,185158
19.631,166110,234,185151
19.636,166127,232,185162
19.641,166125,234,185162
19.646,166138,232,185164
19.651,166126,233,185181
19.656,166136,225,185175
19.661,166138,225,185180
19.666,166157,236,185193
19.671,166161,236,185209
19.676,166154,234,185200
19.681,166171,235,185203
19.686,166168,234,185197
19.691,166178,237,185233
19.696,166170,225,185209
19.701,166193,228,185226
19.706,166200,234,185227
19.711,166219,237,185255
19.716,166225,224,185235
19.721,166213,228,185234
19.726,166223,227,185224
19.731,166197,231,185211
19.736,166193,230,185212
19.741,166183,233,185202
19.746,166173,235,185193
19.751,166157,230,185187
19.756,166140,236,185183
19.761,166114,225,185181
19.766,166118,226,185159
19.771,166098,230,185171
19.776,166094,231,185159
19.781,166078,235,185165
19.785,166064,236,185165
19.790,166077,238,185166
19.795,166067,225,185167
19.800,166064,227,185169
19.805,166068,226,185172
19.810,166063,228,185181
19.815,166070,229,185177
19.820,166053,230,185186
19.825,166050,231,185186
19.830,166033,233,185189
19.835,166032,236,185180
19.840,166041,239,185183
19.845,166034,226,185195
19.850,166024,247,185192
19.855,166044,231,185206
19.860,166033,234,185191
19.865,166033,236,185198
19.870,166047,238,185209
19.875,166030,226,185212
19.880,166047,228,185220
19.885,166045,227,185227
19.890,166052,230,185244
19.895,166048,231,185237
19.900,166065,227,185258
19.905,166070,232,185260
19.910,166078,233,185298
19.915,166089,236,185304
19.920,166091,225,185298
19.925,166101,227,185329
19.930,166100,230,185325
19.935,166111,231,185347
19.940,166119,233,185369
19.945,166136,235,185361
19.950,166149,229,185361
19.954,166162,231,185389
19.959,166152,235,185407
19.964,166156,236,185412
19.969,166198,225,185430
19.974,166180,227,185436
19.979,166204,228,185461
19.984,166214,231,185477
19.989,166216,234,185478
19.994,166231,235,185524
19.999,166235,228,185518
20.004,166268,230,185550
20.009,166276,233,185582
20.014,166265,235,185583
20.019,166281,237,185623
20.024,166298,226,185631
20.029,166295,228,185634
20.034,166316,229,185628
20.039,166326,230,185655
20.044,166322,233,185677
20.049,166348,227,185686
20.054,166342,229,185693
20.059,166351,230,185720
20.064,166382,228,185747
20.069,166389,234,185767
20.074,166392,237,185796
20.079,166411,225,185831
20.084,166438,226,185842
20.089,166447,229,185860
20.094,166471,229,185831
20.099,166487,225,185900
20.104,166506,229,185919
20.109,166525,231,185940
20.114,166519,235,185950
20.118,166560,235,185961
20.123,166569,225,185993
20.128,166574,226,185991
20.133,166605,229,186025
20.138,166608,230,186058
20.143,166623,226,186077
20.148,166643,229,186101
20.153,166665,232,186133
20.158,166664,235,186136
20.163,166684,238,186150
20.168,166737,244,186173
20.173,166715,230,186193
20.178,166732,230,186206
20.183,166747,232,186223
20.188,166743,234,186257
20.193,166771,228,186270
20.198,166797,231,186274
20.203,166809,234,186292
20.208,166833,235,186306
20.213,166837,238,186322
20.218,166865,238,186370
20.223,166865,226,186371
20.228,166891,228,186370
20.233,166903,230,186411
20.238,166922,231,186421
20.243,166941,238,186429
20.248,166956,226,186453
20.253,166961,229,186479
20.258,166956,230,186498
20.263,166974,234,186491
20.268,166980,236,186503
20.273,167002,227,186527
20.278,167005,228,186532
20.282,167014,232,186555
20.287,167034,235,186575
20.292,167052,233,186576
20.297,167041,234,186584
20.302,167074,238,186601
20.307,167086,226,186613
20.312,167077,228,186615
20.317,167074,228,186603
20.322,167090,231,186630
20.327,167103,232,186629
20.332,167100,237,186626
20.337,167103,226,186613
20.342,167107,238,186637
20.347,167099,226,186635
20.352,167108,228,186638
20.357,167120,229,186625
20.362,167117,233,186635
20.367,167121,233,186643
20.372,167129,236,186636
20.377,167124,238,186662
20.382,167133,226,186661
20.387,167165,233,186660
20.392,167167,235,186678
20.397,167183,237,186681
20.402,167178,227,186695
20.407,167182,228,186691
20.412,167214,232,186696
20.417,167211,233,186704
20.422,167202,237,186725
20.427,167211,226,186723
20.432,167217,230,186721
20.437,167231,238,186708
20.442,167235,228,186726
20.447,167240,230,186733
20.451,167253,234,186743
20.456,167256,236,186738
20.461,167251,226,186730
20.466,167253,226,186753
20.471,167274,229,186748
20.476,167279,228,186759
20.481,167269,231,186757
20.486,167283,238,186768
20.491,167302,228,186763
20.496,167305,228,186782
20.501,167316,232,186793
20.506,167326,232,186804
20.511,167332,236,186796
20.516,167339,236,186818
20.521,167356,225,186838
20.526,167359,226,186826
20.531,167356,231,186842
20.536,167385,238,186839
20.541,167392,227,186852
20.546,167393,227,186851
20.551,167392,231,186867
20.556,167394,231,186874
20.561,167402,234,186854
20.566,167398,235,186865
20.571,167410,226,186876
20.576,167418,227,186864
20.581,167396,234,186847
20.586,167400,233,186861
20.591,167399,235,186831
20.596,167384,237,186854
20.601,167366,225,186839
20.606,167348,226,186828
20.611,167337,227,186836
20.615,167328,228,186799
20.620,167316,230,186792
20.625,167300,231,186815
20.630,167305,239,186791
20.635,167281,231,186797
20.640,167283,234,186791
20.645,167267,235,186792
20.650,167275,239,186785
20.655,167254,226,186775
20.660,167257,228,186791
20.665,167250,229,186783
20.670,167232,233,186759
20.675,167231,233,186775
20.680,167228,227,186753
20.685,167224,228,186752
20.690,167196,231,186732
20.695,167187,232,186724
20.700,167180,236,186702
20.705,167164,238,186700
20.710,167162,227,186681
20.715,167163,227,186685
20.720,167151,229,186690
20.725,167155,230,186708
20.730,167150,229,186691
20.735,167159,230,186683
20.740,167152,232,186679
20.745,167140,234,186681
20.750,167154,237,186677
20.755,167141,226,186688
20.760,167141,228,186692
20.765,167133,229,186692
20.770,167135,232,186680
20.775,167141,234,186673
20.779,167136,228,186679
20.784,167129,228,186680
20.789,167132,230,186702
20.794,167148,231,186691
20.799,167140,234,186699
20.804,167152,235,186709
20.809,167134,239,186717
20.814,167140,227,186699
20.819,167154,228,186707
20.824,167152,233,186706
20.829,167154,235,186713
20.834,167163,236,186720
20.839,167167,226,186719
20.844,167182,228,186714
20.849,167168,230,186719
20.854,167173,232,186732
20.859,167175,235,186713
20.864,167175,237,186733
20.869,167168,226,186713
20.874,167157,233,186719
20.879,167179,235,186734
20.884,167168,237,186742
20.889,167174,226,186752
20.894,167174,227,186745
20.899,167175,228,186744
20.904,167176,230,186741
20.909,167183,232,186750
20.914,167166,233,186732
20.919,167172,235,186737
20.924,167176,228,186752
20.929,167171,229,186760
20.934,167183,232,186754
20.939,167183,233,186764
20.943,167191,235,186770
20.948,167199,226,186762
20.953,167186,228,186764
20.958,167193,230,186784
20.963,167217,232,186772
20.968,167190,234,186766
20.973,167221,233,186770
20.978,167225,226,186783
20.983,167226,227,186789
20.988,167230,229,186796
20.993,167228,232,186780
20.998,167222,235,186804
21.003,167233,237,186809
21.008,167252,227,186802
21.013,167231,228,186798
21.018,167254,230,186819
21.023,167244,237,186807
21.028,167259,226,186820
21.033,167262,229,186820
21.038,167269,231,186842
21.043,167292,234,186829
21.048,167268,237,186819
21.053,167268,226,186843
21.058,167283,227,186866
21.063,167307,221,186872
21.068,167306,230,186825
21.073,167311,237,186868
21.078,167321,225,186877
21.083,167323,228,186891
21.088,167336,229,186894
21.093,167338,231,186884
21.098,167334,232,186894
21.103,167340,235,186898
21.108,167348,225,186891
21.112,167348,228,186903
21.117,167354,228,186903
21.122,167353,238,186903
21.127,167370,227,186914
21.132,167364,229,186914
21.137,167356,232,186921
21.142,167373,236,186916
21.147,167369,225,186920
21.152,167379,228,186929
21.157,167379,230,186918
21.162,167385,234,186922
21.167,167404,227,186913
21.172,167401,232,186921
21.177,167392,233,186928
21.182,167410,236,186927
21.187,167397,226,186906
21.192,167387,229,186930
21.197,167399,230,186921
21.202,167397,234,186912
21.207,167412,236,186927
21.212,167397,226,186920
21.217,167420,236,186912
21.222,167405,227,186902
21.227,167385,230,186893
21.232,167395,233,186890
21.237,167381,234,186889
21.242,167372,238,186852
21.247,167368,225,186853
21.252,167376,229,186836
21.257,167371,230,186837
21.262,167371,234,186835
21.267,167357,228,186829
21.272,167352,231,186808
21.276,167353,232,186793
21.281,167342,236,186799
21.286,167340,225,186789
21.291,167343,228,186787
21.296,167345,228,186784
21.301,167337,230,186771
21.306,167335,232,186762
21.311,167321,236,186738
21.316,167329,228,186720
21.321,167306,231,186703
21.326,167306,233,186698
21.331,167297,237,186690
21.336,167306,226,186682
21.341,167298,228,186684
21.346,167291,230,186653
21.351,167297,234,186659
21.356,167285,234,186668
21.361,167340,228,186651
21.366,167312,231,186657
21.371,167304,236,186627
21.376,167289,225,186647
21.381,167291,229,186611
21.386,167282,231,186598
21.391,167277,236,186600
21.396,167271,225,186591
21.401,167256,229,186569
21.406,167252,230,186562
21.411,167247,228,186535
21.416,167245,232,186528
21.421,167240,236,186536
21.426,167257,225,186550
21.431,167245,229,186530
21.436,167237,230,186527
21.440,167248,235,186527
21.445,167239,225,186498
21.450,167225,228,186477
21.455,167226,229,186460
21.460,167185,227,186449
21.465,167187,230,186442
21.470,167169,234,186423
21.475,167137,235,186396
21.480,167100,225,186361
21.485,167076,226,186348
21.490,167055,230,186316
21.495,167045,230,186313
21.500,167032,232,186309
21.505,167025,233,186294
21.510,167019,228,186291
21.515,167020,228,186296
21.520,167017,232,186284
21.525,167010,233,186301
21.530,167004,238,186293
21.535,166999,226,186290
21.540,166984,229,186292
21.545,166996,230,186292
21.550,166974,234,186269
21.555,166974,236,186288
21.560,166967,229,186258
21.565,166971,229,186260
21.570,166966,234,186265
21.575,166943,236,186257
21.580,166936,227,186239
21.585,166925,228,186244
21.590,166915,230,186223
21.595,166938,232,186221
21.600,166928,233,186240
21.605,166924,223,186223
21.609,166911,228,186226
21.614,166915,230,186222
21.619,166925,233,186239
21.624,166916,236,186224
21.629,166903,238,186229
21.634,166898,225,186232
21.639,166917,226,186236
21.644,166906,228,186227
21.649,166894,230,186216
21.654,166879,235,186215
21.659,166889,238,186200
21.664,166887,225,186215
21.669,166898,227,186220
21.674,166912,228,186218
21.679,166901,231,186243
21.684,166921,233,186239
21.689,166929,236,186265
21.694,166929,225,186262
21.699,166931,227,186249
21.704,166920,233,186240
21.709,166934,236,186257
21.714,166938,238,186265
21.719,166933,238,186261
21.724,166943,225,186284
21.729,166939,228,186268
21.734,166933,229,186256
21.739,166937,231,186282
21.744,166946,234,186278
21.749,166943,235,186271
21.754,166942,230,186265
21.759,166933,232,186269
21.764,166926,235,186260
21.769,166948,236,186264
21.773,166929,226,186276
21.778,166959,227,186301
21.783,166940,229,186274
21.788,166955,231,186295
21.793,166952,234,186302
21.798,166968,237,186304
21.803,166952,235,186287
21.808,166969,237,186292
21.813,166962,226,186314
21.818,166980,228,186297
21.823,166965,231,186316
21.828,166968,234,186310
21.833,166967,237,186319
21.838,166959,226,186336
21.843,166975,228,186332
21.848,166971,233,186351
21.853,166999,226,186336
21.858,166993,227,186338
21.863,167008,228,186361
21.868,167013,231,186362
21.873,167012,231,186366
21.878,167017,232,186358
21.883,167037,233,186370
21.888,167040,234,186388
21.893,167047,236,186385
21.898,167040,227,186381
21.903,167044,231,186383
21.908,167055,233,186389
21.913,167056,237,186390
21.918,167057,225,186383
21.923,167055,228,186387
21.928,167056,230,186400
21.933,167046,234,186377
21.937,167057,235,186392
21.942,167060,236,186392
21.947,167048,230,186397
21.952,167067,233,186389
21.957,167061,233,186402
21.962,167076,237,186383
21.967,167071,224,186413
21.972,167096,226,186418
21.977,167087,226,186423
21.982,167094,228,186418
21.987,167110,229,186426
21.992,167097,229,186426
21.997,167114,237,186430
22.002,167121,226,186433
22.007,167115,227,186433
22.012,167114,231,186418
22.017,167113,233,186430
22.022,167129,236,186443
22.027,167127,237,186434
22.032,167132,226,186438
22.037,167123,227,186435
22.042,167126,231,186450
22.047,167146,238,186450
22.052,167140,228,186444
22.057,167154,228,186458
22.062,167157,231,186562
22.067,167179,231,186455
22.072,167165,235,186467
22.077,167166,236,186475
22.082,167202,225,186473
22.087,167184,227,186476
22.092,167192,228,186463
22.097,167210,235,186458
22.101,167180,238,186474
22.106,167193,226,186464
22.111,167187,228,186482
22.116,167195,227,186465
22.121,167191,230,186452
22.126,167194,231,186481
22.131,167194,235,186446
22.136,167192,236,186464
22.141,167217,231,186470
22.146,167203,230,186469
22.151,167214,233,186452
22.156,167213,233,186469
22.161,167222,236,186457
22.166,167225,224,186465
22.171,167223,228,186464
22.176,167220,228,186474
22.181,167233,230,186466
22.186,167233,231,186474
22.191,167246,227,186465
22.196,167234,227,186472
22.201,167246,229,186490
22.206,167237,231,186473
22.211,167249,234,186477
22.216,167255,235,186478
22.221,167261,225,186489
22.226,167275,227,186492
22.231,167270,230,186483
22.236,167287,232,186491
22.241,167272,225,186494
22.246,167280,227,186496
22.251,167299,230,186498
22.256,167295,232,186494
22.261,167277,235,186481
22.266,167272,237,186472
22.270,167271,227,186470
22.275,167274,227,186460
22.280,167263,230,186458
22.285,167240,230,186417
22.290,167230,226,186415
22.295,167218,226,186401
22.300,167199,229,186392
22.305,167176,230,186384
22.310,167160,234,186375
22.315,167144,236,186354
22.320,167145,227,186345
22.325,167113,228,186346
22.330,167111,233,186344
22.335,167102,236,186315
22.340,167115,229,186338
22.345,167085,229,186316
22.350,167083,232,186318
22.355,167064,233,186305
22.360,167054,236,186311
22.365,167052,224,186316
22.370,167060,228,186304
22.375,167044,227,186303
22.380,167049,230,186295
22.385,167041,237,186300
22.390,167038,226,186293
22.395,167037,227,186287
22.400,167018,230,186276
22.405,167003,231,186283
22.410,167005,233,186264
22.415,167005,234,186285
22.420,167007,236,186274
22.425,167005,237,186280
22.430,167005,227,186274
22.434,167009,232,186269
22.439,166995,236,186267
22.444,166984,236,186284
22.449,166985,226,186259
22.454,166990,226,186267
22.459,166991,227,186242
22.464,166954,227,186273
22.469,166965,230,186247
22.474,166982,230,186257
22.479,166966,234,186244
22.484,166954,231,186220
22.489,166947,234,186226
22.494,166946,234,186231
22.499,166936,236,186213
22.504,166935,237,186216
22.509,166944,226,186201
22.514,166938,226,186210
22.519,166929,228,186220
22.524,166938,229,186206
22.529,166938,231,186213
22.534,166949,237,186209
22.539,166965,226,186207
22.544,166962,227,186225
22.549,166949,229,186212
22.554,166958,229,186218
22.559,166953,231,186205
22.564,166945,231,186195
22.569,166948,233,186219
22.574,166943,233,186185
22.579,166936,239,186211
22.584,166950,227,186202
22.589,166935,229,186195
22.594,166940,232,186189
22.598,166936,232,186179
22.603,166935,233,186172
22.608,166935,236,186174
22.613,166938,235,186196
22.618,166919,236,186173
22.623,166922,237,186175
22.628,166931,228,186174
22.633,166936,228,186177
22.638,166951,229,186183
22.643,166955,229,186204
22.648,166963,230,186201
22.653,166959,232,186195
22.658,166956,232,186200
22.663,166969,233,186194
22.668,166977,234,186205
22.673,166953,236,186192
22.678,166978,228,186180
22.683,166960,230,186195
22.688,166964,230,186193
22.693,166952,232,186170
22.698,166941,232,186185
22.703,166968,234,186181
22.708,166960,237,186181
22.713,166971,225,186177
22.718,166955,225,186164
22.723,166948,227,186190
22.728,166944,224,186169
22.733,166952,227,186168
22.738,166962,226,186173
22.743,166958,228,186170
22.748,166956,229,186169
22.753,166973,230,186181
22.758,166985,231,186194
22.763,166990,232,186179
22.767,166963,233,186180
22.772,166978,235,186175
22.777,166964,235,186175
22.782,166967,224,186173
22.787,166970,225,186161
22.792,166963,228,186149
22.797,166965,228,186154
22.802,166956,230,186136
22.807,166961,230,186130
22.812,166965,233,186133
22.817,166948,233,186131
22.822,166967,240,186185
22.827,166963,227,186127
22.832,166958,230,186132
22.837,166956,229,186128
22.842,166968,231,186134
22.847,166959,231,186131
22.852,166965,234,186132
22.857,166973,233,186148
22.862,166968,235,186138
22.867,166973,236,186139
22.872,166983,228,186137
22.877,166980,229,186142
22.882,166969,231,186150
22.887,166976,231,186131
22.892,166982,231,186141
22.897,166976,232,186139
22.902,166981,234,186128
22.907,166985,235,186123
22.912,166978,238,186137
22.917,166993,224,186135
22.922,166957,233,186144
22.927,166998,225,186150
22.931,167015,227,186140
22.936,167017,227,186137
22.941,167020,228,186146
22.946,167028,228,186133
22.951,167015,230,186150
22.956,167030,231,186135
22.961,167042,233,186145
22.966,167029,234,186148
22.971,167029,228,186144
22.976,167028,227,186145
22.981,167029,227,186134
22.986,167041,228,186142
22.991,167032,229,186134
22.996,167032,227,186148
23.001,167031,229,186136
23.006,167047,228,186129
23.011,167040,231,186130
23.016,167038,230,186134
23.021,167051,225,186146
23.026,167065,227,186133
23.031,167052,228,186159
23.036,167051,229,186139
23.041,167066,231,186149
23.046,167062,232,186140
23.051,167086,235,186159
23.056,167087,233,186170
23.061,167083,235,186048
23.066,167105,234,186169
23.071,167099,227,186135
23.076,167097,227,186137
23.081,167091,228,186122
23.086,167091,228,186119
23.091,167077,230,186108
23.095,167090,230,186092
23.100,167081,232,186100
23.105,167070,231,186070
23.110,167057,233,186071
23.115,167042,224,186061
23.120,167048,224,186061
23.125,167045,224,186054
23.130,167040,226,186062
23.135,167012,225,186041
23.140,167013,227,186048
23.145,167007,227,186052
23.150,166984,229,186044
23.155,166998,228,186032
23.160,166982,230,186038
23.165,166983,235,186039
23.170,166978,226,186039
23.175,166954,225,186031
23.180,166961,228,186009
23.185,166968,227,186020
23.190,166945,230,186017
23.195,166937,232,186017
23.200,166935,235,186005
23.205,166945,224,186008
23.210,166926,227,186001
23.215,166938,224,185986
23.220,166920,229,185983
23.225,166918,229,185987
23.230,166926,233,185976
23.235,166898,234,185987
23.240,166903,237,185975
23.245,166888,224,185967
23.250,166891,228,185965
23.255,166904,229,185965
23.260,166884,230,185975
23.264,166891,230,185973
23.269,166881,234,185962
23.274,166888,222,185970
23.279,166868,226,185977
23.284,166891,227,185970
23.289,166889,230,185991
23.294,166904,231,185994
23.299,166899,233,185995
23.304,166898,233,185999
23.309,166909,237,186018
23.314,166917,226,186010
23.319,166912,229,186005
23.324,166911,229,186007
23.329,166919,232,186006
23.334,166927,233,186007
23.339,166904,235,186009
23.344,166910,223,185998
23.349,166902,226,186009
23.354,166892,227,185995
23.359,166912,226,186010
23.364,166893,235,185992
23.369,166894,224,185990
23.374,166899,225,185998
23.379,166877,228,186003
23.384,166882,229,185988
23.389,166889,232,185990
23.394,166898,234,185996
23.399,166876,224,185989
23.404,166877,226,186006
23.409,166889,233,185987
23.414,166893,236,185980
23.419,166888,225,186005
23.424,166878,228,186009
23.428,166877,230,185981
23.433,166865,231,185987
23.438,166881,233,185995
23.443,166880,235,185987
23.448,166874,223,185990
23.453,166883,226,185982
23.458,166881,233,186003
23.463,166904,235,186000
23.468,166914,223,186015
23.473,166900,225,186025
23.478,166914,227,186013
23.483,166922,229,186038
23.488,166937,232,186040
23.493,166919,234,186039
23.498,166915,235,186041
23.503,166931,223,186045
23.508,166936,231,186036
23.513,166918,232,186040
23.518,166925,234,186044
23.523,166914,223,186033
23.528,166926,225,186041
23.533,166917,227,186024
23.538,166911,229,186043
23.543,166915,231,186061
23.548,166933,233,186049
23.553,166929,236,186045
23.558,166921,229,186056
23.563,166943,231,186075
23.568,166954,235,186082
23.573,166953,224,186084
23.578,166966,226,186089
23.583,166953,228,186105
23.588,166983,231,186127
23.592,166999,234,186139
23.597,167004,235,186149
23.602,167012,239,186196
23.607,167014,228,186178
23.612,167019,232,186176
23.617,167016,236,186174
23.622,167052,225,186209
23.627,167050,226,186198
23.632,167069,229,186213
23.637,167069,231,186217
23.642,167075,233,186225
23.647,167078,235,186230
23.652,167082,228,186242
23.657,167091,230,186239
23.662,167079,232,186247
23.667,167094,234,186247
23.672,167087,224,186266
23.677,167100,225,186255
23.682,167104,227,186256
23.687,167104,229,186275
23.692,167104,232,186267
23.697,167114,234,186266
23.702,167112,227,186278
23.707,167117,228,186284
23.712,167123,231,186272
23.717,167111,232,186275
23.722,167117,235,186282
23.727,167119,223,186283
23.732,167122,227,186251
23.737,167126,228,186278
23.742,167132,231,186280
23.747,167134,233,186283
23.752,167148,227,186284
23.756,167149,228,186287
23.761,167152,230,186279
23.766,167147,233,186276
23.771,167155,236,186293
23.776,167167,223,186300
23.781,167172,225,186291
23.786,167161,226,186291
23.791,167166,229,186296
23.796,167177,231,186291
23.801,167160,225,186284
23.806,167163,226,186281
23.811,167161,229,186275
23.816,167157,231,186268
23.821,167152,233,186269
23.826,167163,235,186271
23.831,167162,224,186276
23.836,167160,224,186274
23.841,167164,226,186279
23.846,167175,225,186284
23.851,167166,235,186294
23.856,167175,222,186288
23.861,167183,224,186303
23.866,167192,225,186322
23.871,167182,228,186300
23.876,167191,227,186316
23.881,167185,228,186318
23.886,167181,229,186318
23.891,167169,233,186300
23.896,167196,225,186311
23.901,167156,227,186281
23.906,167145,227,186290
23.911,167130,230,186281
23.916,167115,231,186282
23.921,167100,232,186285
23.925,167105,233,186281
23.930,167080,237,186274
23.935,167064,235,186280
23.940,167075,224,186280
23.945,167069,232,186279
23.950,167065,235,186287
23.955,167057,235,186282
23.960,167056,224,186303
23.965,167046,224,186302
23.970,167057,227,186322
23.975,167054,228,186306
23.980,167057,230,186317
23.985,167019,231,186318
23.990,167026,234,186291
23.995,167018,225,186308
24.000,167017,227,186300
24.005,167014,227,186307
24.010,166991,232,186313
24.015,166993,233,186298
24.020,167003,235,186308
24.025,166992,223,186315
24.030,167016,226,186337
24.035,167022,227,186328
24.040,167007,231,186330
24.045,167013,223,186334
24.050,167015,225,186339
24.055,167008,225,186351
24.060,167013,226,186346
24.065,167008,226,186379
24.070,167013,230,186365
24.075,167007,231,186367
24.080,167009,233,186371
24.085,167023,234,186365
24.089,167010,229,186375
24.094,167023,223,186391
24.099,167013,225,186397
24.104,167016,226,186396
24.109,167032,229,186404
24.114,167042,229,186429
24.119,167040,231,186421
24.124,167063,231,186426
24.129,167046,235,186426
24.134,167060,223,186446
24.139,167076,227,186446
24.144,167072,228,186476
24.149,167070,230,186448
24.154,167086,231,186457
24.159,167093,233,186490
24.164,167113,234,186488
24.169,167103,237,186480
24.174,167092,237,186499
24.179,167102,225,186507
24.184,167092,225,186506
24.189,167111,234,186467
24.194,167090,226,186497
24.199,167090,227,186480
24.204,167074,226,186481
24.209,167068,228,186470
24.214,167056,228,186466
24.219,167053,230,186470
24.224,167049,231,186465
24.229,167035,234,186467
24.234,167072,234,186483
24.239,167061,227,186484
24.244,167074,228,186494
24.249,167066,230,186488
24.253,167069,230,186497
24.258,167091,231,186521
24.263,167092,231,186520
24.268,167099,233,186517
24.273,167106,233,186521
24.278,167106,234,186528
24.283,167103,234,186533
24.288,167114,226,186524
24.293,167114,228,186532
24.298,167107,229,186522
24.303,167100,231,186517
24.308,167084,232,186506
24.313,167100,234,186514
24.318,167091,235,186509
24.323,167093,235,186519
24.328,167094,235,186516
24.333,167082,227,186525
24.338,167095,226,186523
24.343,167113,227,186524
24.348,167115,228,186539
24.353,167118,228,186531
24.358,167116,227,186546
24.363,167125,228,186557
24.368,167127,229,186576
24.373,167123,231,186561
24.378,167137,231,186565
24.383,167127,223,186570
24.388,167163,230,186585
24.393,167150,232,186588
24.398,167160,232,186601
24.403,167159,233,186595
24.408,167175,234,186600
24.413,167166,235,186619
24.418,167191,223,186611
24.422,167188,225,186614
24.427,167201,225,186654
24.432,167213,233,186658
24.437,167230,225,186662
24.442,167250,226,186674
24.447,167266,227,186710
24.452,167258,229,186726
24.457,167272,228,186720
24.462,167273,229,186726
24.467,167282,229,186740
24.472,167293,231,186734
24.477,167293,232,186750
24.482,167303,226,186755
24.487,167304,226,186740
24.492,167305,228,186754
24.497,167309,229,186744
24.502,167320,232,186758
24.507,167330,233,186762
24.512,167333,236,186767
24.517,167334,235,186768
24.522,167334,223,186760
24.527,167344,224,186764
24.532,167337,232,186776
24.537,167345,231,186761
24.542,167343,234,186772
24.547,167341,235,186777
24.552,167340,224,186788
24.557,167343,225,186772
24.562,167347,227,186767
24.567,167339,229,186773
24.572,167332,232,186749
24.577,167302,233,186763
24.582,167286,225,186714
24.586,167255,226,186713
24.591,167246,228,186676
24.596,167218,229,186674
24.601,167208,232,186660
24.606,167186,233,186643
24.611,167179,236,186620
24.616,167150,223,186611
24.621,167137,226,186603
24.626,167118,222,186605
24.631,167119,236,186591
24.636,167095,224,186599
24.641,167105,226,186601
24.646,167087,226,186580
24.651,167087,229,186599
24.656,167089,231,186569
24.661,167076,234,186593
24.666,167081,234,186578
24.671,167065,225,186605
24.676,167062,230,186600
24.681,167052,233,186604
24.686,167062,235,186594
24.691,167063,226,186602
24.696,167052,226,186595
24.701,167049,231,186587
24.706,167048,234,186570
24.711,167043,224,186579
24.716,167010,224,186562
24.721,167020,226,186557
24.726,167005,223,186520
24.731,166978,228,186530
24.736,166978,227,186515
24.741,166957,231,186495
24.746,166959,231,186500
24.750,166958,236,186498
24.755,166938,223,186474
24.760,166930,225,186477
24.765,166931,225,186481
24.770,166918,228,186464
24.775,166914,226,186477
24.780,166933,229,186472
24.785,166937,229,186474
24.790,166924,234,186478
24.795,166925,234,186452
24.800,166944,224,186470
24.805,166955,225,186466
24.810,166943,228,186475
24.815,166963,228,186493
24.820,166967,231,186509
24.825,166981,224,186511
24.830,166987,227,186519
24.835,167010,227,186531
24.840,167013,229,186530
24.845,167021,231,186516
24.850,167007,235,186533
24.855,167022,222,186533
24.860,167019,225,186531
24.865,167027,226,186528
24.870,166993,228,186521
24.875,167013,234,186507
24.880,166998,224,186504
24.885,167001,225,186509
24.890,166992,227,186508
24.895,166995,227,186507
24.900,166985,229,186514
24.905,166993,230,186496
24.910,166993,233,186504
24.914,166973,235,186493
24.919,166985,227,186495
24.924,166982,229,186500
24.929,166977,231,186501
24.934,166977,232,186492
24.939,166989,234,186513
24.944,166987,235,186526
24.949,166998,225,186502
24.954,167009,225,186513
24.959,166990,226,186514
24.964,166985,227,186500
24.969,166998,233,186506
24.974,166988,231,186481
24.979,166983,231,186509
24.984,166992,230,186484
24.989,166987,230,186495
24.994,166976,229,186483
24.999,166971,230,186477
25.004,166969,228,186459
25.009,166983,229,186464
25.014,166970,231,186453
25.019,166974,225,186456
25.024,166982,223,186464
25.029,166968,223,186460
25.034,166974,235,186457
25.039,166956,236,186437
25.044,166967,235,186433
25.049,166950,223,186435
25.054,166968,222,186407
25.059,166958,236,186417
25.064,166967,233,186399
25.069,166944,226,186402
25.074,166957,226,186397
25.079,166942,227,186399
25.083,166953,226,186385
25.088,166925,227,186377
25.093,166947,226,186365
25.098,166934,227,186367
25.103,166937,227,186351
25.108,166935,228,186368
25.113,166933,228,186353
25.118,166917,236,186327
25.123,166918,224,186327
25.128,166931,224,186342
25.133,166925,225,186333
25.138,166925,227,186339
25.143,166941,228,186334
25.148,166935,228,186338
25.153,166942,229,186337
25.158,166946,229,186338
25.163,166966,236,186350
25.168,166963,230,186367
25.173,166967,230,186367
25.178,166969,230,186371
25.183,166978,229,186367
25.188,166998,230,186372
25.193,166979,230,186386
25.198,166991,230,186396
25.203,167015,230,186395
25.208,167006,230,186378
25.213,166994,235,186372
25.218,167001,235,186381
25.223,167002,235,186379
25.228,167007,235,186367
25.233,166990,234,186382
25.238,166983,234,186358
25.243,166971,234,186373
25.247,166963,233,186347
25.252,166958,232,186362
25.257,166930,230,186358
25.262,166934,222,186335
25.267,166913,223,186355
25.272,166909,237,186355
25.277,166911,234,186368
25.282,166896,233,186358
25.287,166901,232,186364
25.292,166901,232,186362
25.297,166907,230,186363
25.302,166903,230,186366
25.307,166903,227,186389
25.312,166897,234,186367
25.317,166890,232,186366
25.322,166881,232,186379
25.327,166879,230,186379
25.332,166874,230,186371
25.337,166877,228,186358
25.342,166859,228,186385
25.347,166867,227,186381
25.352,166873,228,186369
25.357,166863,230,186359
25.362,166843,231,186381
25.367,166856,228,186356
25.372,166851,229,186369
25.377,166852,228,186380
25.382,166852,227,186364
25.387,166829,225,186357
25.392,166840,227,186357
25.397,166835,225,186366
25.402,166823,226,186366
25.407,166806,230,186359
25.411,166813,223,186343
25.416,166794,223,186337
25.421,166794,223,186350
25.426,166800,223,186330
25.431,166777,224,186337
25.436,166792,223,186328
25.441,166809,223,186340
25.446,166805,235,186353
25.451,166807,236,186359
25.456,166800,227,186359
25.461,166826,231,186368
25.466,166825,231,186369
25.471,166834,230,186356
25.476,166815,228,186368
25.481,166836,227,186368
25.486,166823,226,186362
25.491,166813,226,186366
25.496,166808,224,186366
25.501,166819,225,186348
25.506,166810,234,186343
25.511,166793,236,186353
25.516,166807,234,186336
25.521,166806,235,186323
25.526,166790,234,186322
25.531,166799,234,186326
25.536,166782,232,186319
25.541,166780,232,186319
25.546,166780,231,186319
25.551,166766,231,186314
25.556,166780,229,186327
25.561,166799,229,186339
25.566,166810,227,186333
25.571,166795,229,186340
25.576,166796,226,186339
25.580,166802,227,186325
25.585,166807,225,186355
25.590,166795,225,186346
25.595,166806,222,186340
25.600,166811,236,186339
25.605,166811,225,186357
25.610,166813,226,186334
25.615,166803,225,186336
25.620,166805,225,186343
25.625,166799,225,186331
25.630,166819,225,186346
25.635,166806,224,186337
25.640,166813,224,186338
25.645,166807,224,186337
25.650,166821,221,186336
25.655,166804,227,186326
25.660,166798,227,186333
25.665,166808,225,186331
25.670,166801,226,186316
25.675,166806,225,186342
25.680,166822,225,186332
25.685,166827,224,186348
25.690,166832,225,186346
25.695,166835,235,186349
25.700,166860,228,186364
25.705,166853,231,186373
25.710,166849,230,186381
25.715,166870,228,186347
25.720,166858,227,186354
25.725,166865,224,186372
25.730,166860,225,186355
25.735,166848,223,186363
25.740,166856,222,186352
25.744,166851,234,186355
25.749,166863,226,186361
25.754,166862,223,186345
25.759,166873,236,186364
25.764,166876,232,186371
25.769,166872,231,186351
25.774,166884,229,186361
25.779,166875,228,186368
25.784,166886,226,186351
25.789,166897,226,186360
25.794,166895,224,186375
25.799,166888,229,186373
25.804,166883,228,186364
25.809,166904,228,186354
25.814,166916,227,186366
25.819,166915,226,186357
25.824,166917,226,186362
25.829,166918,227,186365
25.834,166928,225,186359
25.839,166908,225,186365
25.844,166909,224,186365
25.849,166922,224,186359
25.854,166924,224,186347
25.859,166914,236,186354
25.864,166915,233,186351
25.869,166907,233,186341
25.874,166891,232,186328
25.879,166901,230,186311
25.884,166874,227,186313
25.889,166848,227,186315
25.894,166835,231,186247
25.899,166823,230,186279
25.904,166822,229,186284
25.908,166787,228,186253
25.913,166794,227,186241
25.918,166759,225,186222
25.923,166752,225,186217
25.928,166733,224,186189
25.933,166723,224,186175
25.938,166701,223,186173
25.943,166702,227,186163
25.948,166695,227,186153
25.953,166677,226,186165
25.958,166667,226,186129
25.963,166661,225,186128
25.968,166656,225,186125
25.973,166665,225,186110
25.978,166647,224,186094
25.983,166633,223,186099
25.988,166637,235,186077
25.993,166626,229,186063
25.998,166616,228,186059
26.003,166601,227,186050
26.008,166600,228,186030
26.013,166591,227,186037
26.018,166589,225,186032
26.023,166574,225,186009
26.028,166567,224,186000
26.033,166563,226,185988
26.038,166557,223,185981
26.043,166534,228,185957
26.048,166536,227,185943
26.053,166542,228,185959
26.058,166547,226,185947
26.063,166536,224,185923
26.068,166514,226,185918
26.073,166506,227,185905
26.077,166504,226,185901
26.082,166502,227,185915
26.087,166520,227,185916
26.092,166505,234,185902
26.097,166524,232,185925
26.102,166526,232,185904
26.107,166541,231,185913
26.112,166540,232,185912
26.117,166532,230,185919
26.122,166542,230,185928
26.127,166542,228,185930
26.132,166562,228,185943
26.137,166549,226,185917
26.142,166553,225,185926
26.147,166553,225,185925
26.152,166549,224,185932
26.157,166555,223,185918
26.162,166556,236,185911
26.167,166537,244,185908
26.172,166531,236,185902
26.177,166533,233,185898
26.182,166518,233,185869
26.187,166520,236,185882
26.192,166520,224,185868
26.197,166519,236,185886
26.202,166523,236,185869
26.207,166521,234,185886
26.212,166522,236,185876
26.217,166517,234,185856
26.222,166511,234,185869
26.227,166515,233,185866
26.232,166512,233,185872
26.237,166501,223,185862
26.241,166508,224,185869
26.246,166510,223,185872
26.251,166514,238,185879
26.256,166511,235,185863
26.261,166514,236,185853
26.266,166520,235,185865
26.271,166522,237,185853
26.276,166508,236,185866
26.281,166526,237,185865
26.286,166516,227,185868
26.291,166542,229,185865
26.296,166520,227,185880
26.301,166541,226,185884
26.306,166536,225,185868
26.311,166547,226,185881
26.316,166547,225,185874
26.321,166546,224,185877
26.326,166537,236,185883
26.331,166552,235,185884
26.336,166567,225,185871
26.341,166546,225,185869
26.346,166564,223,185867
26.351,166566,224,185883
26.356,166555,223,185876
26.361,166565,236,185887
26.366,166566,234,185871
26.371,166579,234,185884
26.376,166570,234,185885
26.381,166556,233,185866
26.386,166549,224,185871
26.391,166561,226,185864
26.396,166549,225,185858
26.401,166558,225,185847
26.405,166570,223,185860
26.410,166559,225,185848
26.415,166566,223,185835
26.420,166552,236,185848
26.425,166562,234,185834
26.430,166547,224,185835
26.435,166553,225,185829
26.440,166554,224,185817
26.445,166554,236,185833
26.450,166581,236,185832
26.455,166584,234,185828
26.460,166577,234,185828
26.465,166581,233,185828
26.470,166589,235,185823
26.475,166595,234,185839
26.480,166593,225,185844
26.485,166593,225,185827
26.490,166587,225,185851
26.495,166583,224,185823
26.500,166583,224,185826
26.505,166571,236,185813
26.510,166543,235,185791
26.515,166542,234,185783
26.520,166545,233,185780
26.525,166515,232,185767
26.530,166515,227,185734
26.535,166496,227,185753
26.540,166480,227,185731
26.545,166474,226,185723
26.550,166438,225,185701
26.555,166440,225,185700
26.560,166437,224,185692
26.565,166412,236,185673
26.569,166418,235,185686
26.574,166413,234,185669
26.579,166427,230,185665
26.584,166380,225,185663
26.589,166378,224,185657
26.594,166373,237,185652
26.599,166357,235,185658
26.604,166364,233,185639
26.609,166352,232,185634
26.614,166346,232,185656
26.619,166348,231,185633
26.624,166352,229,185653
26.629,166355,235,185651
26.634,166359,234,185672
26.639,166373,232,185676
26.644,166378,230,185656
26.649,166401,229,185682
26.654,166382,229,185643
26.659,166389,229,185669
26.664,166410,228,185679
26.669,166393,227,185674
26.674,166383,229,185656
26.679,166393,232,185669
26.684,166377,232,185645
26.689,166381,231,185661
26.694,166379,230,185657
26.699,166368,227,185652
26.704,166381,226,185658
26.709,166393,225,185666
26.714,166388,225,185662
26.719,166387,223,185679
26.724,166384,224,185664
26.729,166379,226,185664
26.734,166376,226,185675
26.738,166380,223,185661
26.743,166373,236,185668
26.748,166394,235,185665
26.753,166380,236,185676
26.758,166391,233,185688
26.763,166385,233,185700
26.768,166397,232,185679
26.773,166383,225,185693
26.778,166393,224,185690
26.783,166405,225,185713
26.788,166410,225,185735
26.793,166410,228,185697
26.798,166412,226,185713
26.803,166417,227,185731
26.808,166402,226,185733
26.813,166415,226,185721
26.818,166407,222,185745
26.823,166432,227,185740
26.828,166415,225,185741
26.833,166409,225,185722
26.838,166401,223,185721
26.843,166404,223,185731
26.848,166417,223,185741
26.853,166415,236,185731
26.858,166411,233,185736
26.863,166425,230,185744
26.868,166426,230,185744
26.873,166414,236,185741
26.878,166423,233,185767
26.883,166434,233,185744
26.888,166425,231,185750
26.893,166434,232,185758
26.898,166438,229,185757
26.902,166429,228,185756
26.907,166440,226,185777
26.912,166431,226,185761
26.917,166436,224,185755
26.922,166438,228,185745
26.927,166457,226,185771
26.932,166449,227,185773
26.937,166457,224,185760
26.942,166462,224,185784
26.947,166471,235,185790
26.952,166476,236,185778
26.957,166472,234,185767
26.962,166478,233,185781
26.967,166468,234,185790
26.972,166477,236,185792
26.977,166501,234,185796
26.982,166492,235,185798
26.987,166488,232,185792
26.992,166493,234,185802
26.997,166485,232,185809
27.002,166501,232,185808
27.007,166504,230,185797
27.012,166501,231,185822
27.017,166495,233,185805
27.022,166515,234,185797
27.027,166528,232,185792
27.032,166503,234,185824
27.037,166519,233,185803
27.042,166514,234,185794
27.047,166518,232,185812
27.052,166517,235,185818
27.057,166531,233,185813
27.062,166546,215,185835
27.066,166569,214,185819
27.071,166540,235,185827
27.076,166562,233,185827
27.081,166558,232,185822
27.086,166551,231,185839
27.091,166558,233,185831
27.096,166572,231,185838
27.101,166570,231,185853
27.106,166566,228,185831
27.111,166577,228,185855
27.116,166579,232,185835
27.121,166573,231,185830
27.126,166576,229,185819
27.131,166581,229,185826
27.136,166589,226,185830
27.141,166559,224,185809
27.146,166565,234,185820
27.151,166543,232,185820
27.156,166544,229,185798
27.161,166545,227,185812
27.166,166520,230,185801
27.171,166520,231,185802
27.176,166526,227,185801
27.181,166516,227,185793
27.186,166488,225,185808
27.191,166510,238,185817
27.196,166495,224,185807
27.201,166502,225,185821
27.206,166510,224,185813
27.211,166485,228,185781
27.216,166482,226,185808
27.221,166483,227,185815
27.226,166479,229,185804
27.231,166469,232,185788
27.235,166468,232,185791
27.240,166459,235,185781
27.245,166451,236,185779
27.250,166459,225,185782
27.255,166440,226,185780
27.260,166478,231,185745
27.265,166414,225,185784
27.270,166430,226,185772
27.275,166423,226,185769
27.280,166418,227,185768
27.285,166415,228,185749
27.290,166402,229,185759
27.295,166397,229,185736
27.300,166370,229,185724
27.305,166378,230,185720
27.310,166370,224,185735
27.315,166368,226,185725
27.320,166368,226,185729
27.325,166387,228,185739
27.330,166369,230,185736
27.335,166379,231,185741
27.340,166371,233,185731
27.345,166379,232,185765
27.350,166382,235,185731
27.355,166385,225,185751
27.360,166374,230,185732
27.365,166387,233,185761
27.370,166401,236,185752
27.375,166402,227,185757
27.380,166390,229,185776
27.385,166401,234,185764
27.390,166408,224,185770
27.395,166413,228,185770
27.399,166398,228,185774
27.404,166397,230,185748
27.409,166404,224,185755
27.414,166400,226,185760
27.419,166399,227,185751
27.424,166411,230,185757
27.429,166404,233,185755
27.434,166412,236,185761
27.439,166415,236,185764
27.444,166395,226,185764
27.449,166393,227,185752
27.454,166400,230,185778
27.459,166406,235,185743
27.464,166412,225,185737
27.469,166407,227,185743
27.474,166398,230,185754
27.479,166405,231,185751
27.484,166405,233,185755
27.489,166409,236,185754
27.494,166403,225,185760
27.499,166403,225,185753
27.504,166382,228,185743
27.509,166420,234,185758
27.514,166419,236,185744
27.519,166419,224,185748
27.524,166418,225,185745
27.529,166442,226,185770
27.534,166438,229,185774
27.539,166433,229,185765
27.544,166430,231,185750
27.549,166445,233,185768
27.554,166453,226,185758
27.559,166449,227,185778
27.563,166456,228,185787
27.568,166457,229,185790
27.573,166469,232,185795
27.578,166487,233,185813
27.583,166494,234,185812
27.588,166493,223,185807
27.593,166481,226,185798
27.598,166496,227,185823
27.603,166503,235,185821
27.608,166504,224,185818
27.613,166484,228,185812
27.618,166517,228,185822
27.623,166508,230,185834
27.628,166509,234,185827
27.633,166492,224,185833
27.638,166512,227,185833
27.643,166516,230,185831
27.648,166524,229,185823
27.653,166515,227,185835
27.658,166525,227,185836
27.663,166535,230,185843
27.668,166548,233,185838
27.673,166548,236,185828
27.678,166536,224,185835
27.683,166548,227,185822
27.688,166545,228,185814
27.693,166533,231,185825
27.698,166531,232,185815
27.703,166533,232,185814
27.708,166552,235,185824
27.713,166550,225,185814
27.718,166561,223,185818
27.723,166569,226,185823
27.727,166559,225,185834
27.732,166566,229,185820
27.737,166574,229,185828
27.742,166584,232,185835
27.747,166588,226,185841
27.752,166591,227,185854
27.757,166611,227,185867
27.762,166611,229,185870
27.767,166619,231,185851
27.772,166618,236,185867
27.777,166629,223,185864
27.782,166635,225,185857
27.787,166619,226,185872
27.792,166610,230,185851
27.797,166615,222,185854
27.802,166614,225,185856
27.807,166592,226,185827
27.812,166580,230,185847
27.817,166572,232,185841
27.822,166560,234,185850
27.827,166546,235,185841
27.832,166567,225,185831
27.837,166552,225,185821
27.842,166557,228,185853
27.847,166540,223,185832
27.852,166524,226,185839
27.857,166518,226,185819
27.862,166513,228,185829
27.867,166512,229,185810
27.872,166519,233,185817
27.877,166517,232,185828
27.882,166501,235,185825
27.887,166515,223,185836
27.892,166496,230,185828
27.896,166506,231,185826
27.901,166503,233,185822
27.906,166488,235,185816
27.911,166488,225,185820
27.916,166482,227,185824
27.921,166482,230,185809
27.926,166476,230,185831
27.931,166467,235,185824
27.936,166470,235,185798
27.941,166463,224,185790
27.946,166458,228,185799
27.951,166472,232,185790
27.956,166435,233,185778
27.961,166433,224,185784
27.966,166439,225,185774
27.971,166431,228,185762
27.976,166438,228,185763
27.981,166426,230,185763
27.986,166421,231,185751
27.991,166435,221,185769
27.996,166429,227,185756
28.001,166432,228,185751
28.006,166434,229,185746
28.011,166440,231,185740
28.016,166434,233,185734
28.021,166411,223,185735
28.026,166422,224,185732
28.031,166420,229,185727
28.036,166412,229,185711
28.041,166396,224,185699
28.046,166407,225,185697
28.051,166414,228,185693
28.056,166407,230,185692
28.060,166411,233,185702
28.065,166411,231,185701
28.070,166404,235,185685
28.075,166411,223,185685
28.080,166379,226,185671
28.085,166390,228,185677
28.090,166375,225,185714
28.095,166350,222,185665
28.100,166352,225,185648
28.105,166336,226,185641
28.110,166341,230,185642
28.115,166343,232,185647
28.120,166345,234,185641
28.125,166348,223,185645
28.130,166352,226,185650
28.135,166354,227,185663
28.140,166353,235,185652
28.145,166347,222,185667
28.150,166352,225,185657
28.155,166360,227,185637
28.160,166371,228,185676
28.165,166370,230,185680
28.170,166365,234,185698
28.175,166383,234,185699
28.180,166403,236,185709
28.185,166404,224,185737
28.190,166423,231,185747
28.195,166429,233,185744
28.200,166440,234,185755
28.205,166443,234,185745
28.210,166454,234,185764
28.215,166447,235,185760
28.220,166462,236,185774
28.224,166471,223,185769
28.229,166456,224,185771
28.234,166458,225,185768
28.239,166459,230,185772
28.244,166472,232,185777
28.249,166467,234,185787
28.254,166452,236,185795
28.259,166472,223,185804
28.264,166470,224,185790
28.269,166491,225,185770
28.274,166478,228,185795
28.279,166482,228,185791
28.284,166487,235,185788
28.289,166492,225,185798
28.294,166503,226,185811
28.299,166505,226,185813
28.304,166490,227,185804
28.309,166519,227,185815
28.314,166508,229,185818
28.319,166521,230,185817
28.324,166536,232,185834
28.329,166539,235,185825
28.334,166538,231,185840
28.339,166538,223,185830
28.344,166529,226,185826
28.349,166538,228,185831
28.354,166534,232,185809
28.359,166548,230,185840
28.364,166545,232,185826
28.369,166536,232,185817
28.374,166555,235,185813
28.379,166545,222,185812
28.384,166560,229,185835
28.389,166559,230,185824
28.393,166568,232,185841
28.398,166581,231,185838
28.403,166595,233,185834
28.408,166584,235,185843
28.413,166592,224,185850
28.418,166605,224,185846
28.423,166602,225,185838
28.428,166588,226,185851
28.433,166569,233,185837
28.438,166579,232,185829
28.443,166575,232,185835
28.448,166577,233,185825
28.453,166550,234,185819
28.458,166534,233,185808
28.463,166524,224,185794
28.468,166521,224,185791
28.473,166503,226,185780
28.478,166481,232,185750
28.483,166457,233,185762
28.488,166472,234,185744
28.493,166425,224,185739
28.498,166438,223,185745
28.503,166415,225,185736
28.508,166405,225,185715
28.513,166390,228,185695
28.518,166389,227,185688
28.523,166371,229,185688
28.528,166363,234,185660
28.533,166352,236,185662
28.538,166348,234,185656
28.543,166333,235,185666
28.548,166327,235,185655
28.553,166301,224,185639
28.557,166307,223,185621
28.562,166297,225,185617
28.567,166266,225,185617
28.572,166272,227,185613
28.577,166290,231,185616
28.582,166287,232,185611
28.587,166275,233,185610
28.592,166277,224,185602
28.597,166276,223,185616
28.602,166268,226,185589
28.607,166256,226,185582
28.612,166235,229,185586
28.617,166242,230,185572
28.622,166235,232,185588
28.627,166228,224,185567
28.632,166219,227,185572
28.637,166231,226,185591
28.642,166202,227,185576
28.647,166212,228,185582
28.652,166223,231,185572
28.657,166220,230,185586
28.662,166205,232,185560
28.667,166221,232,185571
28.672,166212,235,185568
28.677,166228,231,185571
28.682,166238,233,185572
28.687,166232,234,185586
28.692,166235,223,185595
28.697,166258,223,185598
28.702,166252,224,185614
28.707,166270,225,185616
28.712,166270,227,185621
28.717,166288,227,185628
28.721,166286,232,185630
28.726,166279,223,185638
28.731,166279,225,185643
28.736,166291,224,185657
28.741,166279,227,185638
28.746,166285,229,185630
28.751,166293,233,185625
28.756,166296,234,185640
28.761,166302,223,185642
28.766,166281,225,185641
28.771,166295,232,185619
28.776,166305,226,185630
28.781,166299,225,185639
28.786,166303,226,185637
28.791,166296,230,185642
28.796,166305,230,185639
28.801,166303,233,185630
28.806,166300,233,185615
28.811,166287,236,185629
28.816,166297,224,185619
28.821,166276,230,185612
28.826,166289,231,185605
28.831,166295,235,185601
28.836,166283,223,185600
28.841,166265,225,185592
28.846,166282,226,185595
28.851,166274,229,185590
28.856,166267,231,185588
28.861,166278,233,185570
28.866,166273,222,185592
28.871,166279,233,185597
28.876,166279,235,185592
28.881,166283,224,185598
28.886,166300,225,185581
28.890,166303,226,185586
28.895,166300,227,185593
28.900,166312,229,185605
28.905,166330,231,185628
28.910,166331,233,185631
28.915,166349,235,185636
28.920,166372,228,185658
28.925,166369,229,185681
28.930,166393,232,185689
28.935,166411,234,185721
28.940,166426,223,185731
28.945,166443,226,185738
28.950,166459,229,185761
28.955,166497,231,185768
28.960,166495,234,185801
28.965,166498,223,185794
28.970,166521,231,185837
28.975,166539,232,185831
28.980,166541,234,185846
28.985,166545,223,185860
28.990,166569,225,185842
28.995,166567,227,185863
29.000,166582,230,185870
29.005,166563,232,185851
29.010,166564,235,185837
29.015,166604,227,185834
29.020,166562,230,185812
29.025,166553,231,185807
29.030,166552,233,185789
29.035,166535,235,185774
29.040,166533,223,185772
29.045,166531,226,185770
29.050,166504,229,185757
29.054,166533,231,185760
29.059,166516,234,185740
29.064,166513,226,185739
29.069,166500,228,185733
29.074,166494,231,185712
29.079,166456,233,185687
29.084,166454,223,185673
29.089,166430,225,185657
29.094,166418,227,185625
29.099,166381,228,185615
29.104,166377,231,185595
29.109,166350,232,185578
29.114,166338,228,185563
29.119,166332,228,185562
29.124,166301,229,185546
29.129,166296,231,185530
29.134,166282,234,185523
29.139,166274,222,185506
29.144,166255,224,185505
29.149,166240,226,185482
29.154,166244,226,185486
29.159,166219,226,185489
29.164,166209,225,185465
29.169,166191,227,185453
29.174,166197,230,185442
29.179,166192,229,185463
29.184,166191,231,185441
29.189,166184,233,185434
29.194,166181,236,185438
29.199,166177,223,185442
29.204,166174,225,185430
29.209,166187,227,185454
29.214,166169,235,185440
29.218,166180,234,185439
29.223,166170,236,185446
29.228,166173,224,185451
29.233,166169,227,185440
29.238,166170,229,185445
29.243,166175,230,185450
29.248,166173,231,185450
29.253,166179,234,185456
29.258,166171,219,185460
29.263,166187,226,185468
29.268,166175,227,185463
29.273,166195,230,185472
29.278,166190,230,185453
29.283,166191,231,185464
29.288,166185,233,185444
29.293,166189,234,185468
29.298,166180,235,185456
29.303,166195,236,185454
29.308,166179,228,185457
29.313,166182,232,185465
29.318,166190,233,185458
29.323,166218,236,185466
29.328,166208,223,185492
29.333,166228,228,185493
29.338,166220,228,185508
29.343,166223,231,185496
29.348,166233,232,185500
29.353,166224,235,185507
29.358,166251,227,185508
29.363,166247,230,185494
29.368,166246,233,185509
29.373,166238,224,185499
29.378,166255,226,185515
29.382,166268,229,185532
29.387,166267,231,185520
29.392,166258,235,185533
29.397,166279,224,185548
29.402,166290,226,185557
29.407,166301,234,185556
29.412,166285,224,185572
29.417,166302,226,185582
29.422,166313,230,185549
29.427,166286,234,185560
29.432,166309,224,185574
29.437,166310,224,185566
29.442,166308,228,185585
29.447,166316,231,185591
29.452,166318,235,185602
29.457,166324,232,185591
