df_hash,22ZHK4.QK206M
device,HZ2X61
project_hash,29R7
project_name,istanbul_aydin_university
person_hash,29R7.D6JC
person_label,V12
date_time_start,2025-05-22_10-41-54.002000_+03
date_time_start_unix,1747899714.002
date_time_end,2025-05-22_10-49-07.831000_+03
length_difference_noticed,no

time,ppg_med
5.391,587
5.416,675
5.441,814
5.466,889
5.491,860
5.516,829
5.541,910
5.566,1058
5.591,1114
5.616,1023
5.641,927
5.666,977
5.691,1114
5.716,1123
5.741,928
5.766,721
5.791,710
5.816,812
5.841,739
5.866,391
5.891,28
5.916,-74
5.941,-27
5.966,-210
5.991,-751
6.016,-1307
6.041,-1517
6.066,-1525
6.091,-1826
6.116,-2578
6.141,-3339
6.166,-3642
6.191,-3670
6.216,-4057
6.241,-5005
6.266,-5944
6.291,-6278
6.316,-6243
6.341,-6640
6.366,-7721
6.391,-8763
6.416,-9016
6.441,-8778
6.466,-9055
6.491,-10160
6.516,-11188
6.541,-11197
6.566,-10564
6.591,-10544
6.616,-11532
6.641,-12393
6.666,-11959
6.691,-10697
6.716,-10177
6.741,-10892
6.766,-11432
6.791,-10336
6.816,-8191
6.841,-6965
6.866,-7278
6.891,-7370
6.916,-5407
6.941,-2126
6.966,-11
6.991,134
7.016,537
7.041,3537
7.066,8203
7.091,11335
7.116,11871
7.141,12681
7.166,16841
7.191,23161
7.216,27379
7.241,28011
7.266,28906
7.291,32767
7.316,32767
7.341,32767
7.366,32767
7.391,32767
7.416,32767
7.441,32767
7.466,32767
7.491,32767
7.516,32767
7.541,32767
7.566,32767
7.591,32767
7.616,32767
7.641,15553
7.666,-32768
7.691,-32768
7.716,-32768
7.741,-32768
7.766,-32768
7.791,-32768
7.816,-32768
7.841,-32768
7.866,-32768
7.891,-32768
7.916,-32768
7.941,-32768
7.966,-32768
7.991,-32768
8.016,-30179
8.041,-27772
8.066,-27721
8.091,-25114
8.116,-19176
8.141,-13765
8.166,-11830
8.191,-11694
8.216,-9754
8.241,-5381
8.266,-1420
8.291,-90
8.316,-123
8.341,1233
8.366,4443
8.391,7266
8.416,7945
8.441,7477
8.466,8054
8.491,10075
8.516,11785
8.541,11800
8.566,10916
8.591,10887
8.616,12026
8.641,12929
8.666,12491
8.691,11359
8.716,10946
8.741,11494
8.766,11851
8.791,11114
8.816,9811
8.841,9098
8.866,9196
8.891,9186
8.916,8331
8.941,7045
8.966,6261
8.991,6180
9.016,6085
9.041,5381
9.066,4363
9.091,3737
9.116,3641
9.141,3512
9.166,2894
9.191,2024
9.216,1457
9.241,1300
9.266,1128
9.291,602
9.316,-73
9.341,-465
9.366,-502
9.391,-532
9.416,-829
9.441,-1241
9.466,-1430
9.491,-1331
9.516,-1210
9.541,-1303
9.566,-1536
9.591,-1677
9.616,-1648
9.641,-1570
9.666,-1530
9.691,-1445
9.716,-1196
9.741,-836
9.766,-551
9.791,-431
9.816,-355
9.841,-145
9.866,216
9.891,583
9.916,821
9.941,943
9.966,1048
9.991,1172
10.016,1264
10.041,1283
10.066,1274
10.091,1313
10.116,1407
10.141,1491
10.166,1516
10.191,1512
10.216,1508
10.241,1442
10.266,1304
10.291,1105
10.316,892
10.341,722
10.366,619
10.391,558
10.416,498
10.441,413
10.466,314
10.491,221
10.516,137
10.541,38
10.566,-103
10.591,-285
10.616,-474
10.641,-626
10.666,-718
10.691,-753
10.716,-749
10.741,-720
10.766,-681
10.791,-651
10.816,-643
10.841,-656
10.866,-668
10.891,-658
10.916,-634
10.941,-625
10.966,-648
10.991,-676
11.016,-651
11.041,-539
11.066,-361
11.091,-178
11.116,-34
11.141,73
11.166,179
11.191,299
11.216,415
11.241,497
11.266,540
11.291,573
11.316,621
11.341,677
11.366,717
11.391,720
11.416,695
11.441,666
11.466,643
11.491,620
11.516,588
11.541,550
11.566,513
11.591,483
11.616,457
11.641,425
11.666,380
11.691,316
11.716,237
11.741,164
11.766,131
11.791,161
11.816,251
11.841,363
11.866,455
11.891,512
11.916,551
11.941,587
11.966,615
11.991,617
12.016,590
12.041,552
12.066,526
12.091,512
12.116,488
12.141,438
12.166,369
12.191,303
12.216,243
12.241,180
12.266,103
12.291,27
12.316,-28
12.341,-62
12.366,-97
12.391,-157
12.416,-236
12.441,-311
12.466,-372
12.491,-433
12.516,-508
12.541,-579
12.566,-602
12.591,-548
12.616,-449
12.641,-372
12.666,-365
12.691,-408
12.716,-439
12.741,-403
12.766,-298
12.791,-159
12.816,-25
12.841,84
12.866,166
12.891,219
12.916,262
12.941,329
12.966,456
12.991,640
13.016,825
13.041,942
13.066,961
13.091,914
13.116,861
13.141,834
13.166,819
13.191,787
13.216,735
13.241,688
13.266,668
13.291,669
13.316,666
13.341,647
13.366,625
13.391,620
13.416,627
13.441,621
13.466,586
13.491,531
13.516,485
13.541,464
13.566,455
13.591,433
13.616,391
13.641,339
13.666,294
13.691,257
13.716,214
13.741,156
13.766,92
13.791,35
13.816,-11
13.841,-59
13.866,-121
13.891,-185
13.916,-222
13.941,-204
13.966,-135
13.991,-47
14.016,25
14.041,70
14.066,102
14.091,137
14.116,179
14.141,212
14.166,222
14.191,217
14.216,211
14.241,216
14.266,223
14.291,220
14.316,202
14.341,177
14.366,158
14.391,143
14.416,125
14.441,102
14.466,83
14.491,70
14.516,53
14.541,18
14.566,-28
14.591,-57
14.616,-29
14.641,57
14.666,171
14.691,266
14.716,327
14.741,368
14.766,411
14.791,453
14.816,473
14.841,461
14.866,430
14.891,405
14.916,395
14.941,389
14.966,370
14.991,339
15.016,305
15.041,274
15.066,243
15.091,204
15.116,160
15.141,116
15.166,68
15.191,6
15.216,-66
15.241,-123
15.266,-128
15.291,-69
15.316,27
15.341,120
15.366,183
15.391,222
15.416,254
15.441,284
15.466,301
15.491,297
15.516,279
15.541,260
15.566,249
15.591,241
15.616,224
15.641,193
15.666,152
15.691,106
15.716,57
15.741,11
15.766,-31
15.791,-73
15.816,-123
15.841,-184
15.866,-238
15.891,-254
15.916,-208
15.941,-106
15.966,16
15.991,125
16.016,207
16.041,276
16.066,350
16.091,426
16.116,488
16.141,522
16.166,536
16.191,553
16.216,584
16.241,621
16.266,644
16.291,647
16.316,642
16.341,646
16.366,663
16.391,678
16.416,677
16.441,663
16.466,650
16.491,646
16.516,645
16.541,639
16.566,638
16.591,662
16.616,725
16.641,809
16.666,881
16.691,914
16.716,908
16.741,872
16.766,807
16.791,704
16.816,559
16.841,388
16.866,206
16.891,12
16.916,-201
16.941,-423
16.966,-612
16.991,-731
17.016,-788
17.041,-833
17.066,-898
17.091,-961
17.116,-965
17.141,-888
17.166,-775
17.191,-684
17.216,-621
17.241,-531
17.266,-374
17.291,-191
17.316,-69
17.341,-39
17.366,-22
17.391,97
17.416,349
17.441,633
17.466,814
17.491,854
17.516,845
17.541,902
17.566,1041
17.591,1168
17.616,1183
17.641,1081
17.666,940
17.691,829
17.716,732
17.741,584
17.766,344
17.791,46
17.816,-240
17.841,-469
17.866,-639
17.891,-751
17.916,-785
17.941,-705
17.966,-512
17.991,-262
18.016,-43
18.041,84
18.066,116
18.091,93
18.116,63
18.141,62
18.166,99
18.191,170
18.216,254
18.241,333
18.266,398
18.291,463
18.316,554
18.341,682
18.366,824
18.391,928
18.416,957
18.441,908
18.466,816
18.491,717
18.516,629
18.541,550
18.566,480
18.591,425
18.616,380
18.641,326
18.666,238
18.691,121
18.716,19
18.741,-19
18.766,24
18.791,119
18.816,216
18.841,287
18.866,337
18.891,381
18.916,417
18.941,423
18.966,389
18.991,334
19.016,291
19.041,281
19.066,288
19.091,278
19.116,237
19.141,177
19.166,127
19.191,96
19.216,66
19.241,10
19.266,-74
19.291,-160
19.316,-201
19.341,-169
19.366,-78
19.391,28
19.416,108
19.441,152
19.466,176
19.491,206
19.516,247
19.541,284
19.566,298
19.591,286
19.616,267
19.641,263
19.666,273
19.691,281
19.716,271
19.741,244
19.766,211
19.791,180
19.816,143
19.841,91
19.866,32
19.891,-3
19.916,10
19.941,72
19.966,157
19.991,233
20.016,289
20.041,333
20.066,377
20.091,416
20.116,435
20.141,430
20.166,410
20.191,392
20.216,382
20.241,372
20.266,352
20.291,322
20.316,286
20.341,246
20.366,206
20.391,167
20.416,135
20.441,106
20.466,72
20.491,25
20.516,-25
20.541,-51
20.566,-26
20.591,50
20.616,148
20.641,233
20.666,294
20.691,342
20.716,389
20.741,432
20.766,458
20.791,458
20.816,443
20.841,429
20.866,425
20.891,424
20.916,415
20.941,395
20.966,366
20.991,333
21.016,295
21.041,254
21.066,210
21.091,169
21.116,132
21.141,99
21.166,68
21.191,33
21.216,-12
21.241,-71
21.266,-132
21.291,-167
21.316,-150
21.341,-80
21.366,17
21.391,110
21.416,175
21.441,220
21.466,259
21.491,300
21.516,335
21.541,358
21.566,370
21.591,384
21.616,409
21.641,436
21.666,452
21.691,446
21.716,422
21.741,391
21.766,358
21.791,321
21.816,277
21.841,228
21.866,182
21.891,144
21.916,107
21.941,57
21.966,-11
21.991,-81
22.016,-119
22.041,-101
22.066,-32
22.091,54
22.116,125
22.141,173
22.166,214
22.191,269
22.216,335
22.241,393
22.266,428
22.291,442
22.316,454
22.341,473
22.366,495
22.391,504
22.416,494
22.441,469
22.466,437
22.491,401
22.516,364
22.541,328
22.566,293
22.591,260
22.616,222
22.641,176
22.666,129
22.691,85
22.716,41
22.741,-11
22.766,-73
22.791,-124
22.816,-134
22.841,-88
22.866,-1
22.891,90
22.916,163
22.941,214
22.966,259
22.991,308
23.016,354
23.041,382
23.066,387
23.091,378
23.116,373
23.141,378
23.166,386
23.191,386
23.216,374
23.241,357
23.266,340
23.291,326
23.316,309
23.341,285
23.366,256
23.391,229
23.416,207
23.441,184
23.466,155
23.491,119
23.516,86
23.541,58
23.566,27
23.591,-16
23.616,-66
23.641,-95
23.666,-75
23.691,0
23.716,102
23.741,193
23.766,253
23.791,290
23.816,324
23.841,362
23.866,393
23.891,405
23.916,401
23.941,392
23.966,389
23.991,390
24.016,386
24.041,374
24.066,355
24.091,333
24.116,309
24.141,283
24.166,255
24.191,227
24.216,198
24.241,168
24.266,136
24.291,102
24.316,62
24.341,11
24.366,-44
24.391,-80
24.416,-70
24.441,-5
24.466,91
24.491,184
24.516,252
24.541,297
24.566,339
24.591,383
24.616,415
24.641,424
24.666,413
24.691,400
24.716,398
24.741,403
24.766,401
24.791,384
24.816,358
24.841,332
24.866,307
24.891,277
24.916,240
24.941,198
24.966,156
24.991,119
25.016,85
25.041,52
25.066,13
25.091,-39
25.116,-102
25.141,-158
25.166,-174
25.191,-130
25.216,-32
25.241,83
25.266,181
25.291,250
25.316,307
25.341,369
25.366,431
25.391,475
25.416,486
25.441,477
25.466,471
25.491,478
25.516,488
25.541,485
25.566,465
25.591,441
25.616,421
25.641,402
25.666,371
25.691,326
25.716,279
25.741,240
25.766,208
25.791,168
25.816,115
25.841,60
25.866,16
25.891,-19
25.916,-64
25.941,-129
25.966,-194
25.991,-215
26.016,-167
26.041,-62
26.066,57
26.091,153
26.116,221
26.141,279
26.166,341
26.191,401
26.216,440
26.241,451
26.266,447
26.291,443
26.316,445
26.341,448
26.366,448
26.391,441
26.416,429
26.441,409
26.466,378
26.491,340
26.516,301
26.541,264
26.566,228
26.591,191
26.616,153
26.641,117
26.666,78
26.691,30
26.716,-27
26.741,-76
26.766,-83
26.791,-33
26.816,60
26.841,161
26.866,239
26.891,291
26.916,331
26.941,370
26.966,401
26.991,413
27.016,403
27.041,385
27.066,374
27.091,373
27.116,372
27.141,360
27.166,337
27.191,308
27.216,280
27.241,251
27.266,215
27.291,172
27.316,129
27.341,94
27.366,64
27.391,29
27.416,-22
27.441,-86
27.466,-138
27.491,-149
27.516,-103
27.541,-12
27.566,91
27.591,183
27.616,251
27.641,306
27.666,357
27.691,402
27.716,435
27.741,449
27.766,449
27.791,443
27.816,439
27.841,435
27.866,426
27.891,409
27.916,386
27.941,357
27.966,328
27.991,299
28.016,271
28.041,241
28.066,207
28.091,169
28.116,130
28.141,91
28.166,47
28.191,-10
28.216,-76
28.241,-130
28.266,-140
28.291,-93
28.316,0
28.341,105
28.366,194
28.391,259
28.416,311
28.441,360
28.466,402
28.491,426
28.516,432
28.541,427
28.566,427
28.591,433
28.616,436
28.641,428
28.666,410
28.691,388
28.716,369
28.741,348
28.766,322
28.791,289
28.816,257
28.841,226
28.866,192
28.891,153
28.916,110
28.941,73
28.966,43
28.991,9
29.016,-40
29.041,-100
29.066,-141
29.091,-129
29.116,-58
29.141,49
29.166,151
29.191,224
29.216,269
29.241,304
29.266,340
29.291,371
29.316,388
29.341,390
29.366,384
29.391,380
29.416,382
29.441,384
29.466,380
29.491,369
29.516,353
29.541,333
29.566,308
29.591,277
29.616,240
29.641,203
29.666,171
29.691,145
29.716,115
29.741,73
29.766,18
29.791,-26
29.816,-32
29.841,16
29.866,105
29.891,200
29.916,272
29.941,318
29.966,352
29.991,386
30.016,416
30.041,429
30.066,425
30.091,413
30.116,405
30.141,403
30.166,398
30.191,383
30.216,361
30.241,335
30.266,305
30.291,270
30.316,231
30.341,195
30.366,164
30.391,137
30.416,107
30.441,72
30.466,33
30.491,-12
30.516,-66
30.541,-123
30.566,-158
30.591,-142
30.616,-68
30.641,36
30.666,133
30.691,200
30.716,244
30.741,289
30.766,340
30.791,382
30.816,399
30.841,395
30.866,389
30.891,395
30.916,407
30.941,411
30.966,402
30.991,387
31.016,373
31.041,356
31.066,332
31.091,302
31.116,273
31.141,247
31.166,221
31.191,187
31.216,149
31.241,116
31.266,84
31.291,42
31.316,-19
31.341,-83
31.366,-111
31.391,-71
31.416,26
31.441,141
31.466,230
31.491,284
31.516,321
31.541,362
31.566,409
31.591,443
31.616,452
31.641,441
31.666,428
31.691,424
31.716,426
31.741,420
31.766,399
31.791,369
31.816,335
31.841,303
31.866,270
31.891,231
31.916,190
31.941,150
31.966,112
31.991,68
32.016,9
32.041,-60
32.066,-121
32.091,-142
32.116,-110
32.141,-35
32.166,49
32.191,118
32.216,165
32.241,199
32.266,234
32.291,266
32.316,285
32.341,284
32.366,271
32.391,265
32.416,274
32.441,290
32.466,298
32.491,290
32.516,276
32.541,276
32.566,295
32.591,322
32.616,335
32.641,322
32.666,291
32.691,254
32.716,214
32.741,159
32.766,88
32.791,21
32.816,-7
32.841,25
32.866,107
32.891,204
32.916,285
32.941,342
32.966,386
32.991,428
33.016,462
33.041,477
33.066,470
33.091,452
33.116,433
33.141,417
33.166,398
33.191,376
33.216,352
33.241,328
33.266,303
33.291,274
33.316,243
33.341,212
33.366,180
33.391,145
33.416,106
33.441,67
33.466,30
33.491,-9
33.516,-60
33.541,-118
33.566,-159
33.591,-153
33.616,-89
33.641,10
33.666,108
33.691,182
33.716,235
33.741,284
33.766,336
33.791,378
33.816,396
33.841,393
33.866,386
33.891,390
33.916,403
33.941,412
33.966,408
33.991,393
34.016,376
34.041,358
34.066,336
34.091,309
34.116,280
34.141,256
34.166,236
34.191,211
34.216,172
34.241,123
34.266,84
34.291,81
34.316,130
34.341,219
34.366,320
34.391,404
34.416,460
34.441,494
34.466,520
34.491,539
34.516,543
34.541,527
34.566,497
34.591,469
34.616,452
34.641,438
34.666,414
34.691,373
34.716,319
34.741,260
34.766,199
34.791,135
34.816,66
34.841,-3
34.866,-76
34.891,-163
34.916,-273
34.941,-400
34.966,-515
34.991,-581
35.016,-580
35.041,-523
35.066,-436
35.091,-338
35.116,-238
35.141,-135
35.166,-39
35.191,41
35.216,102
35.241,149
35.266,193
35.291,233
35.316,266
35.341,290
35.366,311
35.391,338
35.416,372
35.441,403
35.466,413
35.491,392
35.516,343
35.541,281
35.566,225
35.591,191
35.616,184
35.641,193
35.666,210
35.691,232
35.716,268
35.741,329
35.766,407
35.791,480
35.816,526
35.841,542
35.866,546
35.891,555
35.916,572
35.941,583
35.966,579
35.991,566
36.016,556
36.041,556
36.066,559
36.091,555
36.116,542
36.141,528
36.166,513
36.191,496
36.216,470
36.241,436
36.266,398
36.291,357
36.316,312
36.341,261
36.366,207
36.391,148
36.416,76
36.441,-17
36.466,-121
36.491,-204
36.516,-235
36.541,-211
36.566,-159
36.591,-120
36.616,-109
36.641,-110
36.666,-103
36.691,-83
36.716,-67
36.741,-67
36.766,-77
36.791,-81
36.816,-70
36.841,-55
36.866,-46
36.891,-45
36.916,-44
36.941,-38
36.966,-31
36.991,-26
37.016,-19
37.041,-4
37.066,17
37.091,32
37.116,33
37.141,33
37.166,58
37.191,126
37.216,226
37.241,331
37.266,422
37.291,501
37.316,579
37.341,655
37.366,715
37.391,751
37.416,775
37.441,810
37.466,864
37.491,919
37.516,945
37.541,935
37.566,907
37.591,886
37.616,879
37.641,870
37.666,841
37.691,788
37.716,725
37.741,660
37.766,593
37.791,524
37.816,467
37.841,443
37.866,454
37.891,467
37.916,429
37.941,310
37.966,127
37.991,-64
38.016,-207
38.041,-281
38.066,-305
38.091,-310
38.116,-316
38.141,-323
38.166,-324
38.191,-324
38.216,-330
38.241,-349
38.266,-375
38.291,-400
38.316,-421
38.341,-437
38.366,-447
38.391,-445
38.416,-432
38.441,-413
38.466,-402
38.491,-395
38.516,-375
38.541,-315
38.566,-209
38.591,-74
38.616,56
38.641,165
38.666,253
38.691,332
38.716,408
38.741,473
38.766,517
38.791,542
38.816,559
38.841,574
38.866,585
38.891,585
38.916,572
38.941,554
38.966,534
38.991,513
39.016,483
39.041,444
39.066,406
39.091,374
39.116,345
39.141,305
39.166,252
39.191,200
39.216,177
39.241,200
39.266,263
39.291,339
39.316,398
39.341,434
39.366,454
39.391,473
39.416,492
39.441,504
39.466,499
39.491,481
39.516,460
39.541,443
39.566,424
39.591,395
39.616,353
39.641,306
39.666,263
39.691,225
39.716,186
39.741,144
39.766,101
39.791,62
39.816,24
39.841,-19
39.866,-68
39.891,-102
39.916,-96
39.941,-39
39.966,50
39.991,141
40.016,211
40.041,265
40.066,315
40.091,368
40.116,414
40.141,442
40.166,454
40.191,465
40.216,489
40.241,525
40.266,562
40.291,585
40.316,581
40.341,543
40.366,466
40.391,356
40.416,227
40.441,99
40.466,-8
40.491,-89
40.516,-146
40.541,-183
40.566,-211
40.591,-241
40.616,-279
40.641,-321
40.666,-344
40.691,-323
40.716,-248
40.741,-130
40.766,5
40.791,132
40.816,240
40.841,325
40.866,391
40.891,443
40.916,484
40.941,514
40.966,530
40.991,526
41.016,503
41.041,470
41.066,434
41.091,400
41.116,373
41.141,359
41.166,366
41.191,390
41.216,409
41.241,398
41.266,353
41.291,294
41.316,250
41.341,222
41.366,188
41.391,128
41.416,54
41.441,8
41.466,21
41.491,88
41.516,176
41.541,255
41.566,318
41.591,377
41.616,434
41.641,479
41.666,496
41.691,486
41.716,463
41.741,445
41.766,436
41.791,425
41.816,398
41.841,345
41.866,267
41.891,178
41.916,96
41.941,34
41.966,-13
41.991,-61
42.016,-117
42.041,-175
42.066,-223
42.091,-264
42.116,-311
42.141,-370
42.166,-420
42.191,-421
42.216,-353
42.241,-236
42.266,-120
42.291,-48
42.316,-24
42.341,-23
42.366,-15
42.391,13
42.416,63
42.441,135
42.466,229
42.491,337
42.516,441
42.541,527
42.566,588
42.591,631
42.616,661
42.641,679
42.666,684
42.691,679
42.716,670
42.741,665
42.766,669
42.791,694
42.816,750
42.841,837
42.866,927
42.891,980
42.916,966
42.941,891
42.966,787
42.991,686
43.016,596
43.041,508
43.066,416
43.091,325
43.116,245
43.141,177
43.166,114
43.191,54
43.216,5
43.241,-25
43.266,-48
43.291,-81
43.316,-135
43.341,-193
43.366,-221
43.391,-199
43.416,-138
43.441,-73
43.466,-33
43.491,-19
43.516,-9
43.541,15
43.566,53
43.591,87
43.616,101
43.641,96
43.666,85
43.691,79
43.716,80
43.741,81
43.766,74
43.791,59
43.816,42
43.841,31
43.866,22
43.891,7
43.916,-25
43.941,-71
43.966,-105
43.991,-98
44.016,-38
44.041,60
44.066,166
44.091,255
44.116,324
44.141,381
44.166,431
44.191,465
44.216,477
44.241,472
44.266,464
44.291,463
44.316,464
44.341,457
44.366,440
44.391,418
44.416,394
44.441,367
44.466,332
44.491,292
44.516,253
44.541,215
44.566,169
44.591,107
44.616,45
44.641,13
44.666,34
44.691,102
44.716,187
44.741,260
44.766,310
44.791,347
44.816,380
44.841,407
44.866,421
44.891,419
44.916,408
44.941,393
44.966,377
44.991,362
45.016,347
45.041,330
45.066,307
45.091,270
45.116,222
45.141,174
45.166,134
45.191,95
45.216,50
45.241,1
45.266,-26
45.291,-11
45.316,51
45.341,134
45.366,207
45.391,255
45.416,287
45.441,316
45.466,346
45.491,367
45.516,373
45.541,369
45.566,361
45.591,351
45.616,339
45.641,324
45.666,313
45.691,306
45.716,298
45.741,278
45.766,248
45.791,218
45.816,197
45.841,179
45.866,147
45.891,99
45.916,50
45.941,33
45.966,66
45.991,142
46.016,237
46.041,323
46.066,391
46.091,445
46.116,493
46.141,535
46.166,567
46.191,580
46.216,577
46.241,565
46.266,555
46.291,549
46.316,541
46.341,522
46.366,488
46.391,444
46.416,397
46.441,347
46.466,289
46.491,219
46.516,143
46.541,73
46.566,14
46.591,-38
46.616,-97
46.641,-165
46.666,-235
46.691,-288
46.716,-304
46.741,-273
46.766,-197
46.791,-99
46.816,-10
46.841,38
46.866,43
46.891,23
46.916,6
46.941,6
46.966,15
46.991,18
47.016,13
47.041,11
47.066,20
47.091,27
47.116,12
47.141,-36
47.166,-110
47.191,-184
47.216,-238
47.241,-263
47.266,-257
47.291,-223
47.316,-166
47.341,-96
47.366,-16
47.391,81
47.416,214
47.441,391
47.466,593
47.491,776
47.516,898
47.541,945
47.566,934
47.591,896
47.616,848
47.641,791
47.666,718
47.691,630
47.716,541
47.741,469
47.766,428
47.791,418
47.816,432
47.841,459
47.866,483
47.891,485
47.916,443
47.941,350
47.966,230
47.991,137
48.016,128
48.041,221
48.066,374
48.091,515
48.116,590
48.141,600
48.166,589
48.191,591
48.216,600
48.241,582
48.266,513
48.291,411
48.316,315
48.341,251
48.366,214
48.391,176
48.416,119
48.441,45
48.466,-26
48.491,-78
48.516,-106
48.541,-120
48.566,-137
48.591,-170
48.616,-216
48.641,-254
48.666,-255
48.691,-207
48.716,-123
48.741,-33
48.766,40
48.791,95
48.816,147
48.841,202
48.866,253
48.891,286
48.916,297
48.941,296
48.966,296
48.991,300
49.016,300
49.041,290
49.066,268
49.091,242
49.116,217
49.141,194
49.166,170
49.191,140
49.216,101
49.241,56
49.266,21
49.291,15
49.316,54
49.341,130
49.366,217
49.391,288
49.416,333
49.441,359
49.466,381
49.491,401
49.516,411
49.541,403
49.566,383
49.591,365
49.616,357
49.641,355
49.666,346
49.691,322
49.716,287
49.741,251
49.766,217
49.791,179
49.816,129
49.841,72
49.866,27
49.891,15
49.916,45
49.941,107
49.966,181
49.991,245
50.016,294
50.041,330
50.066,356
50.091,371
50.116,371
50.141,357
50.166,339
50.191,328
50.216,323
50.241,316
50.266,299
50.291,273
50.316,247
50.341,225
50.366,198
50.391,152
50.416,91
50.441,36
50.466,18
50.491,49
50.516,112
50.541,178
50.566,228
50.591,263
50.616,294
50.641,322
50.666,341
50.691,340
50.716,323
50.741,302
50.766,287
50.791,276
50.816,261
50.841,236
50.866,201
50.891,160
50.916,119
50.941,79
50.966,39
50.991,-5
51.016,-60
51.041,-122
51.066,-175
51.091,-194
51.116,-163
51.141,-92
51.166,-8
51.191,63
51.216,121
51.241,183
51.266,263
51.291,358
51.316,448
51.341,520
51.366,571
51.391,607
51.416,627
51.441,625
51.466,602
51.491,571
51.516,545
51.541,526
51.566,502
51.591,464
51.616,415
51.641,370
51.666,331
51.691,294
51.716,249
51.741,200
51.766,157
51.791,121
51.816,80
51.841,24
51.866,-40
51.891,-88
51.916,-90
51.941,-43
51.966,30
51.991,103
52.016,161
52.041,209
52.066,257
52.091,305
52.116,344
52.141,366
52.166,372
52.191,368
52.216,362
52.241,358
52.266,354
52.291,345
52.316,330
52.341,309
52.366,284
52.391,257
52.416,229
52.441,201
52.466,177
52.491,155
52.516,131
52.541,96
52.566,50
52.591,5
52.616,-18
52.641,-5
52.666,43
52.691,110
52.716,175
52.741,228
52.766,271
52.791,310
52.816,343
52.841,366
52.866,375
52.891,375
52.916,372
52.941,371
52.966,370
52.991,363
53.016,348
53.041,327
53.066,302
53.091,275
53.116,245
53.141,212
53.166,177
53.191,141
53.216,105
53.241,67
53.266,24
53.291,-26
53.316,-76
53.341,-111
53.366,-111
53.391,-70
53.416,3
53.441,85
53.466,158
53.491,218
53.516,273
53.541,330
53.566,381
53.591,415
53.616,426
53.641,426
53.666,428
53.691,437
53.716,442
53.741,436
53.766,416
53.791,392
53.816,371
53.841,351
53.866,325
53.891,292
53.916,258
53.941,228
53.966,197
53.991,160
54.016,118
54.041,82
54.066,58
54.091,39
54.116,5
54.141,-48
54.166,-104
54.191,-128
54.216,-97
54.241,-17
54.266,80
54.291,168
54.316,238
54.341,299
54.366,360
54.391,416
54.416,456
54.441,473
54.466,472
54.491,465
54.516,461
54.541,461
54.566,457
54.591,445
54.616,427
54.641,408
54.666,395
54.691,383
54.716,365
54.741,332
54.766,285
54.791,234
54.816,187
54.841,144
54.866,100
54.891,56
54.916,13
54.941,-26
54.966,-69
54.991,-122
55.016,-176
55.041,-206
55.066,-182
55.091,-99
55.116,16
55.141,126
55.166,210
55.191,272
55.216,326
55.241,376
55.266,415
55.291,436
55.316,443
55.341,449
55.366,455
55.391,453
55.416,437
55.441,407
55.466,376
55.491,349
55.516,326
55.541,300
55.566,271
55.591,241
55.616,210
55.641,177
55.666,142
55.691,107
55.716,70
55.741,26
55.766,-25
55.791,-70
55.816,-78
55.841,-28
55.866,68
55.891,178
55.916,263
55.941,314
55.966,350
55.991,387
56.016,426
56.041,451
56.066,450
56.091,434
56.116,418
56.141,411
56.166,409
56.191,400
56.216,382
56.241,360
56.266,337
56.291,309
56.316,275
56.341,238
56.366,202
56.391,171
56.416,141
56.441,108
56.466,73
56.491,39
56.516,4
56.541,-37
56.566,-86
56.591,-124
56.616,-127
56.641,-78
56.666,12
56.691,112
56.716,193
56.741,247
56.766,286
56.791,327
56.816,372
56.841,409
56.866,428
56.891,431
56.916,430
56.941,432
56.966,436
56.991,434
57.016,422
57.041,404
57.066,386
57.091,369
57.116,348
57.141,319
57.166,282
57.191,244
57.216,208
57.241,175
57.266,144
57.291,112
57.316,80
57.341,43
57.366,-2
57.391,-54
57.416,-95
57.441,-103
57.466,-64
57.491,12
57.516,103
57.541,183
57.566,240
57.591,279
57.616,311
57.641,339
57.666,360
57.691,369
57.716,367
57.741,359
57.766,353
57.791,350
57.816,348
57.841,341
57.866,325
57.891,305
57.916,284
57.941,264
57.966,245
57.991,222
58.016,194
58.041,163
58.066,130
58.091,94
58.116,55
58.141,18
58.166,0
58.191,14
58.216,66
58.241,139
58.266,212
58.291,267
58.316,304
58.341,332
58.366,357
58.391,377
58.416,386
58.441,382
58.466,374
58.491,370
58.516,368
58.541,363
58.566,349
58.591,327
58.616,305
58.641,285
58.666,263
58.691,235
58.716,201
58.741,164
58.766,131
58.791,99
58.816,59
58.841,6
58.866,-53
58.891,-95
58.916,-97
58.941,-51
58.966,26
58.991,111
59.016,182
59.041,234
59.066,278
59.091,321
59.116,363
59.141,394
59.166,408
59.191,408
59.216,403
59.241,401
59.266,402
59.291,400
59.316,388
59.341,368
59.366,341
59.391,311
59.416,280
59.441,245
59.466,208
59.491,172
59.516,140
59.541,109
59.566,70
59.591,20
59.616,-29
59.641,-55
59.666,-36
59.691,29
59.716,119
59.741,203
59.766,265
59.791,306
59.816,341
59.841,374
59.866,401
59.891,411
59.916,404
59.941,389
59.966,377
59.991,371
60.016,364
60.041,349
60.066,326
60.091,300
60.116,276
60.141,253
60.166,225
60.191,191
60.216,157
60.241,128
60.266,102
60.291,72
60.316,28
60.341,-23
60.366,-63
60.391,-65
60.416,-20
60.441,61
60.466,152
60.491,226
60.516,276
60.541,311
60.566,341
60.591,367
60.616,381
60.641,380
60.666,372
60.691,366
60.716,367
60.741,368
60.766,361
60.791,343
60.816,318
60.841,292
60.866,265
60.891,235
60.916,203
60.941,172
60.966,145
60.991,112
61.016,66
61.041,13
61.066,-25
61.091,-21
61.116,30
61.141,112
61.166,191
61.191,251
61.216,295
61.241,336
61.266,378
61.291,413
61.316,428
61.341,421
61.366,404
61.391,387
61.416,374
61.441,361
61.466,344
61.491,324
61.516,302
61.541,278
61.566,249
61.591,217
61.616,182
61.641,145
61.666,109
61.691,74
61.716,39
61.741,3
61.766,-38
61.791,-81
61.816,-111
61.841,-105
61.866,-54
61.891,31
61.916,125
61.941,203
61.966,259
61.991,304
62.016,347
62.041,388
62.066,417
62.091,428
62.116,428
62.141,423
62.166,419
62.191,412
62.216,401
62.241,384
62.266,366
62.291,346
62.316,322
62.341,291
62.366,253
62.391,209
62.416,160
62.441,111
62.466,67
62.491,31
62.516,-4
62.541,-46
62.566,-96
62.591,-138
62.616,-150
62.641,-118
62.666,-52
62.691,25
62.716,95
62.741,153
62.766,202
62.791,249
62.816,290
62.841,320
62.866,338
62.891,347
62.916,353
62.941,359
62.966,363
62.991,360
63.016,353
63.041,346
63.066,342
63.091,341
63.116,338
63.141,331
63.166,322
63.191,319
63.216,320
63.241,319
63.266,309
63.291,293
63.316,290
63.341,319
63.366,384
63.391,470
63.416,551
63.441,612
63.466,650
63.491,669
63.516,677
63.541,677
63.566,678
63.591,684
63.616,693
63.641,697
63.666,692
63.691,678
63.716,654
63.741,606
63.766,512
63.791,364
63.816,184
63.841,10
63.866,-136
63.891,-268
63.916,-407
63.941,-553
63.966,-682
63.991,-785
64.016,-889
64.041,-1038
64.066,-1230
64.091,-1387
64.116,-1405
64.141,-1238
64.166,-935
64.191,-603
64.216,-317
64.241,-81
64.266,146
64.291,383
64.316,597
64.341,744
64.366,807
64.391,818
64.416,818
64.441,827
64.466,838
64.491,839
64.516,828
64.541,817
64.566,812
64.591,814
64.616,816
64.641,815
64.666,806
64.691,784
64.716,742
64.741,671
64.766,571
64.791,449
64.816,323
64.841,222
64.866,171
64.891,177
64.916,217
64.941,259
64.966,278
64.991,276
65.016,271
65.041,277
65.066,292
65.091,303
65.116,304
65.141,300
65.166,297
65.191,293
65.216,282
65.241,261
65.266,235
65.291,213
65.316,188
65.341,148
65.366,88
65.391,20
65.416,-34
65.441,-68
65.466,-94
65.491,-130
65.516,-175
65.541,-201
65.566,-180
65.591,-110
65.616,-14
65.641,71
65.666,132
65.691,176
65.716,215
65.741,252
65.766,277
65.791,286
65.816,286
65.841,286
65.866,289
65.891,291
65.916,290
65.941,289
65.966,291
65.991,296
66.016,295
66.041,287
66.066,272
66.091,254
66.116,225
66.141,182
66.166,132
66.191,99
66.216,110
66.241,167
66.266,247
66.291,320
66.316,373
66.341,413
66.366,451
66.391,485
66.416,502
66.441,497
66.466,478
66.491,460
66.516,448
66.541,436
66.566,416
66.591,387
66.616,353
66.641,317
66.666,277
66.691,231
66.716,181
66.741,127
66.766,62
66.791,-18
66.816,-105
66.841,-168
66.866,-180
66.891,-138
66.916,-69
66.941,-6
66.966,34
66.991,63
67.016,94
67.041,131
67.066,165
67.091,189
67.116,209
67.141,236
67.166,274
67.191,316
67.216,346
67.241,362
67.266,366
67.291,361
67.316,343
67.341,308
67.366,263
67.391,225
67.416,202
67.441,188
67.466,161
67.491,106
67.516,34
67.541,-21
67.566,-33
67.591,2
67.616,64
67.641,122
67.666,164
67.691,195
67.716,227
67.741,262
67.766,293
67.791,314
67.816,330
67.841,351
67.866,377
67.891,398
67.916,401
67.941,389
67.966,374
67.991,368
68.016,367
68.041,362
68.066,344
68.091,321
68.116,301
68.141,284
68.166,257
68.191,216
68.216,174
68.241,158
68.266,180
68.291,230
68.316,279
68.341,307
68.366,318
68.391,327
68.416,342
68.441,354
68.466,350
68.491,331
68.516,309
68.541,296
68.566,292
68.591,286
68.616,272
68.641,252
68.666,228
68.691,200
68.716,167
68.741,130
68.766,97
68.791,71
68.816,44
68.841,7
68.866,-35
68.891,-61
68.916,-46
68.941,12
68.966,93
68.991,165
69.016,215
69.041,252
69.066,291
69.091,333
69.116,366
69.141,380
69.166,379
69.191,375
69.216,378
69.241,384
69.266,381
69.291,365
69.316,339
69.341,312
69.366,291
69.391,269
69.416,241
69.441,204
69.466,166
69.491,130
69.516,98
69.541,59
69.566,9
69.591,-41
69.616,-69
69.641,-54
69.666,7
69.691,93
69.716,172
69.741,228
69.766,266
69.791,300
69.816,333
69.841,358
69.866,368
69.891,365
69.916,360
69.941,359
69.966,360
69.991,352
70.016,335
70.041,315
70.066,301
70.091,291
70.116,276
70.141,251
70.166,220
70.191,187
70.216,156
70.241,125
70.266,90
70.291,52
70.316,15
70.341,-21
70.366,-60
70.391,-97
70.416,-116
70.441,-98
70.466,-35
70.491,62
70.516,167
70.541,258
70.566,327
70.591,379
70.616,421
70.641,456
70.666,477
70.691,483
70.716,477
70.741,463
70.766,447
70.791,425
70.816,397
70.841,365
70.866,334
70.891,307
70.916,280
70.941,248
70.966,210
70.991,171
71.016,134
71.041,92
71.066,40
71.091,-15
71.116,-52
71.141,-44
71.166,11
71.191,95
71.216,178
71.241,243
71.266,290
71.291,331
71.316,366
71.341,390
71.366,397
71.391,390
71.416,379
71.441,373
71.466,370
71.491,365
71.516,350
71.541,326
71.566,296
71.591,264
71.616,232
71.641,198
71.666,160
71.691,121
71.716,85
71.741,55
71.766,24
71.791,-15
71.816,-68
71.841,-120
71.866,-140
71.891,-104
71.916,-16
71.941,92
71.966,187
71.991,258
72.016,313
72.041,366
72.066,417
72.091,452
72.116,464
72.141,458
72.166,449
72.191,444
72.216,439
72.241,428
72.266,410
72.291,388
72.316,365
72.341,337
72.366,300
72.391,255
72.416,207
72.441,161
72.466,119
72.491,79
72.516,36
72.541,-14
72.566,-76
72.591,-136
72.616,-172
72.641,-155
72.666,-78
72.691,35
72.716,148
72.741,233
72.766,288
72.791,328
72.816,366
72.841,396
72.866,408
72.891,399
72.916,383
72.941,372
72.966,368
72.991,361
73.016,344
73.041,319
73.066,297
73.091,280
73.116,261
73.141,234
73.166,198
73.191,161
73.216,130
73.241,96
73.266,50
73.291,-1
73.316,-37
73.341,-29
73.366,30
73.391,125
73.416,222
73.441,302
73.466,360
73.491,404
73.516,437
73.541,455
73.566,456
73.591,445
73.616,434
73.641,424
73.666,408
73.691,380
73.716,345
73.741,314
73.766,293
73.791,278
73.816,262
73.841,239
73.866,209
73.891,170
73.916,116
73.941,49
73.966,-12
73.991,-39
74.016,-12
74.041,54
74.066,131
74.091,187
74.116,217
74.141,233
74.166,247
74.191,257
74.216,256
74.241,242
74.266,226
74.291,223
74.316,235
74.341,253
74.366,263
74.391,259
74.416,243
74.441,224
74.466,206
74.491,183
74.516,155
74.541,125
74.566,110
74.591,125
74.616,175
74.641,246
74.666,313
74.691,360
74.716,384
74.741,397
74.766,404
74.791,404
74.816,385
74.841,345
74.866,293
74.891,242
74.916,201
74.941,170
74.966,143
74.991,118
75.016,95
75.041,76
75.066,55
75.091,31
75.116,10
75.141,6
75.166,32
75.191,86
75.216,154
75.241,218
75.266,267
75.291,304
75.316,335
75.341,355
75.366,358
75.391,342
75.416,317
75.441,299
75.466,293
75.491,288
75.516,271
75.541,241
75.566,211
75.591,188
75.616,166
75.641,134
75.666,90
75.691,55
75.716,58
75.741,105
75.766,176
75.791,244
75.816,295
75.841,333
75.866,368
75.891,397
75.916,412
75.941,406
75.966,386
75.991,363
76.016,343
76.041,323
76.066,300
76.091,272
76.116,240
76.141,204
76.166,165
76.191,128
76.216,94
76.241,58
76.266,7
76.291,-61
76.316,-128
76.341,-159
76.366,-131
76.391,-56
76.416,31
76.441,100
76.466,146
76.491,185
76.516,228
76.541,273
76.566,304
76.591,317
76.616,320
76.641,331
76.666,360
76.691,403
76.716,449
76.741,487
76.766,508
76.791,510
76.816,496
76.841,470
76.866,440
76.891,407
76.916,372
76.941,335
76.966,296
76.991,257
77.016,217
77.041,177
77.066,136
77.091,94
77.116,45
77.141,-12
77.166,-71
77.191,-105
77.216,-94
77.241,-31
77.266,61
77.291,149
77.316,212
77.341,255
77.366,293
77.391,337
77.416,381
77.441,410
77.466,421
77.491,421
77.516,420
77.541,423
77.566,426
77.591,423
77.616,412
77.641,393
77.666,368
77.691,338
77.716,305
77.741,274
77.766,247
77.791,222
77.816,195
77.841,164
77.866,131
77.891,102
77.916,77
77.941,52
77.966,17
77.991,-28
78.016,-71
78.041,-90
78.066,-67
78.091,-3
78.116,79
78.141,156
78.166,214
78.191,255
78.216,293
78.241,331
78.266,363
78.291,375
78.316,367
78.341,349
78.366,337
78.391,336
78.416,339
78.441,336
78.466,324
78.491,307
78.516,291
78.541,275
78.566,253
78.591,224
78.616,192
78.641,163
78.666,140
78.691,120
78.716,101
78.741,79
78.766,56
78.791,31
78.816,0
78.841,-34
78.866,-59
78.891,-57
78.916,-16
78.941,58
78.966,146
78.991,225
79.016,283
79.041,327
79.066,365
79.091,401
79.116,430
79.141,446
79.166,448
79.191,443
79.216,438
79.241,437
79.266,437
79.291,432
79.316,421
79.341,405
79.366,386
79.391,367
79.416,344
79.441,316
79.466,284
79.491,251
79.516,220
79.541,191
79.566,160
79.591,127
79.616,91
79.641,53
79.666,11
79.691,-36
79.716,-87
79.741,-121
79.766,-115
79.791,-61
79.816,27
79.841,118
79.866,186
79.891,231
79.916,267
79.941,307
79.966,345
79.991,370
80.016,376
80.041,369
80.066,364
80.091,364
80.116,363
80.141,355
80.166,342
80.191,329
80.216,316
80.241,299
80.266,275
80.291,249
80.316,225
80.341,202
80.366,176
80.391,145
80.416,109
80.441,72
80.466,33
80.491,-8
80.516,-38
80.541,-32
80.566,24
80.591,118
80.616,216
80.641,285
80.666,321
80.691,345
80.716,374
80.741,404
80.766,418
80.791,410
80.816,394
80.841,386
80.866,389
80.891,389
80.916,376
80.941,353
80.966,333
80.991,317
81.016,297
81.041,264
81.066,222
81.091,184
81.116,156
81.141,129
81.166,97
81.191,59
81.216,24
81.241,-8
81.266,-49
81.291,-99
81.316,-137
81.341,-131
81.366,-63
81.391,47
81.416,158
81.441,239
81.466,288
81.491,325
81.516,365
81.541,403
81.566,426
81.591,430
81.616,425
81.641,423
81.666,428
81.691,434
81.716,431
81.741,417
81.766,398
81.791,378
81.816,358
81.841,337
81.866,311
81.891,280
81.916,245
81.941,212
81.966,180
81.991,149
82.016,116
82.041,82
82.066,48
82.091,16
82.116,-22
82.141,-72
82.166,-121
82.191,-143
82.216,-112
82.241,-28
82.266,80
82.291,178
82.316,244
82.341,284
82.366,320
82.391,361
82.416,400
82.441,423
82.466,426
82.491,421
82.516,417
82.541,419
82.566,420
82.591,416
82.616,405
82.641,390
82.666,372
82.691,351
82.716,325
82.741,295
82.766,264
82.791,235
82.816,206
82.841,176
82.866,142
82.891,104
82.916,68
82.941,38
82.966,11
82.991,-21
83.016,-62
83.041,-102
83.066,-112
83.091,-70
83.116,20
83.141,131
83.166,227
83.191,289
83.216,328
83.241,362
83.266,397
83.291,425
83.316,435
83.341,431
83.366,425
83.391,428
83.416,434
83.441,434
83.466,422
83.491,405
83.516,388
83.541,368
83.566,340
83.591,305
83.616,270
83.641,241
83.666,215
83.691,183
83.716,142
83.741,100
83.766,65
83.791,34
83.816,-3
83.841,-48
83.866,-83
83.891,-83
83.916,-35
83.941,47
83.966,134
83.991,201
84.016,244
84.041,273
84.066,301
84.091,329
84.116,348
84.141,353
84.166,346
84.191,336
84.216,332
84.241,334
84.266,336
84.291,332
84.316,318
84.341,300
84.366,280
84.391,259
84.416,234
84.441,204
84.466,174
84.491,149
84.516,126
84.541,95
84.566,49
84.591,1
84.616,-24
84.641,-3
84.666,63
84.691,150
84.716,224
84.741,273
84.766,304
84.791,331
84.816,359
84.841,380
84.866,386
84.891,379
84.916,368
84.941,362
84.966,362
84.991,361
85.016,353
85.041,337
85.066,315
85.091,291
85.116,267
85.141,244
85.166,218
85.191,189
85.216,160
85.241,134
85.266,106
85.291,68
85.316,20
85.341,-22
85.366,-36
85.391,-4
85.416,67
85.441,150
85.466,217
85.491,262
85.516,295
85.541,328
85.566,361
85.591,384
85.616,391
85.641,385
85.666,376
85.691,369
85.716,363
85.741,356
85.766,346
85.791,334
85.816,316
85.841,294
85.866,266
85.891,237
85.916,206
85.941,175
85.966,145
85.991,116
86.016,87
86.041,51
86.066,4
86.091,-46
86.116,-80
86.141,-76
86.166,-28
86.191,43
86.216,114
86.241,168
86.266,208
86.291,249
86.316,294
86.341,336
86.366,363
86.391,370
86.416,366
86.441,363
86.466,364
86.491,367
86.516,365
86.541,357
86.566,345
86.591,332
86.616,319
86.641,303
86.666,279
86.691,248
86.716,213
86.741,178
86.766,137
86.791,90
86.816,42
86.841,11
86.866,17
86.891,63
86.916,134
86.941,202
86.966,252
86.991,283
87.016,307
87.041,331
87.066,351
87.091,360
87.116,357
87.141,350
87.166,346
87.191,345
87.216,342
87.241,334
87.266,318
87.291,298
87.316,275
87.341,248
87.366,219
87.391,188
87.416,158
87.441,131
87.466,106
87.491,79
87.516,45
87.541,2
87.566,-40
87.591,-60
87.616,-39
87.641,21
87.666,100
87.691,172
87.716,222
87.741,260
87.766,297
87.791,338
87.816,370
87.841,385
87.866,384
87.891,379
87.916,377
87.941,377
87.966,372
87.991,359
88.016,342
88.041,325
88.066,307
88.091,285
88.116,263
88.141,243
88.166,223
88.191,198
88.216,167
88.241,135
88.266,116
88.291,107
88.316,94
88.341,63
88.366,21
88.391,-4
88.416,12
88.441,74
88.466,152
88.491,218
88.516,262
88.541,294
88.566,326
88.591,359
88.616,380
88.641,383
88.666,372
88.691,359
88.716,350
88.741,345
88.766,341
88.791,336
88.816,327
88.841,313
88.866,291
88.891,266
88.916,242
88.941,221
88.966,200
88.991,175
89.016,147
89.041,121
89.066,97
89.091,67
89.116,26
89.141,-15
89.166,-35
89.191,-12
89.216,49
89.241,125
89.266,187
89.291,227
89.316,256
89.341,286
89.366,316
89.391,336
89.416,340
89.441,334
89.466,328
89.491,326
89.516,325
89.541,320
89.566,312
89.591,302
89.616,292
89.641,277
89.666,257
89.691,232
89.716,206
89.741,180
89.766,154
89.791,129
89.816,104
89.841,76
89.866,43
89.891,10
89.916,-7
89.941,6
89.966,57
89.991,131
90.016,202
90.041,255
90.066,291
90.091,323
90.116,356
90.141,385
90.166,399
90.191,397
90.216,389
90.241,383
90.266,383
90.291,382
90.316,375
90.341,363
90.366,349
90.391,333
90.416,311
90.441,284
90.466,255
90.491,230
90.516,208
90.541,183
90.566,153
90.591,121
90.616,92
90.641,62
90.666,25
90.691,-20
90.716,-59
90.741,-63
90.766,-20
90.791,58
90.816,144
90.841,211
90.866,255
90.891,291
90.916,327
90.941,361
90.966,384
90.991,391
91.016,390
91.041,391
91.066,396
91.091,399
91.116,393
91.141,384
91.166,375
91.191,366
91.216,353
91.241,331
91.266,302
91.291,271
91.316,242
91.341,213
91.366,180
91.391,146
91.416,111
91.441,72
91.466,24
91.491,-24
91.516,-54
91.541,-42
91.566,12
91.591,88
91.616,153
91.641,192
91.666,215
91.691,240
91.716,274
91.741,307
91.766,325
91.791,325
91.816,316
91.841,312
91.866,314
91.891,318
91.916,314
91.941,302
91.966,286
91.991,269
92.016,253
92.041,232
92.066,203
92.091,170
92.116,139
92.141,111
92.166,80
92.191,39
92.216,-7
92.241,-41
92.266,-38
92.291,14
92.316,99
92.341,185
92.366,249
92.391,289
92.416,320
92.441,354
92.466,388
92.491,409
92.516,412
92.541,402
92.566,391
92.591,383
92.616,375
92.641,364
92.666,348
92.691,328
92.716,304
92.741,276
92.766,244
92.791,209
92.816,174
92.841,140
92.866,109
92.891,84
92.916,65
92.941,44
92.966,8
92.991,-42
93.016,-89
93.041,-98
93.066,-50
93.091,43
93.116,148
93.141,230
93.166,282
93.191,321
93.216,363
93.241,409
93.266,446
93.291,461
93.316,458
93.341,449
93.366,445
93.391,446
93.416,446
93.441,437
93.466,421
93.491,401
93.516,380
93.541,353
93.566,321
93.591,286
93.616,253
93.641,223
93.666,192
93.691,158
93.716,121
93.741,87
93.766,57
93.791,21
93.816,-26
93.841,-82
93.866,-120
93.891,-110
93.916,-45
93.941,56
93.966,156
93.991,230
94.016,275
94.041,308
94.066,341
94.091,370
94.116,386
94.141,386
94.166,378
94.191,369
94.216,365
94.241,362
94.266,355
94.291,343
94.316,327
94.341,306
94.366,281
94.391,254
94.416,226
94.441,196
94.466,167
94.491,137
94.516,105
94.541,66
94.566,16
94.591,-37
94.616,-74
94.641,-70
94.666,-13
94.691,78
94.716,171
94.741,239
94.766,282
94.791,313
94.816,346
94.841,375
94.866,390
94.891,389
94.916,384
94.941,383
94.966,385
94.991,382
95.016,373
95.041,360
95.066,349
95.091,336
95.116,313
95.141,276
95.166,235
95.191,200
95.216,172
95.241,146
95.266,115
95.291,81
95.316,47
95.341,9
95.366,-37
95.391,-85
95.416,-110
95.441,-85
95.466,-6
95.491,101
95.516,196
95.541,257
95.566,288
95.591,314
95.616,349
95.641,388
95.666,414
95.691,418
95.716,407
95.741,395
95.766,392
95.791,392
95.816,390
95.841,381
95.866,369
95.891,357
95.916,339
95.941,312
95.966,276
95.991,237
96.016,205
96.041,180
96.066,155
96.091,127
96.116,97
96.141,66
96.166,34
96.191,-6
96.216,-53
96.241,-84
96.266,-74
96.291,-12
96.316,81
96.341,172
96.366,237
96.391,276
96.416,309
96.441,348
96.466,386
96.491,410
96.516,415
96.541,409
96.566,403
96.591,399
96.616,394
96.641,384
96.666,369
96.691,353
96.716,334
96.741,313
96.766,288
96.791,261
96.816,231
96.841,199
96.866,163
96.891,127
96.916,93
96.941,57
96.966,14
96.991,-31
97.016,-62
97.041,-56
97.066,-7
97.091,69
97.116,146
97.141,205
97.166,246
97.191,280
97.216,311
97.241,337
97.266,352
97.291,356
97.316,355
97.341,353
97.366,350
97.391,346
97.416,340
97.441,332
97.466,321
97.491,304
97.516,279
97.541,249
97.566,218
97.591,188
97.616,162
97.641,138
97.666,114
97.691,83
97.716,41
97.741,-2
97.766,-28
97.791,-14
97.816,43
97.841,127
97.866,205
97.891,259
97.916,293
97.941,324
97.966,361
97.991,395
98.016,414
98.041,413
98.066,401
98.091,391
98.116,389
98.141,387
98.166,379
98.191,366
98.216,352
98.241,339
98.266,323
98.291,297
98.316,265
98.341,233
98.366,206
98.391,179
98.416,148
98.441,112
98.466,76
98.491,45
98.516,14
98.541,-28
98.566,-79
98.591,-117
98.616,-114
98.641,-57
98.666,34
98.691,126
98.716,195
98.741,240
98.766,278
98.791,323
98.816,368
98.841,402
98.866,417
98.891,420
98.916,422
98.941,427
98.966,431
98.991,429
99.016,419
99.041,405
99.066,388
99.091,370
99.116,349
99.141,323
99.166,295
99.191,266
99.216,239
99.241,211
99.266,180
99.291,144
99.316,106
99.341,72
99.366,43
99.391,13
99.416,-22
99.441,-62
99.466,-89
99.491,-80
99.516,-25
99.541,58
99.566,141
99.591,204
99.616,244
99.641,275
99.666,308
99.691,337
99.716,353
99.741,356
99.766,353
99.791,353
99.816,357
99.841,359
99.866,355
99.891,346
99.916,334
99.941,317
99.966,295
99.991,270
100.016,244
100.041,220
100.066,193
100.091,162
100.116,128
100.141,97
100.166,68
100.191,34
100.216,0
100.241,-22
100.266,-7
100.291,53
100.316,142
100.341,226
100.366,283
100.391,315
100.416,340
100.441,367
100.466,391
100.491,401
100.516,395
100.541,385
100.566,383
100.591,390
100.616,397
100.641,396
100.666,385
100.691,366
100.716,341
100.741,309
100.766,275
100.791,244
100.816,218
100.841,192
100.866,161
100.891,126
100.916,91
100.941,59
100.966,25
100.991,-17
101.016,-64
101.041,-92
101.066,-78
101.091,-15
101.116,75
101.141,162
101.166,226
101.191,270
101.216,309
101.241,349
101.266,386
101.291,410
101.316,415
101.341,410
101.366,403
101.391,397
101.416,388
101.441,376
101.466,362
101.491,350
101.516,338
101.541,320
101.566,294
101.591,264
101.616,237
101.641,213
101.666,187
101.691,153
101.716,114
101.741,78
101.766,45
101.791,9
101.816,-37
101.841,-86
101.866,-114
101.891,-95
101.916,-27
101.941,67
101.966,156
101.991,220
102.016,264
102.041,303
102.066,343
102.091,379
102.116,399
102.141,400
102.166,389
102.191,378
102.216,372
102.241,371
102.266,370
102.291,363
102.316,349
102.341,328
102.366,304
102.391,280
102.416,256
102.441,228
102.466,199
102.491,169
102.516,142
102.541,113
102.566,74
102.591,25
102.616,-15
102.641,-22
102.666,18
102.691,97
102.716,181
102.741,247
102.766,288
102.791,319
102.816,347
102.841,371
102.866,381
102.891,379
102.916,370
102.941,367
102.966,368
102.991,367
103.016,360
103.041,345
103.066,327
103.091,306
103.116,281
103.141,252
103.166,224
103.191,196
103.216,167
103.241,136
103.266,103
103.291,70
103.316,32
103.341,-14
103.366,-67
103.391,-107
103.416,-108
103.441,-56
103.466,34
103.491,131
103.516,209
103.541,260
103.566,299
103.591,337
103.616,374
103.641,402
103.666,415
103.691,417
103.716,417
103.741,418
103.766,417
103.791,412
103.816,402
103.841,390
103.866,375
103.891,355
103.916,328
103.941,296
103.966,265
103.991,235
104.016,204
104.041,169
104.066,132
104.091,98
104.116,65
104.141,27
104.166,-21
104.191,-71
104.216,-97
104.241,-79
104.266,-13
104.291,78
104.316,166
104.341,230
104.366,273
104.391,308
104.416,343
104.441,374
104.466,393
104.491,399
104.516,396
104.541,392
104.566,390
104.591,389
104.616,387
104.641,380
104.666,367
104.691,346
104.716,321
104.741,293
104.766,265
104.791,234
104.816,197
104.841,158
104.866,121
104.891,88
104.916,54
104.941,13
104.966,-29
104.991,-55
105.016,-42
105.041,15
105.066,97
105.091,177
105.116,236
105.141,275
105.166,305
105.191,331
105.216,349
105.241,354
105.266,348
105.291,342
105.316,340
105.341,341
105.366,336
105.391,321
105.416,301
105.441,283
105.466,266
105.491,244
105.516,213
105.541,176
105.566,142
105.591,116
105.616,91
105.641,56
105.666,7
105.691,-38
105.716,-52
105.741,-17
105.766,60
105.791,151
105.816,226
105.841,276
105.866,311
105.891,344
105.916,378
105.941,403
105.966,411
105.991,407
106.016,398
106.041,391
106.066,385
106.091,376
106.116,361
106.141,343
106.166,320
106.191,294
106.216,265
106.241,235
106.266,206
106.291,176
106.316,144
106.341,110
106.366,76
106.391,41
106.416,0
106.441,-45
106.466,-82
106.491,-84
106.516,-37
106.541,50
106.566,147
106.591,224
106.616,275
106.641,311
106.666,349
106.691,389
106.716,420
106.741,433
106.766,434
106.791,433
106.816,435
106.841,437
106.866,431
106.891,417
106.916,397
106.941,375
106.966,351
106.991,324
107.016,295
107.041,268
107.066,241
107.091,211
107.116,173
107.141,133
107.166,100
107.191,75
107.216,46
107.241,4
107.266,-48
107.291,-86
107.316,-82
107.341,-28
107.366,57
107.391,143
107.416,208
107.441,250
107.466,283
107.491,313
107.516,339
107.541,353
107.566,352
107.591,343
107.616,336
107.641,333
107.666,333
107.691,330
107.716,321
107.741,307
107.766,290
107.791,271
107.816,251
107.841,227
107.866,198
107.891,168
107.916,142
107.941,120
107.966,94
107.991,57
108.016,13
108.041,-16
108.066,-7
108.091,50
108.116,137
108.141,219
108.166,275
108.191,308
108.216,333
108.241,359
108.266,382
108.291,390
108.316,381
108.341,369
108.366,364
108.391,367
108.416,369
108.441,361
108.466,343
108.491,320
108.516,295
108.541,270
108.566,244
108.591,215
108.616,185
108.641,153
108.666,122
108.691,93
108.716,64
108.741,27
108.766,-18
108.791,-63
108.816,-82
108.841,-51
108.866,26
108.891,122
108.916,205
108.941,260
108.966,296
108.991,329
109.016,363
109.041,390
109.066,400
109.091,398
109.116,393
109.141,392
109.166,390
109.191,382
109.216,371
109.241,360
109.266,349
109.291,334
109.316,310
109.341,281
109.366,255
109.391,233
109.416,210
109.441,182
109.466,149
109.491,115
109.516,80
109.541,37
109.566,-12
109.591,-51
109.616,-53
109.641,-5
109.666,78
109.691,166
109.716,230
109.741,267
109.766,291
109.791,317
109.816,346
109.841,369
109.866,379
109.891,376
109.916,368
109.941,360
109.966,353
109.991,345
110.016,334
110.041,319
110.066,299
110.091,275
110.116,250
110.141,225
110.166,200
110.191,176
110.216,149
110.241,117
110.266,79
110.291,40
110.316,9
110.341,4
110.366,36
110.391,103
110.416,183
110.441,252
110.466,293
110.491,313
110.516,325
110.541,337
110.566,345
110.591,342
110.616,328
110.641,311
110.666,298
110.691,291
110.716,284
110.741,271
110.766,253
110.791,232
110.816,209
110.841,184
110.866,159
110.891,134
110.916,110
110.941,81
110.966,42
110.991,1
111.016,-21
111.041,-4
111.066,56
111.091,141
111.116,220
111.141,275
111.166,308
111.191,333
111.216,361
111.241,388
111.266,404
111.291,402
111.316,389
111.341,377
111.366,369
111.391,361
111.416,347
111.441,324
111.466,299
111.491,276
111.516,253
111.541,222
111.566,184
111.591,146
111.616,114
111.641,84
111.666,44
111.691,-5
111.716,-46
111.741,-49
111.766,0
111.791,85
111.816,175
111.841,242
111.866,284
111.891,316
111.916,349
111.941,378
111.966,395
111.991,398
112.016,395
112.041,392
112.066,391
112.091,389
112.116,383
112.141,373
112.166,358
112.191,338
112.216,310
112.241,281
112.266,255
112.291,230
112.316,203
112.341,169
112.366,132
112.391,97
112.416,60
112.441,15
112.466,-36
112.491,-74
112.516,-73
112.541,-19
112.566,68
112.591,155
112.616,219
112.641,258
112.666,289
112.691,323
112.716,355
112.741,373
112.766,375
112.791,368
112.816,363
112.841,362
112.866,360
112.891,350
112.916,334
112.941,315
112.966,296
112.991,278
113.016,256
113.041,227
113.066,194
113.091,161
113.116,133
113.141,109
113.166,80
113.191,42
113.216,4
113.241,-11
113.266,11
113.291,73
113.316,151
113.341,219
113.366,265
113.391,295
113.416,320
113.441,345
113.466,362
113.491,365
113.516,360
113.541,354
113.566,353
113.591,354
113.616,349
113.641,335
113.666,316
113.691,297
113.716,277
113.741,253
113.766,224
113.791,190
113.816,157
113.841,127
113.866,100
113.891,66
113.916,21
113.941,-27
113.966,-62
113.991,-59
114.016,-12
114.041,66
114.066,149
114.091,215
114.116,259
114.141,292
114.166,324
114.191,353
114.216,371
114.241,376
114.266,376
114.291,377
114.316,378
114.341,376
114.366,368
114.391,356
114.416,344
114.441,331
114.466,312
114.491,287
114.516,260
114.541,235
114.566,209
114.591,181
114.616,152
114.641,124
114.666,95
114.691,60
114.716,18
114.741,-17
114.766,-21
114.791,20
114.816,102
114.841,193
114.866,262
114.891,302
114.916,324
114.941,346
114.966,372
114.991,397
115.016,409
115.041,406
115.066,394
115.091,382
115.116,372
115.141,365
115.166,355
115.191,338
115.216,315
115.241,288
115.266,260
115.291,232
115.316,201
115.341,165
115.366,129
115.391,96
115.416,65
115.441,27
115.466,-16
115.491,-55
115.516,-61
115.541,-20
115.566,58
115.591,143
115.616,205
115.641,238
115.666,258
115.691,282
115.716,308
115.741,325
115.766,326
115.791,319
115.816,319
115.841,327
115.866,332
115.891,325
115.916,307
115.941,287
115.966,271
115.991,254
116.016,232
116.041,205
116.066,177
116.091,150
116.116,116
116.141,70
116.166,23
116.191,1
116.216,24
116.241,92
116.266,180
116.291,257
116.316,310
116.341,342
116.366,366
116.391,388
116.416,403
116.441,406
116.466,398
116.491,385
116.516,375
116.541,368
116.566,358
116.591,342
116.616,321
116.641,297
116.666,273
116.691,245
116.716,212
116.741,174
116.766,137
116.791,107
116.816,78
116.841,40
116.866,-12
116.891,-67
116.916,-95
116.941,-72
116.966,0
116.991,94
117.016,178
117.041,236
117.066,273
117.091,307
117.116,344
117.141,375
117.166,391
117.191,390
117.216,383
117.241,378
117.266,378
117.291,377
117.316,369
117.341,356
117.366,339
117.391,318
117.416,294
117.441,265
117.466,233
117.491,202
117.516,174
117.541,146
117.566,115
117.591,76
117.616,31
117.641,-8
117.666,-23
117.691,1
117.716,65
117.741,148
117.766,223
117.791,274
117.816,303
117.841,325
117.866,350
117.891,372
117.916,381
117.941,374
117.966,360
117.991,351
118.016,349
118.041,346
118.066,334
118.091,310
118.116,283
118.141,257
118.166,230
118.191,200
118.216,167
118.241,139
118.266,116
118.291,91
118.316,57
118.341,18
118.366,-4
118.391,10
118.416,67
118.441,147
118.466,220
118.491,269
118.516,298
118.541,319
118.566,340
118.591,356
118.616,359
118.641,349
118.666,338
118.691,333
118.716,332
118.741,327
118.766,311
118.791,288
118.816,266
118.841,249
118.866,229
118.891,202
118.916,167
118.941,132
118.966,100
118.991,65
119.016,21
119.041,-24
119.066,-52
119.091,-37
119.116,21
119.141,103
119.166,178
119.191,230
119.216,265
119.241,300
119.266,341
119.291,376
119.316,391
119.341,385
119.366,370
119.391,363
119.416,366
119.441,369
119.466,362
119.491,343
119.516,320
119.541,296
119.566,271
119.591,238
119.616,197
119.641,158
119.666,130
119.691,111
119.716,91
119.741,61
119.766,26
119.791,7
119.816,22
119.841,75
119.866,148
119.891,219
119.916,272
119.941,309
119.966,341
119.991,372
120.016,397
120.041,409
120.066,407
120.091,398
120.116,391
120.141,386
120.166,378
120.191,361
120.216,338
120.241,314
120.266,288
120.291,258
120.316,222
120.341,185
120.366,153
120.391,125
120.416,91
120.441,46
120.466,0
120.491,-24
120.516,-10
120.541,39
120.566,101
120.591,152
120.616,186
120.641,212
120.666,240
120.691,265
120.716,280
120.741,280
120.766,274
120.791,273
120.816,279
120.841,285
120.866,284
120.891,279
120.916,272
120.941,264
120.966,249
120.991,226
121.016,199
121.041,173
121.066,145
121.091,108
121.116,65
121.141,35
121.166,43
121.191,94
121.216,166
121.241,230
121.266,272
121.291,298
121.316,325
121.341,356
121.366,378
121.391,382
121.416,372
121.441,361
121.466,357
121.491,353
121.516,342
121.541,321
121.566,297
121.591,276
121.616,254
121.641,229
121.666,199
121.691,170
121.716,145
121.741,116
121.766,75
121.791,29
121.816,2
121.841,12
121.866,61
121.891,127
121.916,187
121.941,229
121.966,262
121.991,295
122.016,330
122.041,357
122.066,367
122.091,362
122.116,354
122.141,350
122.166,351
122.191,348
122.216,337
122.241,321
122.266,304
122.291,287
122.316,267
122.341,241
122.366,209
122.391,177
122.416,147
122.441,115
122.466,75
122.491,30
122.516,-1
122.541,0
122.566,40
122.591,104
122.616,167
122.641,213
122.666,246
122.691,278
122.716,311
122.741,340
122.766,352
122.791,349
122.816,338
122.841,331
122.866,330
122.891,328
122.916,320
122.941,307
122.966,289
122.991,267
123.016,239
123.041,208
123.066,176
123.091,142
123.116,104
123.141,66
123.166,40
123.191,44
123.216,82
123.241,141
123.266,199
123.291,240
123.316,267
123.341,290
123.366,311
123.391,323
123.416,323
123.441,314
123.466,307
123.491,306
123.516,306
123.541,299
123.566,282
123.591,259
123.616,236
123.641,211
123.666,184
123.691,155
123.716,124
123.741,90
123.766,52
123.791,16
123.816,-1
123.841,14
123.866,67
123.891,135
123.916,193
123.941,232
123.966,261
123.991,293
124.016,331
124.041,360
124.066,370
124.091,362
124.116,351
124.141,344
124.166,340
124.191,331
124.216,313
124.241,292
124.266,269
124.291,243
124.316,211
124.341,177
124.366,147
124.391,123
124.416,95
124.441,57
124.466,17
124.491,-3
124.516,12
124.541,65
124.566,133
124.591,195
124.616,243
124.641,286
124.666,330
124.691,373
124.716,405
124.741,421
124.766,424
124.791,422
124.816,418
124.841,410
124.866,400
124.891,388
124.916,374
124.941,357
124.966,332
124.991,301
125.016,266
125.041,232
125.066,201
125.091,171
125.116,140
125.141,109
125.166,73
125.191,29
125.216,-16
125.241,-46
125.266,-38
125.291,10
125.316,82
125.341,150
125.366,196
125.391,228
125.416,259
125.441,296
125.466,325
125.491,336
125.516,328
125.541,316
125.566,310
125.591,310
125.616,307
125.641,295
125.666,278
125.691,262
125.716,247
125.741,228
125.766,203
125.791,178
125.816,157
125.841,136
125.866,107
125.891,71
125.916,42
125.941,42
125.966,80
125.991,141
126.016,204
126.041,252
126.066,284
126.091,311
126.116,337
126.141,357
126.166,362
126.191,353
126.216,338
126.241,329
126.266,327
126.291,324
126.316,312
126.341,290
126.366,265
126.391,243
126.416,222
126.441,198
126.466,169
126.491,139
126.516,110
126.541,81
126.566,45
126.591,1
126.616,-34
126.641,-40
126.666,-6
126.691,60
126.716,135
126.741,201
126.766,252
126.791,297
126.816,342
126.841,382
126.866,408
126.891,416
126.916,413
126.941,408
126.966,407
126.991,407
127.016,402
127.041,392
127.066,378
127.091,365
127.116,350
127.141,332
127.166,312
127.191,292
127.216,271
127.241,247
127.266,219
127.291,189
127.316,161
127.341,134
127.366,102
127.391,56
127.416,0
127.441,-49
127.466,-66
127.491,-40
127.516,19
127.541,89
127.566,149
127.591,194
127.616,232
127.641,269
127.666,304
127.691,329
127.716,340
127.741,341
127.766,337
127.791,334
127.816,334
127.841,335
127.866,335
127.891,328
127.916,313
127.941,292
127.966,269
127.991,248
128.016,229
128.041,208
128.066,182
128.091,153
128.116,121
128.141,88
128.166,51
128.191,18
128.216,2
128.241,21
128.266,75
128.291,148
128.316,215
128.341,261
128.366,291
128.391,315
128.416,339
128.441,355
128.466,359
128.491,352
128.516,344
128.541,342
128.566,342
128.591,339
128.616,329
128.641,314
128.666,296
128.691,271
128.716,236
128.741,198
128.766,167
128.791,149
128.816,132
128.841,101
128.866,53
128.891,5
128.916,-10
128.941,18
128.966,83
128.991,157
129.016,216
129.041,256
129.066,287
129.091,317
129.116,345
129.141,366
129.166,373
129.191,369
129.216,361
129.241,356
129.266,355
129.291,353
129.316,343
129.341,322
129.366,296
129.391,271
129.416,248
129.441,222
129.466,190
129.491,153
129.516,117
129.541,88
129.566,57
129.591,15
129.616,-34
129.641,-71
129.666,-66
129.691,-9
129.716,79
129.741,168
129.766,233
129.791,275
129.816,310
129.841,348
129.866,387
129.891,415
129.916,426
129.941,424
129.966,416
129.991,410
130.016,405
130.041,400
130.066,389
130.091,371
130.116,344
130.141,312
130.166,277
130.191,243
130.216,210
130.241,176
130.266,141
130.291,103
130.316,58
130.341,6
130.366,-43
130.391,-67
130.416,-45
130.441,22
130.466,110
130.491,188
130.516,241
130.541,276
130.566,308
130.591,341
130.616,364
130.641,367
130.666,356
130.691,344
130.716,342
130.741,344
130.766,339
130.791,323
130.816,302
130.841,284
130.866,265
130.891,240
130.916,208
130.941,176
130.966,147
130.991,115
131.016,72
131.041,25
131.066,-3
131.091,11
131.116,74
131.141,163
131.166,244
131.191,297
131.216,327
131.241,348
131.266,367
131.291,378
131.316,376
131.341,363
131.366,349
131.391,342
131.416,336
131.441,321
131.466,294
131.491,262
131.516,234
131.541,209
131.566,183
131.591,150
131.616,115
131.641,80
131.666,43
131.691,-3
131.716,-56
131.741,-91
131.766,-79
131.791,-11
131.816,92
131.841,191
131.866,259
131.891,299
131.916,331
131.941,367
131.966,399
131.991,410
132.016,398
132.041,377
132.066,365
132.091,363
132.116,362
132.141,352
132.166,333
132.191,312
132.216,292
132.241,268
132.266,235
132.291,198
132.316,163
132.341,130
132.366,88
132.391,37
132.416,-8
132.441,-20
132.466,20
132.491,101
132.516,191
132.541,260
132.566,301
132.591,328
132.616,354
132.641,377
132.666,387
132.691,382
132.716,369
132.741,358
132.766,351
132.791,342
132.816,327
132.841,307
132.866,286
132.891,264
132.916,237
132.941,203
132.966,170
132.991,140
133.016,109
133.041,67
133.066,17
133.091,-22
133.116,-23
133.141,24
133.166,103
133.191,181
133.216,236
133.241,270
133.266,296
133.291,321
133.316,337
133.341,339
133.366,328
133.391,316
133.416,310
133.441,308
133.466,303
133.491,290
133.516,271
133.541,250
133.566,224
133.591,196
133.616,167
133.641,138
133.666,104
133.691,62
133.716,21
133.741,2
133.766,27
133.791,93
133.816,174
133.841,239
133.866,278
133.891,304
133.916,332
133.941,361
133.966,378
133.991,374
134.016,357
134.041,345
134.066,343
134.091,342
134.116,332
134.141,310
134.166,286
134.191,264
134.216,242
134.241,214
134.266,180
134.291,148
134.316,118
134.341,85
134.366,42
134.391,0
134.416,-19
134.441,6
134.466,73
134.491,157
134.516,227
134.541,273
134.566,303
134.591,330
134.616,357
134.641,376
134.666,381
134.691,375
134.716,367
134.741,365
134.766,364
134.791,357
134.816,341
134.841,319
134.866,296
134.891,271
134.916,243
134.941,211
134.966,179
134.991,151
135.016,123
135.041,89
135.066,46
135.091,8
135.116,-4
135.141,23
135.166,84
135.191,154
135.216,209
135.241,244
135.266,266
135.291,286
135.316,304
135.341,316
135.366,316
135.391,311
135.416,306
135.441,305
135.466,303
135.491,297
135.516,285
135.541,269
135.566,249
135.591,226
135.616,203
135.641,180
135.666,158
135.691,129
135.716,88
135.741,45
135.766,22
135.791,37
135.816,92
135.841,164
135.866,224
135.891,261
135.916,283
135.941,304
135.966,330
135.991,352
136.016,360
136.041,352
136.066,340
136.091,335
136.116,335
136.141,331
136.166,316
136.191,293
136.216,270
136.241,251
136.266,232
136.291,209
136.316,181
136.341,153
136.366,123
136.391,88
136.416,45
136.441,4
136.466,-14
136.491,5
136.516,63
136.541,139
136.566,209
136.591,262
136.616,301
136.641,336
136.666,370
136.691,399
136.716,415
136.741,419
136.766,415
136.791,408
136.816,402
136.841,395
136.866,387
136.891,373
136.916,353
136.941,324
136.966,288
136.991,248
137.016,208
137.041,173
137.066,141
137.091,112
137.116,79
137.141,37
137.166,-11
137.191,-57
137.216,-78
137.241,-57
137.266,3
137.291,84
137.316,158
137.341,210
137.366,245
137.391,276
137.416,307
137.441,333
137.466,345
137.491,344
137.516,338
137.541,336
137.566,335
137.591,330
137.616,316
137.641,298
137.666,282
137.691,266
137.716,246
137.741,219
137.766,192
137.791,167
137.816,141
137.841,104
137.866,56
137.891,14
137.916,4
137.941,40
137.966,111
137.991,189
138.016,251
138.041,289
138.066,314
138.091,335
138.116,355
138.141,369
138.166,372
138.191,366
138.216,360
138.241,356
138.266,353
138.291,345
138.316,330
138.341,308
138.366,287
138.391,266
138.416,242
138.441,210
138.466,172
138.491,135
138.516,102
138.541,71
138.566,30
138.591,-18
138.616,-57
138.641,-61
138.666,-13
138.691,71
138.716,165
138.741,240
138.766,291
138.791,329
138.816,366
138.841,401
138.866,423
138.891,427
138.916,417
138.941,404
138.966,395
138.991,390
139.016,383
139.041,372
139.066,353
139.091,329
139.116,303
139.141,276
139.166,248
139.191,219
139.216,186
139.241,151
139.266,118
139.291,86
139.316,46
139.341,-5
139.366,-58
139.391,-87
139.416,-67
139.441,3
139.466,102
139.491,193
139.516,256
139.541,297
139.566,329
139.591,362
139.616,389
139.641,399
139.666,390
139.691,373
139.716,359
139.741,354
139.766,352
139.791,345
139.816,329
139.841,304
139.866,275
139.891,244
139.916,211
139.941,180
139.966,151
139.991,126
140.016,97
140.041,60
140.066,15
140.091,-20
140.116,-24
140.141,17
140.166,95
140.191,183
140.216,251
140.241,290
140.266,307
140.291,319
140.316,331
140.341,339
140.366,337
140.391,328
140.416,320
140.441,318
140.466,318
140.491,313
140.516,302
140.541,287
140.566,271
140.591,250
140.616,221
140.641,186
140.666,152
140.691,122
140.716,88
140.741,42
140.766,-8
140.791,-37
140.816,-19
140.841,50
140.866,146
140.891,230
140.916,281
140.941,306
140.966,325
140.991,352
141.016,380
141.041,393
141.066,389
141.091,376
141.116,367
141.141,365
141.166,361
141.191,347
141.216,325
141.241,302
141.266,282
141.291,259
141.316,227
141.341,189
141.366,155
141.391,128
141.416,98
141.441,56
141.466,5
141.491,-32
141.516,-29
141.541,23
141.566,107
141.591,190
141.616,250
141.641,286
141.666,313
141.691,340
141.716,364
141.741,378
141.766,379
141.791,370
141.816,363
141.841,360
141.866,359
141.891,353
141.916,338
141.941,316
141.966,293
141.991,268
142.016,242
142.041,213
142.066,184
142.091,154
142.116,122
142.141,84
142.166,40
142.191,2
142.216,-8
142.241,21
142.266,86
142.291,162
142.316,224
142.341,264
142.366,287
142.391,306
142.416,321
142.441,328
142.466,324
142.491,315
142.516,310
142.541,310
142.566,308
142.591,297
142.616,279
142.641,258
142.666,240
142.691,220
142.716,195
142.741,167
142.766,139
142.791,107
142.816,68
142.841,25
142.866,-3
142.891,6
142.916,60
142.941,139
142.966,211
142.991,258
143.016,285
143.041,309
143.066,335
143.091,356
143.116,362
143.141,354
143.166,343
143.191,337
143.216,333
143.241,324
143.266,307
143.291,287
143.316,267
143.341,246
143.366,220
143.391,190
143.416,163
143.441,140
143.466,114
143.491,74
143.516,26
143.541,-7
143.566,-1
143.591,51
143.616,131
143.641,209
143.666,266
143.691,303
143.716,334
143.741,365
143.766,393
143.791,407
143.816,405
143.841,395
143.866,386
143.891,382
143.916,378
143.941,368
143.966,348
143.991,323
144.016,294
144.041,262
144.066,228
144.091,193
144.116,163
144.141,134
144.166,100
144.191,54
144.216,3
144.241,-30
144.266,-22
144.291,31
144.316,109
144.341,180
144.366,226
144.391,254
144.416,277
144.441,303
144.466,323
144.491,328
144.516,320
144.541,309
144.566,303
144.591,301
144.616,296
144.641,284
144.666,268
144.691,247
144.716,222
144.741,194
144.766,168
144.791,147
144.816,127
144.841,98
144.866,58
144.891,28
144.916,32
144.941,81
144.966,155
144.991,223
145.016,269
145.041,296
145.066,320
145.091,346
145.116,363
145.141,363
145.166,351
145.191,341
145.216,340
145.241,340
145.266,331
145.291,310
145.316,283
145.341,257
145.366,231
145.391,203
145.416,173
145.441,143
145.466,112
145.491,73
145.516,27
145.541,-12
145.566,-19
145.591,20
145.616,94
145.641,171
145.666,227
145.691,260
145.716,286
145.741,319
145.766,353
145.791,376
145.816,377
145.841,363
145.866,349
145.891,341
145.916,336
145.941,327
145.966,310
145.991,289
146.016,267
146.041,244
146.066,217
146.091,186
146.116,159
146.141,136
146.166,112
146.191,77
146.216,31
146.241,-5
146.266,-8
146.291,32
146.316,105
146.341,181
146.366,238
146.391,278
146.416,313
146.441,349
146.466,382
146.491,401
146.516,405
146.541,400
146.566,394
146.591,390
146.616,384
146.641,374
146.666,361
146.691,345
146.716,324
146.741,297
146.766,267
146.791,239
146.816,213
146.841,187
146.866,158
146.891,129
146.916,102
146.941,74
146.966,38
146.991,-6
147.016,-42
147.041,-43
147.066,0
147.091,71
147.116,143
147.141,196
147.166,230
147.191,260
147.216,290
147.241,316
147.266,329
147.291,328
147.316,323
147.341,321
147.366,322
147.391,320
147.416,314
147.441,306
147.466,297
147.491,286
147.516,271
147.541,251
147.566,228
147.591,203
147.616,181
147.641,161
147.666,140
147.691,111
147.716,73
147.741,34
147.766,17
147.791,39
147.816,98
147.841,173
147.866,237
147.891,277
147.916,302
147.941,327
147.966,355
147.991,377
148.016,383
148.041,376
148.066,367
148.091,364
148.116,365
148.141,360
148.166,347
148.191,327
148.216,306
148.241,285
148.266,264
148.291,239
148.316,211
148.341,179
148.366,144
148.391,112
148.416,85
148.441,57
148.466,22
148.491,-18
148.516,-49
148.541,-47
148.566,0
148.591,76
148.616,152
148.641,204
148.666,237
148.691,268
148.716,308
148.741,350
148.766,376
148.791,381
148.816,376
148.841,373
148.866,378
148.891,383
148.916,381
148.941,375
148.966,368
148.991,357
149.016,337
149.041,308
149.066,277
149.091,251
149.116,228
149.141,202
149.166,167
149.191,128
149.216,94
149.241,63
149.266,29
149.291,-13
149.316,-47
149.341,-51
149.366,-10
149.391,62
149.416,139
149.441,196
149.466,233
149.491,264
149.516,298
149.541,333
149.566,356
149.591,363
149.616,359
149.641,354
149.666,354
149.691,357
149.716,357
149.741,347
149.766,329
149.791,309
149.816,292
149.841,275
149.866,252
149.891,222
149.916,188
149.941,160
149.966,139
149.991,117
150.016,82
150.041,38
150.066,5
150.091,11
150.116,68
150.141,155
150.166,242
150.191,306
150.216,348
150.241,379
150.266,408
150.291,429
150.316,436
150.341,430
150.366,419
150.391,409
150.416,402
150.441,393
150.466,379
150.491,364
150.516,348
150.541,329
150.566,302
150.591,269
150.616,233
150.641,203
150.666,179
150.691,155
150.716,121
150.741,68
150.766,-6
150.791,-89
150.816,-161
150.841,-206
150.866,-222
150.891,-216
150.916,-196
150.941,-161
150.966,-102
150.991,-25
151.016,52
151.041,110
151.066,148
151.091,182
151.116,236
151.141,317
151.166,411
151.191,499
151.216,564
151.241,593
151.266,575
151.291,510
151.316,421
151.341,351
151.366,336
151.391,373
151.416,422
151.441,422
151.466,331
151.491,141
151.516,-117
151.541,-386
151.566,-582
151.591,-630
151.616,-497
151.641,-223
151.666,92
151.691,353
151.716,518
151.741,611
151.766,687
151.791,777
151.816,869
151.841,925
151.866,914
151.891,838
151.916,724
151.941,612
151.966,531
151.991,487
152.016,464
152.041,434
152.066,384
152.091,319
152.116,255
152.141,205
152.166,173
152.191,157
152.216,155
152.241,154
152.266,127
152.291,47
152.316,-76
152.341,-183
152.366,-197
152.391,-86
152.416,110
152.441,307
152.466,437
152.491,501
152.516,547
152.541,621
152.566,726
152.591,820
152.616,843
152.641,739
152.666,484
152.691,95
152.716,-353
152.741,-747
152.766,-978
152.791,-998
152.816,-839
152.841,-588
152.866,-330
152.891,-117
152.916,27
152.941,88
152.966,58
152.991,-45
153.016,-170
153.041,-242
153.066,-212
153.091,-85
153.116,83
153.141,234
153.166,343
153.191,424
153.216,503
153.241,578
153.266,626
153.291,631
153.316,614
153.341,615
153.366,654
153.391,705
153.416,723
153.441,685
153.466,617
153.491,563
153.516,542
153.541,535
153.566,513
153.591,471
153.616,430
153.641,395
153.666,345
153.691,257
153.716,137
153.741,37
153.766,6
153.791,48
153.816,126
153.841,197
153.866,250
153.891,300
153.916,356
153.941,401
153.966,413
153.991,391
154.016,359
154.041,340
154.066,337
154.091,332
154.116,311
154.141,275
154.166,236
154.191,202
154.216,175
154.241,150
154.266,125
154.291,97
154.316,59
154.341,9
154.366,-55
154.391,-133
154.416,-219
154.441,-305
154.466,-370
154.491,-387
154.516,-336
154.541,-225
154.566,-87
154.591,40
154.616,140
154.641,223
154.666,303
154.691,384
154.716,451
154.741,489
154.766,498
154.791,494
154.816,491
154.841,491
154.866,482
154.891,458
154.916,422
154.941,389
154.966,368
154.991,350
155.016,323
155.041,278
155.066,227
155.091,183
155.116,148
155.141,108
155.166,52
155.191,-7
155.216,-37
155.241,-6
155.266,81
155.291,187
155.316,269
155.341,311
155.366,326
155.391,341
155.416,364
155.441,388
155.466,403
155.491,409
155.516,411
155.541,411
155.566,405
155.591,389
155.616,367
155.641,347
155.666,330
155.691,312
155.716,289
155.741,257
155.766,219
155.791,177
155.816,135
155.841,91
155.866,41
155.891,-16
155.916,-77
155.941,-119
155.966,-113
155.991,-47
156.016,59
156.041,170
156.066,251
156.091,298
156.116,331
156.141,368
156.166,406
156.191,430
156.216,433
156.241,421
156.266,411
156.291,408
156.316,406
156.341,396
156.366,375
156.391,348
156.416,321
156.441,293
156.466,263
156.491,230
156.516,195
156.541,161
156.566,129
156.591,104
156.616,81
156.641,51
156.666,4
156.691,-51
156.716,-88
156.741,-74
156.766,-2
156.791,103
156.816,201
156.841,268
156.866,309
156.891,342
156.916,377
156.941,406
156.966,416
156.991,407
157.016,389
157.041,376
157.066,370
157.091,367
157.116,359
157.141,343
157.166,319
157.191,291
157.216,261
157.241,231
157.266,202
157.291,171
157.316,137
157.341,100
157.366,61
157.391,17
157.416,-34
157.441,-86
157.466,-114
157.491,-92
157.516,-14
157.541,96
157.566,199
157.591,272
157.616,318
157.641,357
157.666,395
157.691,421
157.716,425
157.741,411
157.766,394
157.791,387
157.816,383
157.841,369
157.866,342
157.891,311
157.916,288
157.941,270
157.966,247
157.991,212
158.016,170
158.041,130
158.066,91
158.091,43
158.116,-14
158.141,-64
158.166,-77
158.191,-37
158.216,45
158.241,141
158.266,219
158.291,268
158.316,298
158.341,324
158.366,353
158.391,381
158.416,400
158.441,406
158.466,403
158.491,400
158.516,395
158.541,383
158.566,358
158.591,323
158.616,291
158.641,269
158.666,255
158.691,239
158.716,215
158.741,186
158.766,157
158.791,125
158.816,82
158.841,28
158.866,-19
158.891,-30
158.916,11
158.941,92
158.966,181
158.991,249
159.016,293
159.041,324
159.066,355
159.091,385
159.116,405
159.141,410
159.166,405
159.191,399
159.216,392
159.241,383
159.266,369
159.291,351
159.316,329
159.341,305
159.366,277
159.391,247
159.416,218
159.441,189
159.466,161
159.491,134
159.516,105
159.541,68
159.566,18
159.591,-38
159.616,-85
159.641,-93
159.666,-50
159.691,33
159.716,124
159.741,190
159.766,226
159.791,245
159.816,264
159.841,285
159.866,295
159.891,287
159.916,270
159.941,257
159.966,254
159.991,252
160.016,241
160.041,220
160.066,199
160.091,187
160.116,180
160.141,173
160.166,164
160.191,159
160.216,162
160.241,163
160.266,148
160.291,115
160.316,85
160.341,91
160.366,152
160.391,250
160.416,348
160.441,414
160.466,445
160.491,458
160.516,472
160.541,487
160.566,490
160.591,476
160.616,450
160.641,426
160.666,405
160.691,382
160.716,350
160.741,313
160.766,278
160.791,248
160.816,216
160.841,179
160.866,138
160.891,100
160.916,68
160.941,31
160.966,-15
160.991,-60
161.016,-78
161.041,-44
161.066,36
161.091,134
161.116,216
161.141,266
161.166,294
161.191,314
161.216,332
161.241,345
161.266,345
161.291,337
161.316,330
161.341,329
161.366,332
161.391,328
161.416,313
161.441,292
161.466,270
161.491,250
161.516,226
161.541,196
161.566,161
161.591,129
161.616,101
161.641,66
161.666,17
161.691,-38
161.716,-77
161.741,-69
161.766,-7
161.791,87
161.816,181
161.841,253
161.866,302
161.891,341
161.916,379
161.941,413
161.966,433
161.991,437
162.016,432
162.041,427
162.066,423
162.091,418
162.116,406
162.141,384
162.166,355
162.191,323
162.216,291
162.241,259
162.266,226
162.291,191
162.316,156
162.341,125
162.366,97
162.391,69
162.416,31
162.441,-14
162.466,-52
162.491,-53
162.516,-5
162.541,81
162.566,172
162.591,238
162.616,271
162.641,286
162.666,300
162.691,317
162.716,328
162.741,325
162.766,315
162.791,308
162.816,311
162.841,315
162.866,308
162.891,289
162.916,266
162.941,247
162.966,230
162.991,207
163.016,177
163.041,145
163.066,118
163.091,90
163.116,53
163.141,8
163.166,-23
163.191,-16
163.216,42
163.241,133
163.266,225
163.291,290
163.316,328
163.341,351
163.366,370
163.391,385
163.416,391
163.441,386
163.466,379
163.491,375
163.516,374
163.541,371
163.566,362
163.591,347
163.616,330
163.641,310
163.666,287
163.691,262
163.716,234
163.741,205
163.766,175
163.791,144
163.816,112
163.841,77
163.866,35
163.891,-12
163.916,-54
163.941,-67
163.966,-34
163.991,43
164.016,136
164.041,215
164.066,265
164.091,297
164.116,326
164.141,358
164.166,384
164.191,394
164.216,392
164.241,388
164.266,390
164.291,394
164.316,390
164.341,377
164.366,360
164.391,345
164.416,331
164.441,312
164.466,285
164.491,258
164.516,234
164.541,209
164.566,177
164.591,141
164.616,108
164.641,82
164.666,56
164.691,15
164.716,-38
164.741,-77
164.766,-70
164.791,-7
164.816,88
164.841,177
164.866,236
164.891,272
164.916,303
164.941,339
164.966,368
164.991,379
165.016,373
165.041,365
165.066,364
165.091,369
165.116,371
165.141,364
165.166,352
165.191,337
165.216,321
165.241,301
165.266,279
165.291,255
165.316,230
165.341,202
165.366,171
165.391,139
165.416,112
165.441,83
165.466,45
165.491,0
165.516,-36
165.541,-33
165.566,19
165.591,107
165.616,195
165.641,258
165.666,294
165.691,319
165.716,343
165.741,361
165.766,365
165.791,353
165.816,338
165.841,329
165.866,332
165.891,337
165.916,337
165.941,325
165.966,304
165.991,279
166.016,256
166.041,233
166.066,208
166.091,176
166.116,142
166.141,111
166.166,86
166.191,57
166.216,13
166.241,-41
166.266,-82
166.291,-78
166.316,-13
166.341,90
166.366,194
166.391,268
166.416,311
166.441,341
166.466,371
166.491,400
166.516,417
166.541,417
166.566,408
166.591,401
166.616,401
166.641,401
166.666,395
166.691,380
166.716,359
166.741,335
166.766,310
166.791,281
166.816,247
166.841,209
166.866,171
166.891,135
166.916,101
166.941,60
166.966,6
166.991,-48
167.016,-78
167.041,-55
167.066,25
167.091,136
167.116,235
167.141,298
167.166,328
167.191,350
167.216,377
167.241,403
167.266,413
167.291,405
167.316,390
167.341,382
167.366,379
167.391,372
167.416,352
167.441,324
167.466,297
167.491,274
167.516,250
167.541,218
167.566,181
167.591,146
167.616,113
167.641,75
167.666,22
167.691,-34
167.716,-66
167.741,-49
167.766,19
167.791,112
167.816,191
167.841,238
167.866,261
167.891,276
167.916,293
167.941,305
167.966,303
167.991,288
168.016,272
168.041,268
168.066,274
168.091,280
168.116,278
168.141,269
168.166,257
168.191,243
168.216,223
168.241,197
168.266,169
168.291,143
168.316,116
168.341,79
168.366,32
168.391,-8
168.416,-14
168.441,29
168.466,112
168.491,201
168.516,271
168.541,316
168.566,348
168.591,378
168.616,406
168.641,421
168.666,420
168.691,409
168.716,402
168.741,401
168.766,402
168.791,395
168.816,380
168.841,362
168.866,347
168.891,332
168.916,311
168.941,284
168.966,255
168.991,232
169.016,208
169.041,177
169.066,137
169.091,105
169.116,104
169.141,144
169.166,216
169.191,294
169.216,357
169.241,400
169.266,428
169.291,451
169.316,467
169.341,472
169.366,463
169.391,443
169.416,419
169.441,395
169.466,373
169.491,348
169.516,319
169.541,285
169.566,249
169.591,211
169.616,174
169.641,133
169.666,88
169.691,37
169.716,-21
169.741,-87
169.766,-163
169.791,-241
169.816,-310
169.841,-347
169.866,-337
169.891,-283
169.916,-204
169.941,-123
169.966,-50
169.991,15
170.016,74
170.041,115
170.066,127
170.091,109
170.116,78
170.141,49
170.166,27
170.191,0
170.216,-39
170.241,-79
170.266,-95
170.291,-72
170.316,-13
170.341,63
170.366,144
170.391,219
170.416,285
170.441,338
170.466,386
170.491,444
170.516,537
170.541,669
170.566,817
170.591,938
170.616,1004
170.641,1013
170.666,983
170.691,937
170.716,880
170.741,813
170.766,740
170.791,669
170.816,605
170.841,546
170.866,485
170.891,417
170.916,348
170.941,281
170.966,216
170.991,150
171.016,86
171.041,29
171.066,-20
171.091,-68
171.116,-123
171.141,-177
171.166,-212
171.191,-208
171.216,-166
171.241,-108
171.266,-57
171.291,-23
171.316,4
171.341,39
171.366,85
171.391,133
171.416,174
171.441,208
171.466,237
171.491,263
171.516,284
171.541,294
171.566,298
171.591,299
171.616,300
171.641,298
171.666,287
171.691,268
171.716,248
171.741,232
171.766,216
171.791,193
171.816,156
171.841,110
171.866,73
171.891,62
171.916,81
171.941,122
171.966,169
171.991,209
172.016,241
172.041,270
172.066,299
172.091,324
172.116,336
172.141,334
172.166,324
172.191,317
172.216,317
172.241,316
172.266,307
172.291,289
172.316,274
172.341,269
172.366,269
172.391,260
172.416,235
172.441,200
172.466,168
172.491,143
172.516,112
172.541,64
172.566,11
172.591,-19
172.616,-3
172.641,56
172.666,133
172.691,198
172.716,241
172.741,270
172.766,295
172.791,319
172.816,333
172.841,333
172.866,326
172.891,323
172.916,326
172.941,328
172.966,322
172.991,307
173.016,288
173.041,269
173.066,248
173.091,221
173.116,187
173.141,152
173.166,124
173.191,99
173.216,69
173.241,24
173.266,-28
173.291,-63
173.316,-53
173.341,7
173.366,101
173.391,192
173.416,258
173.441,297
173.466,325
173.491,355
173.516,383
173.541,402
173.566,405
173.591,399
173.616,393
173.641,390
173.666,385
173.691,375
173.716,360
173.741,344
173.766,326
173.791,303
173.816,275
173.841,246
173.866,217
173.891,189
173.916,159
173.941,130
173.966,103
173.991,75
174.016,39
174.041,-6
174.066,-43
174.091,-43
174.116,11
174.141,108
174.166,209
174.191,282
174.216,322
174.241,345
174.266,370
174.291,396
174.316,409
174.341,403
174.366,386
174.391,374
174.416,372
174.441,374
174.466,369
174.491,356
174.516,337
174.541,319
174.566,298
174.591,273
174.616,245
174.641,214
174.666,183
174.691,151
174.716,119
174.741,89
174.766,60
174.791,26
174.816,-15
174.841,-57
174.866,-77
174.891,-53
174.916,14
174.941,102
174.966,181
174.991,233
175.016,265
175.041,289
175.066,312
175.091,329
175.116,331
175.141,321
175.166,313
175.191,314
175.216,321
175.241,323
175.266,313
175.291,295
175.316,276
175.341,259
175.366,241
175.391,217
175.416,190
175.441,165
175.466,145
175.491,121
175.516,83
175.541,35
175.566,-1
175.591,0
175.616,46
175.641,126
175.666,210
175.691,274
175.716,312
175.741,334
175.766,352
175.791,371
175.816,384
175.841,384
175.866,372
175.891,355
175.916,343
175.941,340
175.966,341
175.991,336
176.016,320
176.041,295
176.066,268
176.091,243
176.116,218
176.141,190
176.166,160
176.191,130
176.216,101
176.241,65
176.266,17
176.291,-31
176.316,-55
176.341,-33
176.366,36
176.391,126
176.416,205
176.441,257
176.466,291
176.491,320
176.516,350
176.541,374
176.566,383
176.591,379
176.616,371
176.641,368
176.666,368
176.691,367
176.716,361
176.741,348
176.766,332
176.791,314
176.816,293
176.841,268
176.866,238
176.891,206
176.916,176
176.941,148
176.966,121
176.991,85
177.016,39
177.041,-3
177.066,-17
177.091,15
177.116,87
177.141,170
177.166,231
177.191,263
177.216,281
177.241,302
177.266,326
177.291,338
177.316,331
177.341,313
177.366,300
177.391,299
177.416,300
177.441,291
177.466,271
177.491,250
177.516,232
177.541,214
177.566,193
177.591,167
177.616,143
177.641,119
177.666,87
177.691,46
177.716,10
177.741,5
177.766,46
177.791,122
177.816,202
177.841,261
177.866,295
177.891,319
177.916,340
177.941,358
177.966,363
177.991,355
178.016,344
178.041,340
178.066,340
178.091,338
178.116,325
178.141,306
178.166,286
178.191,266
178.216,243
178.241,212
178.266,179
178.291,148
178.316,119
178.341,82
178.366,32
178.391,-20
178.416,-49
178.441,-31
178.466,33
178.491,120
178.516,197
178.541,250
178.566,283
178.591,311
178.616,342
178.641,369
178.666,381
178.691,376
178.716,365
178.741,359
178.766,360
178.791,357
178.816,343
178.841,319
178.866,295
178.891,276
178.916,256
178.941,228
178.966,193
178.991,160
179.016,130
179.041,94
179.066,46
179.091,-5
179.116,-30
179.141,-3
179.166,72
179.191,164
179.216,237
179.241,278
179.266,302
179.291,326
179.316,351
179.341,366
179.366,361
179.391,346
179.416,336
179.441,334
179.466,332
179.491,319
179.516,299
179.541,278
179.566,259
179.591,238
179.616,210
179.641,180
179.666,153
179.691,127
179.716,91
179.741,47
179.766,16
179.791,26
179.816,86
179.841,172
179.866,250
179.891,301
179.916,331
179.941,356
179.966,379
179.991,389
180.016,379
180.041,356
180.066,335
180.091,325
180.116,322
180.141,316
180.166,304
180.191,288
180.216,269
180.241,246
180.266,219
180.291,191
180.316,165
180.341,133
180.366,88
180.391,39
180.416,10
180.441,25
180.466,84
180.491,158
180.516,214
180.541,243
180.566,256
180.591,268
180.616,282
180.641,283
180.666,268
180.691,245
180.716,227
180.741,219
180.766,210
180.791,193
180.816,171
180.841,152
180.866,142
180.891,136
180.916,127
180.941,118
180.966,109
180.991,96
181.016,71
181.041,31
181.066,-4
181.091,-6
181.116,43
181.141,130
181.166,219
181.191,283
181.216,321
181.241,350
181.266,384
181.291,416
181.316,434
181.341,431
181.366,421
181.391,415
181.416,415
181.441,411
181.466,397
181.491,374
181.516,349
181.541,325
181.566,298
181.591,267
181.616,236
181.641,209
181.666,180
181.691,138
181.716,81
181.741,30
181.766,16
181.791,51
181.816,120
181.841,189
181.866,234
181.891,257
181.916,272
181.941,289
181.966,305
181.991,310
182.016,302
182.041,290
182.066,281
182.091,276
182.116,272
182.141,265
182.166,253
182.191,237
182.216,220
182.241,202
182.266,184
182.291,164
182.316,134
182.341,93
182.366,56
182.391,44
182.416,70
182.441,127
182.466,191
182.491,240
182.516,269
182.541,287
182.566,302
182.591,312
182.616,311
182.641,299
182.666,282
182.691,271
182.716,268
182.741,267
182.766,261
182.791,245
182.816,222
182.841,198
182.866,176
182.891,155
182.916,128
182.941,91
182.966,50
182.991,24
183.016,33
183.041,78
183.066,143
183.091,203
183.116,243
183.141,269
183.166,290
183.191,311
183.216,326
183.241,329
183.266,324
183.291,318
183.316,312
183.341,305
183.366,294
183.391,280
183.416,268
183.441,256
183.466,240
183.491,217
183.516,192
183.541,170
183.566,147
183.591,116
183.616,80
183.641,58
183.666,71
183.691,122
183.716,192
183.741,255
183.766,295
183.791,321
183.816,345
183.841,371
183.866,391
183.891,397
183.916,390
183.941,380
183.966,374
183.991,370
184.016,364
184.041,353
184.066,336
184.091,316
184.116,295
184.141,274
184.166,251
184.191,224
184.216,193
184.241,160
184.266,130
184.291,104
184.316,79
184.341,47
184.366,7
184.391,-28
184.416,-39
184.441,-14
184.466,41
184.491,108
184.516,164
184.541,201
184.566,226
184.591,246
184.616,264
184.641,277
184.666,283
184.691,283
184.716,283
184.741,287
184.766,293
184.791,296
184.816,291
184.841,280
184.866,266
184.891,253
184.916,239
184.941,222
184.966,202
184.991,181
185.016,160
185.041,135
185.066,103
185.091,72
185.116,58
185.141,76
185.166,126
185.191,189
185.216,243
185.241,280
185.266,305
185.291,329
185.316,352
185.341,369
185.366,373
185.391,368
185.416,362
185.441,360
185.466,359
185.491,356
185.516,346
185.541,331
185.566,313
185.591,293
185.616,272
185.641,250
185.666,226
185.691,199
185.716,170
185.741,144
185.766,120
185.791,93
185.816,55
185.841,7
185.866,-33
185.891,-41
185.916,-3
185.941,65
185.966,135
185.991,186
186.016,219
186.041,249
186.066,282
186.091,313
186.116,332
186.141,338
186.166,340
186.191,345
186.216,351
186.241,353
186.266,350
186.291,345
186.316,340
186.341,331
186.366,314
186.391,292
186.416,272
186.441,254
186.466,233
186.491,204
186.516,171
186.541,140
186.566,113
186.591,83
186.616,42
186.641,3
186.666,-8
186.691,25
186.716,95
186.741,171
186.766,226
186.791,255
186.816,276
186.841,302
186.866,332
186.891,350
186.916,348
186.941,334
186.966,324
186.991,323
187.016,326
187.041,322
187.066,310
187.091,295
187.116,280
187.141,265
187.166,243
187.191,213
187.216,182
187.241,158
187.266,139
187.291,114
187.316,78
187.341,43
187.366,32
187.391,61
187.416,125
187.441,198
187.466,254
187.491,285
187.516,302
187.541,318
187.566,335
187.591,345
187.616,343
187.641,333
187.666,327
187.691,325
187.716,323
187.741,311
187.766,292
187.791,272
187.816,255
187.841,235
187.866,208
187.891,175
187.916,145
187.941,120
187.966,91
187.991,47
188.016,-2
188.041,-31
188.066,-16
188.091,44
188.116,126
188.141,198
188.166,246
188.191,277
188.216,305
188.241,333
188.266,355
188.291,364
188.316,362
188.341,354
188.366,347
188.391,343
188.416,340
188.441,335
188.466,324
188.491,306
188.516,284
188.541,261
188.566,238
188.591,214
188.616,185
188.641,155
188.666,127
188.691,101
188.716,68
188.741,24
188.766,-18
188.791,-33
188.816,0
188.841,74
188.866,160
188.891,228
188.916,270
188.941,303
188.966,339
188.991,377
189.016,400
189.041,402
189.066,392
189.091,384
189.116,383
189.141,383
189.166,374
189.191,356
189.216,336
189.241,319
189.266,303
189.291,285
189.316,264
189.341,239
189.366,211
189.391,180
189.416,150
189.441,125
189.466,102
189.491,73
189.516,31
189.541,-14
189.566,-36
189.591,-14
189.616,52
189.641,136
189.666,206
189.691,247
189.716,267
189.741,285
189.766,304
189.791,318
189.816,319
189.841,308
189.866,297
189.891,295
189.916,299
189.941,302
189.966,298
189.991,286
190.016,272
190.041,258
190.066,240
190.091,216
190.116,191
190.141,168
190.166,147
190.191,121
190.216,83
190.241,39
190.266,10
190.291,19
190.316,72
190.341,151
190.366,227
190.391,280
190.416,309
190.441,326
190.466,341
190.491,355
190.516,364
190.541,362
190.566,354
190.591,345
190.616,339
190.641,336
190.666,331
190.691,319
190.716,301
190.741,279
190.766,258
190.791,238
190.816,214
190.841,184
190.866,151
190.891,120
190.916,92
190.941,60
190.966,19
190.991,-19
191.016,-33
191.041,0
191.066,74
191.091,162
191.116,233
191.141,275
191.166,301
191.191,328
191.216,360
191.241,383
191.266,388
191.291,380
191.316,371
191.341,367
191.366,367
191.391,363
191.416,354
191.441,340
191.466,323
191.491,304
191.516,284
191.541,262
191.566,238
191.591,210
191.616,177
191.641,145
191.666,119
191.691,96
191.716,64
191.741,18
191.766,-28
191.791,-47
191.816,-19
191.841,50
191.866,134
191.891,204
191.916,248
191.941,279
191.966,307
191.991,334
192.016,352
192.041,355
192.066,347
192.091,338
192.116,336
192.141,338
192.166,339
192.191,333
192.216,318
192.241,298
192.266,279
192.291,261
192.316,241
192.341,215
192.366,184
192.391,156
192.416,133
192.441,108
192.466,73
192.491,31
192.516,4
192.541,15
192.566,72
192.591,155
192.616,230
192.641,277
192.666,299
192.691,313
192.716,329
192.741,341
192.766,342
192.791,333
192.816,324
192.841,324
192.866,329
192.891,328
192.916,314
192.941,292
192.966,270
192.991,252
193.016,232
193.041,206
193.066,175
193.091,145
193.116,119
193.141,91
193.166,51
193.191,2
193.216,-36
193.241,-40
193.266,1
193.291,77
193.316,160
193.341,228
193.366,275
193.391,308
193.416,336
193.441,361
193.466,377
193.491,381
193.516,375
193.541,366
193.566,361
193.591,361
193.616,360
193.641,351
193.666,331
193.691,305
193.716,277
193.741,253
193.766,230
193.791,203
193.816,174
193.841,145
193.866,120
193.891,93
193.916,55
193.941,9
193.966,-23
193.991,-16
194.016,42
194.041,130
194.066,214
194.091,269
194.116,301
194.141,329
194.166,360
194.191,388
194.216,399
194.241,393
194.266,384
194.291,382
194.316,387
194.341,387
194.366,377
194.391,357
194.416,335
194.441,313
194.466,290
194.491,266
194.516,240
194.541,212
194.566,182
194.591,152
194.616,124
194.641,99
194.666,69
194.691,26
194.716,-27
194.741,-67
194.766,-64
194.791,-8
194.816,80
194.841,165
194.866,220
194.891,250
194.916,273
194.941,302
194.966,328
194.991,338
195.016,330
195.041,318
195.066,313
195.091,318
195.116,321
195.141,311
195.166,293
195.191,275
195.216,263
195.241,252
195.266,234
195.291,207
195.316,180
195.341,157
195.366,134
195.391,101
195.416,57
195.441,19
195.466,14
195.491,55
195.516,130
195.541,212
195.566,274
195.591,310
195.616,333
195.641,353
195.666,371
195.691,379
195.716,375
195.741,364
195.766,356
195.791,353
195.816,350
195.841,339
195.866,319
195.891,296
195.916,276
195.941,258
195.966,237
195.991,209
196.016,175
196.041,142
196.066,113
196.091,85
196.116,47
196.141,-1
196.166,-48
196.191,-68
196.216,-40
196.241,33
196.266,127
196.291,210
196.316,264
196.341,295
196.366,321
196.391,349
196.416,374
196.441,387
196.466,386
196.491,377
196.516,371
196.541,370
196.566,369
196.591,363
196.616,348
196.641,327
196.666,305
196.691,285
196.716,262
196.741,234
196.766,199
196.791,164
196.816,134
196.841,107
196.866,75
196.891,29
196.916,-21
196.941,-54
196.966,-43
196.991,15
197.016,102
197.041,183
197.066,241
197.091,277
197.116,306
197.141,336
197.166,362
197.191,374
197.216,373
197.241,364
197.266,358
197.291,356
197.316,354
197.341,348
197.366,335
197.391,319
197.416,302
197.441,282
197.466,259
197.491,230
197.516,200
197.541,171
197.566,144
197.591,115
197.616,77
197.641,31
197.666,-7
197.691,-14
197.716,21
197.741,94
197.766,177
197.791,243
197.816,282
197.841,305
197.866,324
197.891,342
197.916,352
197.941,347
197.966,334
197.991,325
198.016,326
198.041,332
198.066,329
198.091,311
198.116,284
198.141,260
198.166,242
198.191,222
198.216,196
198.241,165
198.266,137
198.291,112
198.316,81
198.341,36
198.366,-14
198.391,-46
198.416,-33
198.441,28
198.466,115
198.491,194
198.516,249
198.541,282
198.566,308
198.591,335
198.616,357
198.641,368
198.666,365
198.691,358
198.716,354
198.741,354
198.766,352
198.791,344
198.816,328
198.841,309
198.866,290
198.891,271
198.916,251
198.941,227
198.966,197
198.991,166
199.016,138
199.041,113
199.066,82
199.091,38
199.116,-9
199.141,-37
199.166,-19
199.191,48
199.216,143
199.241,228
199.266,284
199.291,317
199.316,344
199.341,374
199.366,400
199.391,410
199.416,404
199.441,392
199.466,384
199.491,381
199.516,376
199.541,364
199.566,345
199.591,322
199.616,298
199.641,273
199.666,248
199.691,223
199.716,199
199.741,173
199.766,145
199.791,116
199.816,86
199.841,49
199.866,5
199.891,-33
199.916,-45
199.941,-11
199.966,61
199.991,147
200.016,214
200.041,253
200.066,276
200.091,297
200.116,318
200.141,331
200.166,326
200.191,313
200.216,305
200.241,308
200.266,314
200.291,311
200.316,297
200.341,280
200.366,268
200.391,258
200.416,241
200.441,214
200.466,185
200.491,159
200.516,136
200.541,103
200.566,59
200.591,17
200.616,6
200.641,39
200.666,111
200.691,191
200.716,255
200.741,295
200.766,319
200.791,340
200.816,358
200.841,370
200.866,370
200.891,362
200.916,353
200.941,349
200.966,348
200.991,340
201.016,324
201.041,300
201.066,276
201.091,254
201.116,232
201.141,208
201.166,178
201.191,148
201.216,120
201.241,92
201.266,58
201.291,14
201.316,-29
201.341,-49
201.366,-25
201.391,41
201.416,131
201.441,212
201.466,267
201.491,301
201.516,327
201.541,355
201.566,380
201.591,394
201.616,393
201.641,384
201.666,375
201.691,370
201.716,368
201.741,361
201.766,347
201.791,327
201.816,303
201.841,278
201.866,252
201.891,223
201.916,193
201.941,163
201.966,134
201.991,101
202.016,60
202.041,11
202.066,-30
202.091,-44
202.116,-12
202.141,60
202.166,148
202.191,221
202.216,266
202.241,290
202.266,312
202.291,338
202.316,358
202.341,360
202.366,347
202.391,333
202.416,328
202.441,333
202.466,336
202.491,325
202.516,304
202.541,280
202.566,259
202.591,237
202.616,211
202.641,182
202.666,157
202.691,136
202.716,108
202.741,68
202.766,22
202.791,-5
202.816,8
202.841,68
202.866,153
202.891,231
202.916,282
202.941,309
202.966,325
202.991,341
203.016,355
203.041,359
203.066,351
203.091,338
203.116,329
203.141,328
203.166,327
203.191,318
203.216,298
203.241,275
203.266,254
203.291,235
203.316,210
203.341,180
203.366,148
203.391,121
203.416,95
203.441,62
203.466,17
203.491,-26
203.516,-43
203.541,-11
203.566,63
203.591,155
203.616,232
203.641,283
203.666,314
203.691,338
203.716,362
203.741,379
203.766,384
203.791,378
203.816,369
203.841,363
203.866,360
203.891,356
203.916,346
203.941,330
203.966,310
203.991,288
204.016,264
204.041,239
204.066,210
204.091,179
204.116,150
204.141,125
204.166,98
204.191,62
204.216,17
204.241,-22
204.266,-31
204.291,5
204.316,81
204.341,166
204.366,233
204.391,274
204.416,300
204.441,327
204.466,356
204.491,375
204.516,376
204.541,365
204.566,355
204.591,353
204.616,354
204.641,350
204.666,335
204.691,316
204.716,299
204.741,284
204.766,265
204.791,237
204.816,203
204.841,171
204.866,148
204.891,126
204.916,96
204.941,52
204.966,8
204.991,-12
205.016,9
205.041,70
205.066,146
205.091,210
205.116,251
205.141,277
205.166,300
205.191,322
205.216,335
205.241,333
205.266,321
205.291,311
205.316,309
205.341,308
205.366,301
205.391,285
205.416,268
205.441,255
205.466,242
205.491,222
205.516,194
205.541,164
205.566,139
205.591,117
205.616,87
205.641,47
205.666,10
205.691,1
205.716,35
205.741,105
205.766,185
205.791,248
205.816,287
205.841,310
205.866,329
205.891,349
205.916,363
205.941,366
205.966,358
205.991,350
206.016,348
206.041,351
206.066,350
206.091,337
206.116,316
206.141,291
206.166,266
206.191,241
206.216,212
206.241,182
206.266,154
206.291,128
206.316,98
206.341,56
206.366,10
206.391,-17
206.416,-6
206.441,48
206.466,130
206.491,207
206.516,263
206.541,296
206.566,320
206.591,346
206.616,370
206.641,385
206.666,384
206.691,372
206.716,358
206.741,350
206.766,346
206.791,340
206.816,327
206.841,307
206.866,285
206.891,264
206.916,244
206.941,220
206.966,191
206.991,160
207.016,130
207.041,99
207.066,61
207.091,19
207.116,-11
207.141,-9
207.166,34
207.191,108
207.216,183
207.241,236
207.266,264
207.291,282
207.316,304
207.341,326
207.366,337
207.391,331
207.416,317
207.441,307
207.466,307
207.491,308
207.516,299
207.541,282
207.566,263
207.591,248
207.616,233
207.641,213
207.666,189
207.691,166
207.716,146
207.741,123
207.766,89
207.791,53
207.816,38
207.841,65
207.866,131
207.891,210
207.916,272
207.941,305
207.966,320
207.991,333
208.016,349
208.041,357
208.066,353
208.091,340
208.116,330
208.141,325
208.166,318
208.191,300
208.216,274
208.241,248
208.266,228
208.291,211
208.316,189
208.341,161
208.366,134
208.391,108
208.416,78
208.441,38
208.466,-3
208.491,-25
208.516,-5
208.541,56
208.566,138
208.591,209
208.616,255
208.641,284
208.666,310
208.691,338
208.716,363
208.741,373
208.766,369
208.791,358
208.816,352
208.841,350
208.866,346
208.891,336
208.916,317
208.941,295
208.966,274
208.991,253
209.016,228
209.041,198
209.066,169
209.091,143
209.116,117
209.141,85
209.166,42
209.191,1
209.216,-11
209.241,21
209.266,96
209.291,187
209.316,261
209.341,306
209.366,332
209.391,354
209.416,381
209.441,403
209.466,409
209.491,399
209.516,383
209.541,374
209.566,373
209.591,371
209.616,361
209.641,339
209.666,313
209.691,288
209.716,263
209.741,236
209.766,204
209.791,170
209.816,137
209.841,103
209.866,61
209.891,11
209.916,-34
209.941,-52
209.966,-27
209.991,35
210.016,109
210.041,168
210.066,204
210.091,225
210.116,245
210.141,265
210.166,275
210.191,268
210.216,252
210.241,242
210.266,244
210.291,252
210.316,257
210.341,259
210.366,265
210.391,277
210.416,286
210.441,282
210.466,264
210.491,243
210.516,222
210.541,196
210.566,157
210.591,119
210.616,108
210.641,143
210.666,215
210.691,290
210.716,340
210.741,362
210.766,375
210.791,390
210.816,401
210.841,395
210.866,373
210.891,353
210.916,347
210.941,350
210.966,344
210.991,321
211.016,292
211.041,273
211.066,264
211.091,251
211.116,225
211.141,189
211.166,153
211.191,118
211.216,73
211.241,16
211.266,-31
211.291,-41
211.316,-2
211.341,62
211.366,121
211.391,155
211.416,174
211.441,196
211.466,225
211.491,245
211.516,248
211.541,237
211.566,225
211.591,219
211.616,213
211.641,199
211.666,178
211.691,157
211.716,137
211.741,112
211.766,78
211.791,42
211.816,11
211.841,-20
211.866,-62
211.891,-113
211.916,-145
211.941,-115
211.966,-1
211.991,177
212.016,368
212.041,520
212.066,612
212.091,653
212.116,664
212.141,659
212.166,641
212.191,613
212.216,577
212.241,540
212.266,506
212.291,473
212.316,441
212.341,406
212.366,371
212.391,335
212.416,299
212.441,262
212.466,223
212.491,184
212.516,147
212.541,114
212.566,80
212.591,42
212.616,5
212.641,-15
212.666,-6
212.691,35
212.716,93
212.741,144
212.766,175
212.791,191
212.816,207
212.841,227
212.866,245
212.891,254
212.916,256
212.941,257
212.966,263
212.991,267
213.016,261
213.041,246
213.066,230
213.091,219
213.116,212
213.141,203
213.166,188
213.191,169
213.216,145
213.241,116
213.266,82
213.291,55
213.316,51
213.341,79
213.366,131
213.391,183
213.416,220
213.441,241
213.466,260
213.491,285
213.516,310
213.541,326
213.566,327
213.591,320
213.616,315
213.641,312
213.666,308
213.691,296
213.716,280
213.741,266
213.766,253
213.791,237
213.816,215
213.841,189
213.866,167
213.891,151
213.916,132
213.941,100
213.966,60
213.991,31
214.016,34
214.041,74
214.066,132
214.091,186
214.116,224
214.141,252
214.166,282
214.191,317
214.216,346
214.241,363
214.266,368
214.291,369
214.316,372
214.341,377
214.366,377
214.391,371
214.416,363
214.441,354
214.466,344
214.491,329
214.516,308
214.541,283
214.566,259
214.591,236
214.616,213
214.641,190
214.666,166
214.691,140
214.716,109
214.741,71
214.766,36
214.791,24
214.816,46
214.841,100
214.866,166
214.891,220
214.916,252
214.941,270
214.966,285
214.991,302
215.016,314
215.041,316
215.066,308
215.091,298
215.116,292
215.141,288
215.166,278
215.191,260
215.216,237
215.241,216
215.266,198
215.291,176
215.316,145
215.341,110
215.366,82
215.391,65
215.416,54
215.441,36
215.466,14
215.491,4
215.516,25
215.541,82
215.566,156
215.591,221
215.616,265
215.641,294
215.666,321
215.691,351
215.716,374
215.741,381
215.766,374
215.791,365
215.816,362
215.841,365
215.866,363
215.891,351
215.916,329
215.941,307
215.966,289
215.991,270
216.016,244
216.041,209
216.066,173
216.091,142
216.116,114
216.141,78
216.166,28
216.191,-24
216.216,-55
216.241,-39
216.266,20
216.291,101
216.316,173
216.341,224
216.366,264
216.391,306
216.416,352
216.441,390
216.466,409
216.491,410
216.516,406
216.541,406
216.566,407
216.591,403
216.616,390
216.641,371
216.666,351
216.691,328
216.716,301
216.741,270
216.766,238
216.791,206
216.816,171
216.841,133
216.866,97
216.891,67
216.916,38
216.941,0
216.966,-47
216.991,-85
217.016,-82
217.041,-23
217.066,75
217.091,175
217.116,247
217.141,288
217.166,320
217.191,358
217.216,398
217.241,426
217.266,434
217.291,427
217.316,419
217.341,417
217.366,418
217.391,414
217.416,403
217.441,385
217.466,362
217.491,335
217.516,306
217.541,277
217.566,250
217.591,220
217.616,185
217.641,149
217.666,119
217.691,95
217.716,69
217.741,29
217.766,-22
217.791,-61
217.816,-59
217.841,-5
217.866,80
217.891,163
217.916,220
217.941,254
217.966,280
217.991,309
218.016,333
218.041,342
218.066,336
218.091,325
218.116,323
218.141,328
218.166,329
218.191,317
218.216,295
218.241,272
218.266,254
218.291,234
218.316,205
218.341,170
218.366,137
218.391,111
218.416,82
218.441,42
218.466,-7
218.491,-44
218.516,-40
218.541,12
218.566,94
218.591,172
218.616,222
218.641,245
218.666,259
218.691,277
218.716,301
218.741,320
218.766,331
218.791,336
218.816,342
218.841,348
218.866,348
218.891,337
218.916,317
218.941,297
218.966,279
218.991,259
219.016,233
219.041,205
219.066,180
219.091,161
219.116,138
219.141,101
219.166,56
219.191,26
219.216,39
219.241,101
219.266,188
219.291,264
219.316,309
219.341,332
219.366,354
219.391,383
219.416,408
219.441,414
219.466,399
219.491,380
219.516,370
219.541,369
219.566,364
219.591,345
219.616,316
219.641,288
219.666,265
219.691,240
219.716,208
219.741,169
219.766,133
219.791,101
219.816,68
219.841,28
219.866,-11
219.891,-30
219.916,-8
219.941,53
219.966,135
219.991,206
220.016,253
220.041,281
220.066,303
220.091,328
220.116,347
220.141,353
220.166,344
220.191,331
220.216,325
220.241,327
220.266,326
220.291,312
220.316,287
220.341,261
220.366,242
220.391,226
220.416,205
220.441,176
220.466,145
220.491,119
220.516,93
220.541,59
220.566,16
220.591,-14
220.616,-7
220.641,43
220.666,119
220.691,188
220.716,233
220.741,258
220.766,280
220.791,300
220.816,312
220.841,309
220.866,297
220.891,290
220.916,293
220.941,299
220.966,301
220.991,293
221.016,282
221.041,270
221.066,257
221.091,242
221.116,226
221.141,210
221.166,189
221.191,156
221.216,113
221.241,81
221.266,83
221.291,124
221.316,188
221.341,245
221.366,280
221.391,295
221.416,304
221.441,312
221.466,317
221.491,313
221.516,300
221.541,288
221.566,284
221.591,285
221.616,287
221.641,283
221.666,273
221.691,258
221.716,240
221.741,218
221.766,190
221.791,152
221.816,110
221.841,76
221.866,69
221.891,97
221.916,155
221.941,221
221.966,275
221.991,312
222.016,338
222.041,360
222.066,376
222.091,378
222.116,361
222.141,335
222.166,311
222.191,292
222.216,273
222.241,246
222.266,211
222.291,184
222.316,170
222.341,164
222.366,148
222.391,116
222.416,76
222.441,53
222.466,64
222.491,106
222.516,160
222.541,210
222.566,250
222.591,284
222.616,308
222.641,316
222.666,299
222.691,267
222.716,236
222.741,221
222.766,222
222.791,225
222.816,217
222.841,200
222.866,184
222.891,171
222.916,154
222.941,126
222.966,90
222.991,67
223.016,75
223.041,116
223.066,172
223.091,223
223.116,259
223.141,285
223.166,309
223.191,330
223.216,340
223.241,333
223.266,314
223.291,295
223.316,283
223.341,275
223.366,263
223.391,242
223.416,217
223.441,192
223.466,166
223.491,132
223.516,90
223.541,51
223.566,37
223.591,60
223.616,114
223.641,178
223.666,231
223.691,267
223.716,296
223.741,326
223.766,353
223.791,367
223.816,363
223.841,352
223.866,349
223.891,359
223.916,370
223.941,369
223.966,351
223.991,322
224.016,291
224.041,261
224.066,227
224.091,192
224.116,157
224.141,123
224.166,84
224.191,35
224.216,-13
224.241,-40
224.266,-27
224.291,23
224.316,87
224.341,142
224.366,185
224.391,227
224.416,278
224.441,330
224.466,367
224.491,381
224.516,379
224.541,377
224.566,383
224.591,392
224.616,396
224.641,391
224.666,380
224.691,367
224.716,353
224.741,338
224.766,322
224.791,305
224.816,284
224.841,258
224.866,228
224.891,200
224.916,176
224.941,151
224.966,123
224.991,93
225.016,64
225.041,38
225.066,9
225.091,-28
225.116,-65
225.141,-77
225.166,-47
225.191,19
225.216,100
225.241,167
225.266,214
225.291,251
225.316,291
225.341,333
225.366,363
225.391,375
225.416,374
225.441,372
225.466,375
225.491,381
225.516,382
225.541,379
225.566,374
225.591,368
225.616,361
225.641,348
225.666,329
225.691,306
225.716,283
225.741,263
225.766,245
225.791,225
225.816,200
225.841,171
225.866,142
225.891,116
225.916,91
225.941,61
225.966,24
225.991,-12
226.016,-27
226.041,-6
226.066,49
226.091,121
226.116,185
226.141,230
226.166,264
226.191,297
226.216,331
226.241,362
226.266,382
226.291,388
226.316,387
226.341,386
226.366,386
226.391,387
226.416,385
226.441,378
226.466,366
226.491,351
226.516,332
226.541,309
226.566,282
226.591,253
226.616,226
226.641,201
226.666,178
226.691,153
226.716,123
226.741,91
226.766,61
226.791,29
226.816,-5
226.841,-45
226.866,-73
226.891,-71
226.916,-29
226.941,40
226.966,110
226.991,161
227.016,194
227.041,223
227.066,255
227.091,287
227.116,307
227.141,311
227.166,310
227.191,312
227.216,320
227.241,329
227.266,331
227.291,328
227.316,325
227.341,323
227.366,321
227.391,316
227.416,304
227.441,287
227.466,267
227.491,246
227.516,231
227.541,224
227.566,226
227.591,231
227.616,233
227.641,231
227.666,222
227.691,203
227.716,173
227.741,140
227.766,119
227.791,126
227.816,161
227.841,211
227.866,256
227.891,286
227.916,306
227.941,326
227.966,345
227.991,357
228.016,358
228.041,351
228.066,346
228.091,345
228.116,343
228.141,330
228.166,303
228.191,266
228.216,229
228.241,199
228.266,177
228.291,161
228.316,145
228.341,128
228.366,108
228.391,88
228.416,65
228.441,36
228.466,1
228.491,-29
228.516,-37
228.541,-6
228.566,60
228.591,140
228.616,206
228.641,248
228.666,277
228.691,306
228.716,338
228.741,361
228.766,367
228.791,363
228.816,358
228.841,359
228.866,356
228.891,340
228.916,313
228.941,286
228.966,266
228.991,249
229.016,228
229.041,204
229.066,181
229.091,160
229.116,131
229.141,89
229.166,44
229.191,27
229.216,59
229.241,132
229.266,214
229.291,277
229.316,314
229.341,337
229.366,356
229.391,370
229.416,372
229.441,362
229.466,352
229.491,347
229.516,346
229.541,342
229.566,332
229.591,319
229.616,303
229.641,284
229.666,259
229.691,232
229.716,207
229.741,179
229.766,141
229.791,94
229.816,54
229.841,48
229.866,87
229.891,158
229.916,229
229.941,280
229.966,306
229.991,321
230.016,332
230.041,340
230.066,337
230.091,324
230.116,305
230.141,286
230.166,270
230.191,258
230.216,247
230.241,233
230.266,213
230.291,187
230.316,160
230.341,135
230.366,105
230.391,64
230.416,16
230.441,-22
230.466,-28
230.491,7
230.516,71
230.541,135
230.566,177
230.591,198
230.616,209
230.641,221
230.666,232
230.691,237
230.716,233
230.741,226
230.766,223
230.791,223
230.816,223
230.841,221
230.866,215
230.891,212
230.916,213
230.941,214
230.966,205
230.991,183
231.016,153
231.041,133
231.066,142
231.091,185
231.116,252
231.141,319
231.166,368
231.191,391
231.216,396
231.241,395
231.266,395
231.291,395
231.316,392
231.341,385
231.366,377
231.391,370
231.416,362
231.441,350
231.466,328
231.491,298
231.516,265
231.541,233
231.566,197
231.591,149
231.616,91
231.641,40
231.666,16
231.691,31
231.716,73
231.741,118
231.766,149
231.791,166
231.816,181
231.841,199
231.866,211
231.891,209
231.916,196
231.941,185
231.966,183
231.991,187
232.016,191
232.041,195
232.066,204
232.091,221
232.116,239
232.141,246
232.166,241
232.191,229
232.216,216
232.241,194
232.266,155
232.291,106
232.316,72
232.341,77
232.366,124
232.391,188
232.416,242
232.441,278
232.466,305
232.491,336
232.516,367
232.541,388
232.566,393
232.591,386
232.616,377
232.641,372
232.666,371
232.691,371
232.716,369
232.741,365
232.766,356
232.791,340
232.816,319
232.841,299
232.866,284
232.891,271
232.916,257
232.941,240
232.966,223
232.991,202
233.016,177
233.041,147
233.066,114
233.091,84
233.116,54
233.141,19
233.166,-20
233.191,-49
233.216,-48
233.241,-8
233.266,56
233.291,119
233.316,164
233.341,193
233.366,220
233.391,254
233.416,286
233.441,305
233.466,309
233.491,310
233.516,317
233.541,329
233.566,338
233.591,339
233.616,335
233.641,330
233.666,324
233.691,311
233.716,289
233.741,266
233.766,251
233.791,243
233.816,232
233.841,210
233.866,182
233.891,155
233.916,131
233.941,101
233.966,60
233.991,21
234.016,7
234.041,33
234.066,90
234.091,151
234.116,197
234.141,226
234.166,251
234.191,281
234.216,310
234.241,327
234.266,330
234.291,328
234.316,331
234.341,339
234.366,347
234.391,348
234.416,340
234.441,328
234.466,312
234.491,296
234.516,280
234.541,263
234.566,243
234.591,220
234.616,196
234.641,173
234.666,149
234.691,119
234.716,76
234.741,30
234.766,4
234.791,17
234.816,68
234.841,139
234.866,201
234.891,244
234.916,273
234.941,297
234.966,320
234.991,335
235.016,338
235.041,333
235.066,329
235.091,331
235.116,335
235.141,335
235.166,326
235.191,310
235.216,291
235.241,272
235.266,254
235.291,232
235.316,203
235.341,170
235.366,139
235.391,112
235.416,83
235.441,42
235.466,-4
235.491,-37
235.516,-32
235.541,19
235.566,99
235.591,176
235.616,230
235.641,265
235.666,297
235.691,332
235.716,362
235.741,376
235.766,373
235.791,364
235.816,360
235.841,362
235.866,362
235.891,356
235.916,343
235.941,325
235.966,302
235.991,275
236.016,247
236.041,218
236.066,190
236.091,159
236.116,127
236.141,95
236.166,60
236.191,20
236.216,-25
236.241,-59
236.266,-56
236.291,-4
236.316,79
236.341,163
236.366,222
236.391,259
236.416,291
236.441,331
236.466,368
236.491,386
236.516,383
236.541,373
236.566,371
236.591,377
236.616,381
236.641,372
236.666,356
236.691,339
236.716,324
236.741,307
236.766,285
236.791,259
236.816,234
236.841,209
236.866,184
236.891,158
236.916,133
236.941,108
236.966,75
236.991,32
237.016,-8
237.041,-21
237.066,10
237.091,80
237.116,161
237.141,227
237.166,270
237.191,302
237.216,336
237.241,373
237.266,405
237.291,426
237.316,438
237.341,445
237.366,453
237.391,462
237.416,469
237.441,472
237.466,464
237.491,443
237.516,412
237.541,380
237.566,353
237.591,330
237.616,304
237.641,272
237.666,240
237.691,218
237.716,202
237.741,181
237.766,150
237.791,120
237.816,117
237.841,152
237.866,213
237.891,270
237.916,305
237.941,319
237.966,330
237.991,345
238.016,358
238.041,357
238.066,339
238.091,316
238.116,298
238.141,283
238.166,262
238.191,230
238.216,190
238.241,147
238.266,100
238.291,48
238.316,-6
238.341,-60
238.366,-111
238.391,-163
238.416,-220
238.441,-284
238.466,-355
238.491,-444
238.516,-563
238.541,-710
238.566,-844
238.591,-902
238.616,-834
238.641,-645
238.666,-391
238.691,-140
238.716,77
238.741,273
238.766,464
238.791,638
238.816,756
238.841,789
238.866,749
238.891,683
238.916,640
238.941,637
238.966,661
238.991,695
239.016,738
239.041,805
239.066,902
239.091,1007
239.116,1080
239.141,1087
239.166,1019
239.191,901
239.216,767
239.241,635
239.266,499
239.291,343
239.316,160
239.341,-24
239.366,-170
239.391,-235
239.416,-207
239.441,-107
239.466,24
239.491,147
239.516,243
239.541,313
239.566,367
239.591,415
239.616,455
239.641,478
239.666,475
239.691,445
239.716,399
239.741,348
239.766,300
239.791,256
239.816,209
239.841,159
239.866,107
239.891,58
239.916,17
239.941,-12
239.966,-33
239.991,-50
240.016,-67
240.041,-80
240.066,-82
240.091,-63
240.116,-24
240.141,16
240.166,44
240.191,57
240.216,74
240.241,117
240.266,196
240.291,296
240.316,393
240.341,474
240.366,539
240.391,597
240.416,650
240.441,692
240.466,718
240.491,728
240.516,723
240.541,698
240.566,641
240.591,548
240.616,422
240.641,273
240.666,108
240.691,-68
240.716,-248
240.741,-414
240.766,-549
240.791,-646
240.816,-709
240.841,-749
240.866,-768
240.891,-764
240.916,-739
240.941,-701
240.966,-658
240.991,-605
241.016,-525
241.041,-404
241.066,-251
241.091,-93
241.116,45
241.141,160
241.166,263
241.191,364
241.216,452
241.241,511
241.266,538
241.291,556
241.316,599
241.341,682
241.366,788
241.391,878
241.416,922
241.441,923
241.466,906
241.491,900
241.516,909
241.541,913
241.566,872
241.591,758
241.616,566
241.641,337
241.666,140
241.691,46
241.716,85
241.741,227
241.766,403
241.791,550
241.816,650
241.841,723
241.866,790
241.891,839
241.916,834
241.941,753
241.966,611
241.991,455
242.016,322
242.041,210
242.066,93
242.091,-43
242.116,-183
242.141,-282
242.166,-305
242.191,-256
242.216,-168
242.241,-85
242.266,-40
242.291,-50
242.316,-118
242.341,-227
242.366,-339
242.391,-399
242.416,-362
242.441,-226
242.466,-40
242.491,129
242.516,242
242.541,313
242.566,386
242.591,489
242.616,597
242.641,662
242.666,664
242.691,639
242.716,647
242.741,706
242.766,772
242.791,781
242.816,717
242.841,636
242.866,608
242.891,640
242.916,661
242.941,588
242.966,407
242.991,179
243.016,-14
243.041,-143
243.066,-236
243.091,-327
243.116,-411
243.141,-452
243.166,-432
243.191,-373
243.216,-316
243.241,-279
243.266,-245
243.291,-192
243.316,-126
243.341,-71
243.366,-47
243.391,-39
243.416,-15
243.441,44
243.466,130
243.491,212
243.516,266
243.541,287
243.566,285
243.591,277
243.616,272
243.641,273
243.666,271
243.691,249
243.716,196
243.741,117
243.766,46
243.791,17
243.816,42
243.841,82
243.866,75
243.891,-11
243.916,-150
243.941,-260
243.966,-274
243.991,-195
244.016,-81
244.041,4
244.066,57
244.091,120
244.116,235
244.141,396
244.166,560
244.191,688
244.216,776
244.241,839
244.266,872
244.291,853
244.316,770
244.341,657
244.366,580
244.391,585
244.416,661
244.441,739
244.466,745
244.491,653
244.516,495
244.541,345
244.566,268
244.591,283
244.616,355
244.641,429
244.666,476
244.691,514
244.716,576
244.741,661
244.766,719
244.791,692
244.816,574
244.841,425
244.866,308
244.891,232
244.916,151
244.941,30
244.966,-106
244.991,-198
245.016,-221
245.041,-217
245.066,-250
245.091,-331
245.116,-408
245.141,-433
245.166,-418
245.191,-415
245.216,-447
245.241,-459
245.266,-379
245.291,-196
245.316,8
245.341,129
245.366,123
245.391,32
245.416,-64
245.441,-123
245.466,-140
245.491,-122
245.516,-70
245.541,15
245.566,120
245.591,222
245.616,320
245.641,426
245.666,534
245.691,603
245.716,591
245.741,513
245.766,451
245.791,491
245.816,651
245.841,863
245.866,1036
245.891,1134
245.916,1182
245.941,1215
245.966,1239
245.991,1238
246.016,1211
246.041,1183
246.066,1162
246.091,1107
246.116,945
246.141,632
246.166,206
246.191,-222
246.216,-519
246.241,-594
246.266,-450
246.291,-186
246.316,37
246.341,80
246.366,-96
246.391,-408
246.416,-709
246.441,-885
246.466,-913
246.491,-829
246.516,-663
246.541,-424
246.566,-147
246.591,70
246.616,98
246.641,-126
246.666,-537
246.691,-963
246.716,-1235
246.741,-1274
246.766,-1106
246.791,-819
246.816,-508
246.841,-236
246.866,-23
246.891,153
246.916,336
246.941,552
246.966,791
246.991,1020
247.016,1218
247.041,1387
247.066,1530
247.091,1636
247.116,1684
247.141,1675
247.166,1637
247.191,1591
247.216,1516
247.241,1360
247.266,1098
247.291,771
247.316,462
247.341,239
247.366,120
247.391,84
247.416,103
247.441,157
247.466,220
247.491,263
247.516,275
247.541,275
247.566,288
247.591,305
247.616,279
247.641,175
247.666,15
247.691,-126
247.716,-181
247.741,-136
247.766,-37
247.791,56
247.816,107
247.841,113
247.866,97
247.891,95
247.916,132
247.941,198
247.966,247
247.991,231
248.016,156
248.041,94
248.066,120
248.091,227
248.116,325
248.141,317
248.166,208
248.191,106
248.216,122
248.241,261
248.266,423
248.291,508
248.316,498
248.341,454
248.366,423
248.391,382
248.416,269
248.441,64
248.466,-183
248.491,-395
248.516,-521
248.541,-561
248.566,-544
248.591,-502
248.616,-466
248.641,-468
248.666,-517
248.691,-581
248.716,-598
248.741,-525
248.766,-382
248.791,-229
248.816,-109
248.841,-22
248.866,53
248.891,115
248.916,127
248.941,63
248.966,-48
248.991,-141
249.016,-158
249.041,-85
249.066,55
249.091,236
249.116,437
249.141,631
249.166,784
249.191,867
249.216,894
249.241,904
249.266,924
249.291,936
249.316,896
249.341,780
249.366,613
249.391,448
249.416,321
249.441,233
249.466,161
249.491,93
249.516,32
249.541,-5
249.566,-8
249.591,36
249.616,130
249.641,264
249.666,407
249.691,532
249.716,624
249.741,691
249.766,741
249.791,768
249.816,762
249.841,731
249.866,706
249.891,722
249.916,785
249.941,870
249.966,946
249.991,1003
250.016,1051
250.041,1095
250.066,1126
250.091,1130
250.116,1101
250.141,1041
250.166,944
250.191,798
250.216,598
250.241,366
250.266,135
250.291,-72
250.316,-250
250.341,-401
250.366,-512
250.391,-566
250.416,-565
250.441,-533
250.466,-502
250.491,-483
250.516,-461
250.541,-424
250.566,-380
250.591,-352
250.616,-345
250.641,-341
250.666,-314
250.691,-263
250.716,-210
250.741,-177
250.766,-164
250.791,-157
250.816,-147
250.841,-146
250.866,-168
250.891,-217
250.916,-279
250.941,-341
250.966,-392
250.991,-428
251.016,-437
251.041,-406
251.066,-331
251.091,-227
251.116,-123
251.141,-42
251.166,10
251.191,44
251.216,74
251.241,114
251.266,170
251.291,243
251.316,327
251.341,412
251.366,491
251.391,560
251.416,616
251.441,652
251.466,659
251.491,637
251.516,597
251.541,558
251.566,532
251.591,516
251.616,503
251.641,492
251.666,488
251.691,500
251.716,518
251.741,529
251.766,522
251.791,504
251.816,491
251.841,490
251.866,495
251.891,494
251.916,488
251.941,482
251.966,481
251.991,470
252.016,429
252.041,354
252.066,272
252.091,218
252.116,211
252.141,242
252.166,287
252.191,332
252.216,383
252.241,444
252.266,504
252.291,544
252.316,558
252.341,561
252.366,575
252.391,602
252.416,626
252.441,631
252.466,621
252.491,617
252.516,621
252.541,605
252.566,523
252.591,365
252.616,169
252.641,1
252.666,-94
252.691,-125
252.716,-123
252.741,-108
252.766,-71
252.791,1
252.816,96
252.841,164
252.866,155
252.891,58
252.916,-84
252.941,-210
252.966,-277
252.991,-283
253.016,-260
253.041,-246
253.066,-257
253.091,-290
253.116,-325
253.141,-347
253.166,-352
253.191,-349
253.216,-345
253.241,-341
253.266,-322
253.291,-274
253.316,-191
253.341,-81
253.366,37
253.391,144
253.416,229
253.441,287
253.466,320
253.491,334
253.516,338
253.541,336
253.566,333
253.591,327
253.616,315
253.641,298
253.666,280
253.691,265
253.716,255
253.741,248
253.766,247
253.791,254
253.816,273
253.841,303
253.866,340
253.891,379
253.916,412
253.941,438
253.966,455
253.991,465
254.016,469
254.041,469
254.066,467
254.091,463
254.116,457
254.141,446
254.166,427
254.191,397
254.216,362
254.241,326
254.266,291
254.291,249
254.316,194
254.341,128
254.366,68
254.391,35
254.416,40
254.441,71
254.466,103
254.491,118
254.516,113
254.541,103
254.566,102
254.591,116
254.616,141
254.641,167
254.666,183
254.691,187
254.716,179
254.741,165
254.766,153
254.791,146
254.816,141
254.841,130
254.866,103
254.891,61
254.916,14
254.941,-23
254.966,-42
254.991,-40
255.016,-22
255.041,3
255.066,29
255.091,50
255.116,69
255.141,88
255.166,112
255.191,142
255.216,174
255.241,198
255.266,207
255.291,198
255.316,178
255.341,157
255.366,144
255.391,139
255.416,138
255.441,137
255.466,148
255.491,184
255.516,254
255.541,355
255.566,477
255.591,608
255.616,741
255.641,864
255.666,962
255.691,1026
255.716,1066
255.741,1115
255.766,1207
255.791,1348
255.816,1508
255.841,1647
255.866,1744
255.891,1811
255.916,1865
255.941,1905
255.966,1904
255.991,1831
256.016,1684
256.041,1488
256.066,1273
256.091,1055
256.116,832
256.141,600
256.166,362
256.191,119
256.216,-140
256.241,-443
256.266,-806
256.291,-1220
256.316,-1647
256.341,-2031
256.366,-2323
256.391,-2492
256.416,-2538
256.441,-2485
256.466,-2374
256.491,-2250
256.516,-2141
256.541,-2046
256.566,-1938
256.591,-1780
256.616,-1554
256.641,-1269
256.666,-957
256.691,-647
256.716,-351
256.741,-67
256.766,210
256.791,473
256.816,703
256.841,886
256.866,1025
256.891,1132
256.916,1214
256.941,1267
256.966,1291
256.991,1297
257.016,1304
257.041,1316
257.066,1317
257.091,1294
257.116,1267
257.141,1284
257.166,1387
257.191,1554
257.216,1698
257.241,1720
257.266,1572
257.291,1277
257.316,905
257.341,525
257.366,188
257.391,-75
257.416,-251
257.441,-346
257.466,-385
257.491,-395
257.516,-385
257.541,-358
257.566,-324
257.591,-308
257.616,-314
257.641,-305
257.666,-220
257.691,-24
257.716,251
257.741,551
257.766,844
257.791,1135
257.816,1417
257.841,1623
257.866,1658
257.891,1481
257.916,1154
257.941,793
257.966,479
257.991,218
258.016,-13
258.041,-200
258.066,-297
258.091,-295
258.116,-256
258.141,-263
258.166,-336
258.191,-416
258.216,-429
258.241,-364
258.266,-277
258.291,-224
258.316,-214
258.341,-209
258.366,-166
258.391,-50
258.416,161
258.441,455
258.466,756
258.491,937
258.516,899
258.541,660
258.566,350
258.591,110
258.616,-15
258.641,-77
258.666,-134
258.691,-178
258.716,-161
258.741,-64
258.766,75
258.791,205
258.816,303
258.841,367
258.866,380
258.891,322
258.916,213
258.941,130
258.966,138
258.991,213
259.016,262
259.041,225
259.066,147
259.091,131
259.116,204
259.141,279
259.166,251
259.191,132
259.216,61
259.241,164
259.266,424
259.291,677
259.316,752
259.341,593
259.366,275
259.391,-75
259.416,-348
259.441,-473
259.466,-420
259.491,-205
259.516,117
259.541,491
259.566,877
259.591,1232
259.616,1472
259.641,1484
259.666,1206
259.691,709
259.716,177
259.741,-211
259.766,-387
259.791,-400
259.816,-336
259.841,-255
259.866,-189
259.891,-169
259.916,-201
259.941,-246
259.966,-231
259.991,-121
260.016,28
260.041,125
260.066,137
260.091,120
260.116,151
260.141,230
260.166,290
260.191,284
260.216,260
260.241,305
260.266,445
260.291,606
260.316,693
260.341,688
260.366,660
260.391,674
260.416,716
260.441,721
260.466,654
260.491,556
260.516,497
260.541,504
260.566,535
260.591,530
260.616,463
260.641,357
260.666,247
260.691,149
260.716,57
260.741,-36
260.766,-130
260.791,-211
260.816,-271
260.841,-318
260.866,-368
260.891,-425
260.916,-465
260.941,-447
260.966,-346
260.991,-181
261.016,-4
261.041,142
261.066,261
261.091,384
261.116,523
261.141,652
261.166,729
261.191,750
261.216,755
261.241,791
261.266,863
261.291,927
261.316,938
261.341,882
261.366,782
261.391,665
261.416,556
261.441,474
261.466,434
261.491,438
261.516,454
261.541,440
261.566,369
261.591,250
261.616,113
261.641,-25
261.666,-164
261.691,-299
261.716,-410
261.741,-477
261.766,-500
261.791,-503
261.816,-507
261.841,-514
261.866,-515
261.891,-508
261.916,-514
261.941,-543
261.966,-580
261.991,-587
262.016,-540
262.041,-454
262.066,-368
262.091,-312
262.116,-279
262.141,-240
262.166,-165
262.191,-54
262.216,63
262.241,150
262.266,178
262.291,160
262.316,132
262.341,142
262.366,208
262.391,317
262.416,436
262.441,544
262.466,644
262.491,745
262.516,836
262.541,879
262.566,843
262.591,737
262.616,609
262.641,521
262.666,507
262.691,564
262.716,661
262.741,770
262.766,872
262.791,960
262.816,1029
262.841,1076
262.866,1098
262.891,1087
262.916,1030
262.941,920
262.966,763
262.991,585
263.016,419
263.041,278
263.066,157
263.091,41
263.116,-73
263.141,-172
263.166,-236
263.191,-249
263.216,-208
263.241,-121
263.266,1
263.291,138
263.316,261
263.341,345
263.366,385
263.391,401
263.416,419
263.441,455
263.466,505
263.491,553
263.516,585
263.541,586
263.566,547
263.591,461
263.616,344
263.641,235
263.666,176
263.691,186
263.716,236
263.741,277
263.766,277
263.791,242
263.816,206
