df_hash,22ZHK4.EG2MBW
device,HZ2X61
project_hash,29R7
project_name,istanbul_aydin_university
person_hash,29R7.SYEB
person_label,V123
date_time_start,2026-04-06_14-06-02.091000_+03
date_time_start_unix,1775466362.091
date_time_end,2026-04-06_14-14-17.869000_+03
length_difference_noticed,no

time,ppg_med
6.220,850
6.245,976
6.270,1178
6.295,1287
6.320,1245
6.345,1201
6.370,1318
6.395,1531
6.420,1613
6.445,1482
6.470,1343
6.495,1416
6.520,1614
6.545,1627
6.570,1345
6.595,1047
6.620,1031
6.645,1179
6.670,1072
6.695,571
6.720,46
6.745,-103
6.770,-35
6.795,-301
6.820,-1082
6.845,-1887
6.870,-2192
6.895,-2204
6.920,-2639
6.945,-3728
6.970,-4829
6.995,-5267
7.020,-5309
7.045,-5870
7.070,-7242
7.095,-8601
7.120,-9086
7.145,-9036
7.170,-9612
7.195,-11176
7.220,-12686
7.245,-13054
7.270,-12712
7.295,-13113
7.320,-14713
7.345,-16201
7.370,-16217
7.395,-15303
7.420,-15277
7.445,-16705
7.470,-17953
7.495,-17326
7.520,-15503
7.545,-14753
7.570,-15787
7.595,-16568
7.620,-14985
7.645,-11885
7.670,-10111
7.695,-10563
7.720,-10696
7.745,-7858
7.770,-3112
7.795,-52
7.820,162
7.845,748
7.870,5087
7.895,11837
7.920,16371
7.945,17152
7.970,18329
7.995,24349
8.020,32767
8.045,32767
8.070,32767
8.095,32767
8.120,32767
8.145,32767
8.170,32767
8.195,32767
8.220,32767
8.245,32767
8.270,32767
8.295,32767
8.320,32767
8.345,32767
8.370,32767
8.395,32767
8.420,32767
8.445,32767
8.470,22758
8.495,-32768
8.520,-32768
8.545,-32768
8.570,-32768
8.595,-32768
8.620,-32768
8.645,-32768
8.670,-32768
8.695,-32768
8.720,-32768
8.745,-32768
8.770,-32768
8.795,-32768
8.820,-32768
8.845,-32768
8.870,-32768
8.895,-32768
8.920,-32768
8.945,-28069
8.970,-20291
8.995,-17540
9.020,-17386
9.045,-14627
9.070,-8367
9.095,-2713
9.120,-838
9.145,-859
9.170,1216
9.195,6015
9.220,10231
9.245,11284
9.270,10633
9.295,11501
9.320,14497
9.345,17067
9.370,17162
9.395,15912
9.420,15872
9.445,17540
9.470,18897
9.495,18316
9.520,16694
9.545,16062
9.570,16805
9.595,17300
9.620,16251
9.645,14394
9.670,13368
9.695,13484
9.720,13445
9.745,12218
9.770,10398
9.795,9294
9.820,9141
9.845,8894
9.870,7728
9.895,6121
9.920,5109
9.945,4867
9.970,4555
9.995,3542
10.020,2261
10.045,1600
10.070,1728
10.095,1933
10.120,1597
10.145,927
10.170,552
10.195,637
10.220,729
10.245,433
10.270,-67
10.295,-315
10.320,-215
10.345,-116
10.370,-304
10.395,-623
10.420,-731
10.445,-572
10.470,-430
10.495,-528
10.520,-753
10.545,-842
10.570,-743
10.595,-658
10.620,-749
10.645,-928
10.670,-992
10.695,-896
10.720,-794
10.745,-825
10.770,-937
10.795,-979
10.820,-910
10.845,-845
10.870,-898
10.895,-1029
10.920,-1075
10.945,-926
10.970,-617
10.995,-259
11.020,73
11.045,343
11.070,484
11.095,571
11.120,659
11.145,757
11.170,835
11.195,867
11.220,867
11.245,866
11.270,882
11.295,908
11.320,928
11.345,932
11.370,920
11.395,891
11.420,840
11.445,770
11.470,690
11.495,605
11.520,513
11.545,412
11.570,308
11.595,214
11.620,132
11.645,49
11.670,-45
11.695,-145
11.720,-232
11.745,-306
11.770,-396
11.795,-519
11.820,-641
11.845,-672
11.870,-542
11.895,-262
11.920,65
11.945,329
11.970,482
11.995,559
12.020,617
12.045,681
12.070,732
12.095,750
12.120,738
12.145,720
12.170,716
12.195,726
12.220,744
12.245,759
12.270,764
12.295,749
12.320,708
12.345,650
12.370,590
12.395,534
12.420,472
12.445,394
12.470,303
12.495,216
12.520,141
12.545,67
12.570,-13
12.595,-97
12.620,-172
12.645,-243
12.670,-335
12.695,-455
12.720,-557
12.745,-553
12.770,-384
12.795,-82
12.820,245
12.845,493
12.870,630
12.895,697
12.920,749
12.945,804
12.970,842
12.995,847
13.020,831
13.045,820
13.070,828
13.095,848
13.120,861
13.145,857
13.170,833
13.195,793
13.220,738
13.245,670
13.270,592
13.295,504
13.320,411
13.345,319
13.370,236
13.395,161
13.420,84
13.445,-1
13.470,-89
13.495,-168
13.520,-241
13.545,-326
13.570,-433
13.595,-524
13.620,-519
13.645,-358
13.670,-68
13.695,241
13.720,457
13.745,549
13.770,570
13.795,595
13.820,641
13.845,671
13.870,657
13.895,618
13.920,605
13.945,639
13.970,690
13.995,714
14.020,698
14.045,662
14.070,626
14.095,585
14.120,523
14.145,441
14.170,359
14.195,286
14.220,208
14.245,112
14.270,10
14.295,-70
14.320,-123
14.345,-183
14.370,-283
14.395,-393
14.420,-419
14.445,-281
14.470,3
14.495,323
14.520,554
14.545,658
14.570,684
14.595,705
14.620,739
14.645,761
14.670,745
14.695,706
14.720,679
14.745,680
14.770,696
14.795,704
14.820,695
14.845,667
14.870,619
14.895,548
14.920,460
14.945,369
14.970,279
14.995,183
15.020,74
15.045,-36
15.070,-127
15.095,-200
15.120,-287
15.145,-406
15.170,-516
15.195,-523
15.220,-358
15.245,-53
15.270,266
15.295,486
15.320,582
15.345,621
15.370,673
15.395,746
15.420,797
15.445,795
15.470,760
15.495,739
15.520,754
15.545,783
15.570,792
15.595,770
15.620,726
15.645,671
15.670,602
15.695,516
15.720,417
15.745,313
15.770,207
15.795,95
15.820,-18
15.845,-124
15.870,-223
15.895,-336
15.920,-475
15.945,-604
15.970,-641
15.995,-515
16.020,-234
16.045,97
16.070,361
16.095,508
16.120,580
16.145,647
16.170,740
16.195,825
16.220,864
16.245,855
16.270,835
16.295,835
16.320,853
16.345,864
16.370,854
16.395,826
16.420,787
16.445,728
16.470,642
16.495,531
16.520,411
16.545,290
16.570,162
16.595,25
16.620,-107
16.645,-217
16.670,-308
16.695,-415
16.720,-563
16.745,-717
16.770,-786
16.795,-685
16.820,-413
16.845,-64
16.870,240
16.895,440
16.920,558
16.945,656
16.970,768
16.995,875
17.020,939
17.045,948
17.070,928
17.095,918
17.120,935
17.145,963
17.170,975
17.195,956
17.220,911
17.245,854
17.270,787
17.295,703
17.320,594
17.345,467
17.370,340
17.395,223
17.420,110
17.445,-10
17.470,-139
17.495,-259
17.520,-361
17.545,-466
17.570,-603
17.595,-763
17.620,-875
17.645,-843
17.670,-629
17.695,-298
17.720,30
17.745,268
17.770,412
17.795,521
17.820,640
17.845,765
17.870,860
17.895,908
17.920,926
17.945,940
17.970,962
17.995,986
18.020,1002
18.045,1004
18.070,989
18.095,950
18.120,887
18.145,809
18.170,727
18.195,639
18.220,535
18.245,413
18.270,290
18.295,181
18.320,85
18.345,-16
18.370,-130
18.395,-245
18.420,-347
18.445,-450
18.470,-582
18.495,-733
18.520,-828
18.545,-773
18.570,-537
18.595,-196
18.620,123
18.645,339
18.670,463
18.695,558
18.720,665
18.745,768
18.770,833
18.795,853
18.820,857
18.845,874
18.870,905
18.895,933
18.920,943
18.945,936
18.970,913
18.995,871
19.020,807
19.045,731
19.070,652
19.095,571
19.120,478
19.145,373
19.170,269
19.195,177
19.220,94
19.245,2
19.270,-102
19.295,-203
19.320,-284
19.345,-364
19.370,-476
19.395,-617
19.420,-715
19.445,-676
19.470,-461
19.495,-136
19.520,177
19.545,395
19.570,521
19.595,612
19.620,706
19.645,793
19.670,845
19.695,857
19.720,855
19.745,866
19.770,891
19.795,915
19.820,921
19.845,904
19.870,861
19.895,796
19.920,716
19.945,634
19.970,561
19.995,491
20.020,411
20.045,318
20.070,223
20.095,139
20.120,60
20.145,-26
20.170,-121
20.195,-211
20.220,-289
20.245,-374
20.270,-492
20.295,-627
20.320,-702
20.345,-633
20.370,-397
20.395,-69
20.420,232
20.445,433
20.470,541
20.495,613
20.520,690
20.545,761
20.570,800
20.595,800
20.620,788
20.645,794
20.670,824
20.695,858
20.720,874
20.745,861
20.770,826
20.795,780
20.820,724
20.845,654
20.870,566
20.895,468
20.920,371
20.945,286
20.970,207
20.995,122
21.020,25
21.045,-71
21.070,-149
21.095,-215
21.120,-297
21.145,-415
21.170,-533
21.195,-561
21.220,-421
21.245,-123
21.270,223
21.295,488
21.320,615
21.345,649
21.370,670
21.395,714
21.420,754
21.445,753
21.470,718
21.495,693
21.520,709
21.545,752
21.570,778
21.595,767
21.620,728
21.645,684
21.670,635
21.695,566
21.720,474
21.745,375
21.770,285
21.795,201
21.820,104
21.845,-2
21.870,-100
21.895,-174
21.920,-247
21.945,-355
21.970,-495
21.995,-591
22.020,-540
22.045,-305
22.070,41
22.095,364
22.120,567
22.145,653
22.170,693
22.195,741
22.220,794
22.245,814
22.270,789
22.295,752
22.320,741
22.345,766
22.370,796
22.395,802
22.420,778
22.445,734
22.470,678
22.495,605
22.520,513
22.545,412
22.570,308
22.595,197
22.620,70
22.645,-65
22.670,-186
22.695,-280
22.720,-373
22.745,-497
22.770,-644
22.795,-733
22.820,-666
22.845,-414
22.870,-56
22.895,271
22.920,480
22.945,582
22.970,647
22.995,727
23.020,810
23.045,854
23.070,848
23.095,821
23.120,809
23.145,823
23.170,844
23.195,853
23.220,846
23.245,822
23.270,774
23.295,694
23.320,588
23.345,475
23.370,367
23.395,255
23.420,126
23.445,-9
23.470,-132
23.495,-234
23.520,-344
23.545,-492
23.570,-652
23.595,-733
23.620,-640
23.645,-364
23.670,-3
23.695,308
23.720,499
23.745,596
23.770,671
23.795,761
23.820,843
23.845,881
23.870,871
23.895,849
23.920,849
23.945,873
23.970,894
23.995,892
24.020,865
24.045,821
24.070,757
24.095,668
24.120,559
24.145,443
24.170,326
24.195,205
24.220,75
24.245,-53
24.270,-162
24.295,-247
24.320,-340
24.345,-470
24.370,-620
24.395,-707
24.420,-638
24.445,-394
24.470,-55
24.495,248
24.520,438
24.545,529
24.570,591
24.595,670
24.620,751
24.645,792
24.670,782
24.695,756
24.720,756
24.745,787
24.770,818
24.795,819
24.820,794
24.845,759
24.870,720
24.895,663
24.920,576
24.945,471
24.970,369
24.995,274
25.020,174
25.045,61
25.070,-45
25.095,-126
25.120,-194
25.145,-286
25.170,-411
25.195,-509
25.220,-480
25.245,-276
25.270,36
25.295,325
25.320,494
25.345,552
25.370,575
25.395,621
25.420,677
25.445,700
25.470,680
25.495,650
25.520,646
25.545,671
25.570,695
25.595,695
25.620,674
25.645,641
25.670,595
25.695,530
25.720,449
25.745,365
25.770,284
25.795,196
25.820,95
25.845,-3
25.870,-85
25.895,-159
25.920,-254
25.945,-372
25.970,-452
25.995,-403
26.020,-192
26.045,109
26.070,372
26.095,514
26.120,558
26.145,581
26.170,631
26.195,687
26.220,708
26.245,689
26.270,668
26.295,679
26.320,710
26.345,728
26.370,718
26.395,693
26.420,666
26.445,629
26.470,567
26.495,478
26.520,380
26.545,288
26.570,191
26.595,78
26.620,-39
26.645,-139
26.670,-217
26.695,-303
26.720,-425
26.745,-557
26.770,-613
26.795,-515
26.820,-263
26.845,47
26.870,304
26.895,451
26.920,523
26.945,584
26.970,668
26.995,757
27.020,814
27.045,827
27.070,816
27.095,811
27.120,824
27.145,844
27.170,852
27.195,839
27.220,806
27.245,756
27.270,688
27.295,602
27.320,508
27.345,414
27.370,324
27.395,231
27.420,127
27.445,16
27.470,-82
27.495,-164
27.520,-249
27.545,-367
27.570,-517
27.595,-640
27.620,-648
27.645,-489
27.670,-199
27.695,115
27.720,356
27.745,495
27.770,577
27.795,660
27.820,759
27.845,845
27.870,882
27.895,873
27.920,851
27.945,851
27.970,871
27.995,884
28.020,871
28.045,832
28.070,785
28.095,736
28.120,673
28.145,582
28.170,467
28.195,350
28.220,251
28.245,166
28.270,79
28.295,-16
28.320,-109
28.345,-188
28.370,-267
28.395,-377
28.420,-516
28.445,-625
28.470,-607
28.495,-413
28.520,-94
28.545,222
28.570,430
28.595,513
28.620,542
28.645,589
28.670,661
28.695,718
28.720,725
28.745,703
28.770,696
28.795,725
28.820,768
28.845,787
28.870,770
28.895,731
28.920,684
28.945,628
28.970,555
28.995,470
29.020,383
29.045,295
29.070,196
29.095,83
29.120,-27
29.145,-116
29.170,-193
29.195,-295
29.220,-435
29.245,-561
29.270,-569
29.295,-398
29.320,-90
29.345,230
29.370,449
29.395,550
29.420,597
29.445,657
29.470,738
29.495,794
29.520,800
29.545,776
29.570,767
29.595,791
29.620,824
29.645,835
29.670,816
29.695,781
29.720,736
29.745,673
29.770,581
29.795,470
29.820,360
29.845,260
29.870,157
29.895,42
29.920,-74
29.945,-176
29.970,-266
29.995,-374
30.020,-519
30.045,-658
30.070,-697
30.095,-561
30.120,-268
30.145,71
30.170,338
30.195,487
30.220,562
30.245,636
30.270,736
30.295,827
30.320,870
30.345,860
30.370,837
30.395,835
30.420,853
30.445,867
30.470,860
30.495,834
30.520,796
30.545,742
30.570,660
30.595,548
30.620,428
30.645,318
30.670,218
30.695,111
30.720,-7
30.745,-122
30.770,-214
30.795,-293
30.820,-398
30.845,-545
30.870,-684
30.895,-719
30.920,-574
30.945,-273
30.970,75
30.995,350
31.020,505
31.045,581
31.070,648
31.095,737
31.120,823
31.145,865
31.170,856
31.195,831
31.220,826
31.245,847
31.270,874
31.295,879
31.320,858
31.345,823
31.370,778
31.395,716
31.420,628
31.445,523
31.470,417
31.495,322
31.520,229
31.545,125
31.570,10
31.595,-92
31.620,-170
31.645,-245
31.670,-353
31.695,-497
31.720,-614
31.745,-602
31.770,-406
31.795,-78
31.820,249
31.845,463
31.870,548
31.895,571
31.920,605
31.945,661
31.970,701
31.995,695
32.020,667
32.045,660
32.070,691
32.095,731
32.120,747
32.145,732
32.170,704
32.195,673
32.220,626
32.245,546
32.270,446
32.295,354
32.320,281
32.345,209
32.370,115
32.395,11
32.420,-72
32.445,-128
32.470,-197
32.495,-315
32.520,-450
32.545,-494
32.570,-354
32.595,-48
32.620,292
32.645,527
32.670,618
32.695,631
32.720,651
32.745,698
32.770,730
32.795,714
32.820,670
32.845,647
32.870,667
32.895,703
32.920,721
32.945,706
32.970,671
32.995,624
33.020,563
33.045,484
33.070,398
33.095,314
33.120,226
33.145,123
33.170,11
33.195,-84
33.220,-155
33.245,-229
33.270,-346
33.295,-485
33.320,-553
33.345,-446
33.370,-157
33.395,201
33.420,480
33.445,611
33.470,640
33.495,661
33.520,715
33.545,771
33.570,784
33.595,750
33.620,710
33.645,699
33.670,718
33.695,738
33.720,738
33.745,713
33.770,662
33.795,588
33.820,498
33.845,406
33.870,318
33.895,223
33.920,106
33.945,-21
33.970,-131
33.995,-211
34.020,-293
34.045,-417
34.070,-567
34.095,-648
34.120,-553
34.145,-264
34.170,109
34.195,417
34.220,577
34.245,630
34.270,668
34.295,740
34.320,821
34.345,860
34.370,845
34.395,813
34.420,804
34.445,822
34.470,843
34.495,846
34.520,825
34.545,784
34.570,719
34.595,627
34.620,517
34.645,403
34.670,293
34.695,176
34.720,48
34.745,-79
34.770,-186
34.795,-278
34.820,-388
34.845,-540
34.870,-693
34.895,-751
34.920,-628
34.945,-328
34.970,41
34.995,348
35.020,530
35.045,618
35.070,687
35.095,772
35.120,854
35.145,893
35.170,884
35.195,858
35.220,849
35.245,861
35.270,875
35.295,873
35.320,852
35.345,813
35.370,752
35.395,663
35.420,552
35.445,438
35.470,330
35.495,221
35.520,94
35.545,-46
35.570,-175
35.595,-270
35.620,-353
35.645,-470
35.670,-634
35.695,-784
35.720,-810
35.745,-638
35.770,-301
35.795,74
35.820,364
35.845,526
35.870,614
35.895,698
35.920,805
35.945,898
35.970,938
35.995,925
36.020,899
36.045,895
36.070,914
36.095,929
36.120,918
36.145,883
36.170,836
36.195,779
36.220,701
36.245,599
36.270,484
36.295,372
36.320,264
36.345,151
36.370,24
36.395,-98
36.420,-200
36.445,-286
36.470,-392
36.495,-544
36.520,-710
36.545,-797
36.570,-715
36.595,-456
36.620,-105
36.645,208
36.670,411
36.695,518
36.720,595
36.745,688
36.770,785
36.795,845
36.820,852
36.845,832
36.870,824
36.895,846
36.920,876
36.945,885
36.970,866
36.995,829
37.020,787
37.045,731
37.070,650
37.095,545
37.120,436
37.145,340
37.170,248
37.195,144
37.220,28
37.245,-78
37.270,-158
37.295,-233
37.320,-341
37.345,-483
37.370,-586
37.395,-543
37.420,-310
37.445,38
37.470,359
37.495,546
37.520,607
37.545,627
37.570,669
37.595,727
37.620,752
37.645,728
37.670,690
37.695,685
37.720,717
37.745,750
37.770,754
37.795,729
37.820,695
37.845,655
37.870,594
37.895,505
37.920,406
37.945,313
37.970,226
37.995,125
38.020,8
38.045,-102
38.070,-192
38.095,-279
38.120,-397
38.145,-532
38.170,-602
38.195,-509
38.220,-237
38.245,114
38.270,404
38.295,559
38.320,612
38.345,642
38.370,694
38.395,743
38.420,753
38.445,727
38.470,704
38.495,714
38.520,746
38.545,768
38.570,764
38.595,740
38.620,704
38.645,650
38.670,571
38.695,472
38.720,373
38.745,281
38.770,183
38.795,68
38.820,-53
38.845,-155
38.870,-235
38.895,-325
38.920,-456
38.945,-602
38.970,-667
38.995,-559
39.020,-277
39.045,77
39.070,372
39.095,542
39.120,621
39.145,681
39.170,757
39.195,826
39.220,851
39.245,832
39.270,806
39.295,807
39.320,831
39.345,850
39.370,846
39.395,821
39.420,784
39.445,732
39.470,655
39.495,551
39.520,437
39.545,329
39.570,221
39.595,102
39.620,-24
39.645,-138
39.670,-225
39.695,-308
39.720,-426
39.745,-581
39.770,-707
39.795,-698
39.820,-499
39.845,-161
39.870,187
39.895,436
39.920,567
39.945,639
39.970,713
39.995,801
40.020,865
40.045,881
40.070,863
40.095,850
40.120,861
40.145,876
40.170,871
40.195,841
40.220,800
40.245,757
40.270,700
40.295,614
40.320,502
40.345,387
40.370,285
40.395,186
40.420,76
40.445,-40
40.470,-142
40.495,-223
40.520,-312
40.545,-442
40.570,-589
40.595,-661
40.620,-559
40.645,-278
40.670,78
40.695,370
40.720,528
40.745,588
40.770,630
40.795,693
40.820,750
40.845,767
40.870,747
40.895,729
40.920,741
40.945,772
40.970,792
40.995,782
41.020,750
41.045,703
41.070,640
41.095,557
41.120,461
41.145,366
41.170,274
41.195,176
41.220,69
41.245,-32
41.270,-117
41.295,-203
41.320,-319
41.345,-454
41.370,-530
41.395,-452
41.420,-200
41.445,135
41.470,417
41.495,568
41.520,619
41.545,650
41.570,703
41.595,751
41.620,757
41.645,725
41.670,699
41.695,711
41.720,746
41.745,766
41.770,754
41.795,720
41.820,676
41.845,617
41.870,532
41.895,425
41.920,317
41.945,216
41.970,112
41.995,-4
42.020,-124
42.045,-227
42.070,-316
42.095,-423
42.120,-564
42.145,-687
42.170,-692
42.195,-511
42.220,-180
42.245,173
42.270,430
42.295,561
42.320,627
42.345,699
42.370,789
42.395,857
42.420,872
42.445,852
42.470,839
42.495,855
42.520,883
42.545,894
42.570,878
42.595,848
42.620,810
42.645,750
42.670,655
42.695,537
42.720,424
42.745,331
42.770,241
42.795,128
42.820,-5
42.845,-129
42.870,-219
42.895,-298
42.920,-411
42.945,-570
42.970,-707
42.995,-714
43.020,-530
43.045,-204
43.070,137
43.095,386
43.120,518
43.145,589
43.170,661
43.195,753
43.220,832
43.245,866
43.270,860
43.295,842
43.320,841
43.345,858
43.370,872
43.395,863
43.420,827
43.445,774
43.470,713
43.495,642
43.520,557
43.545,457
43.570,355
43.595,261
43.620,176
43.645,91
43.670,0
43.695,-90
43.720,-167
43.745,-236
43.770,-324
43.795,-451
43.820,-584
43.845,-642
43.870,-541
43.895,-276
43.920,62
43.945,346
43.970,506
43.995,567
44.020,607
44.045,672
44.070,744
44.095,779
44.120,764
44.145,734
44.170,732
44.195,762
44.220,793
44.245,793
44.270,766
44.295,731
44.320,699
44.345,651
44.370,570
44.395,466
44.420,363
44.445,279
44.470,202
44.495,113
44.520,14
44.545,-71
44.570,-132
44.595,-193
44.620,-294
44.645,-431
44.670,-532
44.695,-494
44.720,-276
44.745,57
44.770,373
44.795,571
44.820,647
44.845,671
44.870,707
44.895,758
44.920,787
44.945,773
44.970,744
44.995,743
45.020,780
45.045,823
45.070,832
45.095,799
45.120,747
45.145,695
45.170,637
45.195,556
45.220,450
45.245,340
45.270,242
45.295,151
45.320,47
45.345,-70
45.370,-184
45.395,-280
45.420,-373
45.445,-492
45.470,-637
45.495,-744
45.520,-722
45.545,-520
45.570,-188
45.595,159
45.620,415
45.645,553
45.670,621
45.695,683
45.720,762
45.745,832
45.770,863
45.795,858
45.820,849
45.845,866
45.870,902
45.895,927
45.920,919
45.945,880
45.970,829
45.995,774
46.020,705
46.045,611
46.070,500
46.095,390
46.120,291
46.145,189
46.170,73
46.195,-52
46.220,-161
46.245,-246
46.270,-333
46.295,-464
46.320,-634
46.345,-768
46.370,-761
46.395,-561
46.420,-222
46.445,129
46.470,387
46.495,527
46.520,603
46.545,678
46.570,767
46.595,843
46.620,878
46.645,878
46.670,874
46.695,891
46.720,924
46.745,951
46.770,950
46.795,921
46.820,873
46.845,809
46.870,726
46.895,621
46.920,505
46.945,391
46.970,284
46.995,177
47.020,59
47.045,-60
47.070,-166
47.095,-252
47.120,-345
47.145,-477
47.170,-636
47.195,-743
47.220,-694
47.245,-450
47.270,-82
47.295,265
47.320,483
47.345,571
47.370,608
47.395,664
47.420,737
47.445,782
47.470,773
47.495,742
47.520,739
47.545,774
47.570,813
47.595,820
47.620,795
47.645,764
47.670,735
47.695,688
47.720,603
47.745,492
47.770,384
47.795,292
47.820,197
47.845,84
47.870,-30
47.895,-115
47.920,-175
47.945,-260
47.970,-403
47.995,-550
48.020,-573
48.045,-387
48.070,-32
48.095,334
48.120,573
48.145,658
48.170,671
48.195,692
48.220,732
48.245,749
48.270,721
48.295,679
48.320,668
48.345,696
48.370,733
48.395,746
48.420,728
48.445,691
48.470,637
48.495,563
48.520,471
48.545,375
48.570,280
48.595,176
48.620,55
48.645,-70
48.670,-178
48.695,-271
48.720,-383
48.745,-531
48.770,-657
48.795,-653
48.820,-448
48.845,-91
48.870,271
48.895,513
48.920,617
48.945,658
48.970,713
48.995,786
49.020,832
49.045,824
49.070,787
49.095,766
49.120,779
49.145,807
49.170,824
49.195,818
49.220,789
49.245,737
49.270,663
49.295,573
49.320,475
49.345,372
49.370,254
49.395,124
49.420,2
49.445,-96
49.470,-189
49.495,-311
49.520,-462
49.545,-569
49.570,-523
49.595,-282
49.620,77
49.645,412
49.670,617
49.695,704
49.720,755
49.745,829
49.770,915
49.795,964
49.820,955
49.845,916
49.870,887
49.895,880
49.920,882
49.945,875
49.970,856
49.995,819
50.020,752
50.045,645
50.070,508
50.095,365
50.120,225
50.145,75
50.170,-93
50.195,-267
50.220,-421
50.245,-551
50.270,-698
50.295,-893
50.320,-1102
50.345,-1223
50.370,-1161
50.395,-916
50.420,-600
50.445,-350
50.470,-228
50.495,-201
50.520,-194
50.545,-164
50.570,-114
50.595,-56
50.620,29
50.645,181
50.670,409
50.695,680
50.720,937
50.745,1141
50.770,1284
50.795,1373
50.820,1406
50.845,1382
50.870,1312
50.895,1221
50.920,1131
50.945,1040
50.970,933
50.995,810
51.020,690
51.045,594
51.070,509
51.095,392
51.120,223
51.145,51
51.170,-20
51.195,85
51.220,346
51.245,647
51.270,861
51.295,944
51.320,943
51.345,933
51.370,943
51.395,944
51.420,899
51.445,817
51.470,737
51.495,691
51.520,668
51.545,635
51.570,574
51.595,494
51.620,412
51.645,328
51.670,230
51.695,118
51.720,7
51.745,-87
51.770,-171
51.795,-259
51.820,-353
51.845,-434
51.870,-495
51.895,-558
51.920,-658
51.945,-786
51.970,-869
51.995,-806
52.020,-564
52.045,-216
52.070,104
52.095,307
52.120,401
52.145,462
52.170,542
52.195,631
52.220,685
52.245,686
52.270,670
52.295,680
52.320,724
52.345,768
52.370,777
52.395,749
52.420,702
52.445,648
52.470,582
52.495,493
52.520,389
52.545,285
52.570,186
52.595,82
52.620,-32
52.645,-140
52.670,-221
52.695,-285
52.720,-365
52.745,-481
52.770,-592
52.795,-607
52.820,-458
52.845,-157
52.870,195
52.895,487
52.920,665
52.945,760
52.970,832
52.995,918
53.020,1003
53.045,1054
53.070,1058
53.095,1034
53.120,1013
53.145,1011
53.170,1013
53.195,998
53.220,954
53.245,885
53.270,798
53.295,694
53.320,570
53.345,433
53.370,299
53.395,182
53.420,76
53.445,-33
53.470,-151
53.495,-261
53.520,-349
53.545,-429
53.570,-539
53.595,-693
53.620,-834
53.645,-861
53.670,-701
53.695,-384
53.720,-23
53.745,264
53.770,442
53.795,555
53.820,664
53.845,788
53.870,897
53.895,958
53.920,971
53.945,968
53.970,980
53.995,1013
54.020,1050
54.045,1067
54.070,1050
54.095,1005
54.120,941
54.145,870
54.170,791
54.195,699
54.220,592
54.245,479
54.270,374
54.295,278
54.320,180
54.345,67
54.370,-53
54.395,-166
54.420,-273
54.445,-403
54.470,-577
54.495,-760
54.520,-852
54.545,-764
54.570,-491
54.595,-136
54.620,168
54.645,356
54.670,455
54.695,534
54.720,627
54.745,710
54.770,746
54.795,730
54.820,698
54.845,688
54.870,705
54.895,726
54.920,731
54.945,719
54.970,699
54.995,675
55.020,634
55.045,568
55.070,482
55.095,396
55.120,324
55.145,258
55.170,180
55.195,84
55.220,-16
55.245,-102
55.270,-177
55.295,-271
55.320,-405
55.345,-543
55.370,-593
55.395,-470
55.420,-176
55.445,180
55.470,464
55.495,608
55.520,651
55.545,677
55.570,733
55.595,793
55.620,810
55.645,781
55.670,749
55.695,759
55.720,804
55.745,841
55.770,837
55.795,797
55.820,746
55.845,691
55.870,618
55.895,516
55.920,402
55.945,302
55.970,221
55.995,137
56.020,31
56.045,-86
56.070,-186
56.095,-263
56.120,-347
56.145,-475
56.170,-626
56.195,-713
56.220,-640
56.245,-386
56.270,-32
56.295,291
56.320,500
56.345,597
56.370,651
56.395,717
56.420,797
56.445,854
56.470,864
56.495,846
56.520,837
56.545,857
56.570,888
56.595,898
56.620,874
56.645,829
56.670,775
56.695,711
56.720,623
56.745,507
56.770,382
56.795,268
56.820,168
56.845,66
56.870,-44
56.895,-152
56.920,-238
56.945,-316
56.970,-423
56.995,-575
57.020,-723
57.045,-763
57.070,-615
57.095,-296
57.120,76
57.145,373
57.170,539
57.195,614
57.220,676
57.245,760
57.270,845
57.295,890
57.320,888
57.345,872
57.370,873
57.395,895
57.420,917
57.445,917
57.470,892
57.495,851
57.520,796
57.545,721
57.570,622
57.595,510
57.620,397
57.645,287
57.670,169
57.695,40
57.720,-85
57.745,-188
57.770,-269
57.795,-362
57.820,-498
57.845,-657
57.870,-755
57.895,-689
57.920,-429
57.945,-57
57.970,287
57.995,503
58.020,595
58.045,642
58.070,709
58.095,793
58.120,842
58.145,831
58.170,791
58.195,776
58.220,803
58.245,839
58.270,844
58.295,813
58.320,773
58.345,739
58.370,694
58.395,610
58.420,493
58.445,374
58.470,276
58.495,187
58.520,85
58.545,-27
58.570,-126
58.595,-201
58.620,-287
58.645,-414
58.670,-545
58.695,-573
58.720,-406
58.745,-68
58.770,304
58.795,565
58.820,669
58.845,686
58.870,703
58.895,744
58.920,767
58.945,741
58.970,688
58.995,658
59.020,670
59.045,701
59.070,712
59.095,693
59.120,654
59.145,603
59.170,534
59.195,447
59.220,353
59.245,261
59.270,161
59.295,43
59.320,-81
59.345,-184
59.370,-259
59.395,-340
59.420,-465
59.445,-602
59.470,-646
59.495,-497
59.520,-164
59.545,221
59.570,512
59.595,652
59.620,700
59.645,740
59.670,797
59.695,836
59.720,825
59.745,785
59.770,763
59.795,776
59.820,805
59.845,815
59.870,801
59.895,769
59.920,722
59.945,648
59.970,544
59.995,429
60.020,318
60.045,207
60.070,80
60.095,-59
60.120,-185
60.145,-286
60.170,-389
60.195,-533
60.220,-700
60.245,-788
60.270,-687
60.295,-380
60.320,19
60.345,356
60.370,551
60.395,640
60.420,707
60.445,792
60.470,870
60.495,900
60.520,881
60.545,853
60.570,847
60.595,857
60.620,861
60.645,850
60.670,827
60.695,790
60.720,727
60.745,631
60.770,516
60.795,403
60.820,298
60.845,180
60.870,42
60.895,-97
60.920,-211
60.945,-305
60.970,-421
60.995,-579
61.020,-722
61.045,-734
61.070,-537
61.095,-175
61.120,205
61.145,474
61.170,606
61.195,671
61.220,747
61.245,838
61.270,898
61.295,899
61.320,865
61.345,844
61.370,855
61.395,875
61.420,878
61.445,856
61.470,818
61.495,763
61.520,682
61.545,575
61.570,463
61.595,359
61.620,254
61.645,130
61.670,-9
61.695,-132
61.720,-220
61.745,-302
61.770,-429
61.795,-598
61.820,-713
61.845,-652
61.870,-381
61.895,-1
61.920,330
61.945,518
61.970,590
61.995,630
62.020,686
62.045,738
62.070,751
62.095,725
62.120,701
62.145,708
62.170,739
62.195,766
62.220,768
62.245,747
62.270,706
62.295,643
62.320,560
62.345,467
62.370,372
62.395,271
62.420,157
62.445,39
62.470,-61
62.495,-141
62.520,-233
62.545,-364
62.570,-499
62.595,-539
62.620,-399
62.645,-92
62.670,258
62.695,516
62.720,631
62.745,654
62.770,667
62.795,699
62.820,725
62.845,716
62.870,684
62.895,663
62.920,674
62.945,699
62.970,710
62.995,688
63.020,641
63.045,581
63.070,516
63.095,443
63.120,354
63.145,243
63.170,115
63.195,-9
63.220,-109
63.245,-188
63.270,-281
63.295,-412
63.320,-547
63.345,-592
63.370,-464
63.395,-170
63.420,174
63.445,440
63.470,573
63.495,621
63.520,662
63.545,723
63.570,773
63.595,777
63.620,747
63.645,723
63.670,730
63.695,757
63.720,773
63.745,763
63.770,730
63.795,679
63.820,607
63.845,514
63.870,413
63.895,311
63.920,207
63.945,94
63.970,-23
63.995,-129
64.020,-223
64.045,-332
64.070,-478
64.095,-622
64.120,-668
64.145,-530
64.170,-226
64.195,127
64.220,395
64.245,533
64.270,595
64.295,662
64.320,757
64.345,841
64.370,871
64.395,855
64.420,839
64.445,847
64.470,868
64.495,871
64.520,851
64.545,821
64.570,788
64.595,734
64.620,645
64.645,526
64.670,406
64.695,301
64.720,200
64.745,86
64.770,-36
64.795,-141
64.820,-221
64.845,-306
64.870,-435
64.895,-595
64.920,-701
64.945,-654
64.970,-422
64.995,-80
65.020,240
65.045,452
65.070,555
65.095,613
65.120,681
65.145,762
65.170,823
65.195,840
65.220,826
65.245,817
65.270,832
65.295,860
65.320,874
65.345,857
65.370,815
65.395,761
65.420,701
65.445,626
65.470,530
65.495,423
65.520,322
65.545,231
65.570,139
65.595,36
65.620,-73
65.645,-169
65.670,-251
65.695,-343
65.720,-473
65.745,-616
65.770,-684
65.795,-587
65.820,-312
65.845,40
65.870,334
65.895,493
65.920,546
65.945,580
65.970,641
65.995,708
66.020,737
66.045,720
66.070,699
66.095,713
66.120,756
66.145,790
66.170,792
66.195,768
66.220,737
66.245,694
66.270,623
66.295,520
66.320,412
66.345,325
66.370,253
66.395,167
66.420,59
66.445,-47
66.470,-124
66.495,-188
66.520,-283
66.545,-421
66.570,-533
66.595,-506
66.620,-288
66.645,54
66.670,378
66.695,575
66.720,649
66.745,675
66.770,715
66.795,764
66.820,784
66.845,763
66.870,735
66.895,737
66.920,770
66.945,801
66.970,803
66.995,778
67.020,739
67.045,686
67.070,609
67.095,505
67.120,393
67.145,291
67.170,198
67.195,92
67.220,-32
67.245,-154
67.270,-250
67.295,-333
67.320,-443
67.345,-590
67.370,-712
67.395,-701
67.420,-494
67.445,-142
67.470,215
67.495,463
67.520,582
67.545,640
67.570,709
67.595,797
67.620,861
67.645,866
67.670,833
67.695,807
67.720,815
67.745,842
67.770,856
67.795,844
67.820,814
67.845,772
67.870,707
67.895,611
67.920,492
67.945,375
67.970,272
67.995,171
68.020,53
68.045,-76
68.070,-190
68.095,-275
68.120,-360
68.145,-487
68.170,-648
68.195,-761
68.220,-716
68.245,-468
68.270,-92
68.295,270
68.320,513
68.345,629
68.370,688
68.395,755
68.420,834
68.445,887
68.470,888
68.495,860
68.520,846
68.545,867
68.570,902
68.595,918
68.620,900
68.645,860
68.670,808
68.695,740
68.720,646
68.745,530
68.770,410
68.795,296
68.820,183
68.845,58
68.870,-69
68.895,-178
68.920,-262
68.945,-352
68.970,-483
68.995,-638
69.020,-727
69.045,-643
69.070,-362
69.095,17
69.120,347
69.145,535
69.170,604
69.195,636
69.220,685
69.245,738
69.270,755
69.295,732
69.320,706
69.345,712
69.370,745
69.395,772
69.420,773
69.445,756
69.470,731
69.495,693
69.520,627
69.545,536
69.570,435
69.595,340
69.620,243
69.645,135
69.670,28
69.695,-57
69.720,-127
69.745,-220
69.770,-354
69.795,-480
69.820,-490
69.845,-308
69.870,26
69.895,378
69.920,616
69.945,710
69.970,726
69.995,737
70.020,760
70.045,765
70.070,733
70.095,687
70.120,665
70.145,681
70.170,711
70.195,725
70.220,707
70.245,658
70.270,586
70.295,499
70.320,406
70.345,309
70.370,204
70.395,84
70.420,-44
70.445,-159
70.470,-251
70.495,-344
70.520,-473
70.545,-625
70.570,-715
70.595,-639
70.620,-369
70.645,3
70.670,333
70.695,529
70.720,611
70.745,659
70.770,721
70.795,780
70.820,798
70.845,769
70.870,731
70.895,721
70.920,741
70.945,769
70.970,781
70.995,769
71.020,732
71.045,667
71.070,582
71.095,487
71.120,391
71.145,288
71.170,165
71.195,33
71.220,-84
71.245,-181
71.270,-285
71.295,-432
71.320,-599
71.345,-687
71.370,-592
71.395,-298
71.420,83
71.445,403
71.470,579
71.495,645
71.520,687
71.545,751
71.570,817
71.595,842
71.620,822
71.645,790
71.670,774
71.695,774
71.720,773
71.745,757
71.770,729
71.795,691
71.820,637
71.845,564
71.870,478
71.895,387
71.920,284
71.945,158
71.970,19
71.995,-99
72.020,-176
72.045,-237
72.070,-336
72.095,-485
72.120,-613
72.145,-599
72.170,-385
72.195,-34
72.220,308
72.245,530
72.270,631
72.295,686
72.320,757
72.345,836
72.370,876
72.395,859
72.420,821
72.445,808
72.470,830
72.495,858
72.520,865
72.545,851
72.570,825
72.595,784
72.620,711
72.645,601
72.670,476
72.695,357
72.720,246
72.745,124
72.770,-11
72.795,-136
72.820,-230
72.845,-312
72.870,-425
72.895,-573
72.920,-678
72.945,-630
72.970,-388
72.995,-37
73.020,276
73.045,457
73.070,522
73.095,553
73.120,601
73.145,650
73.170,662
73.195,636
73.220,613
73.245,628
73.270,670
73.295,703
73.320,704
73.345,681
73.370,648
73.395,603
73.420,537
73.445,453
73.470,364
73.495,276
73.520,181
73.545,75
73.570,-25
73.595,-104
73.620,-175
73.645,-275
73.670,-408
73.695,-502
73.720,-454
73.745,-219
73.770,128
73.795,443
73.820,625
73.845,684
73.870,705
73.895,747
73.920,799
73.945,815
73.970,788
73.995,755
74.020,757
74.045,790
74.070,817
74.095,811
74.120,774
74.145,720
74.170,653
74.195,566
74.220,461
74.245,354
74.270,251
74.295,143
74.320,21
74.345,-103
74.370,-208
74.395,-294
74.420,-398
74.445,-544
74.470,-691
74.495,-735
74.520,-591
74.545,-277
74.570,82
74.595,354
74.620,496
74.645,565
74.670,639
74.695,737
74.720,816
74.745,841
74.770,825
74.795,813
74.820,829
74.845,856
74.870,861
74.895,835
74.920,795
74.945,754
74.970,699
74.995,614
75.020,504
75.045,394
75.070,298
75.095,203
75.120,91
75.145,-34
75.170,-151
75.195,-250
75.220,-358
75.245,-505
75.270,-671
75.295,-765
75.320,-691
75.345,-431
75.370,-71
75.395,252
75.420,458
75.445,562
75.470,635
75.495,726
75.520,825
75.545,887
75.570,894
75.595,869
75.620,854
75.645,869
75.670,896
75.695,906
75.720,886
75.745,845
75.770,791
75.795,723
75.820,635
75.845,528
75.870,419
75.895,322
75.920,232
75.945,130
75.970,13
75.995,-101
76.020,-193
76.045,-269
76.070,-368
76.095,-513
76.120,-663
76.145,-720
76.170,-598
76.195,-304
76.220,54
76.245,344
76.270,505
76.295,573
76.320,628
76.345,706
76.370,782
76.395,816
76.420,802
76.445,781
76.470,790
76.495,826
76.520,854
76.545,848
76.570,814
76.595,772
76.620,728
76.645,668
76.670,582
76.695,481
76.720,386
76.745,304
76.770,218
76.795,113
76.820,0
76.845,-90
76.870,-150
76.895,-213
76.920,-323
76.945,-470
76.970,-575
76.995,-533
77.020,-303
77.045,38
77.070,356
77.095,547
77.120,612
77.145,626
77.170,659
77.195,714
77.220,750
77.245,742
77.270,712
77.295,705
77.320,736
77.345,779
77.370,793
77.395,765
77.420,713
77.445,659
77.470,601
77.495,527
77.520,435
77.545,337
77.570,244
77.595,151
77.620,47
77.645,-62
77.670,-161
77.695,-245
77.720,-339
77.745,-473
77.770,-630
77.795,-728
77.820,-670
77.845,-426
77.870,-72
77.895,257
77.920,468
77.945,565
77.970,615
77.995,676
78.020,748
78.045,792
78.070,790
78.095,765
78.120,759
78.145,787
78.170,825
78.195,842
78.220,829
78.245,799
78.270,763
78.295,712
78.320,634
78.345,534
78.370,429
78.395,332
78.420,233
78.445,118
78.470,-8
78.495,-121
78.520,-210
78.545,-299
78.570,-427
78.595,-592
78.620,-718
78.645,-700
78.670,-488
78.695,-139
78.720,217
78.745,471
78.770,602
78.795,670
78.820,737
78.845,820
78.870,886
78.895,907
78.920,890
78.945,873
78.970,883
78.995,911
79.020,929
79.045,917
79.070,876
79.095,819
79.120,750
79.145,664
79.170,558
79.195,443
79.220,332
79.245,224
79.270,109
79.295,-15
79.320,-135
79.345,-232
79.370,-314
79.395,-419
79.420,-569
79.445,-719
79.470,-764
79.495,-614
79.520,-283
79.545,104
79.570,407
79.595,565
79.620,627
79.645,678
79.670,751
79.695,812
79.720,821
79.745,788
79.770,762
79.795,776
79.820,813
79.845,833
79.870,820
79.895,786
79.920,746
79.945,689
79.970,605
79.995,500
80.020,399
80.045,311
80.070,220
80.095,110
80.120,-1
80.145,-86
80.170,-148
80.195,-235
80.220,-376
80.245,-519
80.270,-545
80.295,-368
80.320,-28
80.345,330
80.370,575
80.395,679
80.420,709
80.445,735
80.470,764
80.495,764
80.520,724
80.545,676
80.570,657
80.595,672
80.620,694
80.645,698
80.670,677
80.695,633
80.720,564
80.745,469
80.770,361
80.795,256
80.820,151
80.845,32
80.870,-103
80.895,-232
80.920,-335
80.945,-433
80.970,-572
80.995,-749
81.020,-875
81.045,-821
81.070,-538
81.095,-113
81.120,287
81.145,552
81.170,691
81.195,785
81.220,888
81.245,981
81.270,1022
81.295,1003
81.320,961
81.345,934
81.370,923
81.395,906
81.420,872
81.445,827
81.470,780
81.495,721
81.520,641
81.545,537
81.570,423
81.595,305
81.620,184
81.645,58
81.670,-69
81.695,-203
81.720,-355
81.745,-525
81.770,-671
81.795,-709
81.820,-576
81.845,-284
81.870,68
81.895,365
81.920,551
81.945,647
81.970,711
81.995,774
82.020,824
82.045,835
82.070,807
82.095,765
82.120,744
82.145,754
82.170,779
82.195,788
82.220,765
82.245,713
82.270,649
82.295,582
82.320,500
82.345,386
82.370,249
82.395,118
82.420,14
82.445,-77
82.470,-200
82.495,-361
82.520,-498
82.545,-509
82.570,-342
82.595,-48
82.620,246
82.645,441
82.670,520
82.695,545
82.720,573
82.745,612
82.770,635
82.795,623
82.820,594
82.845,578
82.870,586
82.895,604
82.920,607
82.945,585
82.970,543
82.995,488
83.020,420
83.045,334
83.070,231
83.095,125
83.120,33
83.145,-41
83.170,-122
83.195,-236
83.220,-377
83.245,-485
83.270,-472
83.295,-296
83.320,-1
83.345,299
83.370,510
83.395,610
83.420,652
83.445,693
83.470,741
83.495,768
83.520,754
83.545,719
83.570,700
83.595,713
83.620,740
83.645,749
83.670,724
83.695,672
83.720,603
83.745,525
83.770,438
83.795,339
83.820,227
83.845,105
83.870,-13
83.895,-115
83.920,-204
83.945,-305
83.970,-434
83.995,-561
84.020,-605
84.045,-490
84.070,-221
84.095,106
84.120,374
84.145,529
84.170,606
84.195,673
84.220,757
84.245,829
84.270,856
84.295,840
84.320,814
84.345,805
84.370,808
84.395,804
84.420,783
84.445,749
84.470,702
84.495,636
84.520,548
84.545,449
84.570,351
84.595,254
84.620,149
84.645,36
84.670,-69
84.695,-159
84.720,-250
84.745,-369
84.770,-504
84.795,-582
84.820,-518
84.845,-288
84.870,27
84.895,306
84.920,473
84.945,547
84.970,599
84.995,673
85.020,750
85.045,786
85.070,767
85.095,724
85.120,701
85.145,711
85.170,733
85.195,741
85.220,729
85.245,697
85.270,649
85.295,578
85.320,490
85.345,398
85.370,313
85.395,230
85.420,137
85.445,41
85.470,-37
85.495,-90
85.520,-140
85.545,-224
85.570,-338
85.595,-411
85.620,-355
85.645,-140
85.670,157
85.695,415
85.720,557
85.745,602
85.770,621
85.795,662
85.820,713
85.845,736
85.870,715
85.895,675
85.920,646
85.945,640
85.970,644
85.995,644
86.020,631
86.045,604
86.070,556
86.095,486
86.120,402
86.145,314
86.170,222
86.195,122
86.220,17
86.245,-77
86.270,-160
86.295,-247
86.320,-359
86.345,-474
86.370,-518
86.395,-415
86.420,-156
86.445,169
86.470,442
86.495,591
86.520,641
86.545,663
86.570,700
86.595,738
86.620,739
86.645,695
86.670,642
86.695,623
86.720,645
86.745,677
86.770,677
86.795,629
86.820,550
86.845,466
86.870,384
86.895,295
86.920,188
86.945,75
86.970,-22
86.995,-97
87.020,-169
87.045,-269
87.070,-389
87.095,-465
87.120,-412
87.145,-199
87.170,114
87.195,409
87.220,595
87.245,666
87.270,685
87.295,716
87.320,767
87.345,802
87.370,789
87.395,740
87.420,698
87.445,694
87.470,717
87.495,727
87.520,697
87.545,630
87.570,550
87.595,471
87.620,386
87.645,279
87.670,152
87.695,31
87.720,-65
87.745,-152
87.770,-265
87.795,-412
87.820,-535
87.845,-538
87.870,-365
87.895,-60
87.920,257
87.945,484
87.970,597
87.995,653
88.020,709
88.045,773
88.070,812
88.095,804
88.120,767
88.145,738
88.170,736
88.195,749
88.220,752
88.245,734
88.270,693
88.295,632
88.320,552
88.345,459
88.370,356
88.395,245
88.420,124
88.445,0
88.470,-111
88.495,-205
88.520,-301
88.545,-430
88.570,-583
88.595,-683
88.620,-629
88.645,-384
88.670,-19
88.695,329
88.720,562
88.745,677
88.770,742
88.795,813
88.820,889
88.845,936
88.870,940
88.895,919
88.920,903
88.945,901
88.970,906
88.995,906
89.020,894
89.045,859
89.070,790
89.095,685
89.120,561
89.145,439
89.170,317
89.195,179
89.220,26
89.245,-119
89.270,-237
89.295,-343
89.320,-480
89.345,-657
89.370,-801
89.395,-796
89.420,-586
89.445,-234
89.470,114
89.495,343
89.520,443
89.545,486
89.570,536
89.595,598
89.620,637
89.645,632
89.670,600
89.695,574
89.720,569
89.745,578
89.770,588
89.795,592
89.820,578
89.845,537
89.870,468
89.895,390
89.920,318
89.945,249
89.970,160
89.995,47
90.020,-65
90.045,-153
90.070,-227
90.095,-333
90.120,-484
90.145,-607
90.170,-582
90.195,-343
90.220,50
90.245,447
90.270,724
90.295,868
90.320,947
90.345,1022
90.370,1090
90.395,1115
90.420,1089
90.445,1042
90.470,1014
90.495,1008
90.520,1003
90.545,980
90.570,934
90.595,870
90.620,783
90.645,674
90.670,553
90.695,433
90.720,314
90.745,181
90.770,33
90.795,-106
90.820,-215
90.845,-307
90.870,-423
90.895,-572
90.920,-689
90.945,-668
90.970,-454
90.995,-107
91.020,238
91.045,472
91.070,578
91.095,615
91.120,640
91.145,665
91.170,669
91.195,642
91.220,605
91.245,588
91.270,603
91.295,636
91.320,660
91.345,654
91.370,613
91.395,548
91.420,474
91.445,398
91.470,312
91.495,207
91.520,89
91.545,-19
91.570,-108
91.595,-195
91.620,-312
91.645,-451
91.670,-540
91.695,-482
91.720,-236
91.745,124
91.770,460
91.795,666
91.820,737
91.845,746
91.870,758
91.895,778
91.920,768
91.945,715
91.970,652
91.995,630
92.020,659
92.045,705
92.070,716
92.095,673
92.120,599
92.145,520
92.170,443
92.195,351
92.220,235
92.245,108
92.270,-5
92.295,-106
92.320,-219
92.345,-367
92.370,-523
92.395,-606
92.420,-529
92.445,-270
92.470,94
92.495,435
92.520,657
92.545,751
92.570,777
92.595,798
92.620,825
92.645,828
92.670,783
92.695,713
92.720,663
92.745,661
92.770,686
92.795,690
92.820,648
92.845,575
92.870,500
92.895,430
92.920,342
92.945,216
92.970,67
92.995,-65
93.020,-165
93.045,-265
93.070,-406
93.095,-581
93.120,-700
93.145,-660
93.170,-425
93.195,-70
93.220,272
93.245,509
93.270,634
93.295,700
93.320,754
93.345,800
93.370,817
93.395,797
93.420,759
93.445,732
93.470,730
93.495,746
93.520,755
93.545,739
93.570,693
93.595,626
93.620,549
93.645,460
93.670,352
93.695,220
93.720,82
93.745,-37
93.770,-138
93.795,-248
93.820,-399
93.845,-560
93.870,-639
93.895,-540
93.920,-256
93.945,110
93.970,421
93.995,606
94.020,690
94.045,746
94.070,809
94.095,858
94.120,862
94.145,825
94.170,783
94.195,766
94.220,773
94.245,783
94.270,776
94.295,745
94.320,688
94.345,609
94.370,516
94.395,416
94.420,311
94.445,191
94.470,58
94.495,-67
94.520,-167
94.545,-254
94.570,-367
94.595,-518
94.620,-645
94.645,-642
94.670,-443
94.695,-100
94.720,249
94.745,490
94.770,601
94.795,644
94.820,682
94.845,723
94.870,741
94.895,725
94.920,700
94.945,693
94.970,709
94.995,727
95.020,727
95.045,704
95.070,660
95.095,599
95.120,526
95.145,448
95.170,364
95.195,267
95.220,156
95.245,45
95.270,-47
95.295,-127
95.320,-224
95.345,-355
95.370,-476
95.395,-492
95.420,-332
95.445,-27
95.470,304
95.495,542
95.520,650
95.545,679
95.570,696
95.595,719
95.620,726
95.645,704
95.670,672
95.695,662
95.720,681
95.745,704
95.770,706
95.795,677
95.820,625
95.845,559
95.870,485
95.895,405
95.920,318
95.945,220
95.970,109
95.995,-3
96.020,-104
96.045,-190
96.070,-287
96.095,-411
96.120,-529
96.145,-554
96.170,-411
96.195,-114
96.220,228
96.245,488
96.270,617
96.295,659
96.320,690
96.345,736
96.370,771
96.395,763
96.420,725
96.445,697
96.470,702
96.495,727
96.520,739
96.545,722
96.570,679
96.595,617
96.620,540
96.645,456
96.670,371
96.695,286
96.720,189
96.745,77
96.770,-37
96.795,-134
96.820,-214
96.845,-308
96.870,-434
96.895,-552
96.920,-565
96.945,-401
96.970,-87
96.995,254
97.020,499
97.045,613
97.070,658
97.095,707
97.120,775
97.145,824
97.170,821
97.195,785
97.220,759
97.245,765
97.270,783
97.295,785
97.320,762
97.345,728
97.370,685
97.395,623
97.420,532
97.445,424
97.470,322
97.495,233
97.520,140
97.545,30
97.570,-85
97.595,-183
97.620,-261
97.645,-350
97.670,-477
97.695,-610
97.720,-660
97.745,-545
97.770,-267
97.795,76
97.820,361
97.845,529
97.870,606
97.895,663
97.920,737
97.945,809
97.970,840
97.995,824
98.020,793
98.045,784
98.070,806
98.095,833
98.120,837
98.145,812
98.170,769
98.195,716
98.220,648
98.245,560
98.270,456
98.295,353
98.320,256
98.345,158
98.370,53
98.395,-51
98.420,-137
98.445,-209
98.470,-296
98.495,-427
98.520,-579
98.545,-670
98.570,-607
98.595,-367
98.620,-25
98.645,292
98.670,498
98.695,593
98.720,640
98.745,695
98.770,762
98.795,809
98.820,813
98.845,791
98.870,776
98.895,787
98.920,813
98.945,828
98.970,818
98.995,785
99.020,736
99.045,672
99.070,590
99.095,496
99.120,402
99.145,313
99.170,221
99.195,117
99.220,6
99.245,-90
99.270,-166
99.295,-240
99.320,-347
99.345,-484
99.370,-587
99.395,-560
99.420,-355
99.445,-26
99.470,302
99.495,524
99.520,620
99.545,648
99.570,675
99.595,713
99.620,733
99.645,714
99.670,680
99.695,671
99.720,700
99.745,742
99.770,760
99.795,743
99.820,705
99.845,657
99.870,596
99.895,513
99.920,417
99.945,322
99.970,233
99.995,137
100.020,26
100.045,-84
100.070,-170
100.095,-235
100.120,-320
100.145,-449
100.170,-581
100.195,-610
100.220,-448
100.245,-113
100.270,266
100.295,551
100.320,688
100.345,729
100.370,758
100.395,807
100.420,846
100.445,838
100.470,795
100.495,763
100.520,773
100.545,810
100.570,835
100.595,823
100.620,783
100.645,729
100.670,664
100.695,577
100.720,471
100.745,360
100.770,252
100.795,140
100.820,14
100.845,-113
100.870,-218
100.895,-296
100.920,-382
100.945,-517
100.970,-680
100.995,-777
101.020,-698
101.045,-418
101.070,-27
101.095,326
101.120,549
101.145,653
101.170,711
101.195,774
101.220,836
101.245,861
101.270,842
101.295,810
101.320,800
101.345,818
101.370,841
101.395,848
101.420,837
101.445,812
101.470,768
101.495,693
101.520,588
101.545,473
101.570,368
101.595,270
101.620,159
101.645,26
101.670,-105
101.695,-211
101.720,-297
101.745,-407
101.770,-563
101.795,-716
101.820,-755
101.845,-590
101.870,-244
101.895,153
101.920,461
101.945,625
101.970,693
101.995,746
102.020,812
102.045,861
102.070,862
102.095,826
102.120,797
102.145,802
102.170,828
102.195,847
102.220,842
102.245,820
102.270,782
102.295,718
102.320,623
102.345,511
102.370,404
102.395,305
102.420,195
102.445,62
102.470,-72
102.495,-178
102.520,-254
102.545,-344
102.570,-479
102.595,-614
102.620,-643
102.645,-480
102.670,-152
102.695,217
102.720,495
102.745,635
102.770,683
102.795,705
102.820,731
102.845,744
102.870,727
102.895,691
102.920,665
102.945,667
102.970,692
102.995,716
103.020,717
103.045,684
103.070,624
103.095,551
103.120,478
103.145,401
103.170,306
103.195,187
103.220,61
103.245,-45
103.270,-132
103.295,-231
103.320,-363
103.345,-493
103.370,-527
103.395,-385
103.420,-78
103.445,281
103.470,560
103.495,696
103.520,727
103.545,728
103.570,744
103.595,759
103.620,743
103.645,694
103.670,646
103.695,630
103.720,646
103.745,665
103.770,655
103.795,610
103.820,546
103.845,477
103.870,401
103.895,305
103.920,186
103.945,60
103.970,-47
103.995,-137
104.020,-239
104.045,-379
104.070,-535
104.095,-624
104.120,-555
104.145,-308
104.170,38
104.195,357
104.220,565
104.245,663
104.270,710
104.295,755
104.320,801
104.345,821
104.370,802
104.395,760
104.420,727
104.445,718
104.470,724
104.495,724
104.520,698
104.545,641
104.570,559
104.595,461
104.620,353
104.645,234
104.670,107
104.695,-13
104.720,-116
104.745,-207
104.770,-312
104.795,-452
104.820,-595
104.845,-655
104.870,-552
104.895,-283
104.920,58
104.945,348
104.970,523
104.995,611
105.020,680
105.045,764
105.070,840
105.095,872
105.120,859
105.145,835
105.170,829
105.195,841
105.220,850
105.245,840
105.270,810
105.295,760
105.320,689
105.345,598
105.370,496
105.395,397
105.420,298
105.445,188
105.470,70
105.495,-41
105.520,-135
105.545,-228
105.570,-350
105.595,-489
105.620,-575
105.645,-520
105.670,-297
105.695,15
105.720,294
105.745,457
105.770,520
105.795,555
105.820,608
105.845,669
105.870,699
105.895,689
105.920,670
105.945,680
105.970,720
105.995,757
106.020,765
106.045,744
106.070,710
106.095,668
106.120,611
106.145,531
106.170,441
106.195,358
106.220,282
106.245,198
106.270,97
106.295,-5
106.320,-86
106.345,-151
106.370,-236
106.395,-363
106.420,-494
106.445,-534
106.470,-407
106.495,-132
106.520,183
106.545,417
106.570,529
106.595,568
106.620,604
106.645,661
106.670,708
106.695,713
106.720,688
106.745,676
106.770,700
106.795,739
106.820,754
106.845,730
106.870,686
106.895,641
106.920,594
106.945,527
106.970,437
106.995,342
107.020,257
107.045,179
107.070,91
107.095,-4
107.120,-91
107.145,-157
107.170,-225
107.195,-328
107.220,-463
107.245,-555
107.270,-510
107.295,-292
107.320,26
107.345,317
107.370,492
107.395,561
107.420,596
107.445,654
107.470,728
107.495,773
107.520,767
107.545,739
107.570,734
107.595,764
107.620,802
107.645,811
107.670,783
107.695,734
107.720,683
107.745,625
107.770,550
107.795,458
107.820,367
107.845,286
107.870,205
107.895,111
107.920,6
107.945,-86
107.970,-154
107.995,-221
108.020,-324
108.045,-463
108.070,-577
108.095,-569
108.120,-392
108.145,-92
108.170,214
108.195,432
108.220,541
108.245,592
108.270,646
108.295,721
108.320,788
108.345,816
108.370,805
108.395,788
108.420,793
108.445,823
108.470,848
108.495,842
108.520,799
108.545,736
108.570,671
108.595,604
108.620,525
108.645,429
108.670,328
108.695,238
108.720,158
108.745,74
108.770,-25
108.795,-129
108.820,-218
108.845,-294
108.870,-389
108.895,-528
108.920,-672
108.945,-729
108.970,-616
108.995,-339
109.020,0
109.045,279
109.070,448
109.095,541
109.120,626
109.145,730
109.170,826
109.195,878
109.220,883
109.245,873
109.270,877
109.295,898
109.320,919
109.345,926
109.370,912
109.395,878
109.420,825
109.445,758
109.470,682
109.495,598
109.520,506
109.545,404
109.570,300
109.595,204
109.620,116
109.645,23
109.670,-81
109.695,-188
109.720,-282
109.745,-371
109.770,-485
109.795,-632
109.820,-759
109.845,-766
109.870,-591
109.895,-270
109.920,72
109.945,323
109.970,455
109.995,529
110.020,609
110.045,707
110.070,789
110.095,830
110.120,840
110.145,852
110.170,878
110.195,909
110.220,925
110.245,924
110.270,907
110.295,874
110.320,822
110.345,753
110.370,677
110.395,597
110.420,511
110.445,417
110.470,325
110.495,247
110.520,180
110.545,105
110.570,7
110.595,-99
110.620,-189
110.645,-263
110.670,-354
110.695,-488
110.720,-628
110.745,-674
110.770,-543
110.795,-244
110.820,107
110.845,383
110.870,524
110.895,573
110.920,604
110.945,656
110.970,710
110.995,733
111.020,720
111.045,705
111.070,719
111.095,761
111.120,803
111.145,816
111.170,795
111.195,753
111.220,703
111.245,646
111.270,574
111.295,487
111.320,393
111.345,302
111.370,213
111.395,119
111.420,20
111.445,-69
111.470,-140
111.495,-204
111.520,-294
111.545,-422
111.570,-543
111.595,-561
111.620,-403
111.645,-88
111.670,268
111.695,539
111.720,668
111.745,700
111.770,719
111.795,762
111.820,805
111.845,810
111.870,777
111.895,748
111.920,759
111.945,802
111.970,837
111.995,834
112.020,798
112.045,746
112.070,685
112.095,603
112.120,495
112.145,373
112.170,261
112.195,161
112.220,59
112.245,-54
112.270,-168
112.295,-262
112.320,-340
112.345,-435
112.370,-568
112.395,-702
112.420,-742
112.445,-608
112.470,-304
112.495,66
112.520,375
112.545,553
112.570,631
112.595,682
112.620,749
112.645,818
112.670,850
112.695,841
112.720,821
112.745,824
112.770,850
112.795,873
112.820,873
112.845,851
112.870,820
112.895,777
112.920,709
112.945,610
112.970,494
112.995,382
113.020,275
113.045,159
113.070,29
113.095,-95
113.120,-193
113.145,-272
113.170,-374
113.195,-523
113.220,-678
113.245,-738
113.270,-617
113.295,-322
113.320,38
113.345,337
113.370,511
113.395,591
113.420,649
113.445,726
113.470,804
113.495,848
113.520,846
113.545,828
113.570,826
113.595,846
113.620,867
113.645,869
113.670,848
113.695,815
113.720,768
113.745,698
113.770,602
113.795,491
113.820,385
113.845,285
113.870,178
113.895,59
113.920,-54
113.945,-146
113.970,-228
113.995,-337
114.020,-489
114.045,-626
114.070,-641
114.095,-464
114.120,-135
114.145,215
114.170,463
114.195,579
114.220,621
114.245,658
114.270,706
114.295,736
114.320,727
114.345,694
114.370,675
114.395,686
114.420,714
114.445,733
114.470,727
114.495,696
114.520,644
114.545,575
114.570,495
114.595,408
114.620,310
114.645,196
114.670,73
114.695,-37
114.720,-124
114.745,-207
114.770,-318
114.795,-452
114.820,-536
114.845,-474
114.870,-232
114.895,112
114.920,421
114.945,604
114.970,671
114.995,693
115.020,726
115.045,764
115.070,776
115.095,753
115.120,724
115.145,717
115.170,732
115.195,748
115.220,744
115.245,714
115.270,659
115.295,582
115.320,489
115.345,388
115.370,284
115.395,172
115.420,49
115.445,-71
115.470,-178
115.495,-278
115.520,-396
115.545,-541
115.570,-657
115.595,-649
115.620,-458
115.645,-133
115.670,197
115.695,421
115.720,528
115.745,587
115.770,665
115.795,760
115.820,824
115.845,829
115.870,800
115.895,780
115.920,785
115.945,797
115.970,797
115.995,779
116.020,746
116.045,692
116.070,609
116.095,502
116.120,393
116.145,291
116.170,188
116.195,71
116.220,-52
116.245,-162
116.270,-258
116.295,-369
116.320,-516
116.345,-662
116.370,-714
116.395,-593
116.420,-313
116.445,20
116.470,292
116.495,456
116.520,553
116.545,646
116.570,759
116.595,864
116.620,924
116.645,932
116.670,918
116.695,915
116.720,929
116.745,946
116.770,944
116.795,915
116.820,865
116.845,801
116.870,726
116.895,636
116.920,529
116.945,415
116.970,302
116.995,192
117.020,81
117.045,-33
117.070,-139
117.095,-229
117.120,-312
117.145,-419
117.170,-561
117.195,-696
117.220,-735
117.245,-606
117.270,-324
117.295,4
117.320,263
117.345,406
117.370,474
117.395,538
117.420,628
117.445,714
117.470,759
117.495,759
117.520,750
117.545,765
117.570,806
117.595,846
117.620,857
117.645,836
117.670,794
117.695,746
117.720,691
117.745,626
117.770,546
117.795,458
117.820,375
117.845,303
117.870,236
117.895,158
117.920,67
117.945,-23
117.970,-98
117.995,-166
118.020,-256
118.045,-382
118.070,-502
118.095,-531
118.120,-400
118.145,-129
118.170,179
118.195,415
118.220,538
118.245,589
118.270,635
118.295,696
118.320,747
118.345,758
118.370,734
118.395,709
118.420,712
118.445,738
118.470,761
118.495,759
118.520,727
118.545,674
118.570,612
118.595,549
118.620,483
118.645,411
118.670,332
118.695,247
118.720,164
118.745,84
118.770,0
118.795,-92
118.820,-186
118.845,-264
118.870,-326
118.895,-398
118.920,-501
118.945,-615
118.970,-659
118.995,-554
119.020,-295
119.045,30
119.070,306
119.095,471
119.120,557
119.145,628
119.170,718
119.195,804
119.220,852
119.245,857
119.270,849
119.295,852
119.320,868
119.345,882
119.370,885
119.395,876
119.420,852
119.445,805
119.470,738
119.495,664
119.520,595
119.545,528
119.570,450
119.595,360
119.620,271
119.645,199
119.670,136
119.695,62
119.720,-26
119.745,-112
119.770,-183
119.795,-254
119.820,-358
119.845,-486
119.870,-567
119.895,-508
119.920,-278
119.945,50
119.970,355
119.995,556
120.020,659
120.045,726
120.070,800
120.095,876
120.120,923
120.145,931
120.170,917
120.195,905
120.220,895
120.245,869
120.270,816
120.295,740
120.320,655
120.345,572
120.370,487
120.395,396
120.420,299
120.445,208
120.470,132
120.495,71
120.520,14
120.545,-46
120.570,-109
120.595,-160
120.620,-193
120.645,-227
120.670,-294
120.695,-404
120.720,-508
120.745,-520
120.770,-374
120.795,-89
120.820,230
120.845,470
120.870,588
120.895,624
120.920,652
120.945,700
120.970,745
120.995,751
121.020,723
121.045,701
121.070,719
121.095,766
121.120,805
121.145,806
121.170,775
121.195,731
121.220,684
121.245,621
121.270,534
121.295,431
121.320,329
121.345,238
121.370,145
121.395,42
121.420,-64
121.445,-154
121.470,-225
121.495,-304
121.520,-420
121.545,-558
121.570,-646
121.595,-594
121.620,-373
121.645,-44
121.670,274
121.695,492
121.720,600
121.745,654
121.770,712
121.795,784
121.820,836
121.845,843
121.870,819
121.895,806
121.920,828
121.945,871
121.970,900
121.995,894
122.020,860
122.045,814
122.070,759
122.095,682
122.120,579
122.145,464
122.170,357
122.195,260
122.220,157
122.245,38
122.270,-84
122.295,-188
122.320,-274
122.345,-374
122.370,-515
122.395,-666
122.420,-742
122.445,-657
122.470,-399
122.495,-50
122.520,268
122.545,481
122.570,592
122.595,660
122.620,730
122.645,804
122.670,854
122.695,863
122.720,844
122.745,829
122.770,839
122.795,865
122.820,885
122.845,878
122.870,845
122.895,792
122.920,724
122.945,640
122.970,541
122.995,436
123.020,336
123.045,241
123.070,141
123.095,30
123.120,-83
123.145,-180
123.170,-262
123.195,-352
123.220,-480
123.245,-625
123.270,-708
123.295,-640
123.320,-393
123.345,-42
123.370,282
123.395,490
123.420,584
123.445,631
123.470,688
123.495,755
123.520,794
123.545,786
123.570,758
123.595,754
123.620,786
123.645,826
123.670,841
123.695,822
123.720,785
123.745,743
123.770,687
123.795,607
123.820,506
123.845,404
123.870,315
123.895,226
123.920,125
123.945,16
123.970,-76
123.995,-144
124.020,-219
124.045,-334
124.070,-474
124.095,-555
124.120,-476
124.145,-218
124.170,127
124.195,420
124.220,578
124.245,623
124.270,636
124.295,667
124.320,703
124.345,706
124.370,673
124.395,642
124.420,647
124.445,687
124.470,725
124.495,732
124.520,708
124.545,667
124.570,613
124.595,542
124.620,455
124.645,362
124.670,272
124.695,179
124.720,77
124.745,-25
124.770,-108
124.795,-177
124.820,-262
124.845,-387
124.870,-516
124.895,-555
124.920,-421
124.945,-129
124.970,209
124.995,466
125.020,591
125.045,628
125.070,654
125.095,696
125.120,731
125.145,731
125.170,703
125.195,685
125.220,697
125.245,726
125.270,744
125.295,738
125.320,713
125.345,674
125.370,614
125.395,532
125.420,435
125.445,340
125.470,248
125.495,146
125.520,29
125.545,-86
125.570,-178
125.595,-252
125.620,-342
125.645,-471
125.670,-602
125.695,-643
125.720,-516
125.745,-230
125.770,111
125.795,387
125.820,541
125.845,611
125.870,665
125.895,740
125.920,813
125.945,847
125.970,836
125.995,816
126.020,820
126.045,851
126.070,880
126.095,884
126.120,859
126.145,818
126.170,767
126.195,699
126.220,610
126.245,510
126.270,414
126.295,326
126.320,231
126.345,124
126.370,17
126.395,-69
126.420,-141
126.445,-228
126.470,-357
126.495,-498
126.520,-566
126.545,-479
126.570,-232
126.595,88
126.620,363
126.645,522
126.670,581
126.695,605
126.720,641
126.745,686
126.770,709
126.795,694
126.820,662
126.845,644
126.870,657
126.895,685
126.920,704
126.945,699
126.970,671
126.995,629
127.020,574
127.045,502
127.070,419
127.095,333
127.120,252
127.145,170
127.170,78
127.195,-21
127.220,-116
127.245,-193
127.270,-267
127.295,-366
127.320,-495
127.345,-604
127.370,-608
127.395,-445
127.420,-144
127.445,187
127.470,437
127.495,565
127.520,614
127.545,656
127.570,718
127.595,774
127.620,791
127.645,773
127.670,759
127.695,778
127.720,819
127.745,846
127.770,837
127.795,799
127.820,752
127.845,700
127.870,633
127.895,548
127.920,455
127.945,365
127.970,276
127.995,176
128.020,69
128.045,-26
128.070,-105
128.095,-189
128.120,-310
128.145,-455
128.170,-548
128.195,-494
128.220,-267
128.245,55
128.270,345
128.295,517
128.320,581
128.345,605
128.370,640
128.395,681
128.420,700
128.445,691
128.470,685
128.495,711
128.520,764
128.545,810
128.570,823
128.595,801
128.620,756
128.645,694
128.670,612
128.695,511
128.720,404
128.745,302
128.770,197
128.795,80
128.820,-43
128.845,-150
128.870,-230
128.895,-306
128.920,-418
128.945,-568
128.970,-687
128.995,-673
129.020,-477
129.045,-151
129.070,183
129.095,425
129.120,556
129.145,631
129.170,707
129.195,791
129.220,852
129.245,866
129.270,847
129.295,831
129.320,836
129.345,853
129.370,856
129.395,835
129.420,799
129.445,756
129.470,702
129.495,625
129.520,528
129.545,424
129.570,326
129.595,227
129.620,114
129.645,-9
129.670,-124
129.695,-210
129.720,-283
129.745,-384
129.770,-529
129.795,-666
129.820,-699
129.845,-555
129.870,-258
129.895,84
129.920,356
129.945,510
129.970,584
129.995,643
130.020,719
130.045,791
130.070,825
130.095,819
130.120,803
130.145,809
130.170,835
130.195,859
130.220,858
130.245,831
130.270,789
130.295,739
130.320,671
130.345,582
130.370,481
130.395,384
130.420,296
130.445,204
130.470,99
130.495,-6
130.520,-94
130.545,-164
130.570,-249
130.595,-376
130.620,-516
130.645,-579
130.670,-478
130.695,-211
130.720,122
130.745,391
130.770,531
130.795,574
130.820,596
130.845,635
130.870,673
130.895,677
130.920,652
130.945,635
130.970,653
130.995,693
131.020,721
131.045,718
131.070,692
131.095,658
131.120,613
131.145,548
131.170,464
131.195,378
131.220,296
131.245,209
131.270,106
131.295,-1
131.320,-91
131.345,-160
131.370,-239
131.395,-353
131.420,-471
131.445,-501
131.470,-367
131.495,-82
131.520,240
131.545,479
131.570,593
131.595,631
131.620,668
131.645,725
131.670,769
131.695,770
131.720,738
131.745,716
131.770,728
131.795,760
131.820,779
131.845,767
131.870,732
131.895,684
131.920,622
131.945,541
131.970,444
131.995,346
132.020,251
132.045,153
132.070,44
132.095,-62
132.120,-150
132.145,-221
132.170,-309
132.195,-438
132.220,-581
132.245,-650
132.270,-564
132.295,-314
132.320,11
132.345,295
132.370,471
132.395,558
132.420,621
132.445,700
132.470,780
132.495,824
132.520,821
132.545,798
132.570,791
132.595,806
132.620,824
132.645,823
132.670,803
132.695,773
132.720,731
132.745,665
132.770,570
132.795,460
132.820,358
132.845,269
132.870,180
132.895,74
132.920,-38
132.945,-137
132.970,-216
132.995,-305
133.020,-432
133.045,-575
133.070,-653
133.095,-580
133.120,-339
133.145,-10
133.170,288
133.195,478
133.220,571
133.245,627
133.270,695
133.295,769
133.320,819
133.345,826
133.370,810
133.395,803
133.420,822
133.445,852
133.470,867
133.495,852
133.520,810
133.545,751
133.570,679
133.595,594
133.620,497
133.645,396
133.670,298
133.695,199
133.720,95
133.745,-9
133.770,-102
133.795,-180
133.820,-259
133.845,-369
133.870,-507
133.895,-616
133.920,-606
133.945,-424
133.970,-111
133.995,218
134.020,455
134.045,569
134.070,612
134.095,653
134.120,708
134.145,746
134.170,743
134.195,713
134.220,701
134.245,727
134.270,767
134.295,786
134.320,772
134.345,742
134.370,709
134.395,664
134.420,592
134.445,496
134.470,402
134.495,322
134.520,242
134.545,143
134.570,35
134.595,-52
134.620,-108
134.645,-170
134.670,-280
134.695,-422
134.720,-501
134.745,-415
134.770,-153
134.795,183
134.820,460
134.845,608
134.870,656
134.895,672
134.920,691
134.945,700
134.970,682
134.995,649
135.020,632
135.045,647
135.070,677
135.095,698
135.120,693
135.145,664
135.170,615
135.195,548
135.220,467
135.245,381
135.270,292
135.295,190
135.320,73
135.345,-44
135.370,-146
135.395,-235
135.420,-337
135.445,-465
135.470,-568
135.495,-554
135.520,-364
135.545,-39
135.570,295
135.595,527
135.620,634
135.645,676
135.670,717
135.695,766
135.720,792
135.745,776
135.770,740
135.795,722
135.820,733
135.845,753
135.870,758
135.895,740
135.920,704
135.945,650
135.970,574
135.995,480
136.020,377
136.045,273
136.070,162
136.095,39
136.120,-82
136.145,-187
136.170,-279
136.195,-385
136.220,-524
136.245,-652
136.270,-674
136.295,-518
136.320,-204
136.345,151
136.370,427
136.395,578
136.420,648
136.445,707
136.470,779
136.495,837
136.520,853
136.545,836
136.570,822
136.595,831
136.620,854
136.645,866
136.670,857
136.695,831
136.720,791
136.745,731
136.770,641
136.795,531
136.820,417
136.845,309
136.870,198
136.895,76
136.920,-46
136.945,-151
136.970,-237
136.995,-334
137.020,-470
137.045,-619
137.070,-695
137.095,-609
137.120,-346
137.145,3
137.170,311
137.195,498
137.220,581
137.245,631
137.270,695
137.295,761
137.320,793
137.345,783
137.370,760
137.395,759
137.420,783
137.445,805
137.470,805
137.495,785
137.520,757
137.545,715
137.570,649
137.595,554
137.620,451
137.645,359
137.670,277
137.695,182
137.720,68
137.745,-41
137.770,-123
137.795,-189
137.820,-280
137.845,-408
137.870,-513
137.895,-490
137.920,-287
137.945,35
137.970,344
137.995,534
138.020,603
138.045,623
138.070,655
138.095,696
138.120,709
138.145,683
138.170,650
138.195,647
138.220,680
138.245,716
138.270,723
138.295,695
138.320,647
138.345,586
138.370,514
138.395,431
138.420,342
138.445,252
138.470,157
138.495,52
138.520,-50
138.545,-139
138.570,-222
138.595,-324
138.620,-452
138.645,-554
138.670,-538
138.695,-351
138.720,-38
138.745,278
138.770,492
138.795,587
138.820,627
138.845,678
138.870,743
138.895,784
138.920,776
138.945,742
138.970,724
138.995,737
139.020,761
139.045,770
139.070,755
139.095,723
139.120,677
139.145,608
139.170,515
139.195,410
139.220,310
139.245,213
139.270,107
139.295,-7
139.320,-113
139.345,-197
139.370,-277
139.395,-388
139.420,-531
139.445,-639
139.470,-617
139.495,-416
139.520,-91
139.545,235
139.570,464
139.595,582
139.620,645
139.645,711
139.670,788
139.695,843
139.720,852
139.745,830
139.770,812
139.795,818
139.820,840
139.845,852
139.870,840
139.895,808
139.920,761
139.945,696
139.970,611
139.995,511
140.020,410
140.045,314
140.070,217
140.095,110
140.120,-4
140.145,-107
140.170,-189
140.195,-268
140.220,-377
140.245,-519
140.270,-636
140.295,-636
140.320,-463
140.345,-157
140.370,169
140.395,408
140.420,531
140.445,587
140.470,639
140.495,705
140.520,756
140.545,767
140.570,747
140.595,735
140.620,754
140.645,789
140.670,810
140.695,801
140.720,772
140.745,734
140.770,682
140.795,608
140.820,512
140.845,414
140.870,326
140.895,242
140.920,146
140.945,44
140.970,-44
140.995,-111
141.020,-183
141.045,-292
141.070,-424
141.095,-497
141.120,-419
141.145,-172
141.170,154
141.195,428
141.220,575
141.245,616
141.270,627
141.295,652
141.320,681
141.345,681
141.370,654
141.395,633
141.420,646
141.445,683
141.470,712
141.495,710
141.520,683
141.545,642
141.570,587
141.595,513
141.620,424
141.645,333
141.670,247
141.695,154
141.720,47
141.745,-60
141.770,-151
141.795,-224
141.820,-313
141.845,-437
141.870,-555
141.895,-574
141.920,-422
141.945,-124
141.970,206
141.995,453
142.020,578
142.045,633
142.070,682
142.095,743
142.120,787
142.145,791
142.170,771
142.195,760
142.220,772
142.245,792
142.270,798
142.295,786
142.320,762
142.345,724
142.370,661
142.395,566
142.420,457
142.445,354
142.470,260
142.495,159
142.520,45
142.545,-66
142.570,-159
142.595,-240
142.620,-343
142.645,-484
142.670,-614
142.695,-638
142.720,-487
142.745,-189
142.770,146
142.795,404
142.820,545
142.845,613
142.870,673
142.895,748
142.920,814
142.945,839
142.970,824
142.995,800
143.020,795
143.045,808
143.070,819
143.095,812
143.120,783
143.145,735
143.170,667
143.195,580
143.220,479
143.245,378
143.270,282
143.295,182
143.320,71
143.345,-41
143.370,-136
143.395,-209
143.420,-286
143.445,-400
143.470,-536
143.495,-617
143.520,-550
143.545,-310
143.570,25
143.595,331
143.620,522
143.645,605
143.670,648
143.695,700
143.720,753
143.745,772
143.770,749
143.795,716
143.820,712
143.845,739
143.870,769
143.895,775
143.920,754
143.945,719
143.970,672
143.995,604
144.020,514
144.045,416
144.070,326
144.095,241
144.120,145
144.145,39
144.170,-54
144.195,-121
144.220,-185
144.245,-281
144.270,-405
144.295,-480
144.320,-409
144.345,-167
144.370,157
144.395,434
144.420,583
144.445,630
144.470,652
144.495,690
144.520,725
144.545,722
144.570,683
144.595,650
144.620,658
144.645,696
144.670,727
144.695,726
144.720,695
144.745,645
144.770,581
144.795,500
144.820,410
144.845,320
144.870,231
144.895,134
144.920,24
144.945,-80
144.970,-162
144.995,-231
145.020,-324
145.045,-453
145.070,-563
145.095,-553
145.120,-362
145.145,-38
145.170,291
145.195,513
145.220,610
145.245,648
145.270,692
145.295,751
145.320,789
145.345,784
145.370,756
145.395,743
145.420,760
145.445,786
145.470,793
145.495,772
145.520,731
145.545,676
145.570,603
145.595,511
145.620,412
145.645,315
145.670,219
145.695,111
145.720,-6
145.745,-114
145.770,-199
145.795,-278
145.820,-384
145.845,-522
145.870,-634
145.895,-626
145.920,-444
145.945,-132
145.970,193
145.995,428
146.020,548
146.045,606
146.070,664
146.095,736
146.120,794
146.145,810
146.170,794
146.195,782
146.220,796
146.245,827
146.270,845
146.295,835
146.320,801
146.345,753
146.370,693
146.395,614
146.420,521
146.445,424
146.470,331
146.495,236
146.520,130
146.545,16
146.570,-82
146.595,-158
146.620,-230
146.645,-336
146.670,-480
146.695,-604
146.720,-614
146.745,-453
146.770,-153
146.795,174
146.820,419
146.845,546
146.870,600
146.895,646
146.920,708
146.945,761
146.970,774
146.995,751
147.020,729
147.045,737
147.070,768
147.095,794
147.120,792
147.145,763
147.170,721
147.195,669
147.220,602
147.245,519
147.270,432
147.295,348
147.320,262
147.345,162
147.370,54
147.395,-39
147.420,-106
147.445,-169
147.470,-264
147.495,-393
147.520,-487
147.545,-452
147.570,-250
147.595,58
147.620,351
147.645,537
147.670,612
147.695,633
147.720,651
147.745,673
147.770,679
147.795,661
147.820,638
147.845,636
147.870,658
147.895,689
147.920,706
147.945,696
147.970,657
147.995,595
148.020,522
148.045,448
148.070,375
148.095,289
148.120,185
148.145,77
148.170,-10
148.195,-73
148.220,-142
148.245,-250
148.270,-380
148.295,-447
148.320,-360
148.345,-108
148.370,213
148.395,468
148.420,585
148.445,597
148.470,587
148.495,603
148.520,627
148.545,615
148.570,565
148.595,519
148.620,517
148.645,557
148.670,593
148.695,587
148.720,540
148.745,480
148.770,426
148.795,366
148.820,282
148.845,175
148.870,73
148.895,-4
148.920,-70
148.945,-158
148.970,-278
148.995,-382
149.020,-380
149.045,-216
149.070,79
149.095,400
149.120,633
149.145,738
149.170,767
149.195,792
149.220,845
149.245,893
149.270,895
149.295,852
149.320,811
149.345,814
149.370,850
149.395,869
149.420,829
149.445,729
149.470,599
149.495,457
149.520,300
149.545,127
149.570,-38
149.595,-168
149.620,-259
149.645,-348
149.670,-469
149.695,-603
149.720,-670
149.745,-589
149.770,-351
149.795,-35
149.820,247
149.845,430
149.870,522
149.895,575
149.920,633
149.945,694
149.970,736
149.995,741
150.020,723
150.045,709
150.070,716
150.095,736
150.120,746
150.145,726
150.170,676
150.195,606
150.220,521
150.245,415
150.270,285
150.295,146
150.320,22
150.345,-79
150.370,-184
150.395,-325
150.420,-488
150.445,-598
150.470,-563
150.495,-353
150.520,-37
150.545,262
150.570,460
150.595,557
150.620,615
150.645,685
150.670,766
150.695,823
150.720,832
150.745,806
150.770,776
150.795,764
150.820,770
150.845,776
150.870,763
150.895,721
150.920,650
150.945,561
150.970,465
150.995,363
151.020,248
151.045,120
151.070,-4
151.095,-112
151.120,-209
151.145,-326
151.170,-474
151.195,-606
151.220,-629
151.245,-476
151.270,-179
151.295,144
151.320,383
151.345,508
151.370,573
151.395,647
151.420,739
151.445,811
151.470,831
151.495,812
151.520,793
151.545,795
151.570,808
151.595,810
151.620,793
151.645,763
151.670,716
151.695,646
151.720,551
151.745,445
151.770,339
151.795,232
151.820,114
151.845,-8
151.870,-118
151.895,-209
151.920,-308
151.945,-440
151.970,-577
151.995,-634
152.020,-527
152.045,-262
152.070,56
152.095,309
152.120,448
152.145,517
152.170,586
152.195,674
152.220,745
152.245,766
152.270,752
152.295,742
152.320,757
152.345,782
152.370,792
152.395,783
152.420,766
152.445,739
152.470,689
152.495,606
152.520,507
152.545,416
152.570,336
152.595,250
152.620,146
152.645,41
152.670,-46
152.695,-127
152.720,-234
152.745,-371
152.770,-471
152.795,-439
152.820,-237
152.845,63
152.870,336
152.895,496
152.920,552
152.945,576
152.970,614
152.995,657
153.020,674
153.045,658
153.070,641
153.095,649
153.120,677
153.145,698
153.170,690
153.195,651
153.220,591
153.245,521
153.270,447
153.295,374
153.320,300
153.345,216
153.370,116
153.395,13
153.420,-73
153.445,-140
153.470,-212
153.495,-310
153.520,-408
153.545,-428
153.570,-303
153.595,-44
153.620,249
153.645,467
153.670,571
153.695,602
153.720,625
153.745,663
153.770,692
153.795,687
153.820,657
153.845,637
153.870,647
153.895,674
153.920,692
153.945,681
153.970,642
153.995,583
154.020,512
154.045,437
154.070,359
154.095,274
154.120,177
154.145,72
154.170,-24
154.195,-107
154.220,-191
154.245,-298
154.270,-420
154.295,-493
154.320,-436
154.345,-226
154.370,71
154.395,343
154.420,511
154.445,585
154.470,628
154.495,683
154.520,741
154.545,768
154.570,754
154.595,727
154.620,718
154.645,731
154.670,745
154.695,744
154.720,723
154.745,688
154.770,636
154.795,564
154.820,476
154.845,382
154.870,289
154.895,190
154.920,82
154.945,-26
154.970,-121
154.995,-206
155.020,-306
155.045,-429
155.070,-536
155.095,-545
155.120,-400
155.145,-123
155.170,181
155.195,411
155.220,532
155.245,587
155.270,638
155.295,706
155.320,763
155.345,779
155.370,762
155.395,745
155.420,751
155.445,773
155.470,786
155.495,779
155.520,755
155.545,721
155.570,671
155.595,596
155.620,504
155.645,412
155.670,331
155.695,251
155.720,157
155.745,49
155.770,-49
155.795,-130
155.820,-213
155.845,-328
155.870,-461
155.895,-538
155.920,-472
155.945,-243
155.970,68
155.995,341
156.020,502
156.045,565
156.070,598
156.095,641
156.120,685
156.145,700
156.170,681
156.195,657
156.220,655
156.245,676
156.270,697
156.295,701
156.320,686
156.345,651
156.370,597
156.395,523
156.420,441
156.445,363
156.470,286
156.495,198
156.520,94
156.545,-4
156.570,-76
156.595,-134
156.620,-217
156.645,-342
156.670,-453
156.695,-450
156.720,-274
156.745,29
156.770,337
156.795,541
156.820,628
156.845,657
156.870,687
156.895,724
156.920,738
156.945,718
156.970,688
156.995,680
157.020,700
157.045,726
157.070,734
157.095,720
157.120,686
157.145,633
157.170,559
157.195,472
157.220,384
157.245,295
157.270,197
157.295,86
157.320,-19
157.345,-100
157.370,-167
157.395,-256
157.420,-382
157.445,-489
157.470,-480
157.495,-295
157.520,22
157.545,346
157.570,567
157.595,660
157.620,676
157.645,677
157.670,679
157.695,671
157.720,645
157.745,616
157.770,605
157.795,614
157.820,631
157.845,646
157.870,652
157.895,643
157.920,612
157.945,557
157.970,488
157.995,415
158.020,331
158.045,227
158.070,111
158.095,6
158.120,-74
158.145,-153
158.170,-269
158.195,-419
158.220,-528
158.245,-498
158.270,-292
158.295,22
158.320,320
158.345,511
158.370,597
158.395,637
158.420,680
158.445,726
158.470,747
158.495,730
158.520,698
158.545,679
158.570,687
158.595,707
158.620,714
158.645,691
158.670,641
158.695,578
158.720,509
158.745,431
158.770,335
158.795,219
158.820,98
158.845,-7
158.870,-100
158.895,-201
158.920,-327
158.945,-444
158.970,-475
158.995,-353
159.020,-91
159.045,210
159.070,436
159.095,540
159.120,564
159.145,582
159.170,622
159.195,655
159.220,644
159.245,595
159.270,554
159.295,555
159.320,586
159.345,601
159.370,572
159.395,514
159.420,458
159.445,414
159.470,366
159.495,295
159.520,205
159.545,115
159.570,30
159.595,-72
159.620,-218
159.645,-386
159.670,-500
159.695,-472
159.720,-263
159.745,73
159.770,427
159.795,703
159.820,871
159.845,963
159.870,1023
159.895,1067
159.920,1080
159.945,1050
159.970,992
159.995,936
160.020,897
160.045,862
160.070,804
160.095,710
160.120,593
160.145,470
160.170,348
160.195,219
160.220,84
160.245,-43
160.270,-149
160.295,-240
160.320,-343
160.345,-476
160.370,-610
160.395,-675
160.420,-603
160.445,-387
160.470,-98
160.495,162
160.520,333
160.545,424
160.570,487
160.595,559
160.620,627
160.645,660
160.670,646
160.695,613
160.720,599
160.745,614
160.770,634
160.795,630
160.820,597
160.845,550
160.870,498
160.895,433
160.920,345
160.945,243
160.970,149
160.995,67
161.020,-25
161.045,-150
161.070,-285
161.095,-360
161.120,-310
161.145,-126
161.170,125
161.195,356
161.220,512
161.245,600
161.270,657
161.295,708
161.320,751
161.345,769
161.370,756
161.395,727
161.420,703
161.445,696
161.470,699
161.495,692
161.520,661
161.545,603
161.570,531
161.595,453
161.620,370
161.645,273
161.670,166
161.695,61
161.720,-29
161.745,-118
161.770,-225
161.795,-348
161.820,-434
161.845,-412
161.870,-250
161.895,2
161.920,248
161.945,413
161.970,495
161.995,545
162.020,602
162.045,660
162.070,690
162.095,684
162.120,665
162.145,662
162.170,678
162.195,693
162.220,691
162.245,669
162.270,635
162.295,588
162.320,521
162.345,441
162.370,360
162.395,286
162.420,211
162.445,128
162.470,44
162.495,-26
162.520,-88
162.545,-165
162.570,-266
162.595,-350
162.620,-340
162.645,-193
162.670,53
162.695,299
162.720,463
162.745,535
162.770,566
162.795,599
162.820,632
162.845,640
162.870,621
162.895,603
162.920,613
162.945,645
162.970,670
162.995,667
163.020,641
163.045,606
163.070,562
163.095,502
163.120,426
163.145,348
163.170,274
163.195,198
163.220,110
163.245,21
163.270,-51
163.295,-103
163.320,-165
163.345,-263
163.370,-378
163.395,-433
163.420,-351
163.445,-127
163.470,155
163.495,388
163.520,516
163.545,568
163.570,604
163.595,655
163.620,705
163.645,723
163.670,708
163.695,690
163.720,700
163.745,733
163.770,761
163.795,761
163.820,732
163.845,691
163.870,645
163.895,588
163.920,512
163.945,422
163.970,334
163.995,256
164.020,179
164.045,91
164.070,-5
164.095,-94
164.120,-166
164.145,-240
164.170,-342
164.195,-467
164.220,-557
164.245,-535
164.270,-365
164.295,-89
164.320,194
164.345,406
164.370,526
164.395,594
164.420,656
164.445,723
164.470,776
164.495,793
164.520,783
164.545,774
164.570,790
164.595,826
164.620,856
164.645,856
164.670,822
164.695,769
164.720,710
164.745,644
164.770,563
164.795,468
164.820,371
164.845,284
164.870,206
164.895,122
164.920,26
164.945,-73
164.970,-160
164.995,-236
165.020,-328
165.045,-457
165.070,-592
165.095,-654
165.120,-567
165.145,-325
165.170,-8
165.195,273
165.220,454
165.245,548
165.270,611
165.295,681
165.320,751
165.345,791
165.370,791
165.395,771
165.420,766
165.445,787
165.470,820
165.495,839
165.520,828
165.545,791
165.570,742
165.595,688
165.620,626
165.645,549
165.670,458
165.695,364
165.720,277
165.745,194
165.770,108
165.795,21
165.820,-57
165.845,-125
165.870,-201
165.895,-308
165.920,-434
165.945,-511
165.970,-454
165.995,-232
166.020,86
166.045,376
166.070,551
166.095,616
166.120,639
166.145,671
166.170,705
166.195,706
166.220,670
166.245,639
166.270,651
166.295,700
166.320,742
166.345,745
166.370,714
166.395,674
166.420,631
166.445,572
166.470,487
166.495,391
166.520,301
166.545,216
166.570,122
166.595,16
166.620,-82
166.645,-160
166.670,-237
166.695,-345
166.720,-471
166.745,-536
166.770,-447
166.795,-187
166.820,153
166.845,443
166.870,606
166.895,665
166.920,689
166.945,719
166.970,745
166.995,741
167.020,711
167.045,686
167.070,689
167.095,712
167.120,731
167.145,729
167.170,703
167.195,657
167.220,591
167.245,512
167.270,425
167.295,335
167.320,232
167.345,112
167.370,-12
167.395,-122
167.420,-212
167.445,-310
167.470,-441
167.495,-575
167.520,-626
167.545,-513
167.570,-237
167.595,103
167.620,388
167.645,559
167.670,645
167.695,708
167.720,774
167.745,824
167.770,836
167.795,813
167.820,786
167.845,777
167.870,783
167.895,791
167.920,786
167.945,763
167.970,717
167.995,646
168.020,556
168.045,457
168.070,351
168.095,232
168.120,98
168.145,-32
168.170,-138
168.195,-225
168.220,-329
168.245,-472
168.270,-610
168.295,-649
168.320,-513
168.345,-222
168.370,112
168.395,373
168.420,520
168.445,598
168.470,668
168.495,746
168.520,803
168.545,814
168.570,791
168.595,769
168.620,767
168.645,777
168.670,783
168.695,777
168.720,758
168.745,721
168.770,659
168.795,572
168.820,473
168.845,369
168.870,257
168.895,133
168.920,9
168.945,-98
168.970,-193
168.995,-300
169.020,-436
169.045,-561
169.070,-589
169.095,-451
169.120,-170
169.145,144
169.170,381
169.195,507
169.220,570
169.245,634
169.270,711
169.295,769
169.320,779
169.345,754
169.370,730
169.395,729
169.420,744
169.445,755
169.470,753
169.495,733
169.520,689
169.545,619
169.570,530
169.595,438
169.620,350
169.645,259
169.670,152
169.695,40
169.720,-55
169.745,-133
169.770,-222
169.795,-346
169.820,-472
169.845,-511
169.870,-391
169.895,-128
169.920,171
169.945,397
169.970,511
169.995,561
170.020,604
170.045,656
170.070,691
170.095,689
170.120,666
170.145,656
170.170,668
170.195,689
170.220,698
170.245,688
170.270,662
170.295,619
170.320,558
170.345,484
170.370,406
170.395,327
170.420,240
170.445,143
170.470,50
170.495,-22
170.520,-87
170.545,-172
170.570,-285
170.595,-373
170.620,-353
170.645,-183
170.670,85
170.695,343
170.720,503
170.745,565
170.770,584
170.795,611
170.820,642
170.845,650
170.870,628
170.895,600
170.920,599
170.945,628
170.970,661
170.995,669
171.020,641
171.045,587
171.070,524
171.095,464
171.120,401
171.145,324
171.170,227
171.195,119
171.220,23
171.245,-49
171.270,-117
171.295,-211
171.320,-328
171.345,-409
171.370,-369
171.395,-177
171.420,104
171.445,361
171.470,512
171.495,568
171.520,596
171.545,643
171.570,697
171.595,717
171.620,691
171.645,651
171.670,638
171.695,660
171.720,688
171.745,693
171.770,664
171.795,613
171.820,551
171.845,480
171.870,402
171.895,316
171.920,222
171.945,122
171.970,22
171.995,-68
172.020,-151
172.045,-244
172.070,-359
172.095,-470
172.120,-506
172.145,-402
172.170,-160
172.195,131
172.220,367
172.245,497
172.270,558
172.295,615
172.320,692
172.345,761
172.370,784
172.395,764
172.420,742
172.445,747
172.470,773
172.495,790
172.520,781
172.545,754
172.570,716
172.595,663
172.620,582
172.645,479
172.670,375
172.695,282
172.720,191
172.745,85
172.770,-31
172.795,-137
172.820,-220
172.845,-303
172.870,-415
172.895,-550
172.920,-641
172.945,-605
172.970,-416
172.995,-129
173.020,155
173.045,368
173.070,502
173.095,595
173.120,681
173.145,763
173.170,824
173.195,854
173.220,857
173.245,853
173.270,858
173.295,874
173.320,892
173.345,894
173.370,871
173.395,823
173.420,759
173.445,687
173.470,606
173.495,512
173.520,412
173.545,313
173.570,222
173.595,130
173.620,28
173.645,-77
173.670,-170
173.695,-248
173.720,-337
173.745,-464
173.770,-613
173.795,-707
173.820,-660
173.845,-447
173.870,-136
173.895,162
173.920,374
173.945,500
173.970,587
173.995,671
174.020,751
174.045,807
174.070,829
174.095,832
174.120,835
174.145,849
174.170,872
174.195,891
174.220,893
174.245,870
174.270,819
174.295,751
174.320,675
174.345,597
174.370,510
174.395,412
174.420,313
174.445,223
174.470,141
174.495,55
174.520,-42
174.545,-139
174.570,-221
174.595,-298
174.620,-399
174.645,-537
174.670,-665
174.695,-691
174.720,-552
174.745,-270
174.770,52
174.795,314
174.820,474
174.845,564
174.870,636
174.895,708
174.920,766
174.945,792
174.970,790
174.995,784
175.020,793
175.045,821
175.070,850
175.095,862
175.120,847
175.145,807
175.170,750
175.195,685
175.220,612
175.245,529
175.270,436
175.295,339
175.320,248
175.345,159
175.370,66
175.395,-30
175.420,-119
175.445,-193
175.470,-266
175.495,-365
175.520,-491
175.545,-595
175.570,-590
175.595,-426
175.620,-133
175.645,186
175.670,430
175.695,565
175.720,626
175.745,669
175.770,714
175.795,743
175.820,739
175.845,715
175.870,705
175.895,730
175.920,774
175.945,805
175.970,804
175.995,775
176.020,735
176.045,690
176.070,630
176.095,548
176.120,456
176.145,373
176.170,302
176.195,228
176.220,137
176.245,40
176.270,-38
176.295,-94
176.320,-157
176.345,-261
176.370,-386
176.395,-450
176.420,-367
176.445,-126
176.470,185
176.495,446
176.520,589
176.545,636
176.570,645
176.595,653
176.620,651
176.645,625
176.670,584
176.695,561
176.720,575
176.745,613
176.770,646
176.795,654
176.820,636
176.845,598
176.870,544
176.895,480
176.920,411
176.945,336
176.970,251
176.995,153
177.020,54
177.045,-28
177.070,-95
177.095,-173
177.120,-282
177.145,-390
177.170,-417
177.195,-289
177.220,-16
177.245,303
177.270,549
177.295,667
177.320,690
177.345,688
177.370,698
177.395,704
177.420,680
177.445,627
177.470,584
177.495,584
177.520,622
177.545,656
177.570,652
177.595,607
177.620,545
177.645,486
177.670,424
177.695,339
177.720,226
177.745,105
177.770,1
177.795,-85
177.820,-184
177.845,-312
177.870,-436
177.895,-476
177.920,-366
177.945,-112
177.970,197
177.995,456
178.020,608
178.045,673
178.070,705
178.095,739
178.120,770
178.145,775
178.170,748
178.195,709
178.220,687
178.245,690
178.270,702
178.295,694
178.320,650
178.345,574
178.370,486
178.395,400
178.420,311
178.445,205
178.470,79
178.495,-46
178.520,-156
178.545,-254
178.570,-367
178.595,-506
178.620,-624
178.645,-636
178.670,-481
178.695,-189
178.720,135
178.745,389
178.770,537
178.795,620
178.820,693
178.845,772
178.870,832
178.895,849
178.920,832
178.945,811
178.970,807
178.995,817
179.020,825
179.045,816
179.070,782
179.095,721
179.120,637
179.145,541
179.170,439
179.195,330
179.220,207
179.245,75
179.270,-49
179.295,-155
179.320,-258
179.345,-387
179.370,-541
179.395,-655
179.420,-636
179.445,-442
179.470,-128
179.495,182
179.520,397
179.545,514
179.570,595
179.595,690
179.620,790
179.645,853
179.670,861
179.695,841
179.720,833
179.745,852
179.770,878
179.795,885
179.820,866
179.845,826
179.870,768
179.895,689
179.920,588
179.945,480
179.970,374
179.995,268
180.020,152
180.045,30
180.070,-80
180.095,-173
180.120,-267
180.145,-393
180.170,-547
180.195,-661
180.220,-648
180.245,-470
180.270,-182
180.295,104
180.320,305
180.345,417
180.370,492
180.395,576
180.420,662
180.445,718
180.470,729
180.495,718
180.520,722
180.545,752
180.570,786
180.595,799
180.620,785
180.645,758
180.670,723
180.695,673
180.720,597
180.745,502
180.770,409
180.795,330
180.820,255
180.845,167
180.870,67
180.895,-24
180.920,-97
180.945,-173
180.970,-279
180.995,-407
181.020,-489
181.045,-442
181.070,-242
181.095,44
181.120,306
181.145,468
181.170,540
181.195,580
181.220,632
181.245,686
181.270,710
181.295,697
181.320,679
181.345,688
181.370,724
181.395,754
181.420,751
181.445,716
181.470,671
181.495,625
181.520,569
181.545,493
181.570,406
181.595,323
181.620,249
181.645,174
181.670,86
181.695,-5
181.720,-81
181.745,-145
181.770,-223
181.795,-335
181.820,-452
181.845,-499
181.870,-409
181.895,-184
181.920,96
181.945,333
181.970,474
181.995,541
182.020,586
182.045,642
182.070,701
182.095,735
182.120,734
182.145,720
182.170,720
182.195,744
182.220,774
182.245,782
182.270,758
182.295,710
182.320,655
182.345,597
182.370,531
182.395,453
182.420,369
182.445,291
182.470,218
182.495,142
182.520,54
182.545,-35
182.570,-113
182.595,-181
182.620,-263
182.645,-379
182.670,-503
182.695,-563
182.720,-492
182.745,-285
182.770,-10
182.795,235
182.820,399
182.845,494
182.870,563
182.895,634
182.920,702
182.945,746
182.970,760
182.995,761
183.020,767
183.045,784
183.070,804
183.095,812
183.120,801
183.145,771
183.170,726
183.195,670
183.220,605
183.245,532
183.270,453
183.295,372
183.320,295
183.345,223
183.370,151
183.395,74
183.420,-6
183.445,-84
183.470,-161
183.495,-252
183.520,-366
183.545,-480
183.570,-533
183.595,-463
183.620,-262
183.645,7
183.670,254
183.695,417
183.720,504
183.745,559
183.770,619
183.795,680
183.820,719
183.845,727
183.870,720
183.895,722
183.920,744
183.945,775
183.970,794
183.995,791
184.020,767
184.045,728
184.070,677
184.095,614
184.120,539
184.145,458
184.170,378
184.195,304
184.220,231
184.245,152
184.270,68
184.295,-10
184.320,-79
184.345,-148
184.370,-238
184.395,-354
184.420,-455
184.445,-466
184.470,-336
184.495,-85
184.520,196
184.545,408
184.570,513
184.595,549
184.620,579
184.645,626
184.670,665
184.695,667
184.720,642
184.745,630
184.770,657
184.795,705
184.820,733
184.845,724
184.870,696
184.895,669
184.920,640
184.945,586
184.970,503
184.995,414
185.020,342
185.045,284
185.070,213
185.095,118
185.120,21
185.145,-50
185.170,-106
185.195,-187
185.220,-304
185.245,-398
185.270,-374
185.295,-189
185.320,98
185.345,368
185.370,533
185.395,591
185.420,606
185.445,623
185.470,643
185.495,640
185.520,611
185.545,582
185.570,583
185.595,614
185.620,649
185.645,664
185.670,651
185.695,614
185.720,562
185.745,499
185.770,428
185.795,349
185.820,257
185.845,153
185.870,50
185.895,-37
185.920,-115
185.945,-206
185.970,-321
185.995,-422
186.020,-430
186.045,-287
186.070,-15
186.095,286
186.120,512
186.145,623
186.170,659
186.195,683
186.220,720
186.245,747
186.270,736
186.295,691
186.320,648
186.345,639
186.370,660
186.395,681
186.420,670
186.445,621
186.470,549
186.495,473
186.520,397
186.545,308
186.570,198
186.595,75
186.620,-37
186.645,-137
186.670,-241
186.695,-371
186.720,-508
186.745,-582
186.770,-517
186.795,-295
186.820,15
186.845,305
186.870,498
186.895,598
186.920,659
186.945,721
186.970,784
186.995,821
187.020,820
187.045,795
187.070,773
187.095,769
187.120,777
187.145,779
187.170,761
187.195,714
187.220,639
187.245,547
187.270,446
187.295,339
187.320,221
187.345,94
187.370,-27
187.395,-132
187.420,-229
187.445,-346
187.470,-493
187.495,-623
187.520,-646
187.545,-499
187.570,-210
187.595,113
187.620,361
187.645,500
187.670,577
187.695,651
187.720,740
187.745,812
187.770,837
187.795,822
187.820,800
187.845,795
187.870,803
187.895,808
187.920,798
187.945,770
187.970,724
187.995,656
188.020,571
188.045,476
188.070,379
188.095,275
188.120,162
188.145,45
188.170,-58
188.195,-144
188.220,-235
188.245,-358
188.270,-498
188.295,-582
188.320,-529
188.345,-319
188.370,-22
188.395,250
188.420,426
188.445,515
188.470,574
188.495,644
188.520,713
188.545,751
188.570,748
188.595,727
188.620,720
188.645,733
188.670,750
188.695,755
188.720,744
188.745,720
188.770,678
188.795,611
188.820,521
188.845,428
188.870,343
188.895,262
188.920,171
188.945,73
188.970,-15
188.995,-84
189.020,-155
189.045,-257
189.070,-380
189.095,-455
189.120,-400
189.145,-194
189.170,87
189.195,332
189.220,475
189.245,533
189.270,563
189.295,602
189.320,636
189.345,643
189.370,627
189.395,616
189.420,627
189.445,649
189.470,663
189.495,659
189.520,645
189.545,620
189.570,577
189.595,511
189.620,437
189.645,373
189.670,319
189.695,254
189.720,168
189.745,79
189.770,14
189.795,-31
189.820,-95
189.845,-197
189.870,-295
189.895,-303
189.920,-165
189.945,84
189.970,339
189.995,504
190.020,565
190.045,574
190.070,586
190.095,612
190.120,622
190.145,599
190.170,561
190.195,541
190.220,556
190.245,591
190.270,614
190.295,603
190.320,562
190.345,507
190.370,453
190.395,398
190.420,329
190.445,241
190.470,147
190.495,68
190.520,9
190.545,-52
190.570,-142
190.595,-251
190.620,-318
190.645,-269
190.670,-81
190.695,182
190.720,415
190.745,547
190.770,586
190.795,592
190.820,611
190.845,641
190.870,646
190.895,613
190.920,567
190.945,548
190.970,567
190.995,598
191.020,604
191.045,572
191.070,516
191.095,459
191.120,403
191.145,333
191.170,239
191.195,133
191.220,38
191.245,-37
191.270,-116
191.295,-223
191.320,-345
191.345,-419
191.370,-370
191.395,-177
191.420,99
191.445,352
191.470,508
191.495,569
191.520,595
191.545,637
191.570,696
191.595,737
191.620,731
191.645,694
191.670,663
191.695,664
191.720,689
191.745,704
191.770,683
191.795,624
191.820,547
191.845,471
191.870,394
191.895,304
191.920,195
191.945,80
191.970,-19
191.995,-102
192.020,-192
192.045,-316
192.070,-456
192.095,-539
192.120,-484
192.145,-268
192.170,35
192.195,308
192.220,475
192.245,549
192.270,600
192.295,676
192.320,765
192.345,821
192.370,823
192.395,799
192.420,787
192.445,800
192.470,819
192.495,819
192.520,794
192.545,753
192.570,698
192.595,625
192.620,533
192.645,431
192.670,328
192.695,224
192.720,111
192.745,-4
192.770,-109
192.795,-197
192.820,-289
192.845,-414
192.870,-564
192.895,-672
192.920,-652
192.945,-467
192.970,-167
192.995,141
193.020,368
193.045,497
193.070,575
193.095,655
193.120,751
193.145,833
193.170,871
193.195,868
193.220,856
193.245,863
193.270,888
193.295,905
193.320,891
193.345,847
193.370,791
193.395,733
193.420,666
193.445,574
193.470,461
193.495,346
193.520,248
193.545,161
193.570,65
193.595,-47
193.620,-159
193.645,-255
193.670,-346
193.695,-464
193.720,-613
193.745,-736
193.770,-741
193.795,-578
193.820,-284
193.845,33
193.870,280
193.895,434
193.920,533
193.945,629
193.970,730
193.995,815
194.020,858
194.045,863
194.070,855
194.095,857
194.120,877
194.145,902
194.170,913
194.195,897
194.220,854
194.245,791
194.270,718
194.295,637
194.320,546
194.345,445
194.370,343
194.395,247
194.420,156
194.445,62
194.470,-36
194.495,-130
194.520,-212
194.545,-297
194.570,-410
194.595,-547
194.620,-651
194.645,-638
194.670,-466
194.695,-181
194.720,112
194.745,328
194.770,449
194.795,524
194.820,601
194.845,685
194.870,750
194.895,776
194.920,773
194.945,770
194.970,784
194.995,810
195.020,831
195.045,835
195.070,819
195.095,783
195.120,733
195.145,669
195.170,594
195.195,511
195.220,425
195.245,344
195.270,269
195.295,195
195.320,113
195.345,26
195.370,-54
195.395,-122
195.420,-189
195.445,-280
195.470,-398
195.495,-492
195.520,-483
195.545,-325
195.570,-56
195.595,220
195.620,411
195.645,498
195.670,530
195.695,567
195.720,620
195.745,659
195.770,660
195.795,637
195.820,627
195.845,650
195.870,689
195.895,713
195.920,708
195.945,683
195.970,653
195.995,614
196.020,554
196.045,475
196.070,393
196.095,327
196.120,273
196.145,213
196.170,133
196.195,50
196.220,-13
196.245,-58
196.270,-115
196.295,-211
196.320,-319
196.345,-361
196.370,-261
196.395,-24
196.420,260
196.445,479
196.470,583
196.495,605
196.520,614
196.545,640
196.570,662
196.595,648
196.620,609
196.645,585
196.670,603
196.695,650
196.720,685
196.745,684
196.770,656
196.795,617
196.820,571
196.845,509
196.870,430
196.895,348
196.920,273
196.945,197
196.970,110
196.995,17
197.020,-62
197.045,-123
197.070,-190
197.095,-288
197.120,-392
197.145,-423
197.170,-306
197.195,-50
197.220,246
197.245,468
197.270,574
197.295,605
197.320,631
197.345,673
197.370,704
197.395,695
197.420,658
197.445,633
197.470,643
197.495,676
197.520,701
197.545,701
197.570,678
197.595,638
197.620,581
197.645,509
197.670,427
197.695,340
197.720,247
197.745,141
197.770,30
197.795,-67
197.820,-145
197.845,-224
197.870,-332
197.895,-457
197.920,-525
197.945,-454
197.970,-223
197.995,87
198.020,360
198.045,522
198.070,591
198.095,632
198.120,688
198.145,744
198.170,769
198.195,756
198.220,731
198.245,726
198.270,744
198.295,765
198.320,773
198.345,763
198.370,736
198.395,689
198.420,618
198.445,524
198.470,419
198.495,308
198.520,188
198.545,64
198.570,-52
198.595,-149
198.620,-241
198.645,-354
198.670,-500
198.695,-630
198.720,-657
198.745,-519
198.770,-238
198.795,86
198.820,345
198.845,500
198.870,587
198.895,666
198.920,759
198.945,838
198.970,869
198.995,855
199.020,831
199.045,828
199.070,849
199.095,868
199.120,864
199.145,835
199.170,789
199.195,730
199.220,653
199.245,556
199.270,448
199.295,339
199.320,229
199.345,112
199.370,-7
199.395,-118
199.420,-214
199.445,-312
199.470,-440
199.495,-593
199.520,-708
199.545,-699
199.570,-519
199.595,-211
199.620,115
199.645,361
199.670,503
199.695,587
199.720,666
199.745,752
199.770,818
199.795,839
199.820,828
199.845,817
199.870,827
199.895,849
199.920,859
199.945,849
199.970,824
199.995,787
200.020,730
200.045,647
200.070,542
200.095,433
200.120,331
200.145,229
200.170,117
200.195,-1
200.220,-107
200.245,-191
200.270,-271
200.295,-379
200.320,-519
200.345,-635
200.370,-644
200.395,-496
200.420,-222
200.445,85
200.470,333
200.495,487
200.520,573
200.545,637
200.570,704
200.595,762
200.620,791
200.645,791
200.670,784
200.695,792
200.720,817
200.745,841
200.770,847
200.795,828
200.820,790
200.845,735
200.870,662
200.895,573
200.920,475
200.945,384
200.970,303
200.995,219
201.020,122
201.045,16
201.070,-77
201.095,-153
201.120,-233
201.145,-341
201.170,-462
201.195,-525
201.220,-453
201.245,-229
201.270,70
201.295,329
201.320,479
201.345,535
201.370,561
201.395,598
201.420,634
201.445,641
201.470,617
201.495,596
201.520,605
201.545,639
201.570,668
201.595,672
201.620,655
201.645,629
201.670,593
201.695,537
201.720,460
201.745,379
201.770,307
201.795,236
201.820,157
201.845,71
201.870,-3
201.895,-61
201.920,-127
201.945,-225
201.970,-333
201.995,-371
202.020,-266
202.045,-23
202.070,263
202.095,482
202.120,585
202.145,612
202.170,627
202.195,655
202.220,677
202.245,669
202.270,640
202.295,619
202.320,626
202.345,651
202.370,668
202.395,664
202.420,637
202.445,592
202.470,529
202.495,454
202.520,377
202.545,300
202.570,219
202.595,126
202.620,29
202.645,-54
202.670,-122
202.695,-195
202.720,-293
202.745,-392
202.770,-420
202.795,-310
202.820,-67
202.845,221
202.870,451
202.895,576
202.920,625
202.945,657
202.970,697
202.995,729
203.020,729
203.045,706
203.070,687
203.095,690
203.120,709
203.145,724
203.170,722
203.195,704
203.220,668
203.245,610
203.270,528
203.295,432
203.320,334
203.345,234
203.370,128
203.395,18
203.420,-81
203.445,-168
203.470,-261
203.495,-383
203.520,-523
203.545,-613
203.570,-569
203.595,-366
203.620,-67
203.645,218
203.670,413
203.695,518
203.720,587
203.745,658
203.770,730
203.795,774
203.820,778
203.845,763
203.870,758
203.895,771
203.920,792
203.945,803
203.970,794
203.995,762
204.020,707
204.045,629
204.070,539
204.095,445
204.120,352
204.145,249
204.170,132
204.195,13
204.220,-90
204.245,-175
204.270,-268
204.295,-393
204.320,-528
204.345,-599
204.370,-528
204.395,-299
204.420,15
204.445,306
204.470,499
204.495,602
204.520,667
204.545,733
204.570,794
204.595,825
204.620,818
204.645,795
204.670,784
204.695,794
204.720,813
204.745,824
204.770,818
204.795,791
204.820,738
204.845,657
204.870,559
204.895,463
204.920,373
204.945,279
204.970,169
204.995,49
205.020,-56
205.045,-140
205.070,-226
205.095,-347
205.120,-491
205.145,-584
205.170,-536
205.195,-322
205.220,-16
205.245,262
205.270,440
205.295,526
205.320,580
205.345,640
205.370,694
205.395,712
205.420,693
205.445,668
205.470,669
205.495,700
205.520,734
205.545,748
205.570,735
205.595,698
205.620,640
205.645,564
205.670,475
205.695,380
205.720,279
205.745,167
205.770,48
205.795,-60
205.820,-146
205.845,-225
205.870,-332
205.895,-475
205.920,-601
205.945,-615
205.970,-457
205.995,-161
206.020,160
206.045,403
206.070,541
206.095,616
206.120,681
206.145,746
206.170,786
206.195,785
206.220,762
206.245,751
206.270,764
206.295,786
206.320,795
206.345,781
206.370,750
206.395,703
206.420,638
206.445,555
206.470,465
206.495,373
206.520,277
206.545,167
206.570,48
206.595,-60
206.620,-147
206.645,-227
206.670,-332
206.695,-466
206.720,-571
206.745,-562
206.770,-389
206.795,-93
206.820,218
206.845,452
206.870,582
206.895,649
206.920,706
206.945,765
206.970,805
206.995,808
207.020,787
207.045,771
207.070,776
207.095,793
207.120,803
207.145,797
207.170,779
207.195,747
207.220,692
207.245,613
207.270,519
207.295,429
207.320,345
207.345,253
207.370,139
207.395,16
207.420,-85
207.445,-159
207.470,-236
207.495,-348
207.520,-479
207.545,-548
207.570,-470
207.595,-236
207.620,66
207.645,317
207.670,453
207.695,500
207.720,524
207.745,559
207.770,591
207.795,593
207.820,567
207.845,545
207.870,555
207.895,590
207.920,624
207.945,635
207.970,621
207.995,587
208.020,539
208.045,478
208.070,408
208.095,335
208.120,258
208.145,171
208.170,78
208.195,-7
208.220,-82
208.245,-159
208.270,-260
208.295,-366
208.320,-413
208.345,-327
208.370,-99
208.395,197
208.420,453
208.445,609
208.470,682
208.495,731
208.520,785
208.545,830
208.570,842
208.595,824
208.620,808
208.645,816
208.670,840
208.695,856
208.720,853
208.745,836
208.770,804
208.795,752
208.820,674
208.845,579
208.870,483
208.895,381
208.920,256
208.945,96
208.970,-74
208.995,-222
209.020,-338
209.045,-451
209.070,-583
209.095,-699
209.120,-718
209.145,-577
209.170,-302
209.195,5
209.220,243
209.245,381
209.270,455
209.295,514
209.320,574
209.345,617
209.370,632
209.395,633
209.420,639
209.445,660
209.470,689
209.495,713
209.520,722
209.545,708
209.570,668
209.595,603
209.620,528
209.645,453
209.670,374
209.695,282
209.720,181
209.745,91
209.770,20
209.795,-49
209.820,-148
209.845,-266
209.870,-335
209.895,-272
209.920,-52
209.945,251
209.970,522
209.995,685
210.020,749
210.045,772
210.070,794
210.095,812
210.120,804
210.145,769
210.170,731
210.195,713
210.220,717
210.245,727
210.270,723
210.295,693
210.320,633
210.345,550
210.370,454
210.395,356
210.420,255
210.445,142
210.470,11
210.495,-120
210.520,-235
210.545,-338
210.570,-457
210.595,-606
210.620,-745
210.645,-788
210.670,-669
210.695,-406
210.720,-97
210.745,152
210.770,299
210.795,372
210.820,424
210.845,482
210.870,536
210.895,570
210.920,582
210.945,586
210.970,597
210.995,621
211.020,651
211.045,669
211.070,662
211.095,625
211.120,571
211.145,519
211.170,476
211.195,425
211.220,346
211.245,236
211.270,116
211.295,11
211.320,-76
211.345,-147
211.370,-172
211.395,-90
211.420,146
211.445,517
211.470,923
211.495,1256
211.520,1465
211.545,1577
211.570,1637
211.595,1651
211.620,1585
211.645,1419
211.670,1192
211.695,979
211.720,839
211.745,778
211.770,755
211.795,732
211.820,697
211.845,657
211.870,617
211.895,578
211.920,538
211.945,499
211.970,457
211.995,394
212.020,283
212.045,90
212.070,-200
212.095,-578
212.120,-983
212.145,-1307
212.170,-1431
212.195,-1298
212.220,-957
212.245,-541
212.270,-182
212.295,68
212.320,246
212.345,403
212.370,547
212.395,646
212.420,675
212.445,657
212.470,637
212.495,638
212.520,636
212.545,598
212.570,516
212.595,409
212.620,292
212.645,159
212.670,0
212.695,-179
212.720,-355
212.745,-514
212.770,-660
212.795,-792
212.820,-895
212.845,-957
212.870,-994
212.895,-1047
212.920,-1117
212.945,-1129
212.970,-972
212.995,-607
213.020,-126
213.045,302
213.070,565
213.095,680
213.120,755
213.145,879
213.170,1049
213.195,1202
213.220,1296
213.245,1341
213.270,1371
213.295,1400
213.320,1413
213.345,1390
213.370,1330
213.395,1244
213.420,1141
213.445,1034
213.470,938
213.495,862
213.520,791
213.545,686
213.570,527
213.595,338
213.620,179
213.645,91
213.670,60
213.695,31
213.720,-27
213.745,-91
213.770,-99
213.795,-6
213.820,171
213.845,379
213.870,556
213.895,678
213.920,749
213.945,788
213.970,806
213.995,805
214.020,786
214.045,757
214.070,730
214.095,713
214.120,698
214.145,667
214.170,603
214.195,500
214.220,369
214.245,228
214.270,91
214.295,-36
214.320,-149
214.345,-248
214.370,-342
214.395,-443
214.420,-557
214.445,-669
214.470,-755
214.495,-807
214.520,-843
214.545,-880
214.570,-900
214.595,-843
214.620,-651
214.645,-325
214.670,55
214.695,391
214.720,621
214.745,754
214.770,832
214.795,889
214.820,931
214.845,960
214.870,987
214.895,1025
214.920,1072
214.945,1112
214.970,1133
214.995,1140
215.020,1143
215.045,1137
215.070,1108
215.095,1041
215.120,941
215.145,822
215.170,694
215.195,559
215.220,423
215.245,295
215.270,177
215.295,52
215.320,-95
215.345,-250
215.370,-353
215.395,-338
215.420,-190
215.445,33
215.470,243
215.495,374
215.520,422
215.545,426
215.570,422
215.595,419
215.620,408
215.645,385
215.670,363
215.695,358
215.720,380
215.745,421
215.770,463
215.795,490
215.820,491
215.845,465
215.870,418
215.895,356
215.920,285
215.945,216
215.970,161
215.995,114
216.020,50
216.045,-74
216.070,-275
216.095,-511
216.120,-689
216.145,-724
216.170,-596
216.195,-371
216.220,-147
216.245,10
216.270,100
216.295,154
216.320,200
216.345,237
216.370,250
216.395,239
216.420,225
216.445,231
216.470,265
216.495,316
216.520,364
216.545,398
216.570,414
216.595,414
216.620,394
216.645,348
216.670,278
216.695,200
216.720,132
216.745,76
216.770,13
216.795,-76
216.820,-179
216.845,-231
216.870,-155
216.895,71
216.920,389
216.945,687
216.970,880
216.995,966
217.020,998
217.045,1028
217.070,1055
217.095,1053
217.120,1015
217.145,969
217.170,956
217.195,976
217.220,997
217.245,985
217.270,933
217.295,859
217.320,768
217.345,646
217.370,480
217.395,290
217.420,115
217.445,-22
217.470,-147
217.495,-297
217.520,-471
217.545,-610
217.570,-626
217.595,-477
217.620,-202
217.645,104
217.670,351
217.695,502
217.720,574
217.745,604
217.770,616
217.795,610
217.820,583
217.845,542
217.870,503
217.895,480
217.920,471
217.945,462
217.970,438
217.995,396
218.020,347
218.045,296
218.070,240
218.095,171
218.120,92
218.145,13
218.170,-63
218.195,-147
218.220,-256
218.245,-373
218.270,-442
218.295,-390
218.320,-194
218.345,88
218.370,354
218.395,523
218.420,592
218.445,620
218.470,654
218.495,697
218.520,712
218.545,684
218.570,637
218.595,615
218.620,633
218.645,668
218.670,682
218.695,659
218.720,609
218.745,540
218.770,450
218.795,336
218.820,214
218.845,111
218.870,31
218.895,-51
218.920,-163
218.945,-283
218.970,-336
218.995,-254
219.020,-36
219.045,233
219.070,449
219.095,563
219.120,607
219.145,644
219.170,700
219.195,746
219.220,742
219.245,689
219.270,622
219.295,573
219.320,541
219.345,499
219.370,437
219.395,370
219.420,316
219.445,268
219.470,205
219.495,121
219.520,37
219.545,-20
219.570,-62
219.595,-119
219.620,-205
219.645,-276
219.670,-256
219.695,-102
219.720,150
219.745,407
219.770,589
219.795,683
219.820,729
219.845,774
219.870,827
219.895,868
219.920,875
219.945,847
219.970,800
219.995,751
220.020,707
220.045,664
220.070,612
220.095,550
220.120,478
220.145,402
220.170,324
220.195,244
220.220,164
220.245,88
220.270,22
220.295,-40
220.320,-113
220.345,-206
220.370,-295
220.395,-331
220.420,-263
220.445,-89
220.470,132
220.495,327
220.520,449
220.545,517
220.570,576
220.595,653
220.620,734
220.645,782
220.670,785
220.695,764
220.720,752
220.745,761
220.770,771
220.795,764
220.820,748
220.845,751
220.870,796
220.895,880
220.920,973
220.945,1049
220.970,1098
220.995,1113
221.020,1084
221.045,1003
221.070,882
221.095,754
221.120,638
221.145,516
221.170,350
221.195,136
221.220,-66
221.245,-171
221.270,-144
221.295,-43
221.320,28
221.345,3
221.370,-101
221.395,-224
221.420,-319
221.445,-389
221.470,-455
221.495,-533
221.520,-624
221.545,-731
221.570,-849
221.595,-955
221.620,-1007
221.645,-988
221.670,-928
221.695,-871
221.720,-818
221.745,-716
221.770,-515
221.795,-243
221.820,4
221.845,145
221.870,186
221.895,193
221.920,214
221.945,234
221.970,220
221.995,179
222.020,146
222.045,120
222.070,42
222.095,-130
222.120,-345
222.145,-465
222.170,-396
222.195,-174
222.220,68
222.245,246
222.270,388
222.295,585
222.320,870
222.345,1175
222.370,1411
222.395,1550
222.420,1628
222.445,1684
222.470,1712
222.495,1699
222.520,1667
222.545,1659
222.570,1676
222.595,1657
222.620,1538
222.645,1328
222.670,1105
222.695,942
222.720,835
222.745,722
222.770,561
222.795,368
222.820,191
222.845,52
222.870,-63
222.895,-175
222.920,-284
222.945,-381
222.970,-467
222.995,-550
223.020,-609
223.045,-597
223.070,-479
223.095,-283
223.120,-86
223.145,49
223.170,123
223.195,184
223.220,268
223.245,362
223.270,428
223.295,456
223.320,474
223.345,514
223.370,570
223.395,598
223.420,556
223.445,441
223.470,288
223.495,136
223.520,14
223.545,-62
223.570,-85
223.595,-56
223.620,4
223.645,65
223.670,104
223.695,131
223.720,171
223.745,237
223.770,312
223.795,365
223.820,398
223.845,449
223.870,569
223.895,768
223.920,991
223.945,1160
223.970,1224
223.995,1204
224.020,1161
224.045,1141
224.070,1146
224.095,1145
224.120,1121
224.145,1088
224.170,1073
224.195,1076
224.220,1056
224.245,957
224.270,761
224.295,503
224.320,246
224.345,36
224.370,-132
224.395,-291
224.420,-463
224.445,-639
224.470,-785
224.495,-887
224.520,-964
224.545,-1052
224.570,-1158
224.595,-1238
224.620,-1214
224.645,-1046
224.670,-763
224.695,-457
224.720,-217
224.745,-75
224.770,1
224.795,66
224.820,143
224.845,216
224.870,267
224.895,299
224.920,338
224.945,404
224.970,488
224.995,562
225.020,607
225.045,628
225.070,637
225.095,634
225.120,605
225.145,540
225.170,450
225.195,361
225.220,279
225.245,186
225.270,58
225.295,-94
225.320,-212
225.345,-221
225.370,-92
225.395,128
225.420,346
225.445,488
225.470,545
225.495,561
225.520,583
225.545,616
225.570,637
225.595,626
225.620,595
225.645,577
225.670,589
225.695,617
225.720,636
225.745,632
225.770,611
225.795,580
225.820,531
225.845,452
225.870,346
225.895,237
225.920,146
225.945,67
225.970,-26
225.995,-150
226.020,-268
226.045,-309
226.070,-221
226.095,-16
226.120,231
226.145,437
226.170,559
226.195,618
226.220,658
226.245,704
226.270,741
226.295,744
226.320,710
226.345,663
226.370,634
226.395,630
226.420,630
226.445,614
226.470,575
226.495,524
226.520,469
226.545,401
226.570,308
226.595,194
226.620,78
226.645,-24
226.670,-123
226.695,-237
226.720,-359
226.745,-441
226.770,-421
226.795,-274
226.820,-43
226.845,188
226.870,357
226.895,456
226.920,519
226.945,578
226.970,636
226.995,675
227.020,684
227.045,670
227.070,652
227.095,645
227.120,648
227.145,653
227.170,650
227.195,629
227.220,585
227.245,519
227.270,438
227.295,349
227.320,255
227.345,159
227.370,68
227.395,-13
227.420,-93
227.445,-189
227.470,-309
227.495,-423
227.520,-465
227.545,-379
227.570,-169
227.595,94
227.620,323
227.645,471
227.670,554
227.695,620
227.720,691
227.745,752
227.770,778
227.795,763
227.820,729
227.845,701
227.870,686
227.895,675
227.920,659
227.945,635
227.970,597
227.995,540
228.020,462
228.045,371
228.070,281
228.095,197
228.120,113
228.145,22
228.170,-69
228.195,-154
228.220,-240
228.245,-341
228.270,-459
228.295,-550
228.320,-545
228.345,-399
228.370,-142
228.395,137
228.420,357
228.445,491
228.470,572
228.495,647
228.520,725
228.545,783
228.570,803
228.595,793
228.620,782
228.645,787
228.670,802
228.695,810
228.720,803
228.745,784
228.770,752
228.795,700
228.820,622
228.845,528
228.870,432
228.895,340
228.920,241
228.945,127
228.970,6
228.995,-101
229.020,-194
229.045,-292
229.070,-413
229.095,-534
229.120,-586
229.145,-504
229.170,-287
229.195,-10
229.220,232
229.245,389
229.270,473
229.295,528
229.320,578
229.345,614
229.370,621
229.395,605
229.420,596
229.445,611
229.470,647
229.495,682
229.520,701
229.545,700
229.570,682
229.595,646
229.620,590
229.645,520
229.670,444
229.695,366
229.720,282
229.745,189
229.770,95
229.795,8
229.820,-77
229.845,-180
229.870,-302
229.895,-402
229.920,-413
229.945,-291
229.970,-60
229.995,197
230.020,401
230.045,520
230.070,581
230.095,623
230.120,660
230.145,682
230.170,680
230.195,666
230.220,658
230.245,665
230.270,675
230.295,675
230.320,659
230.345,629
230.370,586
230.395,526
230.420,451
230.445,365
230.470,275
230.495,181
230.520,83
230.545,-15
230.570,-105
230.595,-191
230.620,-288
230.645,-404
230.670,-515
230.695,-558
230.720,-474
230.745,-260
230.770,18
230.795,271
230.820,444
230.845,545
230.870,618
230.895,686
230.920,744
230.945,773
230.970,773
230.995,763
231.020,764
231.045,775
231.070,782
231.095,777
231.120,759
231.145,729
231.170,680
231.195,607
231.220,515
231.245,419
231.270,327
231.295,231
231.320,121
231.345,1
231.370,-109
231.395,-199
231.420,-284
231.445,-389
231.470,-509
231.495,-591
231.520,-562
231.545,-391
231.570,-123
231.595,150
231.620,358
231.645,487
231.670,569
231.695,637
231.720,695
231.745,727
231.770,728
231.795,711
231.820,698
231.845,698
231.870,705
231.895,711
231.920,714
231.945,709
231.970,688
231.995,642
232.020,571
232.045,489
232.070,408
232.095,330
232.120,243
232.145,144
232.170,44
232.195,-40
232.220,-113
232.245,-198
232.270,-310
232.295,-423
232.320,-471
232.345,-394
232.370,-190
232.395,73
232.420,307
232.445,457
232.470,536
232.495,586
232.520,637
232.545,679
232.570,693
232.595,678
232.620,660
232.645,663
232.670,683
232.695,702
232.720,700
232.745,680
232.770,650
232.795,611
232.820,554
232.845,477
232.870,392
232.895,314
232.920,244
232.945,171
232.970,89
232.995,6
233.020,-63
233.045,-130
233.070,-213
233.095,-317
233.120,-396
233.145,-378
233.170,-224
233.195,25
233.220,280
233.245,462
233.270,560
233.295,612
233.320,655
233.345,689
233.370,693
233.395,664
233.420,629
233.445,615
233.470,625
233.495,637
233.520,634
233.545,615
233.570,587
233.595,550
233.620,495
233.645,421
233.670,342
233.695,271
233.720,203
233.745,127
233.770,43
233.795,-35
233.820,-101
233.845,-170
233.870,-264
233.895,-371
233.920,-429
233.945,-370
233.970,-179
233.995,79
234.020,310
234.045,452
234.070,514
234.095,539
234.120,558
234.145,569
234.170,563
234.195,548
234.220,544
234.245,561
234.270,592
234.295,619
234.320,631
234.345,623
234.370,594
234.395,544
234.420,478
234.445,407
234.470,337
234.495,261
234.520,172
234.545,75
234.570,-13
234.595,-88
234.620,-166
234.645,-265
234.670,-364
234.695,-401
234.720,-312
234.745,-95
234.770,178
234.795,418
234.820,571
234.845,652
234.870,698
234.895,732
234.920,747
234.945,737
234.970,713
234.995,697
235.020,699
235.045,712
235.070,720
235.095,715
235.120,692
235.145,649
235.170,586
235.195,510
235.220,430
235.245,346
235.270,252
235.295,144
235.320,34
235.345,-60
235.370,-143
235.395,-240
235.420,-360
235.445,-467
235.470,-484
235.495,-359
235.520,-113
235.545,161
235.570,375
235.595,499
235.620,562
235.645,609
235.670,654
235.695,681
235.720,680
235.745,661
235.770,644
235.795,643
235.820,650
235.845,657
235.870,651
235.895,627
235.920,580
235.945,512
235.970,431
235.995,345
236.020,253
236.045,148
236.070,36
236.095,-72
236.120,-171
236.145,-270
236.170,-381
236.195,-483
236.220,-516
236.245,-423
236.270,-203
236.295,73
236.320,314
236.345,467
236.370,549
236.395,605
236.420,661
236.445,705
236.470,720
236.495,706
236.520,686
236.545,680
236.570,687
236.595,696
236.620,691
236.645,665
236.670,615
236.695,544
236.720,461
236.745,375
236.770,290
236.795,198
236.820,97
236.845,-4
236.870,-100
236.895,-194
236.920,-302
236.945,-419
236.970,-498
236.995,-470
237.020,-305
237.045,-47
237.070,211
237.095,396
237.120,499
237.145,562
237.170,621
237.195,675
237.220,702
237.245,700
237.270,688
237.295,689
237.320,704
237.345,718
237.370,718
237.395,701
237.420,666
237.445,612
237.470,539
237.495,458
237.520,380
237.545,306
237.570,226
237.595,135
237.620,47
237.645,-24
237.670,-91
237.695,-178
237.720,-287
237.745,-368
237.770,-347
237.795,-190
237.820,53
237.845,286
237.870,438
237.895,509
237.920,545
237.945,583
237.970,619
237.995,635
238.020,630
238.045,625
238.070,636
238.095,656
238.120,668
238.145,660
238.170,634
238.195,595
238.220,541
238.245,475
238.270,407
238.295,344
238.320,280
238.345,200
238.370,105
238.395,13
238.420,-59
238.445,-124
238.470,-208
238.495,-306
238.520,-364
238.545,-312
238.570,-132
238.595,108
238.620,313
238.645,427
238.670,470
238.695,494
238.720,527
238.745,555
238.770,557
238.795,539
238.820,526
238.845,537
238.870,563
238.895,581
238.920,580
238.945,559
238.970,525
238.995,477
239.020,417
239.045,355
239.070,297
239.095,237
239.120,163
239.145,78
239.170,0
239.195,-65
239.220,-127
239.245,-205
239.270,-284
239.295,-306
239.320,-214
239.345,-11
239.370,228
239.395,413
239.420,506
239.445,539
239.470,563
239.495,598
239.520,625
239.545,625
239.570,606
239.595,596
239.620,609
239.645,632
239.670,643
239.695,632
239.720,602
239.745,561
239.770,508
239.795,446
239.820,380
239.845,312
239.870,238
239.895,152
239.920,61
239.945,-18
239.970,-83
239.995,-153
240.020,-247
240.045,-347
240.070,-390
240.095,-314
240.120,-118
240.145,124
240.170,325
240.195,441
240.220,498
240.245,545
240.270,605
240.295,660
240.320,686
240.345,684
240.370,677
240.395,684
240.420,701
240.445,713
240.470,709
240.495,691
240.520,659
240.545,608
240.570,537
240.595,455
240.620,375
240.645,301
240.670,223
240.695,135
240.720,43
240.745,-37
240.770,-109
240.795,-193
240.820,-300
240.845,-400
240.870,-430
240.895,-340
240.920,-138
240.945,102
240.970,301
240.995,423
241.020,491
241.045,550
241.070,618
241.095,680
241.120,708
241.145,703
241.170,688
241.195,687
241.220,700
241.245,713
241.270,710
241.295,685
241.320,644
241.345,587
241.370,516
241.395,437
241.420,355
241.445,274
241.470,186
241.495,87
241.520,-17
241.545,-111
241.570,-190
241.595,-268
241.620,-370
241.645,-495
241.670,-599
241.695,-612
241.720,-493
241.745,-265
241.770,-6
241.795,202
241.820,331
241.845,403
241.870,463
241.895,534
241.920,602
241.945,641
241.970,644
241.995,632
242.020,634
242.045,657
242.070,686
242.095,696
242.120,683
242.145,655
242.170,623
242.195,583
242.220,526
242.245,453
242.270,380
242.295,320
242.320,268
242.345,205
242.370,131
242.395,63
242.420,15
242.445,-27
242.470,-99
242.495,-203
242.520,-282
242.545,-247
242.570,-53
242.595,246
242.620,540
242.645,736
242.670,827
242.695,872
242.720,922
242.745,980
242.770,1021
242.795,1034
242.820,1041
242.845,1071
242.870,1123
242.895,1168
242.920,1182
242.945,1158
242.970,1107
242.995,1033
243.020,938
243.045,823
243.070,698
243.095,564
243.120,414
243.145,237
243.170,45
243.195,-134
243.220,-291
243.245,-445
243.270,-625
243.295,-818
243.320,-956
243.345,-955
243.370,-795
243.395,-546
243.420,-316
243.445,-174
243.470,-111
243.495,-78
243.520,-46
243.545,-27
243.570,-40
243.595,-77
243.620,-106
243.645,-106
243.670,-91
243.695,-84
243.720,-93
243.745,-91
243.770,-57
243.795,9
243.820,84
243.845,148
243.870,205
243.895,261
243.920,309
243.945,334
243.970,332
243.995,315
244.020,296
244.045,261
244.070,192
244.095,106
244.120,70
244.145,162
244.170,393
244.195,688
244.220,942
244.245,1093
244.270,1162
244.295,1206
244.320,1258
244.345,1303
244.370,1313
244.395,1287
244.420,1247
244.445,1215
244.470,1187
244.495,1147
244.520,1090
244.545,1026
244.570,958
244.595,881
244.620,787
244.645,679
244.670,571
244.695,468
244.720,359
244.745,222
244.770,42
244.795,-185
244.820,-451
244.845,-732
244.870,-980
244.895,-1128
244.920,-1124
244.945,-967
244.970,-722
244.995,-481
245.020,-321
245.045,-261
245.070,-279
245.095,-332
245.120,-381
245.145,-394
245.170,-348
245.195,-235
245.220,-69
245.245,117
245.270,290
245.295,421
245.320,502
245.345,535
245.370,531
245.395,505
245.420,469
245.445,434
245.470,406
245.495,388
245.520,381
245.545,381
245.570,387
245.595,419
245.620,516
245.645,717
245.670,1024
245.695,1381
245.720,1695
245.745,1899
245.770,1990
245.795,2013
245.820,2006
245.845,1964
245.870,1849
245.895,1640
245.920,1359
245.945,1056
245.970,765
245.995,500
246.020,266
246.045,77
246.070,-51
246.095,-131
246.120,-199
246.145,-291
246.170,-412
246.195,-544
246.220,-677
246.245,-823
246.270,-991
246.295,-1144
246.320,-1202
246.345,-1097
246.370,-841
246.395,-528
246.420,-263
246.445,-87
246.470,37
246.495,166
246.520,310
246.545,427
246.570,474
246.595,460
246.620,432
246.645,425
246.670,436
246.695,437
246.720,418
246.745,396
246.770,391
246.795,391
246.820,362
246.845,290
246.870,195
246.895,104
246.920,11
246.945,-111
246.970,-273
246.995,-416
247.020,-443
247.045,-296
247.070,-7
247.095,322
247.120,593
247.145,774
247.170,889
247.195,970
247.220,1024
247.245,1039
247.270,1011
247.295,961
247.320,916
247.345,890
247.370,873
247.395,846
247.420,795
247.445,719
247.470,627
247.495,533
247.520,437
247.545,330
247.570,203
247.595,65
247.620,-61
247.645,-163
247.670,-259
247.695,-379
247.720,-522
247.745,-627
247.770,-606
247.795,-423
247.820,-133
247.845,153
247.870,356
247.895,474
247.920,555
247.945,628
247.970,677
247.995,678
248.020,640
248.045,608
248.070,620
248.095,666
248.120,711
248.145,730
248.170,727
248.195,714
248.220,688
248.245,635
248.270,549
248.295,443
248.320,334
248.345,226
248.370,120
248.395,20
248.420,-71
248.445,-166
248.470,-282
248.495,-404
248.520,-475
248.545,-425
248.570,-235
248.595,31
248.620,277
248.645,444
248.670,543
248.695,619
248.720,693
248.745,747
248.770,762
248.795,750
248.820,748
248.845,775
248.870,824
248.895,875
248.920,921
248.945,965
248.970,999
248.995,1001
249.020,965
249.045,905
249.070,847
249.095,792
249.120,724
249.145,635
249.170,542
249.195,471
249.220,412
249.245,332
249.270,221
249.295,131
249.320,144
249.345,295
249.370,526
249.395,724
249.420,815
249.445,805
249.470,756
249.495,712
249.520,668
249.545,596
249.570,492
249.595,377
249.620,276
249.645,188
249.670,93
249.695,-25
249.720,-168
249.745,-322
249.770,-481
249.795,-643
249.820,-806
249.845,-961
249.870,-1088
249.895,-1169
249.920,-1192
249.945,-1170
249.970,-1144
249.995,-1158
250.020,-1225
250.045,-1300
250.070,-1300
250.095,-1167
250.120,-911
250.145,-597
250.170,-289
250.195,-9
250.220,256
250.245,513
250.270,733
250.295,882
250.320,951
250.345,974
250.370,995
250.395,1034
250.420,1074
250.445,1081
250.470,1030
250.495,922
250.520,786
250.545,656
250.570,560
250.595,497
250.620,447
250.645,391
250.670,338
250.695,311
250.720,323
250.745,352
250.770,361
250.795,342
250.820,333
250.845,385
250.870,507
250.895,654
250.920,770
250.945,837
250.970,877
250.995,913
251.020,939
251.045,934
251.070,899
251.095,861
251.120,848
251.145,855
251.170,864
251.195,873
251.220,897
251.245,944
251.270,978
251.295,946
251.320,829
251.345,663
251.370,514
251.395,420
251.420,369
251.445,327
251.470,274
251.495,209
251.520,133
251.545,47
251.570,-27
251.595,-44
251.620,41
251.645,228
251.670,444
251.695,599
251.720,644
251.745,591
251.770,490
251.795,383
251.820,282
251.845,188
251.870,109
251.895,61
251.920,49
251.945,61
251.970,71
251.995,61
252.020,29
252.045,-14
252.070,-57
252.095,-98
252.120,-148
252.145,-213
252.170,-286
252.195,-349
252.220,-396
252.245,-450
252.270,-541
252.295,-663
252.320,-748
252.345,-700
252.370,-471
252.395,-115
252.420,244
252.445,500
252.470,630
252.495,686
252.520,726
252.545,768
252.570,792
252.595,787
252.620,771
252.645,775
252.670,813
252.695,871
252.720,922
252.745,948
252.770,940
252.795,897
252.820,825
252.845,730
252.870,623
252.895,510
252.920,396
252.945,281
252.970,168
252.995,48
253.020,-90
253.045,-245
253.070,-377
253.095,-420
253.120,-323
253.145,-103
253.170,150
253.195,338
253.220,416
253.245,415
253.270,401
253.295,406
253.320,417
253.345,404
253.370,367
253.395,337
253.420,342
253.445,376
253.470,405
253.495,402
253.520,371
253.545,333
253.570,300
253.595,260
253.620,193
253.645,101
253.670,1
253.695,-89
253.720,-182
253.745,-301
253.770,-444
253.795,-562
253.820,-580
253.845,-451
253.870,-204
253.895,70
253.920,286
253.945,414
253.970,488
253.995,557
254.020,636
254.045,696
254.070,709
254.095,684
254.120,661
254.145,670
254.170,698
254.195,703
254.220,661
254.245,591
254.270,530
254.295,490
254.320,449
254.345,376
254.370,275
254.395,176
254.420,98
254.445,19
254.470,-96
254.495,-242
254.520,-344
254.545,-311
254.570,-109
254.595,192
254.620,479
254.645,664
254.670,743
254.695,767
254.720,783
254.745,796
254.770,785
254.795,737
254.820,664
254.845,598
254.870,561
254.895,554
254.920,558
254.945,550
254.970,518
254.995,466
255.020,402
255.045,332
255.070,248
255.095,149
255.120,48
255.145,-32
255.170,-90
255.195,-155
255.220,-259
255.245,-380
255.270,-440
255.295,-351
255.320,-97
255.345,233
255.370,517
255.395,684
255.420,754
255.445,790
255.470,828
255.495,854
255.520,839
255.545,787
255.570,729
255.595,695
255.620,682
255.645,670
255.670,648
255.695,615
255.720,576
255.745,525
255.770,457
255.795,371
255.820,273
255.845,162
255.870,40
255.895,-83
255.920,-198
255.945,-304
255.970,-423
255.995,-565
256.020,-691
256.045,-718
256.070,-581
256.095,-303
256.120,13
256.145,254
256.170,384
256.195,446
256.220,505
256.245,574
256.270,620
256.295,613
256.320,566
256.345,524
256.370,523
256.395,567
256.420,632
256.445,689
256.470,711
256.495,679
256.520,589
256.545,462
256.570,333
256.595,224
256.620,132
256.645,46
256.670,-31
256.695,-83
256.720,-110
256.745,-143
256.770,-217
256.795,-317
256.820,-366
256.845,-278
256.870,-38
256.895,272
256.920,540
256.945,704
256.970,782
256.995,828
257.020,872
257.045,899
257.070,892
257.095,859
257.120,829
257.145,814
257.170,798
257.195,755
257.220,684
257.245,603
257.270,525
257.295,448
257.320,360
257.345,266
257.370,186
257.395,126
257.420,74
257.445,9
257.470,-69
257.495,-135
257.520,-179
257.545,-222
257.570,-305
257.595,-423
257.620,-507
257.645,-468
257.670,-276
257.695,2
257.720,256
257.745,412
257.770,483
257.795,523
257.820,558
257.845,565
257.870,516
257.895,428
257.920,362
257.945,368
257.970,437
257.995,516
258.020,562
258.045,577
258.070,591
258.095,616
258.120,632
258.145,615
258.170,567
258.195,513
258.220,469
258.245,427
258.270,369
258.295,301
258.320,245
258.345,212
258.370,177
258.395,108
258.420,9
258.445,-54
258.470,-3
258.495,183
258.520,438
258.545,650
258.570,746
258.595,733
258.620,669
258.645,598
258.670,527
258.695,442
258.720,347
258.745,264
258.770,212
258.795,187
258.820,172
258.845,162
258.870,166
258.895,188
258.920,210
