df_hash,22ZHK4.7H06EP
device,HZ2X61
project_hash,29R7
project_name,istanbul_aydin_university
person_hash,29R7.REJ0
person_label,V156
date_time_start,2026-06-08_19-48-47.051000_+03
date_time_start_unix,1780930127.051
date_time_end,2026-06-08_19-59-06.457000_+03
length_difference_noticed,no

time,ppg_med
5.296,727
5.321,835
5.346,1007
5.371,1100
5.396,1064
5.421,1026
5.446,1126
5.471,1308
5.496,1378
5.521,1266
5.546,1147
5.571,1209
5.596,1379
5.621,1389
5.646,1148
5.671,893
5.696,879
5.721,1005
5.746,914
5.771,484
5.796,35
5.821,-91
5.846,-33
5.871,-260
5.896,-928
5.921,-1616
5.946,-1877
5.971,-1887
5.996,-2258
6.021,-3189
6.046,-4131
6.071,-4505
6.096,-4540
6.121,-5019
6.146,-6192
6.171,-7353
6.196,-7766
6.221,-7722
6.246,-8213
6.271,-9550
6.296,-10840
6.321,-11153
6.346,-10859
6.371,-11200
6.396,-12568
6.421,-13839
6.446,-13851
6.471,-13067
6.496,-13043
6.521,-14264
6.546,-15329
6.571,-14792
6.596,-13231
6.621,-12588
6.646,-13472
6.671,-14139
6.696,-12784
6.721,-10132
6.746,-8614
6.771,-9002
6.796,-9116
6.821,-6689
6.846,-2630
6.871,-14
6.896,167
6.921,665
6.946,4375
6.971,10146
6.996,14020
7.021,14684
7.046,15685
7.071,20830
7.096,28646
7.121,32767
7.146,32767
7.171,32767
7.196,32767
7.221,32767
7.246,32767
7.271,32767
7.296,32767
7.321,32767
7.346,32767
7.371,32767
7.396,32767
7.421,32767
7.446,32767
7.471,32767
7.496,32767
7.521,32767
7.546,19272
7.571,-32768
7.596,-32768
7.621,-32768
7.646,-32768
7.671,-32768
7.696,-32768
7.721,-32768
7.746,-32768
7.771,-32768
7.796,-32768
7.821,-32768
7.846,-32768
7.871,-32768
7.896,-32768
7.921,-32768
7.946,-32768
7.971,-32768
7.996,-31122
8.021,-23795
8.046,-17105
8.071,-14698
8.096,-14508
8.121,-12089
8.146,-6669
8.171,-1756
8.196,-88
8.221,-107
8.246,1560
8.271,5472
8.296,8879
8.321,9658
8.346,9071
8.371,9811
8.396,12323
8.421,14417
8.446,14410
8.471,13336
8.496,13368
8.521,14849
8.546,15988
8.571,15423
8.596,14005
8.621,13517
8.646,14238
8.671,14687
8.696,13717
8.721,12017
8.746,11084
8.771,11228
8.796,11302
8.821,10351
8.846,8842
8.871,7899
8.896,7758
8.921,7549
8.946,6587
8.971,5296
8.996,4568
9.021,4536
9.046,4443
9.071,3701
9.096,2649
9.121,2035
9.146,2013
9.171,2007
9.196,1539
9.221,837
9.246,452
9.271,499
9.296,543
9.321,224
9.346,-287
9.371,-570
9.396,-529
9.421,-474
9.446,-665
9.471,-975
9.496,-1112
9.521,-1031
9.546,-969
9.571,-1096
9.596,-1280
9.621,-1283
9.646,-1094
9.671,-940
9.696,-988
9.721,-1133
9.746,-1139
9.771,-924
9.796,-634
9.821,-441
9.846,-354
9.871,-262
9.896,-112
9.921,35
9.946,109
9.971,136
9.996,204
10.021,338
10.046,469
10.071,528
10.096,537
10.121,544
10.146,518
10.171,485
10.196,446
10.221,401
10.246,352
10.271,309
10.296,276
10.321,249
10.346,220
10.371,186
10.396,151
10.421,115
10.446,70
10.471,0
10.496,-90
10.521,-167
10.546,-189
10.571,-138
10.596,-32
10.621,88
10.646,193
10.671,278
10.696,351
10.721,409
10.746,440
10.771,443
10.796,438
10.821,450
10.846,482
10.871,514
10.896,526
10.921,517
10.946,506
10.971,502
10.996,496
11.021,472
11.046,435
11.071,403
11.096,384
11.121,364
11.146,322
11.171,260
11.196,203
11.221,172
11.246,152
11.271,106
11.296,26
11.321,-54
11.346,-82
11.371,-38
11.396,50
11.421,133
11.446,183
11.471,209
11.496,237
11.521,282
11.546,339
11.571,392
11.596,430
11.621,449
11.646,451
11.671,452
11.696,468
11.721,502
11.746,534
11.771,540
11.796,519
11.821,492
11.846,480
11.871,473
11.896,439
11.921,360
11.946,265
11.971,208
11.996,210
12.021,241
12.046,245
12.071,200
12.096,133
12.121,80
12.146,45
12.171,-3
12.196,-81
12.221,-153
12.246,-159
12.271,-73
12.296,63
12.321,182
12.346,244
12.371,268
12.396,300
12.421,355
12.446,411
12.471,438
12.496,433
12.521,422
12.546,428
12.571,447
12.596,462
12.621,466
12.646,472
12.671,485
12.696,490
12.721,463
12.746,397
12.771,315
12.796,255
12.821,234
12.846,236
12.871,235
12.896,213
12.921,172
12.946,116
12.971,49
12.996,-17
13.021,-60
13.046,-51
13.071,21
13.096,133
13.121,241
13.146,312
13.171,347
13.196,370
13.221,402
13.246,440
13.271,466
13.296,468
13.321,458
13.346,464
13.371,497
13.396,540
13.421,552
13.446,511
13.471,438
13.496,379
13.521,369
13.546,393
13.571,406
13.596,378
13.621,326
13.646,289
13.671,279
13.696,262
13.721,196
13.746,82
13.771,-25
13.796,-73
13.821,-65
13.846,-59
13.871,-100
13.896,-166
13.921,-187
13.946,-112
13.971,34
13.996,183
14.021,281
14.046,331
14.071,369
14.096,417
14.121,458
14.146,473
14.171,469
14.196,473
14.221,504
14.246,546
14.271,572
14.296,574
14.321,564
14.346,560
14.371,556
14.396,535
14.421,493
14.446,450
14.471,429
14.496,428
14.521,419
14.546,371
14.571,283
14.596,184
14.621,112
14.646,87
14.671,100
14.696,121
14.721,113
14.746,51
14.771,-54
14.796,-154
14.821,-182
14.846,-104
14.871,50
14.896,202
14.921,284
14.946,294
14.971,284
14.996,306
15.021,363
15.046,418
15.071,437
15.096,426
15.121,419
15.146,440
15.171,476
15.196,502
15.221,503
15.246,487
15.271,470
15.296,457
15.321,441
15.346,416
15.371,387
15.396,360
15.421,338
15.446,315
15.471,286
15.496,251
15.521,214
15.546,179
15.571,145
15.596,109
15.621,64
15.646,4
15.671,-66
15.696,-125
15.721,-136
15.746,-80
15.771,31
15.796,159
15.821,264
15.846,333
15.871,379
15.896,417
15.921,449
15.946,462
15.971,459
15.996,456
16.021,472
16.046,506
16.071,535
16.096,539
16.121,521
16.146,500
16.171,489
16.196,483
16.221,465
16.246,431
16.271,392
16.296,365
16.321,350
16.346,326
16.371,273
16.396,187
16.421,89
16.446,12
16.471,-16
16.496,-5
16.521,9
16.546,-19
16.571,-112
16.596,-229
16.621,-289
16.646,-225
16.671,-46
16.696,161
16.721,301
16.746,337
16.771,313
16.796,307
16.821,352
16.846,424
16.871,478
16.896,500
16.921,510
16.946,533
16.971,570
16.996,600
17.021,610
17.046,608
17.071,604
17.096,599
17.121,584
17.146,559
17.171,535
17.196,514
17.221,489
17.246,450
17.271,405
17.296,372
17.321,353
17.346,318
17.371,233
17.396,103
17.421,-13
17.446,-54
17.471,-22
17.496,11
17.521,-29
17.546,-145
17.571,-254
17.596,-260
17.621,-138
17.646,47
17.671,207
17.696,296
17.721,330
17.746,347
17.771,369
17.796,393
17.821,417
17.846,444
17.871,478
17.896,507
17.921,518
17.946,514
17.971,511
17.996,519
18.021,529
18.046,523
18.071,497
18.096,467
18.121,442
18.146,415
18.171,374
18.196,323
18.221,283
18.246,260
18.271,234
18.296,182
18.321,108
18.346,46
18.371,7
18.396,-37
18.421,-129
18.446,-255
18.471,-341
18.496,-319
18.521,-201
18.546,-75
18.571,-16
18.596,-20
18.621,-15
18.646,45
18.671,145
18.696,229
18.721,276
18.746,312
18.771,372
18.796,453
18.821,526
18.846,573
18.871,597
18.896,612
18.921,620
18.946,625
18.971,636
18.996,656
19.021,664
19.046,627
19.071,544
19.096,469
19.121,455
19.146,500
19.171,540
19.196,520
19.221,451
19.246,390
19.271,359
19.296,320
19.321,243
19.346,170
19.371,195
19.396,353
19.421,563
19.446,690
19.471,678
19.496,602
19.521,584
19.546,670
19.571,793
19.596,853
19.621,801
19.646,658
19.671,461
19.696,242
19.721,27
19.746,-138
19.771,-221
19.796,-226
19.821,-195
19.846,-162
19.871,-126
19.896,-63
19.921,30
19.946,125
19.971,175
19.996,154
20.021,65
20.046,-65
20.071,-194
20.096,-273
20.121,-279
20.146,-241
20.171,-233
20.196,-305
20.221,-427
20.246,-506
20.271,-465
20.296,-315
20.321,-132
20.346,16
20.371,135
20.396,264
20.421,416
20.446,564
20.471,680
20.496,775
20.521,877
20.546,984
20.571,1048
20.596,1029
20.621,942
20.646,847
20.671,792
20.696,768
20.721,730
20.746,654
20.771,561
20.796,489
20.821,450
20.846,422
20.871,377
20.896,313
20.921,255
20.946,221
20.971,204
20.996,171
21.021,99
21.046,-6
21.071,-102
21.096,-142
21.121,-101
21.146,-5
21.171,95
21.196,157
21.221,173
21.246,167
21.271,168
21.296,186
21.321,210
21.346,233
21.371,258
21.396,286
21.421,315
21.446,333
21.471,339
21.496,339
21.521,345
21.546,359
21.571,373
21.596,378
21.621,379
21.646,384
21.671,396
21.696,411
21.721,416
21.746,402
21.771,369
21.796,333
21.821,322
21.846,365
21.871,468
21.896,604
21.921,722
21.946,789
21.971,806
21.996,802
22.021,798
22.046,784
22.071,738
22.096,656
22.121,562
22.146,480
22.171,406
22.196,307
22.221,165
22.246,-1
22.271,-140
22.296,-213
22.321,-225
22.346,-217
22.371,-228
22.396,-270
22.421,-323
22.446,-366
22.471,-391
22.496,-412
22.521,-448
22.546,-509
22.571,-574
22.596,-588
22.621,-488
22.646,-250
22.671,78
22.696,399
22.721,623
22.746,726
22.771,754
22.796,771
22.821,797
22.846,808
22.871,775
22.896,703
22.921,629
22.946,582
22.971,564
22.996,556
23.021,544
23.046,530
23.071,519
23.096,499
23.121,454
23.146,376
23.171,277
23.196,179
23.221,101
23.246,49
23.271,20
23.296,8
23.321,10
23.346,30
23.371,80
23.396,165
23.421,269
23.446,360
23.471,411
23.496,431
23.521,452
23.546,495
23.571,541
23.596,553
23.621,517
23.646,469
23.671,453
23.696,474
23.721,489
23.746,461
23.771,399
23.796,350
23.821,335
23.846,330
23.871,293
23.896,225
23.921,170
23.946,160
23.971,169
23.996,143
24.021,66
24.046,-11
24.071,-18
24.096,60
24.121,174
24.146,258
24.171,295
24.196,315
24.221,345
24.246,377
24.271,391
24.296,382
24.321,375
24.346,389
24.371,419
24.396,445
24.421,458
24.446,459
24.471,448
24.496,407
24.521,331
24.546,242
24.571,186
24.596,186
24.621,218
24.646,228
24.671,182
24.696,90
24.721,-2
24.746,-53
24.771,-39
24.796,33
24.821,142
24.846,252
24.871,326
24.896,350
24.921,342
24.946,341
24.971,369
24.996,410
25.021,430
25.046,412
25.071,376
25.096,354
25.121,356
25.146,367
25.171,369
25.196,359
25.221,349
25.246,340
25.271,320
25.296,283
25.321,245
25.346,221
25.371,209
25.396,184
25.421,125
25.446,49
25.471,1
25.496,13
25.521,73
25.546,139
25.571,179
25.596,199
25.621,226
25.646,274
25.671,333
25.696,382
25.721,408
25.746,416
25.771,413
25.796,408
25.821,408
25.846,421
25.871,442
25.896,455
25.921,446
25.946,420
25.971,401
25.996,397
26.021,386
26.046,334
26.071,241
26.096,150
26.121,113
26.146,134
26.171,157
26.196,121
26.221,32
26.246,-41
26.271,-31
26.296,65
26.321,185
26.346,266
26.371,302
26.396,331
26.421,381
26.446,437
26.471,464
26.496,457
26.521,447
26.546,467
26.571,507
26.596,523
26.621,489
26.646,430
26.671,396
26.696,408
26.721,436
26.746,430
26.771,379
26.796,322
26.821,297
26.846,295
26.871,266
26.896,179
26.921,64
26.946,-8
26.971,-7
26.996,24
27.021,13
27.046,-65
27.071,-147
27.096,-146
27.121,-36
27.146,118
27.171,233
27.196,282
27.221,309
27.246,364
27.271,446
27.296,507
27.321,520
27.346,508
27.371,518
27.396,560
27.421,595
27.446,582
27.471,528
27.496,484
27.521,485
27.546,513
27.571,515
27.596,459
27.621,368
27.646,295
27.671,269
27.696,278
27.721,284
27.746,259
27.771,202
27.796,129
27.821,59
27.846,9
27.871,-15
27.896,-17
27.921,-6
27.946,7
27.971,24
27.996,57
28.021,116
28.046,190
28.071,259
28.096,305
28.121,330
28.146,350
28.171,375
28.196,399
28.221,410
28.246,409
28.271,408
28.296,418
28.321,434
28.346,438
28.371,419
28.396,387
28.421,359
28.446,344
28.471,328
28.496,296
28.521,251
28.546,214
28.571,198
28.596,188
28.621,153
28.646,78
28.671,-3
28.696,-34
28.721,25
28.746,153
28.771,280
28.796,345
28.821,347
28.846,336
28.871,358
28.896,413
28.921,458
28.946,461
28.971,435
28.996,422
29.021,448
29.046,491
29.071,510
29.096,489
29.121,455
29.146,438
29.171,436
29.196,421
29.221,375
29.246,317
29.271,281
29.296,270
29.321,253
29.346,203
29.371,133
29.396,84
29.421,67
29.446,41
29.471,-37
29.496,-153
29.521,-224
29.546,-176
29.571,-18
29.596,155
29.621,252
29.646,261
29.671,251
29.696,291
29.721,383
29.746,472
29.771,507
29.796,491
29.821,469
29.846,477
29.871,518
29.896,562
29.921,577
29.946,552
29.971,497
29.996,435
30.021,390
30.046,372
30.071,372
30.096,369
30.121,348
30.146,309
30.171,265
30.196,226
30.221,194
30.246,166
30.271,138
30.296,104
30.321,55
30.346,-9
30.371,-69
30.396,-84
30.421,-32
30.446,71
30.471,179
30.496,250
30.521,284
30.546,313
30.571,362
30.596,419
30.621,450
30.646,441
30.671,417
30.696,415
30.721,449
30.746,494
30.771,515
30.796,492
30.821,439
30.846,384
30.871,348
30.896,336
30.921,338
30.946,339
30.971,324
30.996,286
31.021,234
31.046,188
31.071,163
31.096,155
31.121,142
31.146,96
31.171,20
31.196,-53
31.221,-77
31.246,-29
31.271,71
31.296,178
31.321,253
31.346,297
31.371,333
31.396,377
31.421,419
31.446,439
31.471,435
31.496,428
31.521,446
31.546,487
31.571,521
31.596,525
31.621,501
31.646,475
31.671,461
31.696,452
31.721,429
31.746,392
31.771,353
31.796,323
31.821,295
31.846,253
31.871,197
31.896,141
31.921,89
31.946,24
31.971,-65
31.996,-155
32.021,-187
32.046,-116
32.071,37
32.096,195
32.121,285
32.146,297
32.171,282
32.196,293
32.221,343
32.246,402
32.271,443
32.296,464
32.321,482
32.346,502
32.371,517
32.396,517
32.421,509
32.446,503
32.471,498
32.496,483
32.521,458
32.546,435
32.571,423
32.596,408
32.621,357
32.646,261
32.671,154
32.696,90
32.721,95
32.746,131
32.771,128
32.796,51
32.821,-67
32.846,-145
32.871,-122
32.896,-4
32.921,144
32.946,257
32.971,309
32.996,320
33.021,327
33.046,352
33.071,386
33.096,414
33.121,424
33.146,423
33.171,423
33.196,426
33.221,426
33.246,418
33.271,405
33.296,397
33.321,397
33.346,394
33.371,377
33.396,344
33.421,312
33.446,296
33.471,294
33.496,286
33.521,260
33.546,223
33.571,192
33.596,170
33.621,134
33.646,64
33.671,-24
33.696,-79
33.721,-51
33.746,61
33.771,202
33.796,309
33.821,354
33.846,361
33.871,368
33.896,391
33.921,417
33.946,429
33.971,424
33.996,416
34.021,413
34.046,416
34.071,414
34.096,404
34.121,387
34.146,366
34.171,341
34.196,317
34.221,299
34.246,291
34.271,295
34.296,300
34.321,291
34.346,258
34.371,198
34.396,125
34.421,62
34.446,33
34.471,51
34.496,111
34.521,194
34.546,274
34.571,332
34.596,366
34.621,383
34.646,397
34.671,410
34.696,419
34.721,416
34.746,406
34.771,402
34.796,416
34.821,439
34.846,445
34.871,416
34.896,366
34.921,334
34.946,341
34.971,360
34.996,341
35.021,262
35.046,164
35.071,114
35.096,134
35.121,174
35.146,153
35.171,45
35.196,-92
35.221,-176
35.246,-163
35.271,-84
35.296,4
35.321,75
35.346,140
35.371,221
35.396,312
35.421,393
35.446,452
35.471,493
35.496,528
35.521,556
35.546,569
35.571,558
35.596,531
35.621,505
35.646,492
35.671,494
35.696,496
35.721,478
35.746,432
35.771,380
35.796,353
35.821,356
35.846,341
35.871,243
35.896,52
35.921,-144
35.946,-225
35.971,-142
35.996,17
36.021,105
36.046,48
36.071,-87
36.096,-166
36.121,-115
36.146,22
36.171,152
36.196,227
36.221,276
36.246,343
36.271,429
36.296,501
36.321,537
36.346,552
36.371,570
36.396,589
36.421,598
36.446,595
36.471,599
36.496,613
36.521,613
36.546,575
36.571,513
36.596,475
36.621,492
36.646,541
36.671,571
36.696,559
36.721,528
36.746,511
36.771,496
36.796,441
36.821,322
36.846,164
36.871,17
36.896,-95
36.921,-185
36.946,-260
36.971,-289
36.996,-234
37.021,-95
37.046,64
37.071,168
37.096,190
37.121,163
37.146,145
37.171,166
37.196,222
37.221,303
37.246,402
37.271,512
37.296,610
37.321,664
37.346,670
37.371,652
37.396,638
37.421,630
37.446,602
37.471,536
37.496,455
37.521,397
37.546,375
37.571,355
37.596,292
37.621,183
37.646,77
37.671,25
37.696,18
37.721,-6
37.746,-100
37.771,-231
37.796,-306
37.821,-258
37.846,-108
37.871,53
37.896,160
37.921,218
37.946,275
37.971,345
37.996,379
38.021,325
38.046,200
38.071,93
38.096,90
38.121,198
38.146,344
38.171,445
38.196,468
38.221,436
38.246,391
38.271,353
38.296,319
38.321,280
38.346,234
38.371,193
38.396,173
38.421,185
38.446,216
38.471,225
38.496,178
38.521,87
38.546,20
38.571,53
38.596,200
38.621,393
38.646,538
38.671,590
38.696,572
38.721,538
38.746,513
38.771,491
38.796,470
38.821,468
38.846,500
38.871,550
38.896,573
38.921,541
38.946,470
38.971,403
38.996,366
39.021,351
39.046,340
39.071,323
39.096,307
39.121,292
39.146,269
39.171,234
39.196,197
39.221,166
39.246,132
39.271,73
39.296,-1
39.321,-48
39.346,-14
39.371,104
39.396,248
39.421,345
39.446,369
39.471,356
39.496,357
39.521,390
39.546,428
39.571,443
39.596,434
39.621,425
39.646,427
39.671,428
39.696,411
39.721,370
39.746,320
39.771,273
39.796,233
39.821,196
39.846,166
39.871,150
39.896,142
39.921,116
39.946,51
39.971,-40
39.996,-110
40.021,-103
40.046,-3
40.071,147
40.096,279
40.121,352
40.146,376
40.171,390
40.196,419
40.221,450
40.246,463
40.271,454
40.296,448
40.321,469
40.346,508
40.371,531
40.396,518
40.421,484
40.446,463
40.471,469
40.496,481
40.521,464
40.546,413
40.571,349
40.596,299
40.621,259
40.646,208
40.671,139
40.696,78
40.721,55
40.746,70
40.771,91
40.796,86
40.821,62
40.846,60
40.871,113
40.896,214
40.921,324
40.946,403
40.971,437
40.996,432
41.021,401
41.046,358
41.071,319
41.096,305
41.121,323
41.146,357
41.171,375
41.196,357
41.221,314
41.246,276
41.271,261
41.296,261
41.321,251
41.346,220
41.371,181
41.396,154
41.421,145
41.446,130
41.471,79
41.496,-13
41.521,-109
41.546,-149
41.571,-88
41.596,62
41.621,242
41.646,380
41.671,444
41.696,455
41.721,456
41.746,475
41.771,501
41.796,509
41.821,486
41.846,448
41.871,419
41.896,409
41.921,415
41.946,423
41.971,428
41.996,425
42.021,407
42.046,369
42.071,314
42.096,257
42.121,216
42.146,195
42.171,181
42.196,153
42.221,98
42.246,22
42.271,-44
42.296,-65
42.321,-17
42.346,84
42.371,195
42.396,268
42.421,295
42.446,307
42.471,345
42.496,410
42.521,468
42.546,486
42.571,468
42.596,456
42.621,479
42.646,524
42.671,552
42.696,540
42.721,503
42.746,470
42.771,450
42.796,426
42.821,379
42.846,313
42.871,248
42.896,198
42.921,168
42.946,157
42.971,164
42.996,170
43.021,139
43.046,50
43.071,-67
43.096,-139
43.121,-101
43.146,36
43.171,189
43.196,277
43.221,286
43.246,274
43.271,302
43.296,374
43.321,447
43.346,486
43.371,493
43.396,500
43.421,521
43.446,545
43.471,551
43.496,535
43.521,508
43.546,482
43.571,459
43.596,438
43.621,419
43.646,397
43.671,359
43.696,297
43.721,223
43.746,166
43.771,149
43.796,164
43.821,178
43.846,153
43.871,74
43.896,-38
43.921,-141
43.946,-186
43.971,-142
43.996,-21
44.021,118
44.046,212
44.071,236
44.096,224
44.121,239
44.146,305
44.171,389
44.196,438
44.221,434
44.246,409
44.271,401
44.296,419
44.321,436
44.346,436
44.371,426
44.396,422
44.421,422
44.446,407
44.471,374
44.496,346
44.521,342
44.546,348
44.571,329
44.596,271
44.621,206
44.646,174
44.671,175
44.696,165
44.721,106
44.746,18
44.771,-34
44.796,-3
44.821,95
44.846,210
44.871,300
44.896,366
44.921,423
44.946,473
44.971,503
44.996,510
45.021,508
45.046,511
45.071,515
45.096,508
45.121,490
45.146,480
45.171,484
45.196,484
45.221,451
45.246,383
45.271,315
45.296,284
45.321,295
45.346,317
45.371,313
45.396,272
45.421,212
45.446,152
45.471,100
45.496,57
45.521,20
45.546,-18
45.571,-72
45.596,-138
45.621,-187
45.646,-178
45.671,-95
45.696,29
45.721,140
45.746,207
45.771,248
45.796,300
45.821,374
45.846,442
45.871,470
45.896,462
45.921,451
45.946,467
45.971,511
45.996,555
46.021,575
46.046,563
46.071,525
46.096,476
46.121,432
46.146,411
46.171,417
46.196,430
46.221,423
46.246,386
46.271,341
46.296,314
46.321,307
46.346,293
46.371,252
46.396,190
46.421,135
46.446,96
46.471,51
46.496,-19
46.521,-96
46.546,-126
46.571,-72
46.596,43
46.621,159
46.646,230
46.671,265
46.696,304
46.721,368
46.746,435
46.771,474
46.796,478
46.821,471
46.846,481
46.871,506
46.896,523
46.921,520
46.946,510
46.971,507
46.996,510
47.021,496
47.046,446
47.071,371
47.096,304
47.121,274
47.146,280
47.171,296
47.196,290
47.221,253
47.246,199
47.271,150
47.296,118
47.321,91
47.346,48
47.371,-19
47.396,-96
47.421,-147
47.446,-140
47.471,-68
47.496,43
47.521,157
47.546,243
47.571,301
47.596,345
47.621,390
47.646,434
47.671,464
47.696,470
47.721,462
47.746,460
47.771,480
47.796,515
47.821,542
47.846,538
47.871,504
47.896,455
47.921,409
47.946,375
47.971,353
47.996,343
48.021,340
48.046,331
48.071,298
48.096,239
48.121,175
48.146,137
48.171,132
48.196,127
48.221,79
48.246,-17
48.271,-111
48.296,-137
48.321,-68
48.346,58
48.371,175
48.396,246
48.421,283
48.446,322
48.471,376
48.496,430
48.521,459
48.546,464
48.571,463
48.596,479
48.621,511
48.646,542
48.671,554
48.696,543
48.721,519
48.746,497
48.771,483
48.796,475
48.821,459
48.846,422
48.871,361
48.896,290
48.921,229
48.946,197
48.971,192
48.996,198
49.021,184
49.046,134
49.071,51
49.096,-35
49.121,-93
49.146,-100
49.171,-63
49.196,-11
49.221,28
49.246,52
49.271,74
49.296,116
49.321,186
49.346,274
49.371,357
49.396,419
49.421,457
49.446,478
49.471,496
49.496,518
49.521,543
49.546,565
49.571,576
49.596,579
49.621,578
49.646,574
49.671,559
49.696,520
49.721,459
49.746,392
49.771,346
49.796,333
49.821,343
49.846,349
49.871,326
49.896,269
49.921,197
49.946,137
49.971,108
49.996,97
50.021,70
50.046,0
50.071,-99
50.096,-174
50.121,-171
50.146,-82
50.171,46
50.196,152
50.221,211
50.246,246
50.271,291
50.296,352
50.321,403
50.346,423
50.371,421
50.396,424
50.421,449
50.446,483
50.471,505
50.496,506
50.521,493
50.546,475
50.571,452
50.596,427
50.621,404
50.646,385
50.671,354
50.696,291
50.721,203
50.746,128
50.771,106
50.796,130
50.821,149
50.846,107
50.871,6
50.896,-95
50.921,-124
50.946,-56
50.971,74
50.996,210
51.021,307
51.046,355
51.071,368
51.096,368
51.121,372
51.146,388
51.171,411
51.196,432
51.221,440
51.246,437
51.271,428
51.296,420
51.321,414
51.346,411
51.371,411
51.396,407
51.421,387
51.446,347
51.471,300
51.496,264
51.521,246
51.546,230
51.571,194
51.596,139
51.621,94
51.646,74
51.671,60
51.696,14
51.721,-66
51.746,-128
51.771,-102
51.796,32
51.821,223
51.846,391
51.871,491
51.896,536
51.921,564
51.946,599
51.971,646
51.996,709
52.021,787
52.046,853
52.071,860
52.096,778
52.121,637
52.146,518
52.171,484
52.196,525
52.221,571
52.246,559
52.271,484
52.296,390
52.321,319
52.346,269
52.371,216
52.396,143
52.421,62
52.446,-3
52.471,-48
52.496,-90
52.521,-151
52.546,-238
52.571,-328
52.596,-374
52.621,-333
52.646,-195
52.671,-7
52.696,153
52.721,235
52.746,250
52.771,258
52.796,303
52.821,375
52.846,428
52.871,436
52.896,421
52.921,430
52.946,472
52.971,515
52.996,522
53.021,496
53.046,472
53.071,468
53.096,466
53.121,438
53.146,387
53.171,345
53.196,331
53.221,326
53.246,298
53.271,248
53.296,207
53.321,200
53.346,206
53.371,179
53.396,103
53.421,20
53.446,-10
53.471,31
53.496,122
53.521,219
53.546,299
53.571,361
53.596,407
53.621,437
53.646,458
53.671,480
53.696,497
53.721,488
53.746,445
53.771,398
53.796,385
53.821,409
53.846,418
53.871,365
53.896,258
53.921,153
53.946,89
53.971,47
53.996,-8
54.021,-71
54.046,-112
54.071,-135
54.096,-197
54.121,-332
54.146,-481
54.171,-538
54.196,-481
54.221,-418
54.246,-472
54.271,-624
54.296,-720
54.321,-647
54.346,-467
54.371,-336
54.396,-311
54.421,-293
54.446,-178
54.471,-17
54.496,40
54.521,-49
54.546,-134
54.571,-24
54.596,315
54.621,771
54.646,1261
54.671,1802
54.696,2353
54.721,2683
54.746,2544
54.771,2015
54.796,1572
54.821,1656
54.846,2161
54.871,2462
54.896,2039
54.921,1055
54.946,221
54.971,69
54.996,436
55.021,713
55.046,551
55.071,201
55.096,134
55.121,444
55.146,742
55.171,643
55.196,220
55.221,-86
55.246,13
55.271,358
55.296,553
55.321,416
55.346,131
55.371,-9
55.396,80
55.421,252
55.446,345
55.471,341
55.496,317
55.521,306
55.546,267
55.571,179
55.596,81
55.621,28
55.646,10
55.671,-21
55.696,-84
55.721,-139
55.746,-140
55.771,-104
55.796,-92
55.821,-149
55.846,-273
55.871,-427
55.896,-561
55.921,-618
55.946,-551
55.971,-374
55.996,-190
56.021,-124
56.046,-205
56.071,-327
56.096,-344
56.121,-227
56.146,-99
56.171,-103
56.196,-252
56.221,-410
56.246,-440
56.271,-332
56.296,-194
56.321,-118
56.346,-95
56.371,-54
56.396,32
56.421,119
56.446,150
56.471,137
56.496,147
56.521,222
56.546,326
56.571,383
56.596,368
56.621,339
56.646,388
56.671,565
56.696,861
56.721,1240
56.746,1670
56.771,2087
56.796,2378
56.821,2416
56.846,2169
56.871,1763
56.896,1402
56.921,1211
56.946,1140
56.971,1039
56.996,824
57.021,562
57.046,390
57.071,364
57.096,408
57.121,396
57.146,277
57.171,86
57.196,-124
57.221,-343
57.246,-570
57.271,-757
57.296,-838
57.321,-814
57.346,-784
57.371,-857
57.396,-1021
57.421,-1127
57.446,-1027
57.471,-713
57.496,-328
57.521,-22
57.546,168
57.571,312
57.596,473
57.621,636
57.646,746
57.671,784
57.696,791
57.721,814
57.746,848
57.771,857
57.796,817
57.821,750
57.846,685
57.871,624
57.896,554
57.921,476
57.946,415
57.971,386
57.996,364
58.021,306
58.046,202
58.071,112
58.096,111
58.121,222
58.146,382
58.171,495
58.196,510
58.221,464
58.246,429
58.271,444
58.296,481
58.321,488
58.346,453
58.371,414
58.396,414
58.421,450
58.446,476
58.471,455
58.496,400
58.521,350
58.546,323
58.571,297
58.596,242
58.621,170
58.646,123
58.671,130
58.696,161
58.721,156
58.746,88
58.771,-1
58.796,-37
58.821,22
58.846,150
58.871,283
58.896,373
58.921,415
58.946,432
58.971,446
58.996,472
59.021,508
59.046,540
59.071,547
59.096,516
59.121,467
59.146,437
59.171,450
59.196,483
59.221,488
59.246,438
59.271,364
59.296,318
59.321,315
59.346,307
59.371,236
59.396,105
59.421,-15
59.446,-52
59.471,-8
59.496,33
59.521,-1
59.546,-108
59.571,-200
59.596,-189
59.621,-67
59.646,100
59.671,233
59.696,306
59.721,342
59.746,376
59.771,408
59.796,422
59.821,412
59.846,403
59.871,419
59.896,461
59.921,498
59.946,504
59.971,483
59.996,463
60.021,462
60.046,472
60.071,472
60.096,453
60.121,429
60.146,415
60.171,400
60.196,357
60.221,273
60.246,171
60.271,96
60.296,73
60.321,86
60.346,92
60.371,56
60.396,-19
60.421,-98
60.446,-138
60.471,-111
60.496,-16
60.521,119
60.546,254
60.571,353
60.596,410
60.621,446
60.646,485
60.671,527
60.696,552
60.721,548
60.746,525
60.771,512
60.796,519
60.821,532
60.846,532
60.871,515
60.896,496
60.921,482
60.946,459
60.971,411
60.996,347
61.021,295
61.046,267
61.071,242
61.096,185
61.121,96
61.146,19
61.171,0
61.196,33
61.221,71
61.246,69
61.271,34
61.296,21
61.321,66
61.346,157
61.371,249
61.396,308
61.421,340
61.446,367
61.471,399
61.496,430
61.521,453
61.546,473
61.571,502
61.596,535
61.621,557
61.646,556
61.671,537
61.696,515
61.721,489
61.746,451
61.771,391
61.796,323
61.821,274
61.846,260
61.871,268
61.896,263
61.921,220
61.946,143
61.971,69
61.996,34
62.021,42
62.046,62
62.071,56
62.096,15
62.121,-25
62.146,-17
62.171,61
62.196,181
62.221,286
62.246,344
62.271,369
62.296,402
62.321,459
62.346,519
62.371,545
62.396,529
62.421,506
62.446,511
62.471,546
62.496,572
62.521,558
62.546,512
62.571,472
62.596,460
62.621,455
62.646,424
62.671,359
62.696,295
62.721,262
62.746,250
62.771,215
62.796,142
62.821,63
62.846,29
62.871,48
62.896,67
62.921,30
62.946,-54
62.971,-117
62.996,-92
63.021,17
63.046,147
63.071,236
63.096,278
63.121,311
63.146,363
63.171,426
63.196,468
63.221,476
63.246,465
63.271,458
63.296,465
63.321,477
63.346,482
63.371,477
63.396,468
63.421,458
63.446,446
63.471,426
63.496,394
63.521,354
63.546,318
63.571,295
63.596,283
63.621,265
63.646,226
63.671,176
63.696,139
63.721,121
63.746,94
63.771,24
63.796,-78
63.821,-147
63.846,-110
63.871,36
63.896,215
63.921,331
63.946,358
63.971,344
63.996,360
64.021,421
64.046,491
64.071,525
64.096,520
64.121,502
64.146,498
64.171,511
64.196,533
64.221,553
64.246,564
64.271,554
64.296,523
64.321,486
64.346,463
64.371,452
64.396,423
64.421,353
64.446,259
64.471,193
64.496,188
64.521,220
64.546,231
64.571,186
64.596,109
64.621,42
64.646,-1
64.671,-51
64.696,-126
64.721,-195
64.746,-197
64.771,-103
64.796,47
64.821,181
64.846,255
64.871,287
64.896,322
64.921,381
64.946,443
64.971,480
64.996,490
65.021,497
65.046,519
65.071,551
65.096,568
65.121,562
65.146,547
65.171,542
65.196,543
65.221,527
65.246,471
65.271,392
65.296,330
65.321,316
65.346,334
65.371,331
65.396,269
65.421,163
65.446,72
65.471,44
65.496,70
65.521,89
65.546,49
65.571,-48
65.596,-150
65.621,-192
65.646,-147
65.671,-37
65.696,93
65.721,208
65.746,292
65.771,350
65.796,398
65.821,447
65.846,498
65.871,541
65.896,566
65.921,572
65.946,571
65.971,576
65.996,590
66.021,604
66.046,610
66.071,607
66.096,599
66.121,582
66.146,551
66.171,504
66.196,450
66.221,403
66.246,363
66.271,319
66.296,264
66.321,204
66.346,156
66.371,118
66.396,73
66.421,3
66.446,-82
66.471,-143
66.496,-137
66.521,-57
66.546,60
66.571,168
66.596,238
66.621,277
66.646,306
66.671,338
66.696,368
66.721,384
66.746,385
66.771,382
66.796,386
66.821,399
66.846,412
66.871,420
66.896,419
66.921,412
66.946,401
66.971,383
66.996,359
67.021,334
67.046,307
67.071,273
67.096,227
67.121,176
67.146,144
67.171,148
67.196,176
67.221,177
67.246,106
67.271,-30
67.296,-157
67.321,-178
67.346,-54
67.371,158
67.396,349
67.421,441
67.446,443
67.471,427
67.496,450
67.521,513
67.546,570
67.571,590
67.596,582
67.621,579
67.646,592
67.671,603
67.696,584
67.721,535
67.746,475
67.771,421
67.796,369
67.821,308
67.846,249
67.871,214
67.896,215
67.921,227
67.946,210
67.971,150
67.996,77
68.021,42
68.046,64
68.071,108
68.096,124
68.121,97
68.146,64
68.171,79
68.196,157
68.221,264
68.246,345
68.271,382
68.296,398
68.321,432
68.346,491
68.371,546
68.396,560
68.421,534
68.446,502
68.471,499
68.496,522
68.521,538
68.546,520
68.571,476
68.596,435
68.621,409
68.646,382
68.671,330
68.696,257
68.721,189
68.746,143
68.771,101
68.796,34
68.821,-54
68.846,-135
68.871,-187
68.896,-233
68.921,-315
68.946,-433
68.971,-525
68.996,-524
69.021,-430
69.046,-311
69.071,-230
69.096,-169
69.121,-49
69.146,179
69.171,476
69.196,738
69.221,891
69.246,940
69.271,941
69.296,942
69.321,959
69.346,989
69.371,1032
69.396,1078
69.421,1096
69.446,1058
69.471,974
69.496,893
69.521,863
69.546,882
69.571,895
69.596,852
69.621,742
69.646,597
69.671,451
69.696,318
69.721,183
69.746,27
69.771,-158
69.796,-353
69.821,-503
69.846,-538
69.871,-425
69.896,-210
69.921,1
69.946,116
69.971,122
69.996,84
70.021,80
70.046,128
70.071,191
70.096,229
70.121,238
70.146,249
70.171,284
70.196,339
70.221,389
70.246,413
70.271,406
70.296,376
70.321,338
70.346,307
70.371,281
70.396,240
70.421,163
70.446,57
70.471,-43
70.496,-107
70.521,-142
70.546,-184
70.571,-253
70.596,-320
70.621,-338
70.646,-289
70.671,-209
70.696,-144
70.721,-109
70.746,-82
70.771,-39
70.796,17
70.821,90
70.846,209
70.871,414
70.896,693
70.921,965
70.946,1129
70.971,1145
70.996,1068
71.021,997
71.046,996
71.071,1052
71.096,1109
71.121,1115
71.146,1050
71.171,926
71.196,774
71.221,627
71.246,501
71.271,385
71.296,257
71.321,118
71.346,7
71.371,-23
71.396,33
71.421,129
71.446,194
71.471,201
71.496,186
71.521,199
71.546,250
71.571,304
71.596,320
71.621,299
71.646,281
71.671,295
71.696,334
71.721,360
71.746,346
71.771,302
71.796,261
71.821,248
71.846,263
71.871,283
71.896,285
71.921,267
71.946,240
71.971,215
71.996,186
72.021,138
72.046,70
72.071,11
72.096,5
72.121,73
72.146,184
72.171,270
72.196,282
72.221,228
72.246,160
72.271,125
72.296,123
72.321,123
72.346,106
72.371,91
72.396,112
72.421,175
72.446,244
72.471,281
72.496,277
72.521,258
72.546,251
72.571,250
72.596,232
72.621,194
72.646,160
72.671,149
72.696,143
72.721,101
72.746,15
72.771,-55
72.796,-28
72.821,127
72.846,342
72.871,501
72.896,538
72.921,491
72.946,455
72.971,487
72.996,566
73.021,630
73.046,643
73.071,620
73.096,597
73.121,585
73.146,570
73.171,546
73.196,519
73.221,496
73.246,464
73.271,403
73.296,319
73.321,248
73.346,221
73.371,224
73.396,212
73.421,158
73.446,83
73.471,43
73.496,68
73.521,141
73.546,217
73.571,273
73.596,311
73.621,342
73.646,366
73.671,373
73.696,371
73.721,378
73.746,399
73.771,417
73.796,407
73.821,369
73.846,333
73.871,325
73.896,345
73.921,361
73.946,347
73.971,305
73.996,256
74.021,213
74.046,177
74.071,145
74.096,132
74.121,151
74.146,202
74.171,262
74.196,308
74.221,339
74.246,372
74.271,413
74.296,450
74.321,459
74.346,435
74.371,397
74.396,374
74.421,376
74.446,390
74.471,391
74.496,372
74.521,341
74.546,309
74.571,279
74.596,244
74.621,199
74.646,152
74.671,112
74.696,80
74.721,44
74.746,-6
74.771,-62
74.796,-94
74.821,-70
74.846,9
74.871,119
74.896,219
74.921,294
74.946,351
74.971,400
74.996,439
75.021,452
75.046,442
75.071,433
75.096,454
75.121,500
75.146,535
75.171,518
75.196,447
75.221,363
75.246,309
75.271,300
75.296,313
75.321,317
75.346,295
75.371,248
75.396,184
75.421,116
75.446,65
75.471,58
75.496,107
75.521,192
75.546,268
75.571,307
75.596,316
75.621,331
75.646,373
75.671,425
75.696,453
75.721,443
75.746,417
75.771,414
75.796,446
75.821,492
75.846,511
75.871,483
75.896,418
75.921,345
75.946,293
75.971,275
75.996,284
76.021,298
76.046,289
76.071,242
76.096,169
76.121,104
76.146,74
76.171,78
76.196,82
76.221,61
76.246,23
76.271,10
76.296,54
76.321,148
76.346,250
76.371,323
76.396,365
76.421,400
76.446,443
76.471,483
76.496,499
76.521,491
76.546,482
76.571,496
76.596,524
76.621,538
76.646,522
76.671,488
76.696,460
76.721,446
76.746,429
76.771,395
76.796,350
76.821,312
76.846,288
76.871,264
76.896,223
76.921,169
76.946,123
76.971,91
76.996,53
77.021,-11
77.046,-94
77.071,-147
77.096,-124
77.121,-27
77.146,96
77.171,197
77.196,259
77.221,304
77.246,355
77.271,415
77.296,468
77.321,498
77.346,505
77.371,501
77.396,498
77.421,502
77.446,511
77.471,513
77.496,499
77.521,467
77.546,431
77.571,404
77.596,386
77.621,360
77.646,314
77.671,261
77.696,226
77.721,214
77.746,201
77.771,154
77.796,76
77.821,12
77.846,3
77.871,43
77.896,83
77.921,87
77.946,73
77.971,94
77.996,181
78.021,304
78.046,402
78.071,439
78.096,429
78.121,414
78.146,422
78.171,450
78.196,482
78.221,505
78.246,514
78.271,504
78.296,477
78.321,443
78.346,421
78.371,417
78.396,420
78.421,405
78.446,365
78.471,312
78.496,266
78.521,236
78.546,210
78.571,173
78.596,116
78.621,45
78.646,-22
78.671,-62
78.696,-47
78.721,29
78.746,142
78.771,246
78.796,311
78.821,348
78.846,386
78.871,439
78.896,484
78.921,490
78.946,463
78.971,442
78.996,461
79.021,508
79.046,538
79.071,520
79.096,466
79.121,410
79.146,369
79.171,336
79.196,305
79.221,286
79.246,285
79.271,285
79.296,249
79.321,172
79.346,96
79.371,71
79.396,97
79.421,111
79.446,54
79.471,-54
79.496,-133
79.521,-107
79.546,12
79.571,152
79.596,248
79.621,296
79.646,338
79.671,397
79.696,458
79.721,495
79.746,502
79.771,502
79.796,512
79.821,530
79.846,546
79.871,555
79.896,556
79.921,541
79.946,495
79.971,425
79.996,362
80.021,340
80.046,354
80.071,355
80.096,299
80.121,191
80.146,91
80.171,56
80.196,81
80.221,107
80.246,70
80.271,-35
80.296,-143
80.321,-171
80.346,-81
80.371,88
80.396,259
80.421,368
80.446,405
80.471,408
80.496,421
80.521,457
80.546,499
80.571,523
80.596,527
80.621,527
80.646,536
80.671,553
80.696,562
80.721,552
80.746,526
80.771,493
80.796,464
80.821,442
80.846,427
80.871,410
80.896,376
80.921,315
80.946,228
80.971,139
80.996,81
81.021,69
81.046,89
81.071,98
81.096,58
81.121,-37
81.146,-146
81.171,-202
81.196,-157
81.221,-16
81.246,156
81.271,282
81.296,325
81.321,311
81.346,305
81.371,346
81.396,418
81.421,472
81.446,482
81.471,463
81.496,450
81.521,461
81.546,478
81.571,480
81.596,470
81.621,460
81.646,457
81.671,444
81.696,408
81.721,359
81.746,323
81.771,309
81.796,299
81.821,267
81.846,218
81.871,175
81.896,151
81.921,127
81.946,71
81.971,-8
81.996,-55
82.021,-14
82.046,115
82.071,271
82.096,383
82.121,428
82.146,437
82.171,451
82.196,478
82.221,497
82.246,494
82.271,481
82.296,478
82.321,491
82.346,503
82.371,500
82.396,486
82.421,468
82.446,441
82.471,389
82.496,310
82.521,237
82.546,207
82.571,222
82.596,244
82.621,225
82.646,162
82.671,94
82.696,57
82.721,39
82.746,-1
82.771,-83
82.796,-165
82.821,-179
82.846,-97
82.871,39
82.896,160
82.921,229
82.946,268
82.971,320
82.996,396
83.021,471
83.046,516
83.071,533
83.096,544
83.121,562
83.146,575
83.171,574
83.196,564
83.221,563
83.246,572
83.271,568
83.296,525
83.321,445
83.346,363
83.371,314
83.396,304
83.421,312
83.446,307
83.471,275
83.496,223
83.521,168
83.546,124
83.571,91
83.596,53
83.621,-9
83.646,-93
83.671,-163
83.696,-172
83.721,-95
83.746,36
83.771,163
83.796,246
83.821,293
83.846,341
83.871,411
83.896,485
83.921,533
83.946,548
83.971,548
83.996,556
84.021,574
84.046,595
84.071,612
84.096,622
84.121,612
84.146,566
84.171,491
84.196,429
84.221,420
84.246,453
84.271,466
84.296,407
84.321,294
84.346,204
84.371,192
84.396,233
84.421,250
84.446,201
84.471,117
84.496,50
84.521,12
84.546,-34
84.571,-109
84.596,-166
84.621,-136
84.646,-7
84.671,149
84.696,248
84.721,277
84.746,298
84.771,360
84.796,446
84.821,493
84.846,478
84.871,443
84.896,445
84.921,486
84.946,518
84.971,504
84.996,464
85.021,441
85.046,450
85.071,456
85.096,424
85.121,359
85.146,291
85.171,240
85.196,197
85.221,156
85.246,126
85.271,113
85.296,88
85.321,13
85.346,-107
85.371,-201
85.396,-195
85.421,-104
85.446,-32
85.471,-72
85.496,-200
85.521,-292
85.546,-241
85.571,-59
85.596,148
85.621,293
85.646,375
85.671,448
85.696,539
85.721,621
85.746,658
85.771,661
85.796,676
85.821,722
85.846,774
85.871,795
85.896,778
85.921,745
85.946,707
85.971,649
85.996,560
86.021,466
86.046,417
86.071,430
86.096,469
86.121,477
86.146,430
86.171,353
86.196,288
86.221,248
86.246,227
86.271,222
86.296,250
86.321,320
86.346,406
86.371,463
86.396,470
86.421,452
86.446,458
86.471,503
86.496,554
86.521,563
86.546,521
86.571,464
86.596,437
86.621,446
86.646,456
86.671,427
86.696,353
86.721,260
86.746,177
86.771,110
86.796,46
86.821,-26
86.846,-102
86.871,-167
86.896,-214
86.921,-245
86.946,-266
86.971,-278
86.996,-286
87.021,-303
87.046,-339
87.071,-385
87.096,-408
87.121,-373
87.146,-273
87.171,-129
87.196,29
87.221,197
87.246,375
87.271,549
87.296,684
87.321,748
87.346,746
87.371,722
87.396,713
87.421,722
87.446,720
87.471,691
87.496,646
87.521,608
87.546,582
87.571,551
87.596,502
87.621,442
87.646,393
87.671,360
87.696,335
87.721,303
87.746,265
87.771,227
87.796,187
87.821,139
87.846,88
87.871,47
87.896,23
87.921,-6
87.946,-64
87.971,-139
87.996,-171
88.021,-103
88.046,62
88.071,252
88.096,388
88.121,451
88.146,480
88.171,520
88.196,567
88.221,591
88.246,587
88.271,589
88.296,625
88.321,675
88.346,688
88.371,644
88.396,588
88.421,579
88.446,622
88.471,654
88.496,612
88.521,511
88.546,430
88.571,432
88.596,495
88.621,539
88.646,512
88.671,438
88.696,377
88.721,356
88.746,344
88.771,302
88.796,228
88.821,158
88.846,121
88.871,114
88.896,127
88.921,168
88.946,261
88.971,394
88.996,505
89.021,529
89.046,452
89.071,330
89.096,231
89.121,181
89.146,153
89.171,112
89.196,51
89.221,-17
89.246,-84
89.271,-146
89.296,-199
89.321,-229
89.346,-228
89.371,-214
89.396,-215
89.421,-237
89.446,-256
89.471,-247
89.496,-212
89.521,-183
89.546,-179
89.571,-190
89.596,-187
89.621,-166
89.646,-144
89.671,-127
89.696,-85
89.721,27
89.746,224
89.771,461
89.796,667
89.821,800
89.846,870
89.871,917
89.896,967
89.921,1020
89.946,1059
89.971,1074
89.996,1068
90.021,1046
90.046,1010
90.071,954
90.096,876
90.121,782
90.146,693
90.171,625
90.196,577
90.221,526
90.246,454
90.271,366
90.296,296
90.321,259
90.346,233
90.371,177
90.396,86
90.421,7
90.446,-9
90.471,15
90.496,2
90.521,-101
90.546,-237
90.571,-278
90.596,-151
90.621,74
90.646,252
90.671,295
90.696,252
90.721,237
90.746,304
90.771,402
90.796,451
90.821,436
90.846,407
90.871,414
90.896,448
90.921,471
90.946,468
90.971,458
90.996,454
91.021,445
91.046,416
91.071,375
91.096,344
91.121,320
91.146,269
91.171,176
91.196,80
91.221,42
91.246,73
91.271,110
91.296,81
91.321,-12
91.346,-91
91.371,-75
91.396,32
91.421,162
91.446,248
91.471,279
91.496,289
91.521,303
91.546,316
91.571,320
91.596,322
91.621,338
91.646,366
91.671,394
91.696,411
91.721,422
91.746,426
91.771,416
91.796,386
91.821,350
91.846,332
91.871,334
91.896,326
91.921,282
91.946,223
91.971,201
91.996,235
92.021,276
92.046,253
92.071,158
92.096,62
92.121,57
92.146,156
92.171,287
92.196,368
92.221,379
92.246,365
92.271,368
92.296,382
92.321,378
92.346,351
92.371,333
92.396,348
92.421,387
92.446,417
92.471,421
92.496,410
92.521,392
92.546,357
92.571,297
92.596,235
92.621,210
92.646,234
92.671,272
92.696,275
92.721,236
92.746,191
92.771,167
92.796,147
92.821,93
92.846,15
92.871,-15
92.896,59
92.921,221
92.946,381
92.971,470
92.996,505
93.021,554
93.046,645
93.071,732
93.096,756
93.121,726
93.146,716
93.171,778
93.196,870
93.221,895
93.246,802
93.271,641
93.296,516
93.321,489
93.346,535
93.371,577
93.396,562
93.421,483
93.446,357
93.471,201
93.496,25
93.521,-153
93.546,-313
93.571,-437
93.596,-510
93.621,-525
93.646,-480
93.671,-397
93.696,-328
93.721,-313
93.746,-342
93.771,-348
93.796,-261
93.821,-77
93.846,137
93.871,307
93.896,415
93.921,507
93.946,630
93.971,773
93.996,873
94.021,875
94.046,780
94.071,639
94.096,506
94.121,405
94.146,334
94.171,289
94.196,270
94.221,266
94.246,244
94.271,164
94.296,26
94.321,-113
94.346,-169
94.371,-93
94.396,78
94.421,251
94.446,343
94.471,351
94.496,342
94.521,385
94.546,481
94.571,574
94.596,609
94.621,588
94.646,560
94.671,565
94.696,589
94.721,591
94.746,551
94.771,494
94.796,452
94.821,428
94.846,397
94.871,342
94.896,281
94.921,249
94.946,245
94.971,228
94.996,158
95.021,48
95.046,-33
95.071,-26
95.096,68
95.121,186
95.146,256
95.171,262
95.196,246
95.221,257
95.246,309
95.271,376
95.296,423
95.321,437
95.346,431
95.371,425
95.396,431
95.421,447
95.446,465
95.471,470
95.496,453
95.521,412
95.546,361
95.571,319
95.596,294
95.621,276
95.646,248
95.671,207
95.696,157
95.721,105
95.746,48
95.771,-12
95.796,-55
95.821,-45
95.846,36
95.871,163
95.896,282
95.921,359
95.946,402
95.971,441
95.996,487
96.021,517
96.046,510
96.071,483
96.096,481
96.121,524
96.146,576
96.171,578
96.196,510
96.221,413
96.246,350
96.271,342
96.296,356
96.321,349
96.346,312
96.371,269
96.396,241
96.421,222
96.446,195
96.471,156
96.496,111
96.521,62
96.546,1
96.571,-69
96.596,-122
96.621,-118
96.646,-46
96.671,62
96.696,162
96.721,229
96.746,274
96.771,316
96.796,361
96.821,398
96.846,416
96.871,423
96.896,432
96.921,448
96.946,468
96.971,483
96.996,483
97.021,465
97.046,434
97.071,405
97.096,390
97.121,383
97.146,356
97.171,292
97.196,207
97.221,145
97.246,134
97.271,151
97.296,145
97.321,93
97.346,33
97.371,29
97.396,107
97.421,227
97.446,330
97.471,390
97.496,424
97.521,455
97.546,480
97.571,479
97.596,457
97.621,443
97.646,459
97.671,493
97.696,514
97.721,505
97.746,478
97.771,451
97.796,428
97.821,397
97.846,359
97.871,327
97.896,307
97.921,283
97.946,236
97.971,176
97.996,133
98.021,123
98.046,118
98.071,72
98.096,-24
98.121,-117
98.146,-134
98.171,-52
98.196,84
98.221,203
98.246,272
98.271,309
98.296,351
98.321,410
98.346,464
98.371,487
98.396,481
98.421,474
98.446,486
98.471,518
98.496,546
98.521,547
98.546,516
98.571,464
98.596,411
98.621,370
98.646,347
98.671,339
98.696,338
98.721,328
98.746,295
98.771,237
98.796,173
98.821,125
98.846,95
98.871,56
98.896,-19
98.921,-116
98.946,-175
98.971,-130
98.996,19
99.021,202
99.046,326
99.071,356
99.096,336
99.121,336
99.146,382
99.171,443
99.196,478
99.221,481
99.246,476
99.271,482
99.296,495
99.321,499
99.346,496
99.371,496
99.396,499
99.421,486
99.446,450
99.471,405
99.496,375
99.521,356
99.546,314
99.571,233
99.596,143
99.621,100
99.646,119
99.671,152
99.696,126
99.721,29
99.746,-68
99.771,-82
99.796,6
99.821,140
99.846,245
99.871,300
99.896,338
99.921,389
99.946,444
99.971,471
99.996,466
100.021,454
100.046,462
100.071,483
100.096,486
100.121,457
100.146,415
100.171,388
100.196,386
100.221,390
100.246,381
100.271,354
100.296,319
100.321,282
100.346,242
100.371,202
100.396,168
100.421,141
100.446,103
100.471,37
100.496,-42
100.521,-93
100.546,-69
100.571,27
100.596,148
100.621,242
100.646,300
100.671,347
100.696,409
100.721,473
100.746,510
100.771,505
100.796,485
100.821,484
100.846,514
100.871,549
100.896,558
100.921,534
100.946,495
100.971,465
100.996,451
101.021,439
101.046,411
101.071,354
101.096,268
101.121,171
101.146,98
101.171,78
101.196,104
101.221,134
101.246,111
101.271,20
101.296,-94
101.321,-151
101.346,-99
101.371,43
101.396,209
101.421,331
101.446,386
101.471,400
101.496,410
101.521,436
101.546,473
101.571,503
101.596,516
101.621,511
101.646,496
101.671,483
101.696,475
101.721,474
101.746,475
101.771,475
101.796,469
101.821,448
101.846,412
101.871,366
101.896,324
101.921,294
101.946,270
101.971,236
101.996,184
102.021,129
102.046,91
102.071,66
102.096,25
102.121,-52
102.146,-144
102.171,-181
102.196,-111
102.221,47
102.246,214
102.271,312
102.296,329
102.321,315
102.346,327
102.371,372
102.396,418
102.421,437
102.446,434
102.471,433
102.496,443
102.521,457
102.546,464
102.571,466
102.596,470
102.621,473
102.646,462
102.671,430
102.696,391
102.721,359
102.746,334
102.771,305
102.796,264
102.821,220
102.846,185
102.871,149
102.896,96
102.921,28
102.946,-21
102.971,-9
102.996,73
103.021,191
103.046,295
103.071,361
103.096,401
103.121,434
103.146,463
103.171,475
103.196,466
103.221,451
103.246,453
103.271,479
103.296,511
103.321,529
103.346,520
103.371,491
103.396,457
103.421,427
103.446,401
103.471,374
103.496,344
103.521,313
103.546,284
103.571,258
103.596,226
103.621,184
103.646,136
103.671,94
103.696,61
103.721,21
103.746,-44
103.771,-126
103.796,-176
103.821,-147
103.846,-34
103.871,110
103.896,221
103.921,275
103.946,303
103.971,347
103.996,414
104.021,472
104.046,495
104.071,493
104.096,496
104.121,519
104.146,544
104.171,547
104.196,528
104.221,502
104.246,483
104.271,461
104.296,420
104.321,361
104.346,304
104.371,267
104.396,256
104.421,259
104.446,259
104.471,240
104.496,192
104.521,116
104.546,38
104.571,-4
104.596,5
104.621,54
104.646,104
104.671,133
104.696,150
104.721,180
104.746,233
104.771,298
104.796,357
104.821,403
104.846,437
104.871,459
104.896,469
104.921,476
104.946,493
104.971,522
104.996,544
105.021,542
105.046,519
105.071,500
105.096,496
105.121,481
105.146,425
105.171,336
105.196,266
105.221,256
105.246,284
105.271,283
105.296,209
105.321,98
105.346,21
105.371,9
105.396,21
105.421,-5
105.446,-74
105.471,-122
105.496,-84
105.521,36
105.546,180
105.571,291
105.596,360
105.621,410
105.646,453
105.671,476
105.696,471
105.721,456
105.746,460
105.771,490
105.796,526
105.821,541
105.846,530
105.871,511
105.896,496
105.921,482
105.946,457
105.971,420
105.996,381
106.021,350
106.046,328
106.071,303
106.096,269
106.121,226
106.146,181
106.171,140
106.196,100
106.221,52
106.246,-14
106.271,-90
106.296,-144
106.321,-137
106.346,-54
106.371,77
106.396,209
106.421,307
106.446,371
106.471,420
106.496,459
106.521,478
106.546,473
106.571,465
106.596,480
106.621,521
106.646,557
106.671,554
106.696,514
106.721,468
106.746,445
106.771,444
106.796,444
106.821,431
106.846,405
106.871,375
106.896,339
106.921,299
106.946,259
106.971,227
106.996,196
107.021,152
107.046,93
107.071,38
107.096,3
107.121,-26
107.146,-83
107.171,-171
107.196,-231
107.221,-187
107.246,-17
107.271,203
107.296,368
107.321,425
107.346,415
107.371,418
107.396,471
107.421,544
107.446,591
107.471,596
107.496,584
107.521,580
107.546,589
107.571,600
107.596,604
107.621,598
107.646,574
107.671,522
107.696,451
107.721,388
107.746,361
107.771,367
107.796,374
107.821,352
107.846,299
107.871,240
107.896,193
107.921,156
107.946,116
107.971,62
107.996,-6
108.021,-81
108.046,-145
108.071,-171
108.096,-135
108.121,-38
108.146,81
108.171,176
108.196,230
108.221,263
108.246,310
108.271,369
108.296,411
108.321,411
108.346,385
108.371,374
108.396,401
108.421,447
108.446,475
108.471,466
108.496,436
108.521,406
108.546,385
108.571,370
108.596,358
108.621,354
108.646,355
108.671,346
108.696,313
108.721,265
108.746,223
108.771,190
108.796,147
108.821,75
108.846,-4
108.871,-36
108.896,17
108.921,138
108.946,262
108.971,342
108.996,379
109.021,412
109.046,460
109.071,505
109.096,520
109.121,509
109.146,504
109.171,524
109.196,553
109.221,558
109.246,538
109.271,519
109.296,521
109.321,517
109.346,465
109.371,362
109.396,268
109.421,247
109.446,290
109.471,313
109.496,240
109.521,91
109.546,-26
109.571,-35
109.596,33
109.621,67
109.646,-6
109.671,-137
109.696,-202
109.721,-130
109.746,30
109.771,174
109.796,242
109.821,269
109.846,318
109.871,400
109.896,467
109.921,484
109.946,471
109.971,481
109.996,531
110.021,578
110.046,574
110.071,525
110.096,482
110.121,486
110.146,518
110.171,529
110.196,496
110.221,444
110.246,408
110.271,391
110.296,363
110.321,298
110.346,204
110.371,115
110.396,64
110.421,56
110.446,74
110.471,81
110.496,44
110.521,-46
110.546,-153
110.571,-201
110.596,-130
110.621,44
110.646,236
110.671,355
110.696,378
110.721,360
110.746,371
110.771,427
110.796,489
110.821,519
110.846,522
110.871,527
110.896,550
110.921,578
110.946,587
110.971,576
110.996,556
111.021,532
111.046,505
111.071,477
111.096,454
111.121,435
111.146,401
111.171,333
111.196,240
111.221,163
111.246,136
111.271,150
111.296,163
111.321,138
111.346,76
111.371,0
111.396,-73
111.421,-135
111.446,-164
111.471,-131
111.496,-27
111.521,109
111.546,218
111.571,277
111.596,313
111.621,368
111.646,438
111.671,482
111.696,472
111.721,438
111.746,433
111.771,474
111.796,522
111.821,531
111.846,502
111.871,472
111.896,464
111.921,458
111.946,424
111.971,367
111.996,324
112.021,311
112.046,297
112.071,246
112.096,170
112.121,122
112.146,132
112.171,163
112.196,148
112.221,70
112.246,-5
112.271,1
112.296,105
112.321,238
112.346,324
112.371,352
112.396,364
112.421,399
112.446,450
112.471,481
112.496,483
112.521,474
112.546,480
112.571,499
112.596,511
112.621,507
112.646,496
112.671,482
112.696,451
112.721,391
112.746,314
112.771,258
112.796,249
112.821,270
112.846,276
112.871,239
112.896,173
112.921,117
112.946,89
112.971,66
112.996,11
113.021,-77
113.046,-153
113.071,-158
113.096,-70
113.121,69
113.146,198
113.171,278
113.196,321
113.221,365
113.246,427
113.271,492
113.296,533
113.321,545
113.346,548
113.371,561
113.396,582
113.421,594
113.446,592
113.471,586
113.496,582
113.521,564
113.546,509
113.571,421
113.596,345
113.621,326
113.646,352
113.671,362
113.696,299
113.721,175
113.746,68
113.771,45
113.796,91
113.821,123
113.846,72
113.871,-47
113.896,-151
113.921,-162
113.946,-72
113.971,56
113.996,161
114.021,225
114.046,270
114.071,320
114.096,369
114.121,400
114.146,409
114.171,413
114.196,433
114.221,463
114.246,481
114.271,475
114.296,459
114.321,459
114.346,475
114.371,486
114.396,465
114.421,420
114.446,382
114.471,370
114.496,361
114.521,311
114.546,216
114.571,120
114.596,76
114.621,85
114.646,90
114.671,43
114.696,-35
114.721,-65
114.746,7
114.771,154
114.796,288
114.821,353
114.846,369
114.871,392
114.896,440
114.921,479
114.946,474
114.971,438
114.996,426
115.021,459
115.046,504
115.071,504
115.096,445
115.121,372
115.146,333
115.171,336
115.196,348
115.221,336
115.246,302
115.271,262
115.296,224
115.321,181
115.346,133
115.371,89
115.396,59
115.421,28
115.446,-24
115.471,-100
115.496,-158
115.521,-154
115.546,-69
115.571,65
115.596,203
115.621,313
115.646,398
115.671,475
115.696,552
115.721,619
115.746,658
115.771,664
115.796,658
115.821,675
115.846,729
115.871,798
115.896,836
115.921,822
115.946,781
115.971,770
115.996,809
116.021,853
116.046,825
116.071,693
116.096,514
116.121,386
116.146,362
116.171,407
116.196,430
116.221,362
116.246,202
116.271,-1
116.296,-192
116.321,-322
116.346,-360
116.371,-303
116.396,-189
116.421,-86
116.446,-44
116.471,-49
116.496,-39
116.521,29
116.546,130
116.571,189
116.596,168
116.621,101
116.646,67
116.671,97
116.696,153
116.721,172
116.746,141
116.771,103
116.796,101
116.821,128
116.846,142
116.871,130
116.896,122
116.921,150
116.946,193
116.971,192
116.996,124
117.021,37
117.046,1
117.071,16
117.096,5
117.121,-97
117.146,-246
117.171,-304
117.196,-180
117.221,69
117.246,285
117.271,352
117.296,304
117.321,270
117.346,333
117.371,456
117.396,553
117.421,590
117.446,618
117.471,696
117.496,820
117.521,929
117.546,980
117.571,982
117.596,975
117.621,981
117.646,999
117.671,1022
117.696,1034
117.721,998
117.746,872
117.771,666
117.796,470
117.821,389
117.846,440
117.871,514
117.896,486
117.921,345
117.946,213
117.971,209
117.996,322
118.021,429
118.046,444
118.071,406
118.096,412
118.121,478
118.146,509
118.171,414
118.196,231
118.221,101
118.246,115
118.271,217
118.296,277
118.321,229
118.346,131
118.371,76
118.396,75
118.421,60
118.446,-24
118.471,-148
118.496,-233
118.521,-237
118.546,-194
118.571,-156
118.596,-148
118.621,-162
118.646,-199
118.671,-267
118.696,-340
118.721,-349
118.746,-237
118.771,-34
118.796,155
118.821,246
118.846,250
118.871,259
118.896,340
118.921,462
118.946,542
118.971,542
118.996,506
119.021,510
119.046,572
119.071,643
119.096,669
119.121,644
119.146,606
119.171,583
119.196,563
119.221,527
119.246,479
119.271,445
119.296,434
119.321,419
119.346,368
119.371,286
119.396,213
119.421,177
119.446,157
119.471,109
119.496,21
119.521,-57
119.546,-57
119.571,45
119.596,197
119.621,319
119.646,368
119.671,366
119.696,359
119.721,370
119.746,386
119.771,385
119.796,378
119.821,393
119.846,445
119.871,510
119.896,548
119.921,536
119.946,492
119.971,449
119.996,426
120.021,410
120.046,377
120.071,323
120.096,270
120.121,239
120.146,231
120.171,218
120.196,175
120.221,110
120.246,58
120.271,58
120.296,114
120.321,197
120.346,266
120.371,304
120.396,324
120.421,351
120.446,394
120.471,433
120.496,446
120.521,429
120.546,397
120.571,376
120.596,374
120.621,387
120.646,403
120.671,411
120.696,405
120.721,382
120.746,343
120.771,299
120.796,259
120.821,224
120.846,182
120.871,128
120.896,74
120.921,41
120.946,32
120.971,23
120.996,-13
121.021,-67
121.046,-85
121.071,-15
121.096,138
121.121,312
121.146,434
121.171,482
121.196,490
121.221,499
121.246,518
121.271,532
121.296,531
121.321,531
121.346,545
121.371,561
121.396,551
121.421,508
121.446,460
121.471,441
121.496,447
121.521,445
121.546,409
121.571,356
121.596,319
121.621,302
121.646,271
121.671,197
121.696,99
121.721,29
121.746,13
121.771,15
121.796,-15
121.821,-81
121.846,-116
121.871,-52
121.896,100
121.921,261
121.946,354
121.971,377
121.996,390
122.021,437
122.046,501
122.071,531
122.096,513
122.121,486
122.146,496
122.171,540
122.196,575
122.221,570
122.246,540
122.271,519
122.296,516
122.321,502
122.346,450
122.371,371
122.396,300
122.421,260
122.446,243
122.471,231
122.496,219
122.521,205
122.546,177
122.571,109
122.596,3
122.621,-87
122.646,-90
122.671,16
122.696,178
122.721,305
122.746,353
122.771,348
122.796,346
122.821,370
122.846,394
122.871,382
122.896,339
122.921,298
122.946,284
122.971,294
122.996,305
123.021,307
123.046,313
123.071,336
123.096,371
123.121,394
123.146,384
123.171,336
123.196,260
123.221,171
123.246,82
123.271,2
123.296,-64
123.321,-118
123.346,-161
123.371,-185
123.396,-178
123.421,-128
123.446,-30
123.471,104
123.496,249
123.521,366
123.546,424
123.571,418
123.596,374
123.621,335
123.646,336
123.671,373
123.696,415
123.721,434
123.746,425
123.771,402
123.796,375
123.821,345
123.846,313
123.871,285
123.896,266
123.921,251
123.946,226
123.971,193
123.996,169
124.021,171
124.046,193
124.071,208
124.096,203
124.121,198
124.146,234
124.171,329
124.196,470
124.221,624
124.246,769
124.271,891
124.296,974
124.321,1004
124.346,986
124.371,960
124.396,961
124.421,977
124.446,951
124.471,844
124.496,693
124.521,592
124.546,601
124.571,689
124.596,758
124.621,739
124.646,647
124.671,546
124.696,479
124.721,427
124.746,353
124.771,248
124.796,138
124.821,41
124.846,-56
124.871,-185
124.896,-347
124.921,-507
124.946,-617
124.971,-653
124.996,-623
125.021,-553
125.046,-476
125.071,-420
125.096,-395
125.121,-382
125.146,-340
125.171,-249
125.196,-133
125.221,-40
125.246,7
125.271,45
125.296,128
125.321,264
125.346,399
125.371,470
125.396,472
125.421,464
125.446,497
125.471,556
125.496,582
125.521,543
125.546,476
125.571,438
125.596,442
125.621,439
125.646,387
125.671,301
125.696,244
125.721,262
125.746,340
125.771,421
125.796,469
125.821,489
125.846,505
125.871,524
125.896,542
125.921,559
125.946,588
125.971,631
125.996,671
126.021,683
126.046,667
126.071,640
126.096,609
126.121,558
126.146,470
126.171,361
126.196,276
126.221,246
126.246,254
126.271,251
126.296,208
126.321,135
126.346,61
126.371,-2
126.396,-61
126.421,-109
126.446,-112
126.471,-46
126.496,72
126.521,190
126.546,266
126.571,304
126.596,338
126.621,388
126.646,433
126.671,446
126.696,427
126.721,412
126.746,432
126.771,481
126.796,521
126.821,517
126.846,467
126.871,395
126.896,334
126.921,301
126.946,297
126.971,305
126.996,298
127.021,261
127.046,201
127.071,146
127.096,117
127.121,98
127.146,56
127.171,-19
127.196,-92
127.221,-100
127.246,-13
127.271,130
127.296,261
127.321,338
127.346,375
127.371,414
127.396,472
127.421,525
127.446,545
127.471,533
127.496,519
127.521,526
127.546,544
127.571,551
127.596,538
127.621,515
127.646,491
127.671,455
127.696,392
127.721,313
127.746,253
127.771,238
127.796,251
127.821,252
127.846,217
127.871,164
127.896,123
127.921,99
127.946,59
127.971,-15
127.996,-100
128.021,-136
128.046,-84
128.071,32
128.096,153
128.121,236
128.146,280
128.171,311
128.196,346
128.221,382
128.246,409
128.271,428
128.296,445
128.321,457
128.346,460
128.371,451
128.396,439
128.421,429
128.446,418
128.471,401
128.496,385
128.521,380
128.546,379
128.571,360
128.596,308
128.621,244
128.646,212
128.671,231
128.696,262
128.721,243
128.746,157
128.771,60
128.796,36
128.821,120
128.846,267
128.871,393
128.896,453
128.921,465
128.946,473
128.971,493
128.996,507
129.021,495
129.046,468
129.071,452
129.096,463
129.121,488
129.146,501
129.171,485
129.196,446
129.221,391
129.246,326
129.271,257
129.296,198
129.321,168
129.346,170
129.371,179
129.396,157
129.421,91
129.446,1
129.471,-65
129.496,-77
129.521,-40
129.546,11
129.571,44
129.596,57
129.621,74
129.646,121
129.671,201
129.696,290
129.721,359
129.746,401
129.771,427
129.796,455
129.821,487
129.846,511
129.871,515
129.896,505
129.921,497
129.946,502
129.971,508
129.996,493
130.021,452
130.046,403
130.071,370
130.096,355
130.121,334
130.146,286
130.171,223
130.196,178
130.221,164
130.246,150
130.271,93
130.296,-7
130.321,-93
130.346,-90
130.371,15
130.396,160
130.421,261
130.446,290
130.471,293
130.496,332
130.521,421
130.546,514
130.571,559
130.596,547
130.621,514
130.646,504
130.671,529
130.696,569
130.721,592
130.746,580
130.771,531
130.796,465
130.821,412
130.846,390
130.871,396
130.896,401
130.921,377
130.946,326
130.971,270
130.996,230
131.021,201
131.046,163
131.071,111
131.096,55
131.121,3
131.146,-52
131.171,-119
131.196,-182
131.221,-197
131.246,-136
131.271,-14
131.296,116
131.321,218
131.346,292
131.371,357
131.396,415
131.421,447
131.446,438
131.471,415
131.496,418
131.521,461
131.546,515
131.571,539
131.596,518
131.621,472
131.646,427
131.671,393
131.696,369
131.721,355
131.746,351
131.771,344
131.796,314
131.821,257
131.846,202
131.871,183
131.896,199
131.921,208
131.946,170
131.971,94
131.996,39
132.021,61
132.046,157
132.071,275
132.096,363
132.121,409
132.146,435
132.171,462
132.196,487
132.221,499
132.246,493
132.271,485
132.296,486
132.321,499
132.346,514
132.371,519
132.396,506
132.421,470
132.446,409
132.471,334
132.496,267
132.521,231
132.546,229
132.571,242
132.596,236
132.621,193
132.646,127
132.671,68
132.696,35
132.721,12
132.746,-36
132.771,-126
132.796,-218
132.821,-241
132.846,-148
132.871,37
132.896,233
132.921,360
132.946,401
132.971,400
132.996,413
133.021,456
133.046,504
133.071,530
133.096,531
133.121,529
133.146,540
133.171,561
133.196,579
133.221,580
133.246,562
133.271,531
133.296,497
133.321,470
133.346,454
133.371,439
133.396,406
133.421,343
133.446,257
133.471,175
133.496,121
133.521,103
133.546,108
133.571,112
133.596,85
133.621,13
133.646,-91
133.671,-179
133.696,-188
133.721,-89
133.746,81
133.771,236
133.796,307
133.821,301
133.846,288
133.871,329
133.896,423
133.921,511
133.946,544
133.971,527
133.996,510
134.021,528
134.046,571
134.071,603
134.096,597
134.121,565
134.146,533
134.171,518
134.196,506
134.221,479
134.246,425
134.271,351
134.296,276
134.321,217
134.346,183
134.371,175
134.396,179
134.421,170
134.446,126
134.471,46
134.496,-41
134.521,-96
134.546,-92
134.571,-45
134.596,6
134.621,33
134.646,46
134.671,84
134.696,171
134.721,285
134.746,377
134.771,412
134.796,406
134.821,399
134.846,417
134.871,450
134.896,473
134.921,480
134.946,490
134.971,514
134.996,537
135.021,533
135.046,500
135.071,461
135.096,437
135.121,425
135.146,402
135.171,362
135.196,320
135.221,293
135.246,273
135.271,240
135.296,187
135.321,133
135.346,96
135.371,63
135.396,8
135.421,-66
135.446,-111
135.471,-73
135.496,52
135.521,208
135.546,329
135.571,394
135.596,431
135.621,465
135.646,492
135.671,497
135.696,487
135.721,491
135.746,523
135.771,563
135.796,570
135.821,532
135.846,479
135.871,446
135.896,443
135.921,451
135.946,445
135.971,415
135.996,371
136.021,324
136.046,281
136.071,247
136.096,221
136.121,189
136.146,137
136.171,73
136.196,18
136.221,-15
136.246,-50
136.271,-121
136.296,-224
136.321,-293
136.346,-247
136.371,-73
136.396,149
136.421,314
136.446,371
136.471,362
136.496,362
136.521,407
136.546,477
136.571,533
136.596,558
136.621,563
136.646,564
136.671,568
136.696,578
136.721,596
136.746,615
136.771,614
136.796,576
136.821,514
136.846,462
136.871,444
136.896,454
136.921,459
136.946,437
136.971,391
136.996,340
137.021,297
137.046,261
137.071,225
137.096,182
137.121,129
137.146,65
137.171,6
137.196,-34
137.221,-61
137.246,-103
137.271,-186
137.296,-284
137.321,-318
137.346,-221
137.371,-7
137.396,219
137.421,349
137.446,361
137.471,331
137.496,347
137.521,430
137.546,523
137.571,569
137.596,562
137.621,544
137.646,551
137.671,578
137.696,599
137.721,601
137.746,594
137.771,591
137.796,588
137.821,570
137.846,534
137.871,490
137.896,453
137.921,425
137.946,397
137.971,361
137.996,320
138.021,283
138.046,251
138.071,214
138.096,164
138.121,105
138.146,52
138.171,15
138.196,-18
138.221,-73
138.246,-156
138.271,-234
138.296,-250
138.321,-173
138.346,-26
138.371,124
138.396,227
138.421,283
138.446,328
138.471,393
138.496,469
138.521,526
138.546,547
138.571,544
138.596,540
138.621,553
138.646,582
138.671,618
138.696,642
138.721,629
138.746,567
138.771,478
138.796,410
138.821,397
138.846,421
138.871,422
138.896,361
138.921,260
138.946,184
138.971,172
138.996,197
139.021,202
139.046,159
139.071,88
139.096,21
139.121,-37
139.146,-103
139.171,-166
139.196,-176
139.221,-93
139.246,62
139.271,220
139.296,316
139.321,352
139.346,375
139.371,422
139.396,483
139.421,520
139.446,518
139.471,501
139.496,505
139.521,539
139.546,578
139.571,592
139.596,573
139.621,539
139.646,515
139.671,503
139.696,484
139.721,435
139.746,354
139.771,269
139.796,219
139.821,218
139.846,236
139.871,227
139.896,173
139.921,98
139.946,40
139.971,4
139.996,-42
140.021,-119
140.046,-197
140.071,-213
140.096,-129
140.121,23
140.146,172
140.171,268
140.196,317
140.221,356
140.246,408
140.271,464
140.296,507
140.321,532
140.346,547
140.371,557
140.396,560
140.421,562
140.446,569
140.471,580
140.496,577
140.521,547
140.546,499
140.571,462
140.596,446
140.621,429
140.646,386
140.671,327
140.696,283
140.721,269
140.746,255
140.771,202
140.796,116
140.821,53
140.846,53
140.871,85
140.896,71
140.921,-22
140.946,-137
140.971,-170
140.996,-75
141.021,93
141.046,239
141.071,315
141.096,346
141.121,382
141.146,436
141.171,487
141.196,510
141.221,511
141.246,509
141.271,511
141.296,515
141.321,520
141.346,531
141.371,544
141.396,543
141.421,516
141.446,474
141.471,440
141.496,420
141.521,393
141.546,334
141.571,249
141.596,172
141.621,133
141.646,131
141.671,139
141.696,130
141.721,89
141.746,15
141.771,-79
141.796,-160
141.821,-176
141.846,-97
141.871,49
141.896,192
141.921,265
141.946,271
141.971,267
141.996,307
142.021,385
142.046,452
142.071,470
142.096,453
142.121,447
142.146,476
142.171,521
142.196,549
142.221,546
142.246,525
142.271,505
142.296,491
142.321,475
142.346,445
142.371,397
142.396,329
142.421,250
142.446,182
142.471,149
142.496,159
142.521,179
142.546,158
142.571,73
142.596,-41
142.621,-108
142.646,-67
142.671,73
142.696,247
142.721,377
142.746,429
142.771,429
142.796,424
142.821,443
142.846,478
142.871,507
142.896,514
142.921,502
142.946,486
142.971,473
142.996,467
143.021,465
143.046,465
143.071,462
143.096,446
143.121,409
143.146,357
143.171,307
143.196,270
143.221,240
143.246,204
143.271,154
143.296,100
143.321,54
143.346,12
143.371,-46
143.396,-127
143.421,-200
143.446,-212
143.471,-131
143.496,17
143.521,168
143.546,271
143.571,324
143.596,366
143.621,427
143.646,499
143.671,552
143.696,571
143.721,568
143.746,568
143.771,581
143.796,595
143.821,601
143.846,597
143.871,589
143.896,569
143.921,520
143.946,442
143.971,359
143.996,309
144.021,305
144.046,318
144.071,307
144.096,253
144.121,179
144.146,119
144.171,76
144.196,23
144.221,-61
144.246,-158
144.271,-205
144.296,-153
144.321,-14
144.346,144
144.371,257
144.396,306
144.421,329
144.446,368
144.471,431
144.496,489
144.521,515
144.546,512
144.571,504
144.596,508
144.621,517
144.646,515
144.671,503
144.696,489
144.721,476
144.746,445
144.771,382
144.796,301
144.821,235
144.846,209
144.871,209
144.896,202
144.921,169
144.946,122
144.971,77
144.996,31
145.021,-29
145.046,-91
145.071,-106
145.096,-35
145.121,107
145.146,255
145.171,347
145.196,384
145.221,410
145.246,456
145.271,503
145.296,517
145.321,494
145.346,474
145.371,490
145.396,532
145.421,559
145.446,540
145.471,486
145.496,424
145.521,375
145.546,340
145.571,319
145.596,311
145.621,301
145.646,261
145.671,181
145.696,90
145.721,44
145.746,62
145.771,103
145.796,101
145.821,43
145.846,-10
145.871,11
145.896,121
145.921,259
145.946,356
145.971,397
145.996,416
146.021,445
146.046,480
146.071,496
146.096,488
146.121,477
146.146,484
146.171,503
146.196,514
146.221,505
146.246,478
146.271,440
146.296,387
146.321,319
146.346,248
146.371,195
146.396,173
146.421,173
146.446,174
146.471,155
146.496,103
146.521,19
146.546,-71
146.571,-124
146.596,-94
146.621,20
146.646,165
146.671,267
146.696,294
146.721,285
146.746,309
146.771,391
146.796,494
146.821,553
146.846,545
146.871,504
146.896,481
146.921,496
146.946,527
146.971,546
146.996,545
147.021,533
147.046,514
147.071,480
147.096,432
147.121,384
147.146,348
147.171,322
147.196,287
147.221,232
147.246,173
147.271,131
147.296,104
147.321,63
147.346,-11
147.371,-100
147.396,-148
147.421,-111
147.446,1
147.471,133
147.496,232
147.521,288
147.546,326
147.571,369
147.596,414
147.621,439
147.646,436
147.671,422
147.696,418
147.721,432
147.746,456
147.771,477
147.796,488
147.821,479
147.846,439
147.871,372
147.896,305
147.921,272
147.946,281
147.971,300
147.996,291
148.021,244
148.046,191
148.071,159
148.096,140
148.121,98
148.146,23
148.171,-37
148.196,-25
148.221,74
148.246,211
148.271,316
148.296,368
148.321,395
148.346,432
148.371,477
148.396,499
148.421,487
148.446,462
148.471,457
148.496,478
148.521,502
148.546,508
148.571,494
148.596,469
148.621,439
148.646,402
148.671,362
148.696,331
148.721,311
148.746,286
148.771,239
148.796,180
148.821,134
148.846,109
148.871,77
148.896,0
148.921,-109
148.946,-180
148.971,-138
148.996,15
149.021,196
149.046,306
149.071,318
149.096,291
149.121,304
149.146,375
149.171,457
149.196,492
149.221,472
149.246,443
149.271,448
149.296,489
149.321,528
149.346,530
149.371,491
149.396,431
149.421,375
149.446,334
149.471,312
149.496,310
149.521,318
149.546,313
149.571,270
149.596,194
149.621,124
149.646,101
149.671,124
149.696,144
149.721,105
149.746,14
149.771,-60
149.796,-47
149.821,62
149.846,206
149.871,312
149.896,362
149.921,390
149.946,435
149.971,494
149.996,535
150.021,541
150.046,528
150.071,529
150.096,553
150.121,582
150.146,591
150.171,576
150.196,549
150.221,522
150.246,495
150.271,463
150.296,429
150.321,393
150.346,357
150.371,318
150.396,278
150.421,241
150.446,205
150.471,160
150.496,105
150.521,49
150.546,-1
150.571,-52
150.596,-120
150.621,-200
150.646,-249
150.671,-223
150.696,-115
150.721,26
150.746,143
150.771,219
150.796,283
150.821,363
150.846,445
150.871,487
150.896,474
150.921,442
150.946,437
150.971,474
150.996,519
151.021,537
151.046,525
151.071,505
151.096,491
151.121,474
151.146,441
151.171,397
151.196,359
151.221,330
151.246,299
151.271,256
151.296,211
151.321,174
151.346,136
151.371,77
151.396,2
151.421,-43
151.446,-7
151.471,112
151.496,263
151.521,376
151.546,426
151.571,441
151.596,453
151.621,471
151.646,481
151.671,480
151.696,484
151.721,501
151.746,514
151.771,497
151.796,450
151.821,406
151.846,393
151.871,406
151.896,410
151.921,382
151.946,330
151.971,280
151.996,244
152.021,210
152.046,167
152.071,116
152.096,70
152.121,29
152.146,-23
152.171,-96
152.196,-169
152.221,-199
152.246,-153
152.271,-38
152.296,105
152.321,240
152.346,346
152.371,429
152.396,496
152.421,543
152.446,565
152.471,563
152.496,555
152.521,565
152.546,600
152.571,640
152.596,649
152.621,613
152.646,554
152.671,516
152.696,520
152.721,542
152.746,534
152.771,479
152.796,409
152.821,366
152.846,352
152.871,321
152.896,225
152.921,84
152.946,-27
152.971,-54
152.996,-19
153.021,-5
153.046,-73
153.071,-192
153.096,-266
153.121,-226
153.146,-90
153.171,61
153.196,165
153.221,222
153.246,273
153.271,343
153.296,416
153.321,460
153.346,469
153.371,469
153.396,484
153.421,509
153.446,521
153.471,506
153.496,480
153.521,468
153.546,473
153.571,471
153.596,435
153.621,373
153.646,318
153.671,299
153.696,308
153.721,308
153.746,276
153.771,225
153.796,184
153.821,159
153.846,125
153.871,59
153.896,-16
153.921,-46
153.946,11
153.971,136
153.996,262
154.021,339
154.046,372
154.071,403
154.096,450
154.121,491
154.146,496
154.171,472
154.196,459
154.221,480
154.246,518
154.271,530
154.296,501
154.321,459
154.346,436
154.371,429
154.396,403
154.421,333
154.446,239
154.471,160
154.496,120
154.521,108
154.546,103
154.571,88
154.596,58
154.621,0
154.646,-88
154.671,-181
154.696,-217
154.721,-149
154.746,2
154.771,158
154.796,240
154.821,244
154.846,235
154.871,279
154.896,379
154.921,477
154.946,521
154.971,510
154.996,491
155.021,501
155.046,540
155.071,580
155.096,600
155.121,603
155.146,601
155.171,598
155.196,586
155.221,562
155.246,536
155.271,519
155.296,512
155.321,505
155.346,488
155.371,461
155.396,436
155.421,418
155.446,395
155.471,346
155.496,258
155.521,144
155.546,40
155.571,-11
155.596,2
155.621,61
155.646,122
155.671,156
155.696,169
155.721,193
155.746,244
155.771,311
155.796,356
155.821,359
155.846,339
155.871,338
155.896,377
155.921,434
155.946,458
155.971,419
155.996,344
156.021,289
156.046,287
156.071,318
156.096,331
156.121,293
156.146,222
156.171,160
156.196,129
156.221,115
156.246,89
156.271,44
156.296,-2
156.321,-42
156.346,-84
156.371,-141
156.396,-198
156.421,-210
156.446,-146
156.471,-24
156.496,102
156.521,186
156.546,227
156.571,261
156.596,312
156.621,373
156.646,420
156.671,443
156.696,459
156.721,487
156.746,529
156.771,563
156.796,572
156.821,557
156.846,533
156.871,518
156.896,516
156.921,515
156.946,497
156.971,452
156.996,386
157.021,323
157.046,279
157.071,248
157.096,207
157.121,141
157.146,74
157.171,54
157.196,110
157.221,219
157.246,320
157.271,375
157.296,395
157.321,420
157.346,467
157.371,513
157.396,527
157.421,514
157.446,505
157.471,522
157.496,545
157.521,546
157.546,525
157.571,508
157.596,506
157.621,487
157.646,414
157.671,296
157.696,203
157.721,193
157.746,244
157.771,267
157.796,196
157.821,60
157.846,-42
157.871,-47
157.896,9
157.921,31
157.946,-35
157.971,-144
157.996,-192
158.021,-118
158.046,46
158.071,216
158.096,330
158.121,387
158.146,425
158.171,470
158.196,516
158.221,549
158.246,566
158.271,580
158.296,599
158.321,620
158.346,629
158.371,623
158.396,605
158.421,582
158.446,552
158.471,511
158.496,462
158.521,416
158.546,383
158.571,358
158.596,320
158.621,247
158.646,143
158.671,43
158.696,-12
158.721,-9
158.746,21
158.771,26
158.796,-32
158.821,-134
158.846,-212
158.871,-198
158.896,-81
158.921,85
158.946,225
158.971,292
158.996,299
159.021,290
159.046,300
159.071,327
159.096,352
159.121,362
159.146,370
159.171,391
159.196,428
159.221,466
159.246,488
159.271,489
159.296,473
159.321,444
159.346,410
159.371,382
159.396,370
159.421,365
159.446,343
159.471,284
159.496,203
159.521,138
159.546,116
159.571,117
159.596,98
159.621,42
159.646,-13
159.671,-8
159.696,77
159.721,210
159.746,330
159.771,411
159.796,463
159.821,505
159.846,535
159.871,539
159.896,523
159.921,512
159.946,521
159.971,539
159.996,545
160.021,536
160.046,526
160.071,521
160.096,507
160.121,468
160.146,418
160.171,384
160.196,372
160.221,355
160.246,304
160.271,233
160.296,184
160.321,171
160.346,158
160.371,98
160.396,0
160.421,-69
160.446,-61
160.471,-9
160.496,2
160.521,-59
160.546,-135
160.571,-126
160.596,-4
160.621,159
160.646,273
160.671,317
160.696,347
160.721,414
160.746,506
160.771,569
160.796,579
160.821,564
160.846,567
160.871,594
160.896,620
160.921,625
160.946,614
160.971,595
160.996,558
161.021,491
161.046,406
161.071,345
161.096,333
161.121,353
161.146,359
161.171,327
161.196,271
161.221,218
161.246,179
161.271,139
161.296,91
161.321,37
161.346,-18
161.371,-82
161.396,-153
161.421,-204
161.446,-187
161.471,-86
161.496,57
161.521,178
161.546,245
161.571,288
161.596,349
161.621,429
161.646,485
161.671,486
161.696,453
161.721,441
161.746,478
161.771,538
161.796,574
161.821,566
161.846,538
161.871,519
161.896,510
161.921,492
161.946,455
161.971,413
161.996,384
162.021,365
162.046,338
162.071,292
162.096,240
162.121,195
162.146,156
162.171,106
162.196,36
162.221,-36
162.246,-77
162.271,-60
162.296,14
162.321,125
162.346,238
162.371,326
162.396,376
162.421,402
162.446,424
162.471,455
162.496,483
162.521,486
162.546,458
162.571,426
162.596,423
162.621,453
162.646,487
162.671,487
162.696,450
162.721,406
162.746,381
162.771,370
162.796,345
162.821,286
162.846,206
162.871,135
162.896,95
162.921,85
162.946,93
162.971,96
162.996,69
163.021,-6
163.046,-113
163.071,-190
163.096,-162
163.121,-12
163.146,192
163.171,344
163.196,390
163.221,368
163.246,362
163.271,418
163.296,504
163.321,558
163.346,561
163.371,548
163.396,561
163.421,599
163.446,628
163.471,624
163.496,598
163.521,575
163.546,561
163.571,541
163.596,506
163.621,470
163.646,441
163.671,394
163.696,287
163.721,115
163.746,-58
163.771,-138
163.796,-85
163.821,37
163.846,106
163.871,48
163.896,-93
163.921,-197
163.946,-167
163.971,-12
163.996,166
164.021,271
164.046,286
164.071,274
164.096,303
164.121,385
164.146,470
164.171,507
164.196,490
164.221,461
164.246,459
164.271,491
164.296,528
164.321,543
164.346,531
164.371,508
164.396,487
164.421,467
164.446,438
164.471,399
164.496,358
164.521,323
164.546,297
164.571,272
164.596,244
164.621,210
164.646,173
164.671,136
164.696,96
164.721,44
164.746,-21
164.771,-80
164.796,-99
164.821,-47
164.846,66
164.871,199
164.896,302
164.921,361
164.946,399
164.971,443
164.996,491
165.021,516
165.046,502
165.071,474
165.096,468
165.121,498
165.146,537
165.171,549
165.196,526
165.221,491
165.246,464
165.271,441
165.296,404
165.321,354
165.346,308
165.371,279
165.396,253
165.421,207
165.446,142
165.471,90
165.496,72
165.521,70
165.546,35
165.571,-53
165.596,-158
165.621,-205
165.646,-147
165.671,-11
165.696,136
165.721,241
165.746,304
165.771,358
165.796,427
165.821,499
165.846,543
165.871,543
165.896,517
165.921,503
165.946,525
165.971,572
165.996,607
166.021,597
166.046,542
166.071,470
166.096,416
166.121,396
166.146,398
166.171,401
166.196,389
166.221,357
166.246,308
166.271,250
166.296,197
166.321,162
166.346,138
166.371,101
166.396,26
166.421,-75
166.446,-148
166.471,-134
166.496,-21
166.521,135
166.546,255
166.571,301
166.596,298
166.621,305
166.646,358
166.671,438
166.696,498
166.721,512
166.746,491
166.771,470
166.796,476
166.821,506
166.846,535
166.871,541
166.896,520
166.921,489
166.946,466
166.971,451
166.996,424
167.021,365
167.046,277
167.071,192
167.096,142
167.121,138
167.146,153
167.171,151
167.196,109
167.221,32
167.246,-52
167.271,-114
167.296,-126
167.321,-74
167.346,33
167.371,164
167.396,278
167.421,348
167.446,380
167.471,400
167.496,429
167.521,463
167.546,485
167.571,480
167.596,459
167.621,448
167.646,463
167.671,493
167.696,509
167.721,492
167.746,448
167.771,407
167.796,387
167.821,377
167.846,342
167.871,266
167.896,170
167.921,100
167.946,77
167.971,75
167.996,50
168.021,-3
168.046,-41
168.071,-3
168.096,115
168.121,260
168.146,365
168.171,411
168.196,432
168.221,462
168.246,495
168.271,502
168.296,479
168.321,456
168.346,467
168.371,503
168.396,526
168.421,510
168.446,471
168.471,444
168.496,438
168.521,425
168.546,375
168.571,290
168.596,202
168.621,140
168.646,111
168.671,105
168.696,108
168.721,103
168.746,64
168.771,-22
168.796,-131
168.821,-192
168.846,-140
168.871,23
168.896,218
168.921,347
168.946,375
168.971,351
168.996,350
169.021,406
169.046,485
169.071,533
169.096,530
169.121,499
169.146,482
169.171,495
169.196,523
169.221,538
169.246,531
169.271,509
169.296,482
169.321,452
169.346,413
169.371,367
169.396,320
169.421,282
169.446,250
169.471,210
169.496,157
169.521,107
169.546,77
169.571,58
169.596,13
169.621,-77
169.646,-180
169.671,-215
169.696,-124
169.721,62
169.746,242
169.771,328
169.796,324
169.821,307
169.846,341
169.871,421
169.896,490
169.921,510
169.946,500
169.971,502
169.996,530
170.021,563
170.046,578
170.071,580
170.096,584
170.121,592
170.146,589
170.171,570
170.196,547
170.221,532
170.246,516
170.271,477
170.296,415
170.321,353
170.346,307
170.371,262
170.396,186
170.421,82
170.446,0
170.471,0
170.496,84
170.521,210
170.546,320
170.571,402
170.596,470
170.621,526
170.646,535
170.671,459
170.696,307
170.721,142
170.746,36
170.771,14
170.796,40
170.821,39
170.846,-40
170.871,-198
170.896,-366
170.921,-453
170.946,-405
170.971,-250
170.996,-78
171.021,26
171.046,57
171.071,75
171.096,141
171.121,245
171.146,319
171.171,310
171.196,235
171.221,166
171.246,167
171.271,244
171.296,361
171.321,475
171.346,568
171.371,639
171.396,690
171.421,723
171.446,743
171.471,751
171.496,743
171.521,723
171.546,711
171.571,733
171.596,789
171.621,842
171.646,847
171.671,798
171.696,739
171.721,711
171.746,695
171.771,628
171.796,472
171.821,274
171.846,131
171.871,105
171.896,157
171.921,189
171.946,130
171.971,-3
171.996,-136
172.021,-195
172.046,-164
172.071,-69
172.096,46
172.121,148
172.146,216
172.171,245
172.196,255
172.221,266
172.246,284
172.271,292
172.296,273
172.321,241
172.346,227
172.371,254
172.396,302
172.421,334
172.446,335
172.471,326
172.496,333
172.521,353
172.546,357
172.571,326
172.596,277
172.621,236
172.646,202
172.671,145
172.696,55
172.721,-32
172.746,-60
172.771,-15
172.796,51
172.821,70
172.846,32
172.871,0
172.896,42
172.921,169
172.946,317
172.971,412
172.996,440
173.021,443
173.046,469
173.071,519
173.096,556
173.121,556
173.146,531
173.171,517
173.196,532
173.221,557
173.246,559
173.271,525
173.296,474
173.321,431
173.346,401
173.371,360
173.396,294
173.421,217
173.446,163
173.471,144
173.496,132
173.521,78
173.546,-22
173.571,-114
173.596,-117
173.621,-2
173.646,180
173.671,335
173.696,403
173.721,399
173.746,385
173.771,408
173.796,464
173.821,516
173.846,532
173.871,515
173.896,492
173.921,488
173.946,511
173.971,544
173.996,559
174.021,541
174.046,501
174.071,463
174.096,443
174.121,426
174.146,380
174.171,290
174.196,183
174.221,108
174.246,91
174.271,108
174.296,114
174.321,82
174.346,20
174.371,-49
174.396,-117
174.421,-174
174.446,-201
174.471,-161
174.496,-41
174.521,124
174.546,274
174.571,367
174.596,419
174.621,467
174.646,531
174.671,584
174.696,596
174.721,571
174.746,548
174.771,564
174.796,612
174.821,650
174.846,638
174.871,573
174.896,491
174.921,432
174.946,415
174.971,425
174.996,428
175.021,403
175.046,350
175.071,292
175.096,248
175.121,214
175.146,175
175.171,120
175.196,59
175.221,8
175.246,-38
175.271,-100
175.296,-180
175.321,-239
175.346,-221
175.371,-107
175.396,60
175.421,205
175.446,285
175.471,321
175.496,357
175.521,410
175.546,456
175.571,466
175.596,451
175.621,450
175.646,484
175.671,531
175.696,549
175.721,522
175.746,477
175.771,452
175.796,458
175.821,471
175.846,465
175.871,432
175.896,386
175.921,343
175.946,305
175.971,266
175.996,223
176.021,177
176.046,126
176.071,65
176.096,-2
176.121,-55
176.146,-56
176.171,17
176.196,149
176.221,291
176.246,390
176.271,432
176.296,445
176.321,464
176.346,499
176.371,523
176.396,514
176.421,487
176.446,481
176.471,518
176.496,566
176.521,570
176.546,503
176.571,401
176.596,329
176.621,321
176.646,345
176.671,342
176.696,275
176.721,162
176.746,58
176.771,4
176.796,7
176.821,36
176.846,45
176.871,-4
176.896,-106
176.921,-203
176.946,-214
176.971,-93
176.996,118
177.021,320
177.046,426
177.071,433
177.096,411
177.121,431
177.146,497
177.171,561
177.196,581
177.221,563
177.246,550
177.271,569
177.296,608
177.321,633
177.346,624
177.371,587
177.396,542
177.421,505
177.446,479
177.471,453
177.496,413
177.521,342
177.546,243
177.571,142
177.596,77
177.621,65
177.646,84
177.671,84
177.696,28
177.721,-73
177.746,-178
177.771,-233
177.796,-208
177.821,-108
177.846,33
177.871,176
177.896,283
177.921,344
177.946,372
177.971,397
177.996,433
178.021,468
178.046,485
178.071,479
178.096,468
178.121,473
178.146,494
178.171,515
178.196,518
178.221,501
178.246,474
178.271,444
178.296,414
178.321,383
178.346,348
178.371,310
178.396,268
178.421,225
178.446,186
178.471,152
178.496,111
178.521,48
178.546,-28
178.571,-77
178.596,-50
178.621,66
178.646,230
178.671,370
178.696,446
178.721,468
178.746,479
178.771,503
178.796,528
178.821,534
178.846,523
178.871,516
178.896,528
178.921,548
178.946,554
178.971,537
178.996,513
179.021,488
179.046,449
179.071,377
179.096,278
179.121,195
179.146,165
179.171,178
179.196,187
179.221,150
179.246,79
179.271,15
179.296,-18
179.321,-49
179.346,-113
179.371,-204
179.396,-255
179.421,-205
179.446,-54
179.471,124
179.496,259
179.521,331
179.546,375
179.571,428
179.596,487
179.621,527
179.646,540
179.671,544
179.696,559
179.721,580
179.746,590
179.771,581
179.796,567
179.821,561
179.846,556
179.871,527
179.896,463
179.921,380
179.946,303
179.971,251
179.996,224
180.021,218
180.046,218
180.071,201
180.096,141
180.121,42
180.146,-51
180.171,-86
180.196,-44
180.221,31
180.246,83
180.271,95
180.296,108
180.321,165
180.346,267
180.371,372
180.396,441
180.421,478
180.446,509
180.471,542
180.496,564
180.521,566
180.546,565
180.571,579
180.596,603
180.621,610
180.646,587
180.671,555
180.696,536
180.721,516
180.746,459
180.771,357
180.796,260
180.821,228
180.846,257
180.871,270
180.896,196
180.921,55
180.946,-61
180.971,-82
180.996,-39
181.021,-28
181.046,-103
181.071,-216
181.096,-260
181.121,-177
181.146,-1
181.171,182
181.196,312
181.221,385
181.246,429
181.271,460
181.296,478
181.321,479
181.346,474
181.371,479
181.396,497
181.421,521
181.446,539
181.471,547
181.496,539
181.521,512
181.546,469
181.571,425
181.596,391
181.621,363
181.646,322
181.671,260
181.696,194
181.721,153
181.746,146
181.771,141
181.796,91
181.821,-11
181.846,-116
181.871,-143
181.896,-54
181.921,109
181.946,265
181.971,357
181.996,397
182.021,431
182.046,483
182.071,524
182.096,519
182.121,477
182.146,447
182.171,468
182.196,521
182.221,553
182.246,536
182.271,493
182.296,464
182.321,454
182.346,430
182.371,371
182.396,301
182.421,261
182.446,253
182.471,230
182.496,156
182.521,62
182.546,16
182.571,48
182.596,98
182.621,80
182.646,-24
182.671,-132
182.696,-134
182.721,-1
182.746,192
182.771,346
182.796,418
182.821,443
182.846,475
182.871,525
182.896,569
182.921,583
182.946,572
182.971,555
182.996,543
183.021,532
183.046,520
183.071,512
183.096,511
183.121,510
183.146,490
183.171,446
183.196,387
183.221,334
183.246,294
183.271,257
183.296,208
183.321,142
183.346,77
183.371,28
183.396,-5
183.421,-47
183.446,-122
183.471,-215
183.496,-268
183.521,-218
183.546,-57
183.571,150
183.596,311
183.621,378
183.646,375
183.671,367
183.696,393
183.721,439
183.746,473
183.771,485
183.796,491
183.821,503
183.846,513
183.871,509
183.896,498
183.921,496
183.946,502
183.971,494
183.996,455
184.021,397
184.046,350
184.071,321
184.096,285
184.121,218
184.146,136
184.171,76
184.196,51
184.221,27
184.246,-23
184.271,-74
184.296,-56
184.321,64
184.346,234
184.371,363
184.396,408
184.421,413
184.446,443
184.471,504
184.496,540
184.521,516
184.546,469
184.571,465
184.596,520
184.621,574
184.646,561
184.671,480
184.696,391
184.721,344
184.746,335
184.771,330
184.796,313
184.821,290
184.846,260
184.871,204
184.896,121
184.921,55
184.946,52
184.971,95
184.996,97
185.021,-2
185.046,-154
185.071,-218
185.096,-101
185.121,142
185.146,362
185.171,450
185.196,431
185.221,412
185.246,460
185.271,541
185.296,586
185.321,573
185.346,546
185.371,554
185.396,596
185.421,633
185.446,635
185.471,606
185.496,568
185.521,532
185.546,499
185.571,469
185.596,437
185.621,389
185.646,311
185.671,207
185.696,113
185.721,66
185.746,69
185.771,85
185.796,65
185.821,-5
185.846,-109
185.871,-208
185.896,-267
185.921,-261
185.946,-179
185.971,-40
185.996,109
186.021,218
186.046,269
186.071,293
186.096,326
186.121,374
186.146,411
186.171,416
186.196,406
186.221,415
186.246,454
186.271,499
186.296,516
186.321,501
186.346,476
186.371,456
186.396,436
186.421,401
186.446,356
186.471,318
186.496,294
186.521,271
186.546,235
186.571,189
186.596,140
186.621,89
186.646,30
186.671,-21
186.696,-24
186.721,59
186.746,218
186.771,390
186.796,512
186.821,570
186.846,593
186.871,607
186.896,606
186.921,583
186.946,556
186.971,565
186.996,611
187.021,647
187.046,618
187.071,526
187.096,438
187.121,413
187.146,436
187.171,436
187.196,363
187.221,242
187.246,145
187.271,115
187.296,128
187.321,132
187.346,94
187.371,23
187.396,-58
187.421,-138
187.446,-199
187.471,-212
187.496,-146
187.521,-6
187.546,153
187.571,274
187.596,335
187.621,366
187.646,403
187.671,455
187.696,496
187.721,507
187.746,493
187.771,481
187.796,489
187.821,512
187.846,527
187.871,518
187.896,486
187.921,443
187.946,405
187.971,375
187.996,336
188.021,272
188.046,182
188.071,95
188.096,49
188.121,51
188.146,64
188.171,37
188.196,-42
188.221,-128
188.246,-149
188.271,-65
188.296,96
188.321,270
188.346,398
188.371,461
188.396,478
188.421,478
188.446,482
188.471,495
188.496,508
188.521,514
188.546,511
188.571,508
188.596,511
188.621,511
188.646,489
188.671,441
188.696,386
188.721,350
188.746,333
188.771,304
188.796,238
188.821,156
188.846,111
188.871,131
188.896,174
188.921,161
188.946,64
188.971,-55
188.996,-94
189.021,-6
189.046,157
189.071,301
189.096,372
189.121,392
189.146,414
189.171,456
189.196,496
189.221,505
189.246,485
189.271,462
189.296,454
189.321,455
189.346,455
189.371,452
189.396,449
189.421,443
189.446,423
189.471,384
189.496,336
189.521,291
189.546,251
189.571,210
189.596,164
189.621,111
189.646,52
189.671,-16
189.696,-85
189.721,-124
189.746,-95
189.771,8
189.796,152
189.821,276
189.846,349
189.871,386
189.896,425
189.921,476
189.946,514
189.971,513
189.996,484
190.021,468
190.046,494
190.071,544
190.096,565
190.121,528
190.146,448
190.171,376
190.196,346
190.221,354
190.246,368
190.271,359
190.296,326
190.321,279
190.346,233
190.371,193
190.396,160
190.421,126
190.446,81
190.471,13
190.496,-68
190.521,-131
190.546,-132
190.571,-51
190.596,84
190.621,219
190.646,312
190.671,360
190.696,395
190.721,442
190.746,493
190.771,522
190.796,517
190.821,496
190.846,490
190.871,512
190.896,544
190.921,556
190.946,527
190.971,463
190.996,388
191.021,330
191.046,306
191.071,311
191.096,319
191.121,303
191.146,253
191.171,188
191.196,139
191.221,115
191.246,91
191.271,33
191.296,-58
191.321,-138
191.346,-145
191.371,-64
191.396,66
191.421,187
191.446,269
191.471,323
191.496,372
191.521,420
191.546,451
191.571,460
191.596,459
191.621,466
191.646,478
191.671,479
191.696,464
191.721,444
191.746,438
191.771,442
191.796,438
191.821,413
191.846,374
191.871,337
191.896,304
191.921,265
191.946,217
191.971,167
191.996,124
192.021,83
192.046,29
192.071,-31
192.096,-64
192.121,-29
192.146,72
192.171,199
192.196,300
192.221,363
192.246,410
192.271,464
192.296,515
192.321,538
192.346,524
192.371,497
192.396,493
192.421,520
192.446,553
192.471,561
192.496,537
192.521,502
192.546,476
192.571,461
192.596,441
192.621,401
192.646,348
192.671,298
192.696,264
192.721,239
192.746,206
192.771,153
192.796,86
192.821,24
192.846,-23
192.871,-67
192.896,-124
192.921,-182
192.946,-201
192.971,-140
192.996,-4
193.021,155
193.046,278
193.071,349
193.096,403
193.121,475
193.146,553
193.171,596
193.196,581
193.221,541
193.246,531
193.271,570
193.296,619
193.321,622
193.346,568
193.371,494
193.396,444
193.421,428
193.446,426
193.471,418
193.496,401
193.521,378
193.546,345
193.571,297
193.596,247
193.621,209
193.646,180
193.671,131
193.696,46
193.721,-48
193.746,-104
193.771,-96
193.796,-55
193.821,-36
193.846,-52
193.871,-62
193.896,-17
193.921,84
193.946,195
193.971,275
193.996,327
194.021,377
194.046,433
194.071,472
194.096,479
194.121,471
194.146,482
194.171,521
194.196,557
194.221,562
194.246,541
194.271,519
194.296,504
194.321,470
194.346,398
194.371,312
194.396,259
194.421,260
194.446,281
194.471,268
194.496,209
194.521,135
194.546,82
194.571,41
194.596,-15
194.621,-86
194.646,-118
194.671,-58
194.696,84
194.721,239
194.746,339
194.771,380
194.796,411
194.821,468
194.846,535
194.871,569
194.896,558
194.921,538
194.946,550
194.971,594
194.996,632
195.021,629
195.046,592
195.071,555
195.096,539
195.121,527
195.146,489
195.171,415
195.196,330
195.221,269
195.246,244
195.271,244
195.296,242
195.321,220
195.346,175
195.371,116
195.396,55
195.421,5
195.446,-35
195.471,-83
195.496,-156
195.521,-245
195.546,-308
195.571,-292
195.596,-176
195.621,4
195.646,180
195.671,303
195.696,371
195.721,420
195.746,482
195.771,553
195.796,608
195.821,626
195.846,612
195.871,592
195.896,588
195.921,603
195.946,627
195.971,642
195.996,634
196.021,598
196.046,547
196.071,499
196.096,465
196.121,432
196.146,380
196.171,302
196.196,223
196.221,179
196.246,180
196.271,192
196.296,167
196.321,92
196.346,0
196.371,-64
196.396,-98
196.421,-139
196.446,-213
196.471,-291
196.496,-308
196.521,-222
196.546,-62
196.571,99
196.596,212
196.621,283
196.646,351
196.671,432
196.696,504
196.721,539
196.746,538
196.771,531
196.796,544
196.821,572
196.846,598
196.871,612
196.896,619
196.921,619
196.946,600
196.971,548
196.996,470
197.021,391
197.046,337
197.071,310
197.096,297
197.121,283
197.146,256
197.171,201
197.196,110
197.221,3
197.246,-70
197.271,-61
197.296,34
197.321,162
197.346,255
197.371,287
197.396,289
197.421,315
197.446,383
197.471,466
197.496,520
197.521,526
197.546,503
197.571,489
197.596,505
197.621,542
197.646,567
197.671,549
197.696,482
197.721,401
197.746,351
197.771,351
197.796,375
197.821,376
197.846,333
197.871,272
197.896,235
197.921,224
197.946,196
197.971,111
197.996,-15
198.021,-118
198.046,-149
198.071,-128
198.096,-125
198.121,-180
198.146,-255
198.171,-264
198.196,-157
198.221,35
198.246,230
198.271,368
198.296,447
198.321,499
198.346,547
198.371,585
198.396,604
198.421,609
198.446,620
198.471,643
198.496,665
198.521,670
198.546,655
198.571,634
198.596,615
198.621,591
198.646,552
198.671,502
198.696,456
198.721,425
198.746,398
198.771,354
198.796,282
198.821,195
198.846,114
198.871,56
198.896,22
198.921,9
198.946,7
198.971,-6
198.996,-64
199.021,-175
199.046,-296
199.071,-345
199.096,-264
199.121,-78
199.146,113
199.171,218
199.196,225
199.221,207
199.246,240
199.271,337
199.296,441
199.321,492
199.346,488
199.371,477
199.396,500
199.421,554
199.446,602
199.471,620
199.496,610
199.521,593
199.546,578
199.571,556
199.596,520
199.621,473
199.646,429
199.671,395
199.696,362
199.721,317
199.746,259
199.771,201
199.796,156
199.821,119
199.846,71
199.871,-2
199.896,-91
199.921,-151
199.946,-140
199.971,-44
199.996,102
200.021,242
200.046,338
200.071,395
200.096,441
200.121,494
200.146,541
200.171,557
200.196,540
200.221,515
200.246,518
200.271,554
200.296,594
200.321,596
200.346,544
200.371,462
200.396,394
200.421,368
200.446,377
200.471,388
200.496,372
200.521,325
200.546,267
200.571,218
200.596,180
200.621,139
200.646,86
200.671,30
200.696,-20
200.721,-69
200.746,-134
200.771,-218
200.796,-284
200.821,-274
200.846,-160
200.871,27
200.896,217
200.921,352
200.946,433
200.971,494
200.996,558
201.021,609
201.046,622
201.071,603
201.096,589
201.121,606
201.146,639
201.171,646
201.196,604
201.221,535
201.246,486
201.271,481
201.296,499
201.321,499
201.346,461
201.371,398
201.396,337
201.421,290
201.446,252
201.471,211
201.496,161
201.521,107
201.546,54
201.571,4
201.596,-51
201.621,-123
201.646,-211
201.671,-284
201.696,-291
201.721,-193
201.746,-7
201.771,195
201.796,329
201.821,365
201.846,349
201.871,353
201.896,411
201.921,485
201.946,523
201.971,510
201.996,485
202.021,494
202.046,536
202.071,569
202.096,560
202.121,515
202.146,470
202.171,446
202.196,429
202.221,393
202.246,335
202.271,276
202.296,236
202.321,211
202.346,177
202.371,118
202.396,38
202.421,-41
202.446,-90
202.471,-79
202.496,5
202.521,146
202.546,294
202.571,395
202.596,436
202.621,450
202.646,479
202.671,524
202.696,549
202.721,524
202.746,474
202.771,452
202.796,487
202.821,543
202.846,561
202.871,523
202.896,469
202.921,443
202.946,439
202.971,413
202.996,334
203.021,225
203.046,136
203.071,91
203.096,78
203.121,73
203.146,66
203.171,49
203.196,3
203.221,-92
203.246,-211
203.271,-277
203.296,-219
203.321,-47
203.346,145
203.371,265
203.396,293
203.421,292
203.446,333
203.471,426
203.496,525
203.521,583
203.546,594
203.571,585
203.596,587
203.621,611
203.646,650
203.671,685
203.696,693
203.721,666
203.746,621
203.771,591
203.796,581
203.821,556
203.846,471
203.871,336
203.896,223
203.921,200
203.946,248
203.971,270
203.996,190
204.021,37
204.046,-82
204.071,-103
204.096,-68
204.121,-74
204.146,-154
204.171,-232
204.196,-208
204.221,-63
204.246,121
204.271,255
204.296,317
204.321,354
204.346,404
204.371,456
204.396,474
204.421,456
204.446,436
204.471,446
204.496,477
204.521,500
204.546,499
204.571,485
204.596,475
204.621,463
204.646,435
204.671,392
204.696,353
204.721,331
204.746,316
204.771,288
204.796,242
204.821,193
204.846,156
204.871,126
204.896,78
204.921,3
204.946,-75
204.971,-115
204.996,-83
205.021,13
205.046,139
205.071,255
205.096,344
205.121,410
205.146,464
205.171,503
205.196,513
205.221,493
205.246,463
205.271,458
205.296,494
205.321,548
205.346,579
205.371,557
205.396,495
205.421,426
205.446,383
205.471,366
205.496,359
205.521,344
205.546,315
205.571,271
205.596,213
205.621,150
205.646,98
205.671,63
205.696,29
205.721,-30
205.746,-121
205.771,-200
205.796,-208
205.821,-115
205.846,38
205.871,184
205.896,277
205.921,330
205.946,385
205.971,463
205.996,542
206.021,584
206.046,580
206.071,551
206.096,532
206.121,538
206.146,562
206.171,582
206.196,585
206.221,569
206.246,543
206.271,521
206.296,513
206.321,507
206.346,474
206.371,392
206.396,273
206.421,168
206.446,123
206.471,140
206.496,169
206.521,149
206.546,60
206.571,-63
206.596,-155
206.621,-170
206.646,-103
206.671,14
206.696,142
206.721,247
206.746,318
206.771,361
206.796,393
206.821,429
206.846,467
206.871,497
206.896,507
206.921,494
206.946,473
206.971,463
206.996,475
207.021,499
207.046,513
207.071,496
207.096,450
207.121,401
207.146,370
207.171,350
207.196,308
207.221,223
207.246,116
207.271,44
207.296,44
207.321,87
207.346,99
207.371,32
207.396,-82
207.421,-159
207.446,-132
207.471,-13
207.496,132
207.521,248
207.546,325
207.571,386
207.596,441
207.621,479
207.646,491
207.671,492
207.696,499
207.721,514
207.746,518
207.771,498
207.796,463
207.821,436
207.846,427
207.871,425
207.896,413
207.921,385
207.946,344
207.971,290
207.996,226
208.021,166
208.046,127
208.071,107
208.096,73
208.121,-3
208.146,-105
208.171,-165
208.196,-119
208.221,27
208.246,196
208.271,300
208.296,316
208.321,301
208.346,322
208.371,398
208.396,485
208.421,530
208.446,523
208.471,499
208.496,499
208.521,533
208.546,577
208.571,599
208.596,587
208.621,554
208.646,521
208.671,499
208.696,475
208.721,431
208.746,358
208.771,268
208.796,189
208.821,142
208.846,129
208.871,131
208.896,125
208.921,86
208.946,6
208.971,-100
208.996,-190
209.021,-204
209.046,-112
209.071,59
209.096,228
209.121,323
209.146,335
209.171,325
209.196,361
209.221,450
209.246,541
209.271,574
209.296,547
209.321,509
209.346,507
209.371,542
209.396,576
209.421,581
209.446,561
209.471,537
209.496,517
209.521,486
209.546,435
209.571,376
209.596,329
209.621,297
209.646,260
209.671,203
209.696,140
209.721,96
209.746,75
209.771,44
209.796,-35
209.821,-152
209.846,-239
209.871,-225
209.896,-103
209.921,59
209.946,175
209.971,213
209.996,216
210.021,244
210.046,320
210.071,410
210.096,465
210.121,472
210.146,455
210.171,451
210.196,475
210.221,515
210.246,546
210.271,548
210.296,512
210.321,451
210.346,393
210.371,365
210.396,372
210.421,382
210.446,358
210.471,295
210.496,223
210.521,179
210.546,156
210.571,117
210.596,36
210.621,-59
210.646,-104
210.671,-56
210.696,68
210.721,208
210.746,314
210.771,380
210.796,426
210.821,467
210.846,500
210.871,515
210.896,516
210.921,515
210.946,517
210.971,522
210.996,526
211.021,531
211.046,532
211.071,519
211.096,483
211.121,422
211.146,345
211.171,269
211.196,214
211.221,190
211.246,198
211.271,210
211.296,188
211.321,112
211.346,12
211.371,-55
211.396,-57
211.421,-21
211.446,-13
211.471,-59
211.496,-116
211.521,-109
211.546,-7
211.571,143
211.596,271
211.621,346
211.646,392
211.671,440
211.696,493
211.721,529
211.746,540
211.771,544
211.796,563
211.821,595
211.846,621
211.871,633
211.896,639
211.921,636
211.946,606
211.971,537
211.996,447
212.021,380
212.046,362
212.071,377
212.096,383
212.121,353
212.146,299
212.171,242
212.196,188
212.221,134
212.246,78
212.271,25
212.296,-33
212.321,-111
212.346,-204
212.371,-261
212.396,-219
212.421,-69
212.446,121
212.471,251
212.496,284
212.521,267
212.546,281
212.571,354
212.596,441
212.621,481
212.646,468
212.671,444
212.696,452
212.721,490
212.746,523
212.771,528
212.796,511
212.821,492
212.846,477
212.871,458
212.896,428
212.921,387
212.946,340
212.971,289
212.996,238
213.021,200
213.046,190
213.071,205
213.096,218
213.121,196
213.146,126
213.171,29
213.196,-48
213.221,-67
213.246,-15
213.271,85
213.296,192
213.321,267
213.346,305
213.371,327
213.396,368
213.421,431
213.446,492
213.471,517
213.496,501
213.521,472
213.546,465
213.571,489
213.596,521
213.621,535
213.646,527
213.671,511
213.696,495
213.721,471
213.746,432
213.771,386
213.796,346
213.821,314
213.846,272
213.871,209
213.896,140
213.921,93
213.946,73
213.971,46
213.996,-24
214.021,-131
214.046,-211
214.071,-200
214.096,-92
214.121,54
214.146,165
214.171,215
214.196,233
214.221,268
214.246,338
214.271,421
214.296,487
214.321,518
214.346,522
214.371,521
214.396,534
214.421,567
214.446,603
214.471,614
214.496,581
214.521,519
214.546,467
214.571,455
214.596,475
214.621,486
214.646,456
214.671,393
214.696,329
214.721,287
214.746,256
214.771,212
214.796,150
214.821,88
214.846,33
214.871,-23
214.896,-102
214.921,-192
214.946,-247
214.971,-221
214.996,-107
215.021,56
215.046,213
215.071,327
215.096,396
215.121,434
215.146,457
215.171,471
215.196,480
215.221,488
215.246,498
215.271,515
215.296,536
215.321,556
215.346,564
215.371,553
215.396,524
215.421,486
215.446,450
215.471,415
215.496,377
215.521,334
215.546,291
215.571,252
215.596,213
215.621,171
215.646,123
215.671,69
215.696,5
215.721,-70
215.746,-142
215.771,-171
215.796,-119
215.821,11
215.846,171
215.871,302
215.896,380
215.921,428
215.946,473
215.971,512
215.996,519
216.021,490
216.046,460
216.071,471
216.096,521
216.121,566
216.146,559
216.171,496
216.196,414
216.221,355
216.246,331
216.271,330
216.296,332
216.321,315
216.346,262
216.371,174
216.396,85
216.421,43
216.446,64
216.471,101
216.496,88
216.521,8
216.546,-72
216.571,-69
216.596,42
216.621,203
216.646,328
216.671,390
216.696,417
216.721,450
216.746,487
216.771,507
216.796,507
216.821,506
216.846,515
216.871,516
216.896,492
216.921,457
216.946,445
216.971,464
216.996,478
217.021,450
217.046,382
217.071,320
217.096,289
217.121,261
217.146,194
217.171,87
217.196,-5
217.221,-42
217.246,-43
217.271,-67
217.296,-131
217.321,-175
217.346,-123
217.371,35
217.396,226
217.421,364
217.446,430
217.471,469
217.496,520
217.521,574
217.546,594
217.571,572
217.596,545
217.621,549
217.646,582
217.671,607
217.696,599
217.721,568
217.746,541
217.771,520
217.796,490
217.821,438
217.846,378
217.871,330
217.896,300
217.921,265
217.946,210
217.971,144
217.996,89
218.021,49
218.046,2
218.071,-79
218.096,-184
218.121,-262
218.146,-260
218.171,-165
218.196,-17
218.221,129
218.246,237
218.271,309
218.296,360
218.321,403
218.346,433
218.371,443
218.396,436
218.421,428
218.446,439
218.471,475
218.496,519
218.521,537
218.546,506
218.571,434
218.596,362
218.621,330
218.646,342
218.671,360
218.696,343
218.721,287
218.746,227
218.771,189
218.796,160
218.821,107
218.846,24
218.871,-34
218.896,-5
218.921,122
218.946,285
218.971,405
218.996,454
219.021,470
219.046,497
219.071,536
219.096,551
219.121,525
219.146,489
219.171,489
219.196,526
219.221,552
219.246,521
219.271,441
219.296,362
219.321,333
219.346,348
219.371,366
219.396,349
219.421,292
219.446,216
219.471,147
219.496,101
219.521,78
219.546,66
219.571,35
219.596,-37
219.621,-143
219.646,-227
219.671,-224
219.696,-109
219.721,71
219.746,235
219.771,327
219.796,358
219.821,380
219.846,429
219.871,492
219.896,531
219.921,528
219.946,508
219.971,510
219.996,549
220.021,598
220.046,614
220.071,577
220.096,505
220.121,432
220.146,382
220.171,360
220.196,358
220.221,359
220.246,343
220.271,292
220.296,209
220.321,128
220.346,89
220.371,99
220.396,110
220.421,61
220.446,-56
220.471,-174
220.496,-196
220.521,-87
220.546,93
220.571,251
220.596,331
220.621,360
220.646,393
220.671,448
220.696,500
220.721,519
220.746,512
220.771,509
220.796,528
220.821,556
220.846,572
220.871,568
220.896,551
220.921,526
220.946,487
220.971,441
220.996,402
221.021,374
221.046,333
221.071,251
221.096,134
221.121,34
221.146,2
221.171,32
221.196,51
221.221,-1
221.246,-114
221.271,-201
221.296,-183
221.321,-52
221.346,127
221.371,280
221.396,374
221.421,420
221.446,445
221.471,461
221.496,470
221.521,473
221.546,473
221.571,475
221.596,486
221.621,507
221.646,532
221.671,541
221.696,515
221.721,462
221.746,408
221.771,379
221.796,362
221.821,322
221.846,246
221.871,164
221.896,128
221.921,144
221.946,155
221.971,99
221.996,-24
222.021,-131
222.046,-133
222.071,-10
222.096,167
222.121,308
222.146,379
222.171,409
222.196,443
222.221,490
222.246,526
222.271,528
222.296,508
222.321,491
222.346,498
222.371,523
222.396,547
222.421,549
222.446,516
222.471,446
222.496,356
222.521,278
222.546,242
222.571,249
222.596,262
222.621,241
222.646,174
222.671,92
222.696,36
222.721,10
222.746,-20
222.771,-91
222.796,-192
222.821,-256
222.846,-218
222.871,-65
222.896,146
222.921,334
222.946,444
222.971,484
222.996,494
223.021,512
223.046,542
223.071,572
223.096,594
223.121,608
223.146,614
223.171,606
223.196,579
223.221,545
223.246,528
223.271,536
223.296,549
223.321,534
223.346,477
223.371,403
223.396,347
223.421,318
223.446,291
223.471,238
223.496,163
223.521,98
223.546,57
223.571,14
223.596,-66
223.621,-177
223.646,-256
223.671,-234
223.696,-106
223.721,63
223.746,199
223.771,278
223.796,327
223.821,378
223.846,427
223.871,449
223.896,441
223.921,431
223.946,447
223.971,481
223.996,498
224.021,476
224.046,432
224.071,403
224.096,405
224.121,418
224.146,415
224.171,386
224.196,340
224.221,290
224.246,245
224.271,211
224.296,193
224.321,181
224.346,148
224.371,74
224.396,-20
224.421,-78
224.446,-42
224.471,87
224.496,251
224.521,378
224.546,440
224.571,460
224.596,474
224.621,492
224.646,504
224.671,499
224.696,485
224.721,481
224.746,493
224.771,514
224.796,525
224.821,512
224.846,473
224.871,420
224.896,372
224.921,342
224.946,315
224.971,260
224.996,162
225.021,48
225.046,-27
225.071,-38
225.096,-18
225.121,-34
225.146,-106
225.171,-178
225.196,-163
225.221,-33
225.246,152
225.271,302
225.296,380
225.321,417
225.346,457
225.371,503
225.396,523
225.421,503
225.446,479
225.471,492
225.496,541
225.521,577
225.546,556
225.571,486
225.596,419
225.621,395
225.646,406
225.671,415
225.696,392
225.721,342
225.746,283
225.771,228
225.796,180
225.821,138
225.846,98
225.871,45
225.896,-27
225.921,-108
225.946,-154
225.971,-118
225.996,7
226.021,177
226.046,324
226.071,413
226.096,453
226.121,484
226.146,526
226.171,568
226.196,587
226.221,576
226.246,557
226.271,555
226.296,576
226.321,605
226.346,609
226.371,568
226.396,486
226.421,394
226.446,327
226.471,304
226.496,310
226.521,312
226.546,279
226.571,215
226.596,145
226.621,97
226.646,68
226.671,31
226.696,-39
226.721,-138
226.746,-218
226.771,-230
226.796,-152
226.821,-10
226.846,139
226.871,249
226.896,310
226.921,344
226.946,380
226.971,424
226.996,462
227.021,475
227.046,464
227.071,447
227.096,444
227.121,458
227.146,476
227.171,486
227.196,483
227.221,471
227.246,452
227.271,420
227.296,372
227.321,316
227.346,268
227.371,242
227.396,226
227.421,196
227.446,130
227.471,40
227.496,-29
227.521,-26
227.546,67
227.571,218
227.596,360
227.621,445
227.646,474
227.671,481
227.696,498
227.721,520
227.746,524
227.771,499
227.796,469
227.821,466
227.846,496
227.871,526
227.896,511
227.921,436
227.946,331
227.971,240
227.996,188
228.021,172
228.046,170
228.071,160
228.096,129
228.121,67
228.146,-18
228.171,-101
228.196,-136
228.221,-97
228.246,-2
228.271,97
228.296,157
228.321,179
228.346,204
228.371,266
228.396,352
228.421,420
228.446,441
228.471,432
228.496,431
228.521,455
228.546,487
228.571,499
228.596,492
228.621,486
228.646,494
228.671,498
228.696,470
228.721,415
228.746,364
228.771,340
228.796,327
228.821,290
228.846,225
228.871,162
228.896,132
228.921,111
228.946,48
228.971,-69
228.996,-173
229.021,-163
229.046,-3
229.071,234
229.096,429
229.121,514
229.146,520
229.171,522
229.196,559
229.221,613
229.246,647
229.271,651
229.296,643
229.321,641
229.346,646
229.371,653
229.396,660
229.421,658
229.446,626
229.471,542
229.496,422
229.521,311
229.546,252
229.571,239
229.596,230
229.621,192
229.646,130
229.671,74
229.696,25
229.721,-45
229.746,-158
229.771,-284
229.796,-356
229.821,-332
229.846,-234
229.871,-125
229.896,-53
229.921,-12
229.946,33
229.971,111
229.996,210
230.021,306
230.046,380
230.071,433
230.096,471
230.121,492
230.146,493
230.171,480
230.196,470
230.221,472
230.246,475
230.271,454
230.296,393
230.321,305
230.346,226
230.371,181
230.396,159
230.421,126
230.446,63
230.471,-4
230.496,-25
230.521,40
230.546,179
230.571,338
230.596,467
230.621,549
230.646,594
230.671,614
230.696,610
230.721,591
230.746,573
230.771,574
230.796,592
230.821,608
230.846,606
230.871,586
230.896,557
230.921,521
230.946,471
230.971,410
230.996,355
231.021,318
231.046,288
231.071,241
231.096,176
231.121,120
231.146,102
231.171,106
231.196,84
231.221,2
231.246,-102
231.271,-153
231.296,-94
231.321,45
231.346,188
231.371,270
231.396,289
231.421,289
231.446,305
231.471,336
231.496,360
231.521,365
231.546,363
231.571,369
231.596,389
231.621,415
231.646,435
231.671,445
231.696,442
231.721,429
231.746,410
231.771,395
231.796,392
231.821,407
231.846,435
231.871,457
231.896,451
231.921,405
231.946,331
231.971,254
231.996,190
232.021,129
232.046,44
232.071,-64
232.096,-149
232.121,-144
232.146,-27
232.171,145
232.196,279
232.221,325
232.246,312
232.271,311
232.296,354
232.321,414
232.346,442
232.371,425
232.396,397
232.421,391
232.446,408
232.471,425
232.496,430
232.521,432
232.546,434
232.571,426
232.596,390
232.621,338
232.646,298
232.671,284
232.696,275
232.721,240
232.746,179
232.771,124
232.796,98
232.821,78
232.846,27
232.871,-54
232.896,-108
232.921,-71
232.946,57
232.971,216
232.996,338
233.021,404
233.046,441
233.071,471
233.096,487
233.121,481
233.146,467
233.171,474
233.196,506
233.221,533
233.246,519
233.271,469
233.296,425
233.321,416
233.346,429
233.371,421
233.396,369
233.421,289
233.446,220
233.471,186
233.496,183
233.521,191
233.546,185
233.571,142
233.596,52
233.621,-61
233.646,-137
233.671,-117
233.696,7
233.721,176
233.746,301
233.771,343
233.796,336
233.821,348
233.846,415
233.871,507
233.896,571
233.921,578
233.946,554
233.971,543
233.996,569
234.021,614
234.046,641
234.071,629
234.096,591
234.121,552
234.146,529
234.171,511
234.196,465
234.221,368
234.246,226
234.271,81
234.296,-8
234.321,-15
234.346,31
234.371,51
234.396,-34
234.421,-228
234.446,-440
234.471,-534
234.496,-435
234.521,-191
234.546,59
234.571,200
234.596,217
234.621,195
234.646,224
234.671,317
234.696,416
234.721,465
234.746,467
234.771,476
234.796,530
234.821,619
234.846,699
234.871,731
234.896,711
234.921,660
234.946,601
234.971,554
234.996,523
235.021,500
235.046,459
235.071,387
235.096,300
235.121,236
235.146,216
235.171,217
235.196,195
235.221,139
235.246,93
235.271,119
235.296,229
235.321,370
235.346,468
235.371,501
235.396,501
235.421,513
235.446,545
235.471,567
235.496,556
235.521,518
235.546,476
235.571,448
235.596,432
235.621,427
235.646,432
235.671,450
235.696,468
235.721,462
235.746,404
235.771,274
235.796,71
235.821,-179
235.846,-419
235.871,-584
235.896,-637
235.921,-597
235.946,-520
235.971,-440
235.996,-343
236.021,-189
236.046,17
236.071,218
236.096,341
236.121,373
236.146,366
236.171,375
236.196,398
236.221,387
236.246,316
236.271,229
236.296,205
236.321,280
236.346,409
236.371,509
236.396,532
236.421,503
236.446,486
236.471,523
236.496,598
236.521,659
236.546,663
236.571,605
236.596,516
236.621,441
236.646,402
236.671,377
236.696,320
236.721,206
236.746,70
236.771,-6
236.796,34
236.821,177
236.846,334
236.871,428
236.896,460
236.921,490
236.946,565
236.971,659
236.996,707
237.021,685
237.046,641
237.071,646
237.096,706
237.121,748
237.146,696
237.171,558
237.196,421
237.221,374
237.246,422
237.271,492
237.296,506
237.321,439
237.346,327
237.371,215
237.396,125
237.421,53
237.446,-13
237.471,-82
237.496,-154
237.521,-217
237.546,-245
237.571,-208
237.596,-107
237.621,13
237.646,95
237.671,113
237.696,99
237.721,108
237.746,163
237.771,233
237.796,281
237.821,311
237.846,368
237.871,476
237.896,597
237.921,651
237.946,595
237.971,473
237.996,375
238.021,352
238.046,363
238.071,326
238.096,211
238.121,77
238.146,8
238.171,19
238.196,34
238.221,-39
238.246,-205
238.271,-358
238.296,-379
238.321,-234
238.346,-7
238.371,187
238.396,299
238.421,363
238.446,438
238.471,541
238.496,636
238.521,677
238.546,658
238.571,614
238.596,584
238.621,581
238.646,586
238.671,574
238.696,535
238.721,480
238.746,427
238.771,389
238.796,361
238.821,333
238.846,295
238.871,248
238.896,196
238.921,138
238.946,66
238.971,-11
238.996,-66
239.021,-56
239.046,38
239.071,187
239.096,335
239.121,438
239.146,495
239.171,530
239.196,558
239.221,568
239.246,548
239.271,505
239.296,467
239.321,455
239.346,465
239.371,471
239.396,459
239.421,432
239.446,405
239.471,384
239.496,361
239.521,320
239.546,252
239.571,161
239.596,68
239.621,7
239.646,2
239.671,44
239.696,89
239.721,92
239.746,42
239.771,-20
239.796,-38
239.821,18
239.846,131
239.871,253
239.896,351
239.921,417
239.946,461
239.971,492
239.996,510
240.021,520
240.046,525
240.071,533
240.096,543
240.121,553
240.146,561
240.171,567
240.196,564
240.221,538
240.246,480
240.271,397
240.296,316
240.321,266
240.346,258
240.371,272
240.396,270
240.421,222
240.446,130
240.471,36
240.496,-12
240.521,-2
240.546,29
240.571,26
240.596,-30
240.621,-103
240.646,-118
240.671,-37
240.696,108
240.721,250
240.746,334
240.771,364
240.796,375
240.821,396
240.846,422
240.871,436
240.896,437
240.921,439
240.946,456
240.971,486
240.996,510
241.021,512
241.046,489
241.071,447
241.096,395
241.121,341
241.146,296
241.171,275
241.196,280
241.221,296
241.246,293
241.271,248
241.296,171
241.321,101
241.346,78
241.371,105
241.396,141
241.421,134
241.446,77
241.471,23
241.496,43
241.521,156
241.546,309
241.571,420
241.596,450
241.621,434
241.646,432
241.671,468
241.696,509
241.721,516
241.746,491
241.771,474
241.796,494
241.821,532
241.846,543
241.871,510
241.896,455
241.921,414
241.946,390
241.971,361
241.996,312
242.021,255
242.046,215
242.071,188
242.096,151
242.121,90
242.146,22
242.171,-25
242.196,-54
242.221,-97
242.246,-173
242.271,-249
242.296,-256
242.321,-151
242.346,40
242.371,241
242.396,383
242.421,451
242.446,472
242.471,481
242.496,495
242.521,519
242.546,550
242.571,580
242.596,598
242.621,595
242.646,579
242.671,566
242.696,565
242.721,566
242.746,557
242.771,536
242.796,511
242.821,484
242.846,448
242.871,401
242.896,352
242.921,313
242.946,278
242.971,229
242.996,159
243.021,92
243.046,56
243.071,43
243.096,7
243.121,-84
243.146,-201
243.171,-262
243.196,-207
243.221,-63
243.246,85
243.271,173
243.296,204
243.321,236
243.346,311
243.371,415
243.396,508
243.421,559
243.446,573
243.471,574
243.496,582
243.521,602
243.546,630
243.571,654
243.596,660
243.621,643
243.646,616
243.671,592
243.696,571
243.721,534
243.746,464
243.771,373
243.796,293
243.821,254
243.846,248
243.871,248
243.896,228
243.921,181
243.946,117
243.971,49
243.996,-9
244.021,-51
244.046,-84
244.071,-135
244.096,-228
244.121,-337
244.146,-384
244.171,-298
244.196,-92
244.221,128
244.246,252
244.271,255
244.296,217
244.321,230
244.346,307
244.371,385
244.396,410
244.421,401
244.446,420
244.471,498
244.496,595
244.521,647
244.546,637
244.571,604
244.596,592
244.621,599
244.646,591
244.671,546
244.696,484
244.721,435
244.746,409
244.771,383
244.796,339
244.821,284
244.846,240
244.871,212
244.896,177
244.921,110
244.946,15
244.971,-71
244.996,-106
245.021,-67
245.046,36
245.071,174
245.096,308
245.121,410
245.146,469
245.171,497
245.196,514
245.221,536
245.246,557
245.271,557
245.296,536
245.321,513
245.346,517
245.371,547
245.396,572
245.421,559
245.446,507
245.471,452
245.496,422
245.521,408
245.546,369
245.571,283
245.596,175
245.621,95
245.646,70
245.671,81
245.696,81
245.721,42
245.746,-27
245.771,-108
245.796,-187
245.821,-254
245.846,-292
245.871,-268
245.896,-165
245.921,-10
245.946,142
245.971,248
245.996,305
246.021,345
246.046,397
246.071,458
246.096,503
246.121,520
246.146,521
246.171,538
246.196,582
246.221,631
246.246,647
246.271,611
246.296,543
246.321,489
246.346,475
246.371,489
246.396,495
246.421,469
246.446,424
246.471,386
246.496,363
246.521,326
246.546,250
246.571,145
246.596,56
246.621,14
246.646,1
246.671,-26
246.696,-79
246.721,-111
246.746,-62
246.771,74
246.796,239
246.821,355
246.846,404
246.871,425
246.896,463
246.921,516
246.946,542
246.971,520
246.996,478
247.021,465
247.046,492
247.071,524
247.096,513
247.121,453
247.146,383
247.171,346
247.196,349
247.221,364
247.246,362
247.271,337
247.296,306
247.321,281
247.346,257
247.371,224
247.396,178
247.421,128
247.446,82
247.471,37
247.496,-18
247.521,-86
247.546,-146
247.571,-158
247.596,-98
247.621,21
247.646,161
247.671,281
247.696,363
247.721,416
247.746,453
247.771,474
247.796,474
247.821,460
247.846,455
247.871,474
247.896,508
247.921,527
247.946,516
247.971,486
247.996,461
248.021,450
248.046,435
248.071,392
248.096,321
248.121,246
248.146,196
248.171,177
248.196,175
248.221,170
248.246,145
248.271,86
248.296,-6
248.321,-107
248.346,-160
248.371,-115
248.396,28
248.421,206
248.446,330
248.471,364
248.496,349
248.521,353
248.546,402
248.571,460
248.596,474
248.621,443
248.646,413
248.671,427
248.696,474
248.721,509
248.746,503
248.771,478
248.796,473
248.821,495
248.846,512
248.871,495
248.896,451
248.921,413
248.946,390
248.971,359
248.996,298
249.021,219
249.046,154
249.071,108
249.096,48
249.121,-54
249.146,-168
249.171,-209
249.196,-119
249.221,70
249.246,263
249.271,379
249.296,416
249.321,428
249.346,455
249.371,491
249.396,512
249.421,512
249.446,506
249.471,502
249.496,495
249.521,487
249.546,495
249.571,530
249.596,569
249.621,566
249.646,505
249.671,429
249.696,394
249.721,397
249.746,373
249.771,265
249.796,99
249.821,-30
249.846,-62
249.871,-36
249.896,-47
249.921,-139
249.946,-247
249.971,-264
249.996,-151
250.021,28
250.046,177
250.071,255
250.096,297
250.121,351
250.146,414
250.171,451
250.196,441
250.221,417
250.246,422
250.271,466
250.296,511
250.321,520
250.346,492
250.371,460
250.396,448
250.421,440
250.446,399
250.471,313
250.496,214
250.521,152
250.546,147
250.571,168
250.596,162
250.621,105
250.646,27
250.671,-14
250.696,18
250.721,121
250.746,255
250.771,377
250.796,463
250.821,508
250.846,520
250.871,510
250.896,495
250.921,487
250.946,491
250.971,502
250.996,515
251.021,526
251.046,530
251.071,512
251.096,464
251.121,393
251.146,327
251.171,287
251.196,262
251.221,220
251.246,148
251.271,73
251.296,44
251.321,66
251.346,90
251.371,54
251.396,-45
251.421,-131
251.446,-119
251.471,5
251.496,172
251.521,291
251.546,333
251.571,347
251.596,387
251.621,456
251.646,506
251.671,500
251.696,458
251.721,435
251.746,459
251.771,504
251.796,524
251.821,500
251.846,458
251.871,431
251.896,417
251.921,387
251.946,328
251.971,264
251.996,230
252.021,221
252.046,193
252.071,113
252.096,8
252.121,-52
252.146,-29
252.171,38
252.196,71
252.221,36
252.246,-12
252.271,14
252.296,150
252.321,333
252.346,468
252.371,513
252.396,505
252.421,502
252.446,529
252.471,562
252.496,577
252.521,576
252.546,573
252.571,567
252.596,542
252.621,499
252.646,462
252.671,455
252.696,469
252.721,465
252.746,421
252.771,354
252.796,300
252.821,269
252.846,237
252.871,182
252.896,114
252.921,56
252.946,13
252.971,-40
252.996,-123
253.021,-207
253.046,-231
253.071,-158
253.096,-16
253.121,129
253.146,236
253.171,307
253.196,366
253.221,414
253.246,431
253.271,413
253.296,390
253.321,405
253.346,462
253.371,521
253.396,533
253.421,494
253.446,440
253.471,411
253.496,414
253.521,422
253.546,408
253.571,370
253.596,324
253.621,289
253.646,268
253.671,254
253.696,234
253.721,199
253.746,143
253.771,73
253.796,7
253.821,-24
253.846,0
253.871,85
253.896,205
253.921,318
253.946,394
253.971,429
253.996,444
254.021,465
254.046,496
254.071,517
254.096,513
254.121,493
254.146,489
254.171,517
254.196,551
254.221,544
254.246,474
254.271,374
254.296,304
254.321,295
254.346,319
254.371,318
254.396,262
254.421,171
254.446,94
254.471,63
254.496,73
254.521,87
254.546,66
254.571,-8
254.596,-122
254.621,-223
254.646,-244
254.671,-148
254.696,34
254.721,218
254.746,326
254.771,347
254.796,338
254.821,363
254.846,433
254.871,508
254.896,544
254.921,539
254.946,530
254.971,550
254.996,591
255.021,625
255.046,628
255.071,603
255.096,568
255.121,543
255.146,531
255.171,521
255.196,495
255.221,440
255.246,359
255.271,280
255.296,238
255.321,243
255.346,268
255.371,266
255.396,214
255.421,130
255.446,57
255.471,20
255.496,0
255.521,-41
255.546,-118
255.571,-200
255.596,-235
255.621,-190
255.646,-78
255.671,58
255.696,178
255.721,263
255.746,324
255.771,381
255.796,442
255.821,497
255.846,532
255.871,545
255.896,547
255.921,553
255.946,572
255.971,594
255.996,603
256.021,592
256.046,567
256.071,541
256.096,521
256.121,502
256.146,476
256.171,442
256.196,408
256.221,378
256.246,352
256.271,322
256.296,282
256.321,226
256.346,153
256.371,60
256.396,-40
256.421,-122
256.446,-152
256.471,-120
256.496,-55
256.521,-6
256.546,-1
256.571,-23
256.596,-22
256.621,41
256.646,157
256.671,275
256.696,355
256.721,395
256.746,424
256.771,469
256.796,523
256.821,559
256.846,564
256.871,553
256.896,554
256.921,574
256.946,593
256.971,583
256.996,541
257.021,489
257.046,453
257.071,436
257.096,414
257.121,372
257.146,318
257.171,277
257.196,259
257.221,241
257.246,191
257.271,111
257.296,43
257.321,25
257.346,46
257.371,46
257.396,-24
257.421,-141
257.446,-214
257.471,-169
257.496,-18
257.521,152
257.546,263
257.571,308
257.596,344
257.621,411
257.646,495
257.671,544
257.696,539
257.721,514
257.746,515
257.771,552
257.796,591
257.821,597
257.846,570
257.871,536
257.896,518
257.921,508
257.946,485
257.971,446
257.996,407
258.021,378
258.046,353
258.071,318
258.096,268
258.121,213
258.146,162
258.171,117
258.196,72
258.221,24
258.246,-30
258.271,-92
258.296,-162
258.321,-223
258.346,-238
258.371,-173
258.396,-28
258.421,151
258.446,309
258.471,415
258.496,480
258.521,526
258.546,562
258.571,578
258.596,571
258.621,563
258.646,581
258.671,625
258.696,665
258.721,672
258.746,647
258.771,614
258.796,590
258.821,564
258.846,512
258.871,431
258.896,345
258.921,289
258.946,276
258.971,288
258.996,298
259.021,283
259.046,233
259.071,154
259.096,71
259.121,15
259.146,-1
259.171,-2
259.196,-38
259.221,-135
259.246,-252
259.271,-307
259.296,-244
259.321,-87
259.346,80
259.371,191
259.396,248
259.421,303
259.446,384
259.471,467
259.496,507
259.521,490
259.546,459
259.571,461
259.596,509
259.621,568
259.646,598
259.671,584
259.696,539
259.721,481
259.746,423
259.771,373
259.796,345
259.821,338
259.846,336
259.871,314
259.896,267
259.921,213
259.946,175
259.971,147
259.996,103
260.021,28
260.046,-49
260.071,-74
260.096,-10
260.121,120
260.146,259
260.171,356
260.196,404
260.221,431
260.246,460
260.271,493
260.296,516
260.321,527
260.346,533
260.371,545
260.396,557
260.421,564
260.446,565
260.471,564
260.496,555
260.521,515
260.546,429
260.571,317
260.596,231
260.621,210
260.646,235
260.671,238
260.696,168
260.721,43
260.746,-54
260.771,-66
260.796,-16
260.821,5
260.846,-64
260.871,-187
260.896,-258
260.921,-201
260.946,-38
260.971,135
260.996,252
261.021,317
261.046,382
261.071,465
261.096,537
261.121,565
261.146,559
261.171,566
261.196,609
261.221,657
261.246,664
261.271,624
261.296,581
261.321,576
261.346,596
261.371,597
261.396,555
261.421,495
261.446,458
261.471,446
261.496,419
261.521,340
261.546,218
261.571,103
261.596,42
261.621,36
261.646,50
261.671,36
261.696,-34
261.721,-156
261.746,-282
261.771,-338
261.796,-268
261.821,-80
261.846,138
261.871,286
261.896,324
261.921,302
261.946,301
261.971,357
261.996,434
262.021,479
262.046,482
262.071,477
262.096,498
262.121,539
262.146,570
262.171,573
262.196,551
262.221,520
262.246,483
262.271,443
262.296,405
262.321,373
262.346,338
262.371,281
262.396,206
262.421,139
262.446,105
262.471,95
262.496,73
262.521,21
262.546,-22
262.571,-1
262.596,105
262.621,252
262.646,370
262.671,432
262.696,458
262.721,480
262.746,498
262.771,494
262.796,466
