df_hash,22ZHK4.566DMF
device,HZ2X61
project_hash,29R7
project_name,istanbul_aydin_university
person_hash,29R7.FGR3
person_label,v127
date_time_start,2026-04-07_17-16-48.279000_+03
date_time_start_unix,1775564208.279
date_time_end,2026-04-07_17-25-07.622000_+03
length_difference_noticed,no

time,ppg_med
5.326,583
5.351,670
5.376,809
5.401,884
5.426,854
5.451,823
5.476,904
5.501,1051
5.526,1107
5.551,1016
5.576,919
5.601,970
5.626,1107
5.651,1115
5.676,920
5.701,714
5.726,703
5.751,805
5.776,732
5.801,385
5.826,23
5.851,-78
5.876,-30
5.901,-213
5.926,-752
5.951,-1306
5.976,-1514
6.001,-1521
6.026,-1819
6.051,-2569
6.076,-3327
6.101,-3626
6.126,-3652
6.151,-4036
6.176,-4980
6.201,-5915
6.226,-6244
6.251,-6206
6.276,-6599
6.301,-7676
6.326,-8713
6.351,-8962
6.376,-8721
6.401,-8994
6.426,-10095
6.451,-11118
6.476,-11124
6.501,-10488
6.526,-10467
6.551,-11451
6.576,-12309
6.601,-11872
6.626,-10610
6.651,-10092
6.676,-10805
6.701,-11343
6.726,-10248
6.751,-8108
6.776,-6886
6.801,-7201
6.826,-7295
6.851,-5337
6.876,-2065
6.901,39
6.926,178
6.951,576
6.976,3564
7.001,8214
7.026,11330
7.051,11853
7.076,12652
7.101,16796
7.126,23091
7.151,27286
7.176,27900
7.201,28778
7.226,32767
7.251,32767
7.276,32767
7.301,32767
7.326,32767
7.351,32767
7.376,32767
7.401,32767
7.426,32767
7.451,32767
7.476,32767
7.501,32767
7.526,32767
7.551,32767
7.576,15018
7.601,-32768
7.626,-32768
7.651,-32768
7.676,-32768
7.701,-32768
7.726,-32768
7.751,-32768
7.776,-32768
7.801,-32768
7.826,-32768
7.851,-32768
7.876,-32768
7.901,-32768
7.926,-32768
7.951,-29938
7.976,-27654
8.001,-27735
8.026,-25221
8.051,-19350
8.076,-14036
8.101,-12253
8.126,-12265
8.151,-10363
8.176,-5864
8.201,-1671
8.226,-122
8.251,-24
8.276,1392
8.301,4647
8.326,7519
8.351,8215
8.376,7695
8.401,8172
8.426,10101
8.451,11763
8.476,11753
8.501,10828
8.526,10723
8.551,11772
8.576,12589
8.601,12062
8.626,10829
8.651,10299
8.676,10724
8.701,10961
8.726,10113
8.751,8750
8.776,8097
8.801,8424
8.826,8785
8.851,8347
8.876,7423
8.901,6912
8.926,7034
8.951,7092
8.976,6470
9.001,5445
9.026,4749
9.051,4589
9.076,4450
9.101,3862
9.126,3020
9.151,2456
9.176,2300
9.201,2144
9.226,1637
9.251,947
9.276,500
9.301,401
9.326,326
9.351,-12
9.376,-505
9.401,-829
9.426,-887
9.451,-910
9.476,-1115
9.501,-1430
9.526,-1615
9.551,-1596
9.576,-1546
9.601,-1655
9.626,-1897
9.651,-2073
9.676,-2036
9.701,-1806
9.726,-1485
9.751,-1136
9.776,-771
9.801,-414
9.826,-113
9.851,107
9.876,278
9.901,433
9.926,564
9.951,638
9.976,657
10.001,675
10.026,737
10.051,828
10.076,889
10.101,890
10.126,863
10.151,833
10.176,756
10.201,665
10.226,580
10.251,506
10.276,427
10.301,337
10.326,244
10.351,154
10.376,57
10.401,-61
10.426,-193
10.451,-313
10.476,-414
10.501,-530
10.526,-698
10.551,-893
10.576,-1022
10.601,-986
10.626,-768
10.651,-450
10.676,-138
10.701,110
10.726,309
10.751,486
10.776,635
10.801,723
10.826,743
10.851,729
10.876,729
10.901,758
10.926,787
10.951,779
10.976,726
11.001,653
11.026,590
11.051,542
11.076,496
11.101,434
11.126,360
11.151,287
11.176,221
11.201,157
11.226,80
11.251,-9
11.276,-97
11.301,-173
11.326,-252
11.351,-364
11.376,-513
11.401,-647
11.426,-679
11.451,-552
11.476,-295
11.501,-2
11.526,238
11.551,406
11.576,539
11.601,662
11.626,753
11.651,773
11.676,728
11.701,671
11.726,652
11.751,667
11.776,668
11.801,624
11.826,552
11.851,486
11.876,430
11.901,354
11.926,242
11.951,120
11.976,20
12.001,-68
12.026,-193
12.051,-368
12.076,-524
12.101,-549
12.126,-393
12.151,-121
12.176,146
12.201,335
12.226,461
12.251,577
12.276,688
12.301,757
12.326,755
12.351,707
12.376,663
12.401,641
12.426,611
12.451,544
12.476,450
12.501,360
12.526,285
12.551,200
12.576,83
12.601,-50
12.626,-169
12.651,-270
12.676,-388
12.701,-539
12.726,-669
12.751,-680
12.776,-517
12.801,-228
12.826,76
12.851,314
12.876,482
12.901,618
12.926,735
12.951,803
12.976,796
13.001,734
13.026,670
13.051,635
13.076,613
13.101,571
13.126,501
13.151,418
13.176,336
13.201,249
13.226,150
13.251,55
13.276,-19
13.301,-88
13.326,-198
13.351,-375
13.376,-566
13.401,-656
13.426,-559
13.451,-293
13.476,30
13.501,307
13.526,505
13.551,660
13.576,801
13.601,910
13.626,950
13.651,922
13.676,875
13.701,857
13.726,873
13.751,891
13.776,875
13.801,821
13.826,742
13.851,652
13.876,560
13.901,475
13.926,401
13.951,328
13.976,230
14.001,96
14.026,-54
14.051,-185
14.076,-284
14.101,-375
14.126,-480
14.151,-580
14.176,-632
14.201,-629
14.226,-633
14.251,-720
14.276,-886
14.301,-1021
14.326,-993
14.351,-766
14.376,-427
14.401,-97
14.426,166
14.451,389
14.476,609
14.501,808
14.526,933
14.551,962
14.576,936
14.601,920
14.626,944
14.651,983
14.676,995
14.701,963
14.726,905
14.751,845
14.776,791
14.801,737
14.826,669
14.851,578
14.876,467
14.901,352
14.926,255
14.951,183
14.976,120
15.001,40
15.026,-60
15.051,-164
15.076,-253
15.101,-342
15.126,-460
15.151,-605
15.176,-715
15.201,-704
15.226,-535
15.251,-261
15.276,19
15.301,236
15.326,386
15.351,504
15.376,605
15.401,671
15.426,683
15.451,655
15.476,628
15.501,631
15.526,649
15.551,648
15.576,608
15.601,543
15.626,486
15.651,448
15.676,404
15.701,323
15.726,199
15.751,66
15.776,-35
15.801,-100
15.826,-169
15.851,-285
15.876,-437
15.901,-550
15.926,-537
15.951,-378
15.976,-129
16.001,121
16.026,320
16.051,469
16.076,587
16.101,673
16.126,709
16.151,693
16.176,651
16.201,615
16.226,592
16.251,568
16.276,526
16.301,463
16.326,385
16.351,293
16.376,187
16.401,78
16.426,-25
16.451,-135
16.476,-272
16.501,-435
16.526,-570
16.551,-597
16.576,-474
16.601,-243
16.626,3
16.651,204
16.676,358
16.701,496
16.726,620
16.751,693
16.776,689
16.801,630
16.826,568
16.851,533
16.876,510
16.901,465
16.926,386
16.951,287
16.976,185
17.001,89
17.026,0
17.051,-86
17.076,-181
17.101,-304
17.126,-458
17.151,-593
17.176,-622
17.201,-484
17.226,-204
17.251,118
17.276,397
17.301,618
17.326,817
17.351,1009
17.376,1154
17.401,1198
17.426,1148
17.451,1070
17.476,1024
17.501,1011
17.526,989
17.551,927
17.576,838
17.601,755
17.626,680
17.651,597
17.676,495
17.701,389
17.726,294
17.751,194
17.776,63
17.801,-101
17.826,-262
17.851,-381
17.876,-459
17.901,-526
17.926,-602
17.951,-680
17.976,-750
18.001,-834
18.026,-961
18.051,-1112
18.076,-1196
18.101,-1115
18.126,-853
18.151,-496
18.176,-156
18.201,114
18.226,344
18.251,576
18.276,800
18.301,967
18.326,1039
18.351,1037
18.376,1016
18.401,1014
18.426,1025
18.451,1025
18.476,996
18.501,940
18.526,868
18.551,789
18.576,712
18.601,639
18.626,566
18.651,484
18.676,387
18.701,280
18.726,173
18.751,67
18.776,-41
18.801,-154
18.826,-256
18.851,-343
18.876,-431
18.901,-553
18.926,-704
18.951,-825
18.976,-829
19.001,-676
19.026,-411
19.051,-128
19.076,108
19.101,304
19.126,497
19.151,696
19.176,860
19.201,939
19.226,932
19.251,889
19.276,862
19.301,865
19.326,868
19.351,839
19.376,777
19.401,704
19.426,640
19.451,581
19.476,509
19.501,418
19.526,320
19.551,237
19.576,168
19.601,94
19.626,-3
19.651,-118
19.676,-220
19.701,-291
19.726,-348
19.751,-434
19.776,-562
19.801,-688
19.826,-726
19.851,-625
19.876,-409
19.901,-160
19.926,53
19.951,225
19.976,383
20.001,543
20.026,672
20.051,727
20.076,704
20.101,650
20.126,618
20.151,624
20.176,634
20.201,610
20.226,545
20.251,464
20.276,394
20.301,334
20.326,268
20.351,183
20.376,89
20.401,5
20.426,-66
20.451,-145
20.476,-254
20.501,-389
20.526,-505
20.551,-541
20.576,-458
20.601,-276
20.626,-54
20.651,150
20.676,316
20.701,456
20.726,584
20.751,690
20.776,745
20.801,739
20.826,698
20.851,659
20.876,641
20.901,627
20.926,585
20.951,503
20.976,401
21.001,305
21.026,225
21.051,148
21.076,60
21.101,-38
21.126,-133
21.151,-217
21.176,-302
21.201,-406
21.226,-527
21.251,-623
21.276,-635
21.301,-525
21.326,-305
21.351,-35
21.376,218
21.401,425
21.426,590
21.451,731
21.476,846
21.501,915
21.526,929
21.551,907
21.576,890
21.601,897
21.626,912
21.651,899
21.676,843
21.701,761
21.726,683
21.751,621
21.776,561
21.801,489
21.826,409
21.851,337
21.876,276
21.901,209
21.926,120
21.951,17
21.976,-76
22.001,-152
22.026,-231
22.051,-334
22.076,-456
22.101,-568
22.126,-658
22.151,-752
22.176,-881
22.201,-1019
22.226,-1079
22.251,-971
22.276,-696
22.301,-349
22.326,-43
22.351,181
22.376,368
22.401,566
22.426,764
22.451,902
22.476,945
22.501,927
22.526,918
22.551,952
22.576,1000
22.601,1011
22.626,964
22.651,879
22.676,787
22.701,697
22.726,606
22.751,514
22.776,430
22.801,353
22.826,271
22.851,177
22.876,81
22.901,1
22.926,-66
22.951,-139
22.976,-226
23.001,-311
23.026,-375
23.051,-431
23.076,-520
23.101,-649
23.126,-759
23.151,-749
23.176,-566
23.201,-252
23.226,83
23.251,359
23.276,565
23.301,739
23.326,898
23.351,1018
23.376,1066
23.401,1048
23.426,1006
23.451,978
23.476,967
23.501,950
23.526,911
23.551,850
23.576,777
23.601,697
23.626,607
23.651,505
23.676,389
23.701,261
23.726,127
23.751,0
23.776,-107
23.801,-200
23.826,-299
23.851,-415
23.876,-534
23.901,-625
23.926,-682
23.951,-739
23.976,-836
24.001,-953
24.026,-1004
24.051,-895
24.076,-617
24.101,-258
24.126,67
24.151,306
24.176,485
24.201,647
24.226,793
24.251,888
24.276,912
24.301,897
24.326,892
24.351,917
24.376,945
24.401,941
24.426,896
24.451,832
24.476,769
24.501,706
24.526,632
24.551,545
24.576,453
24.601,353
24.626,234
24.651,95
24.676,-42
24.701,-158
24.726,-258
24.751,-377
24.776,-536
24.801,-691
24.826,-753
24.851,-656
24.876,-417
24.901,-128
24.926,114
24.951,281
24.976,400
25.001,503
25.026,584
25.051,616
25.076,596
25.101,557
25.126,538
25.151,542
25.176,542
25.201,513
25.226,461
25.251,409
25.276,362
25.301,304
25.326,225
25.351,142
25.376,76
25.401,18
25.426,-72
25.451,-216
25.476,-362
25.501,-418
25.526,-325
25.551,-115
25.576,113
25.601,284
25.626,389
25.651,470
25.676,547
25.701,596
25.726,591
25.751,544
25.776,498
25.801,480
25.826,472
25.851,440
25.876,378
25.901,308
25.926,249
25.951,195
25.976,131
26.001,59
26.026,-9
26.051,-80
26.076,-183
26.101,-328
26.126,-465
26.151,-506
26.176,-399
26.201,-177
26.226,66
26.251,260
26.276,400
26.301,517
26.326,620
26.351,686
26.376,694
26.401,664
26.426,638
26.451,635
26.476,637
26.501,616
26.526,564
26.551,491
26.576,405
26.601,305
26.626,195
26.651,93
26.676,6
26.701,-90
26.726,-223
26.751,-376
26.776,-474
26.801,-440
26.826,-266
26.851,-24
26.876,194
26.901,352
26.926,469
26.951,563
26.976,621
27.001,619
27.026,561
27.051,496
27.076,463
27.101,463
27.126,461
27.151,431
27.176,375
27.201,308
27.226,240
27.251,171
27.276,108
27.301,54
27.326,-3
27.351,-91
27.376,-208
27.401,-307
27.426,-311
27.451,-188
27.476,21
27.501,233
27.526,384
27.551,472
27.576,530
27.601,576
27.626,601
27.651,588
27.676,536
27.701,463
27.726,389
27.751,327
27.776,283
27.801,251
27.826,214
27.851,156
27.876,77
27.901,-1
27.926,-63
27.951,-125
27.976,-220
28.001,-349
28.026,-452
28.051,-447
28.076,-301
28.101,-66
28.126,166
28.151,336
28.176,447
28.201,526
28.226,582
28.251,596
28.276,567
28.301,525
28.326,502
28.351,502
28.376,501
28.401,474
28.426,422
28.451,357
28.476,280
28.501,193
28.526,101
28.551,18
28.576,-63
28.601,-168
28.626,-304
28.651,-420
28.676,-432
28.701,-295
28.726,-53
28.751,191
28.776,367
28.801,474
28.826,555
28.851,627
28.876,664
28.901,643
28.926,586
28.951,540
28.976,526
29.001,518
29.026,482
29.051,412
29.076,334
29.101,263
29.126,188
29.151,96
29.176,-4
29.201,-94
29.226,-177
29.251,-281
29.276,-405
29.301,-492
29.326,-462
29.351,-287
29.376,-31
29.401,202
29.426,359
29.451,458
29.476,543
29.501,615
29.526,643
29.551,609
29.576,550
29.601,521
29.626,533
29.651,548
29.676,520
29.701,449
29.726,372
29.751,312
29.776,257
29.801,181
29.826,87
29.851,3
29.876,-58
29.901,-126
29.926,-236
29.951,-377
29.976,-477
30.001,-455
30.026,-290
30.051,-41
30.076,197
30.101,371
30.126,483
30.151,562
30.176,618
30.201,639
30.226,616
30.251,570
30.276,539
30.301,540
30.326,551
30.351,535
30.376,478
30.401,401
30.426,334
30.451,282
30.476,221
30.501,134
30.526,37
30.551,-41
30.576,-98
30.601,-169
30.626,-288
30.651,-430
30.676,-512
30.701,-457
30.726,-265
30.751,-15
30.776,200
30.801,345
30.826,437
30.851,500
30.876,534
30.901,524
30.926,480
30.951,439
30.976,427
31.001,432
31.026,422
31.051,384
31.076,336
31.101,292
31.126,249
31.151,190
31.176,122
31.201,69
31.226,36
31.251,-11
31.276,-110
31.301,-236
31.326,-305
31.351,-237
31.376,-34
31.401,214
31.426,417
31.451,541
31.476,611
31.501,654
31.526,665
31.551,633
31.576,578
31.601,538
31.626,532
31.651,536
31.676,517
31.701,472
31.726,419
31.751,367
31.776,304
31.801,218
31.826,127
31.851,53
31.876,-11
31.901,-105
31.926,-239
31.951,-355
31.976,-363
32.001,-227
32.026,-13
32.051,171
32.076,271
32.101,311
32.126,338
32.151,357
32.176,334
32.201,259
32.226,179
32.251,149
32.276,177
32.301,218
32.326,226
32.351,205
32.376,180
32.401,157
32.426,112
32.451,37
32.476,-43
32.501,-103
32.526,-157
32.551,-246
32.576,-372
32.601,-461
32.626,-416
32.651,-211
32.676,73
32.701,324
32.726,486
32.751,585
32.776,663
32.801,720
32.826,728
32.851,688
32.876,643
32.901,636
32.926,656
32.951,652
32.976,594
33.001,502
33.026,417
33.051,350
33.076,277
33.101,183
33.126,88
33.151,16
33.176,-49
33.201,-153
33.226,-306
33.251,-441
33.276,-450
33.301,-288
33.326,-15
33.351,250
33.376,427
33.401,523
33.426,581
33.451,621
33.476,622
33.501,569
33.526,490
33.551,441
33.576,438
33.601,447
33.626,423
33.651,358
33.676,288
33.701,240
33.726,197
33.751,125
33.776,24
33.801,-66
33.826,-121
33.851,-163
33.876,-248
33.901,-386
33.926,-502
33.951,-493
33.976,-316
34.001,-38
34.026,223
34.051,400
34.076,499
34.101,561
34.126,601
34.151,606
34.176,573
34.201,532
34.226,517
34.251,526
34.276,525
34.301,486
34.326,422
34.351,358
34.376,299
34.401,229
34.426,143
34.451,62
34.476,5
34.501,-48
34.526,-140
34.551,-271
34.576,-372
34.601,-348
34.626,-170
34.651,88
34.676,318
34.701,457
34.726,521
34.751,552
34.776,564
34.801,545
34.826,497
34.851,453
34.876,443
34.901,455
34.926,450
34.951,407
34.976,341
35.001,280
35.026,224
35.051,154
35.076,62
35.101,-30
35.126,-109
35.151,-196
35.176,-322
35.201,-468
35.226,-553
35.251,-491
35.276,-278
35.301,-3
35.326,226
35.351,372
35.376,465
35.401,540
35.426,592
35.451,592
35.476,541
35.501,485
35.526,466
35.551,480
35.576,482
35.601,444
35.626,378
35.651,315
35.676,260
35.701,191
35.726,98
35.751,0
35.776,-75
35.801,-140
35.826,-228
35.851,-348
35.876,-445
35.901,-427
35.926,-253
35.951,21
35.976,290
36.001,475
36.026,576
36.051,638
36.076,690
36.101,717
36.126,700
36.151,652
36.176,611
36.201,602
36.226,603
36.251,576
36.276,508
36.301,426
36.326,353
36.351,281
36.376,183
36.401,55
36.426,-68
36.451,-152
36.476,-207
36.501,-285
36.526,-417
36.551,-560
36.576,-618
36.601,-525
36.626,-305
36.651,-47
36.676,169
36.701,323
36.726,438
36.751,532
36.776,592
36.801,605
36.826,581
36.851,552
36.876,542
36.901,546
36.926,541
36.951,510
36.976,457
37.001,397
37.026,342
37.051,294
37.076,243
37.101,177
37.126,90
37.151,-7
37.176,-93
37.201,-158
37.226,-218
37.251,-308
37.276,-433
37.301,-536
37.326,-531
37.351,-374
37.376,-105
37.401,174
37.426,389
37.451,530
37.476,631
37.501,711
37.526,755
37.551,749
37.576,714
37.601,689
37.626,693
37.651,703
37.676,684
37.701,629
37.726,560
37.751,496
37.776,431
37.801,352
37.826,264
37.851,184
37.876,118
37.901,49
37.926,-41
37.951,-138
37.976,-215
38.001,-268
38.026,-336
38.051,-451
38.076,-583
38.101,-639
38.126,-538
38.151,-289
38.176,12
38.201,259
38.226,410
38.251,494
38.276,553
38.301,595
38.326,603
38.351,578
38.376,551
38.401,555
38.426,586
38.451,603
38.476,572
38.501,500
38.526,424
38.551,363
38.576,304
38.601,219
38.626,113
38.651,17
38.676,-42
38.701,-91
38.726,-178
38.751,-315
38.776,-439
38.801,-455
38.826,-314
38.851,-64
38.876,189
38.901,369
38.926,467
38.951,520
38.976,550
39.001,549
39.026,514
39.051,470
39.076,452
39.101,465
39.126,478
39.151,461
39.176,416
39.201,365
39.226,313
39.251,240
39.276,133
39.301,15
39.326,-82
39.351,-160
39.376,-262
39.401,-405
39.426,-535
39.451,-546
39.476,-377
39.501,-80
39.526,222
39.551,438
39.576,560
39.601,632
39.626,678
39.651,683
39.676,633
39.701,558
39.726,504
39.751,489
39.776,480
39.801,439
39.826,358
39.851,264
39.876,179
39.901,105
39.926,40
39.951,-11
39.976,-56
40.001,-123
40.026,-244
40.051,-399
40.076,-498
40.101,-449
40.126,-240
40.151,43
40.176,292
40.201,457
40.226,563
40.251,649
40.276,708
40.301,710
40.326,654
40.351,587
40.376,555
40.401,551
40.426,529
40.451,462
40.476,368
40.501,281
40.526,210
40.551,131
40.576,33
40.601,-65
40.626,-145
40.651,-221
40.676,-330
40.701,-470
40.726,-565
40.751,-522
40.776,-316
40.801,-24
40.826,238
40.851,412
40.876,521
40.901,610
40.926,686
40.951,716
40.976,682
41.001,618
41.026,579
41.051,581
41.076,586
41.101,549
41.126,467
41.151,375
41.176,302
41.201,235
41.226,147
41.251,36
41.276,-67
41.301,-145
41.326,-220
41.351,-333
41.376,-482
41.401,-594
41.426,-574
41.451,-389
41.476,-103
41.501,170
41.526,359
41.551,470
41.576,550
41.601,623
41.626,668
41.651,661
41.676,614
41.701,571
41.726,566
41.751,579
41.776,566
41.801,503
41.826,414
41.851,336
41.876,279
41.901,220
41.926,134
41.951,33
41.976,-53
42.001,-118
42.026,-195
42.051,-315
42.076,-456
42.101,-535
42.126,-472
42.151,-265
42.176,7
42.201,248
42.226,411
42.251,511
42.276,579
42.301,620
42.326,619
42.351,582
42.376,541
42.401,530
42.426,544
42.451,546
42.476,507
42.501,433
42.526,352
42.551,279
42.576,203
42.601,113
42.626,21
42.651,-51
42.676,-114
42.701,-201
42.726,-330
42.751,-456
42.776,-489
42.801,-368
42.826,-123
42.851,144
42.876,344
42.901,462
42.926,536
42.951,597
42.976,633
43.001,619
43.026,566
43.051,521
43.076,516
43.101,531
43.126,515
43.151,445
43.176,350
43.201,271
43.226,216
43.251,149
43.276,48
43.301,-64
43.326,-152
43.351,-210
43.376,-283
43.401,-405
43.426,-546
43.451,-614
43.476,-535
43.501,-319
43.526,-53
43.551,179
43.576,350
43.601,483
43.626,597
43.651,682
43.676,712
43.701,690
43.726,646
43.751,615
43.776,606
43.801,599
43.826,570
43.851,514
43.876,438
43.901,355
43.926,273
43.951,188
43.976,96
44.001,-3
44.026,-104
44.051,-189
44.076,-257
44.101,-328
44.126,-427
44.151,-554
44.176,-654
44.201,-647
44.226,-489
44.251,-219
44.276,70
44.301,304
44.326,472
44.351,607
44.376,735
44.401,837
44.426,880
44.451,869
44.476,845
44.501,850
44.526,876
44.551,885
44.576,848
44.601,779
44.626,711
44.651,658
44.676,601
44.701,517
44.726,413
44.751,319
44.776,250
44.801,188
44.826,108
44.851,13
44.876,-72
44.901,-134
44.926,-189
44.951,-267
44.976,-369
45.001,-464
45.026,-527
45.051,-574
45.076,-652
45.101,-774
45.126,-880
45.151,-872
45.176,-696
45.201,-396
45.226,-77
45.251,178
45.276,359
45.301,505
45.326,640
45.351,748
45.376,800
45.401,799
45.426,786
45.451,798
45.476,838
45.501,869
45.526,859
45.551,806
45.576,737
45.601,675
45.626,619
45.651,554
45.676,470
45.701,375
45.726,285
45.751,208
45.776,132
45.801,47
45.826,-45
45.851,-129
45.876,-197
45.901,-263
45.926,-357
45.951,-484
45.976,-596
46.001,-611
46.026,-477
46.051,-221
46.076,60
46.101,278
46.126,403
46.151,472
46.176,526
46.201,569
46.226,579
46.251,552
46.276,518
46.301,514
46.326,534
46.351,538
46.376,497
46.401,424
46.426,352
46.451,294
46.476,228
46.501,135
46.526,30
46.551,-52
46.576,-110
46.601,-185
46.626,-308
46.651,-441
46.676,-488
46.701,-379
46.726,-141
46.751,120
46.776,317
46.801,434
46.826,517
46.851,594
46.876,643
46.901,633
46.926,576
46.951,521
46.976,503
47.001,509
47.026,497
47.051,449
47.076,382
47.101,315
47.126,243
47.151,146
47.176,33
47.201,-68
47.226,-147
47.251,-234
47.276,-361
47.301,-503
47.326,-568
47.351,-474
47.376,-233
47.401,52
47.426,279
47.451,420
47.476,522
47.501,624
47.526,706
47.551,724
47.576,671
47.601,598
47.626,557
47.651,552
47.676,540
47.701,489
47.726,408
47.751,325
47.776,247
47.801,158
47.826,52
47.851,-51
47.876,-136
47.901,-217
47.926,-332
47.951,-478
47.976,-585
48.001,-557
48.026,-362
48.051,-71
48.076,200
48.101,385
48.126,500
48.151,595
48.176,685
48.201,737
48.226,721
48.251,657
48.276,602
48.301,587
48.326,593
48.351,572
48.376,506
48.401,418
48.426,339
48.451,271
48.476,189
48.501,84
48.526,-21
48.551,-101
48.576,-161
48.601,-241
48.626,-367
48.651,-503
48.676,-562
48.701,-473
48.726,-243
48.751,44
48.776,292
48.801,454
48.826,549
48.851,616
48.876,668
48.901,688
48.926,660
48.951,601
48.976,555
49.001,549
49.026,568
49.051,567
49.076,516
49.101,423
49.126,323
49.151,237
49.176,151
49.201,44
49.226,-78
49.251,-183
49.276,-251
49.301,-307
49.326,-396
49.351,-519
49.376,-607
49.401,-565
49.426,-364
49.451,-74
49.476,191
49.501,365
49.526,461
49.551,527
49.576,580
49.601,600
49.626,573
49.651,528
49.676,509
49.701,529
49.726,555
49.751,547
49.776,502
49.801,443
49.826,380
49.851,304
49.876,206
49.901,106
49.926,30
49.951,-32
49.976,-121
50.001,-250
50.026,-365
50.051,-371
50.076,-224
50.101,20
50.126,257
50.151,413
50.176,496
50.201,546
50.226,577
50.251,569
50.276,520
50.301,462
50.326,435
50.351,440
50.376,438
50.401,398
50.426,331
50.451,265
50.476,205
50.501,134
50.526,44
50.551,-45
50.576,-117
50.601,-191
50.626,-302
50.651,-439
50.676,-518
50.701,-450
50.726,-226
50.751,58
50.776,288
50.801,419
50.826,489
50.851,546
50.876,588
50.901,584
50.926,533
50.951,478
50.976,459
51.001,468
51.026,462
51.051,416
51.076,345
51.101,274
51.126,203
51.151,116
51.176,17
51.201,-69
51.226,-139
51.251,-222
51.276,-345
51.301,-472
51.326,-508
51.351,-382
51.376,-123
51.401,156
51.426,362
51.451,482
51.476,565
51.501,637
51.526,677
51.551,658
51.576,598
51.601,551
51.626,542
51.651,546
51.676,521
51.701,460
51.726,388
51.751,321
51.776,244
51.801,143
51.826,35
51.851,-50
51.876,-121
51.901,-221
51.926,-364
51.951,-487
51.976,-481
52.001,-299
52.026,-11
52.051,255
52.076,427
52.101,521
52.126,592
52.151,657
52.176,684
52.201,654
52.226,597
52.251,563
52.276,561
52.301,557
52.326,517
52.351,445
52.376,367
52.401,289
52.426,197
52.451,88
52.476,-13
52.501,-92
52.526,-173
52.551,-291
52.576,-435
52.601,-526
52.626,-477
52.651,-280
52.676,-18
52.701,206
52.726,348
52.751,430
52.776,486
52.801,519
52.826,512
52.851,474
52.876,437
52.901,427
52.926,433
52.951,427
52.976,393
53.001,336
53.026,266
53.051,189
53.076,111
53.101,44
53.126,-12
53.151,-81
53.176,-188
53.201,-318
53.226,-399
53.251,-354
53.276,-170
53.301,85
53.326,314
53.351,459
53.376,529
53.401,557
53.426,563
53.451,546
53.476,510
53.501,472
53.526,448
53.551,437
53.576,422
53.601,385
53.626,321
53.651,237
53.676,147
53.701,66
53.726,-1
53.751,-73
53.776,-172
53.801,-300
53.826,-408
53.851,-419
53.876,-291
53.901,-57
53.926,193
53.951,384
53.976,499
54.001,564
54.026,603
54.051,611
54.076,582
54.101,532
54.126,491
54.151,472
54.176,458
54.201,424
54.226,363
54.251,285
54.276,200
54.301,110
54.326,18
54.351,-66
54.376,-150
54.401,-253
54.426,-386
54.451,-507
54.476,-535
54.501,-413
54.526,-167
54.551,105
54.576,318
54.601,455
54.626,560
54.651,656
54.676,720
54.701,718
54.726,661
54.751,604
54.776,585
54.801,587
54.826,565
54.851,495
54.876,402
54.901,316
54.926,235
54.951,138
54.976,23
55.001,-79
55.026,-152
55.051,-223
55.076,-333
55.101,-476
55.126,-571
55.151,-529
55.176,-333
55.201,-63
55.226,176
55.251,340
55.276,457
55.301,567
55.326,665
55.351,710
55.376,684
55.401,622
55.426,582
55.451,583
55.476,586
55.501,548
55.526,464
55.551,371
55.576,299
55.601,236
55.626,150
55.651,37
55.676,-73
55.701,-151
55.726,-214
55.751,-307
55.776,-443
55.801,-565
55.826,-580
55.851,-442
55.876,-192
55.901,75
55.926,289
55.951,441
55.976,559
56.001,654
56.026,711
56.051,718
56.076,689
56.101,660
56.126,649
56.151,648
56.176,633
56.201,593
56.226,533
56.251,465
56.276,394
56.301,321
56.326,247
56.351,170
56.376,87
56.401,-4
56.426,-93
56.451,-167
56.476,-230
56.501,-310
56.526,-425
56.551,-549
56.576,-609
56.601,-538
56.626,-333
56.651,-69
56.676,164
56.701,325
56.726,431
56.751,517
56.776,587
56.801,622
56.826,612
56.851,581
56.876,564
56.901,576
56.926,591
56.951,575
56.976,516
57.001,435
57.026,362
57.051,303
57.076,241
57.101,159
57.126,62
57.151,-25
57.176,-91
57.201,-154
57.226,-247
57.251,-377
57.276,-492
57.301,-511
57.326,-391
57.351,-165
57.376,75
57.401,251
57.426,346
57.451,399
57.476,452
57.501,516
57.526,579
57.551,633
57.576,678
57.601,706
57.626,698
57.651,638
57.676,540
57.701,433
57.726,333
57.751,236
57.776,131
57.801,28
57.826,-54
57.851,-123
57.876,-213
57.901,-337
57.926,-450
57.951,-463
57.976,-322
58.001,-68
58.026,192
58.051,378
58.076,482
58.101,547
58.126,601
58.151,628
58.176,607
58.201,552
58.226,509
58.251,498
58.276,496
58.301,465
58.326,397
58.351,317
58.376,244
58.401,174
58.426,89
58.451,-6
58.476,-91
58.501,-159
58.526,-239
58.551,-362
58.576,-499
58.601,-568
58.626,-489
58.651,-270
58.676,1
58.701,229
58.726,381
58.751,492
58.776,601
58.801,695
58.826,733
58.851,699
58.876,634
58.901,594
58.926,595
58.951,597
58.976,556
59.001,470
59.026,377
59.051,306
59.076,243
59.101,155
59.126,38
59.151,-71
59.176,-148
59.201,-212
59.226,-310
59.251,-453
59.276,-577
59.301,-583
59.326,-430
59.351,-170
59.376,90
59.401,287
59.426,423
59.451,534
59.476,632
59.501,690
59.526,687
59.551,642
59.576,596
59.601,578
59.626,575
59.651,560
59.676,517
59.701,453
59.726,379
59.751,302
59.776,228
59.801,159
59.826,92
59.851,16
59.876,-75
59.901,-166
59.926,-235
59.951,-283
59.976,-348
60.001,-457
60.026,-577
60.051,-614
60.076,-491
60.101,-228
60.126,71
60.151,302
60.176,444
60.201,545
60.226,647
60.251,735
60.276,765
60.301,734
60.326,690
60.351,681
60.376,704
60.401,714
60.426,681
60.451,619
60.476,559
60.501,509
60.526,455
60.551,388
60.576,319
60.601,263
60.626,206
60.651,121
60.676,9
60.701,-97
60.726,-172
60.751,-233
60.776,-328
60.801,-466
60.826,-582
60.851,-580
60.876,-419
60.901,-156
60.926,96
60.951,266
60.976,360
61.001,424
61.026,488
61.051,538
61.076,549
61.101,527
61.126,504
61.151,506
61.176,522
61.201,518
61.226,476
61.251,408
61.276,342
61.301,291
61.326,240
61.351,165
61.376,67
61.401,-24
61.426,-90
61.451,-141
61.476,-216
61.501,-327
61.526,-425
61.551,-431
61.576,-295
61.601,-55
61.626,193
61.651,371
61.676,464
61.701,509
61.726,538
61.751,551
61.776,535
61.801,497
61.826,468
61.851,463
61.876,462
61.901,438
61.926,386
61.951,328
61.976,277
62.001,222
62.026,146
62.051,56
62.076,-21
62.101,-83
62.126,-160
62.151,-276
62.176,-396
62.201,-431
62.226,-313
62.251,-69
62.276,194
62.301,385
62.326,486
62.351,544
62.376,594
62.401,623
62.426,605
62.451,552
62.476,507
62.501,497
62.526,504
62.551,486
62.576,431
62.601,359
62.626,291
62.651,220
62.676,131
62.701,31
62.726,-55
62.751,-130
62.776,-224
62.801,-362
62.826,-499
62.851,-539
62.876,-416
62.901,-162
62.926,110
62.951,309
62.976,424
63.001,503
63.026,573
63.051,616
63.076,606
63.101,557
63.126,518
63.151,517
63.176,528
63.201,509
63.226,447
63.251,369
63.276,298
63.301,227
63.326,135
63.351,29
63.376,-62
63.401,-133
63.426,-216
63.451,-341
63.476,-476
63.501,-526
63.526,-414
63.551,-162
63.576,123
63.601,339
63.626,463
63.651,541
63.676,612
63.701,662
63.726,658
63.751,606
63.776,554
63.801,541
63.826,553
63.851,542
63.876,482
63.901,396
63.926,320
63.951,257
63.976,181
64.001,79
64.026,-24
64.051,-102
64.076,-167
64.101,-262
64.126,-400
64.151,-515
64.176,-507
64.201,-332
64.226,-51
64.251,217
64.276,395
64.301,488
64.326,548
64.351,599
64.376,623
64.401,599
64.426,547
64.451,512
64.476,514
64.501,522
64.526,495
64.551,429
64.576,353
64.601,292
64.626,235
64.651,155
64.676,53
64.701,-37
64.726,-100
64.751,-162
64.776,-263
64.801,-390
64.826,-462
64.851,-391
64.876,-172
64.901,101
64.926,322
64.951,447
64.976,510
65.001,557
65.026,589
65.051,581
65.076,532
65.101,485
65.126,477
65.151,495
65.176,489
65.201,434
65.226,354
65.251,289
65.276,244
65.301,185
65.326,94
65.351,-2
65.376,-69
65.401,-111
65.426,-179
65.451,-300
65.476,-423
65.501,-449
65.526,-319
65.551,-75
65.576,175
65.601,354
65.626,453
65.651,504
65.676,530
65.701,527
65.726,495
65.751,459
65.776,445
65.801,450
65.826,448
65.851,420
65.876,370
65.901,316
65.926,262
65.951,197
65.976,123
66.001,57
66.026,4
66.051,-54
66.076,-147
66.101,-261
66.126,-328
66.151,-278
66.176,-97
66.201,144
66.226,354
66.251,475
66.276,517
66.301,521
66.326,513
66.351,494
66.376,461
66.401,424
66.426,400
66.451,393
66.476,386
66.501,356
66.526,294
66.551,215
66.576,142
66.601,87
66.626,37
66.651,-36
66.676,-148
66.701,-275
66.726,-355
66.751,-329
66.776,-180
66.801,44
66.826,265
66.851,420
66.876,493
66.901,510
66.926,504
66.951,490
66.976,468
67.001,440
67.026,412
67.051,395
67.076,386
67.101,365
67.126,309
67.151,221
67.176,128
67.201,57
67.226,7
67.251,-60
67.276,-178
67.301,-327
67.326,-431
67.351,-408
67.376,-244
67.401,-1
67.426,226
67.451,387
67.476,485
67.501,547
67.526,585
67.551,591
67.576,560
67.601,514
67.626,476
67.651,455
67.676,435
67.701,399
67.726,340
67.751,261
67.776,171
67.801,82
67.826,2
67.851,-72
67.876,-165
67.901,-297
67.926,-443
67.951,-527
67.976,-475
68.001,-278
68.026,-12
68.051,225
68.076,391
68.101,506
68.126,604
68.151,679
68.176,696
68.201,651
68.226,586
68.251,550
68.276,547
68.301,537
68.326,489
68.351,411
68.376,330
68.401,253
68.426,167
68.451,64
68.476,-36
68.501,-119
68.526,-202
68.551,-318
68.576,-459
68.601,-553
68.626,-514
68.651,-322
68.676,-48
68.701,207
68.726,394
68.751,526
68.776,634
68.801,719
68.826,757
68.851,740
68.876,697
68.901,665
68.926,658
68.951,655
68.976,625
69.001,558
69.026,469
69.051,381
69.076,305
69.101,231
69.126,143
69.151,35
69.176,-77
69.201,-171
69.226,-239
69.251,-306
69.276,-407
69.301,-541
69.326,-651
69.351,-651
69.376,-498
69.401,-235
69.426,44
69.451,266
69.476,414
69.501,520
69.526,604
69.551,658
69.576,667
69.601,639
69.626,607
69.651,597
69.676,601
69.701,593
69.726,550
69.751,478
69.776,398
69.801,328
69.826,266
69.851,198
69.876,115
69.901,23
69.926,-58
69.951,-120
69.976,-172
70.001,-244
70.026,-351
70.051,-466
70.076,-522
70.101,-457
70.126,-266
70.151,-14
70.176,215
70.201,374
70.226,471
70.251,538
70.276,589
70.301,612
70.326,596
70.351,557
70.376,527
70.401,523
70.426,527
70.451,508
70.476,450
70.501,371
70.526,299
70.551,243
70.576,189
70.601,116
70.626,25
70.651,-59
70.676,-120
70.701,-168
70.726,-237
70.751,-342
70.776,-449
70.801,-484
70.826,-390
70.851,-179
70.876,74
70.901,291
70.926,444
70.951,555
70.976,649
71.001,721
71.026,747
71.051,726
71.076,691
71.101,679
71.126,694
71.151,705
71.176,685
71.201,636
71.226,581
71.251,529
71.276,473
71.301,405
71.326,332
71.351,265
71.376,206
71.401,140
71.426,63
71.451,-16
71.476,-85
71.501,-148
71.526,-221
71.551,-306
71.576,-384
71.601,-442
71.626,-502
71.651,-596
71.676,-720
71.701,-802
71.726,-751
71.751,-542
71.776,-248
71.801,20
71.826,207
71.851,335
71.876,455
71.901,577
71.926,666
71.951,696
71.976,687
72.001,687
72.026,720
72.051,760
72.076,773
72.101,751
72.126,721
72.151,701
72.176,679
72.201,636
72.226,570
72.251,499
72.276,435
72.301,371
72.326,290
72.351,197
72.376,111
72.401,40
72.426,-30
72.451,-117
72.476,-210
72.501,-286
72.526,-342
72.551,-411
72.576,-524
72.601,-652
72.626,-701
72.651,-589
72.676,-327
72.701,-15
72.726,236
72.751,396
72.776,509
72.801,625
72.826,738
72.851,806
72.876,809
72.901,780
72.926,769
72.951,788
72.976,805
73.001,784
73.026,724
73.051,649
73.076,574
73.101,487
73.126,379
73.151,262
73.176,162
73.201,84
73.226,7
73.251,-91
73.276,-200
73.301,-291
73.326,-353
73.351,-420
73.376,-531
73.401,-666
73.426,-741
73.451,-667
73.476,-435
73.501,-130
73.526,136
73.551,310
73.576,412
73.601,489
73.626,558
73.651,598
73.676,592
73.701,563
73.726,548
73.751,562
73.776,579
73.801,560
73.826,502
73.851,430
73.876,371
73.901,317
73.926,245
73.951,151
73.976,59
74.001,-6
74.026,-63
74.051,-149
74.076,-273
74.101,-376
74.126,-370
74.151,-215
74.176,35
74.201,278
74.226,441
74.251,526
74.276,579
74.301,620
74.326,636
74.351,606
74.376,550
74.401,509
74.426,502
74.451,506
74.476,479
74.501,414
74.526,336
74.551,268
74.576,202
74.601,115
74.626,11
74.651,-81
74.676,-151
74.701,-224
74.726,-335
74.751,-467
74.776,-536
74.801,-460
74.826,-239
74.851,37
74.876,264
74.901,402
74.926,487
74.951,560
74.976,617
75.001,626
75.026,582
75.051,525
75.076,501
75.101,509
75.126,512
75.151,476
75.176,410
75.201,341
75.226,279
75.251,205
75.276,111
75.301,12
75.326,-66
75.351,-135
75.376,-228
75.401,-357
75.426,-469
75.451,-475
75.476,-328
75.501,-72
75.526,190
75.551,383
75.576,498
75.601,573
75.626,630
75.651,656
75.676,632
75.701,576
75.726,529
75.751,516
75.776,518
75.801,495
75.826,433
75.851,351
75.876,279
75.901,217
75.926,145
75.951,54
75.976,-37
76.001,-109
76.026,-170
76.051,-260
76.076,-393
76.101,-521
76.126,-553
76.151,-430
76.176,-181
76.201,93
76.226,301
76.251,425
76.276,503
76.301,569
76.326,617
76.351,621
76.376,582
76.401,539
76.426,528
76.451,540
76.476,534
76.501,485
76.526,410
76.551,344
76.576,291
76.601,226
76.626,131
76.651,27
76.676,-50
76.701,-103
76.726,-173
76.751,-294
76.776,-427
76.801,-476
76.826,-371
76.851,-137
76.876,123
76.901,321
76.926,435
76.951,502
76.976,550
77.001,572
77.026,554
77.051,510
77.076,478
77.101,476
77.126,483
77.151,466
77.176,415
77.201,347
77.226,279
77.251,208
77.276,127
77.301,43
77.326,-29
77.351,-99
77.376,-192
77.401,-313
77.426,-409
77.451,-397
77.476,-239
77.501,11
77.526,251
77.551,412
77.576,502
77.601,563
77.626,612
77.651,626
77.676,591
77.701,535
77.726,501
77.751,501
77.776,498
77.801,452
77.826,367
77.851,281
77.876,216
77.901,153
77.926,66
77.951,-37
77.976,-126
78.001,-192
78.026,-267
78.051,-386
78.076,-525
78.101,-600
78.126,-533
78.151,-327
78.176,-62
78.201,173
78.226,344
78.251,470
78.276,574
78.301,650
78.326,679
78.351,660
78.376,619
78.401,589
78.426,580
78.451,575
78.476,547
78.501,486
78.526,406
78.551,324
78.576,251
78.601,180
78.626,94
78.651,-8
78.676,-111
78.701,-193
78.726,-254
78.751,-325
78.776,-434
78.801,-562
78.826,-636
78.851,-579
78.876,-377
78.901,-96
78.926,170
78.951,370
78.976,513
79.001,634
79.026,744
79.051,818
79.076,837
79.101,816
79.126,793
79.151,795
79.176,813
79.201,814
79.226,780
79.251,719
79.276,653
79.301,597
79.326,546
79.351,485
79.376,411
79.401,332
79.426,260
79.451,199
79.476,137
79.501,66
79.526,-9
79.551,-78
79.576,-139
79.601,-202
79.626,-281
79.651,-369
79.676,-444
79.701,-494
79.726,-543
79.751,-628
79.776,-745
79.801,-826
79.826,-776
79.851,-563
79.876,-248
79.901,55
79.926,272
79.951,410
79.976,518
80.001,622
80.026,704
80.051,738
80.076,733
80.101,729
80.126,751
80.151,785
80.176,795
80.201,768
80.226,718
80.251,667
80.276,623
80.301,573
80.326,509
80.351,431
80.376,344
80.401,257
80.426,175
80.451,99
80.476,27
80.501,-52
80.526,-139
80.551,-220
80.576,-284
80.601,-341
80.626,-422
80.651,-535
80.676,-630
80.701,-623
80.726,-461
80.751,-188
80.776,88
80.801,287
80.826,403
80.851,489
80.876,575
80.901,643
80.926,658
80.951,633
80.976,613
81.001,631
81.026,664
81.051,668
81.076,626
81.101,564
81.126,512
81.151,467
81.176,405
81.201,321
81.226,235
81.251,164
81.276,96
81.301,10
81.326,-88
81.351,-172
81.376,-230
81.401,-295
81.426,-404
81.451,-538
81.476,-613
81.501,-542
81.526,-326
81.551,-50
81.576,185
81.601,342
81.626,449
81.651,544
81.676,624
81.701,665
81.726,657
81.751,626
81.776,605
81.801,605
81.826,611
81.851,600
81.876,562
81.901,502
81.926,429
81.951,354
81.976,280
82.001,202
82.026,115
82.051,19
82.076,-69
82.101,-139
82.126,-203
82.151,-292
82.176,-419
82.201,-542
82.226,-575
82.251,-458
82.276,-214
82.301,61
82.326,279
82.351,416
82.376,507
82.401,590
82.426,665
82.451,700
82.476,684
82.501,642
82.526,613
82.551,610
82.576,613
82.601,592
82.626,537
82.651,463
82.676,388
82.701,319
82.726,247
82.751,162
82.776,63
82.801,-37
82.826,-120
82.851,-188
82.876,-260
82.901,-362
82.926,-484
82.951,-565
82.976,-532
83.001,-356
83.026,-88
83.051,172
83.076,351
83.101,449
83.126,511
83.151,573
83.176,620
83.201,623
83.226,582
83.251,537
83.276,527
83.301,547
83.326,553
83.351,508
83.376,424
83.401,341
83.426,284
83.451,231
83.476,153
83.501,47
83.526,-49
83.551,-110
83.576,-156
83.601,-235
83.626,-361
83.651,-473
83.676,-476
83.701,-325
83.726,-70
83.751,182
83.776,357
83.801,455
83.826,515
83.851,561
83.876,581
83.901,562
83.926,523
83.951,500
83.976,505
84.001,512
84.026,490
84.051,437
84.076,377
84.101,321
84.126,255
84.151,165
84.176,70
84.201,-1
84.226,-53
84.251,-127
84.276,-247
84.301,-368
84.326,-396
84.351,-270
84.376,-31
84.401,214
84.426,384
84.451,471
84.476,518
84.501,550
84.526,553
84.551,516
84.576,458
84.601,419
84.626,410
84.651,407
84.676,382
84.701,332
84.726,272
84.751,209
84.776,137
84.801,57
84.826,-17
84.851,-83
84.876,-163
84.901,-280
84.926,-405
84.951,-457
84.976,-360
85.001,-129
85.026,138
85.051,341
85.076,451
85.101,512
85.126,563
85.151,598
85.176,588
85.201,538
85.226,487
85.251,467
85.276,465
85.301,446
85.326,394
85.351,325
85.376,256
85.401,183
85.426,94
85.451,0
85.476,-85
85.501,-166
85.526,-271
85.551,-410
85.576,-521
85.601,-511
85.626,-337
85.651,-60
85.676,199
85.701,368
85.726,464
85.751,543
85.776,622
85.801,665
85.826,641
85.851,575
85.876,525
85.901,515
85.926,515
85.951,482
85.976,412
86.001,334
86.026,265
86.051,191
86.076,95
86.101,-8
86.126,-95
86.151,-165
86.176,-256
86.201,-387
86.226,-510
86.251,-526
86.276,-376
86.301,-102
86.326,182
86.351,388
86.376,509
86.401,594
86.426,671
86.451,721
86.476,713
86.501,658
86.526,604
86.551,588
86.576,597
86.601,583
86.626,521
86.651,428
86.676,341
86.701,272
86.726,203
86.751,114
86.776,13
86.801,-70
86.826,-133
86.851,-206
86.876,-325
86.901,-475
86.926,-576
86.951,-538
86.976,-340
87.001,-53
87.026,211
87.051,385
87.076,478
87.101,538
87.126,588
87.151,613
87.176,593
87.201,546
87.226,515
87.251,520
87.276,533
87.301,511
87.326,445
87.351,364
87.376,298
87.401,241
87.426,167
87.451,69
87.476,-24
87.501,-91
87.526,-153
87.551,-250
87.576,-381
87.601,-473
87.626,-431
87.651,-233
87.676,41
87.701,278
87.726,417
87.751,482
87.776,521
87.801,550
87.826,550
87.851,515
87.876,471
87.901,452
87.926,457
87.951,452
87.976,414
88.001,353
88.026,291
88.051,230
88.076,153
88.101,56
88.126,-35
88.151,-102
88.176,-161
88.201,-253
88.226,-375
88.251,-460
88.276,-417
88.301,-225
88.326,44
88.351,281
88.376,429
88.401,509
88.426,566
88.451,608
88.476,611
88.501,566
88.526,509
88.551,482
88.576,489
88.601,494
88.626,460
88.651,392
88.676,322
88.701,262
88.726,194
88.751,103
88.776,2
88.801,-79
88.826,-141
88.851,-220
88.876,-343
88.901,-473
88.926,-519
88.951,-410
88.976,-167
89.001,109
89.026,323
89.051,447
89.076,521
89.101,586
89.126,638
89.151,645
89.176,602
89.201,549
89.226,527
89.251,539
89.276,543
89.301,501
89.326,420
89.351,339
89.376,278
89.401,221
89.426,138
89.451,29
89.476,-72
89.501,-142
89.526,-200
89.551,-292
89.576,-426
89.601,-540
89.626,-542
89.651,-386
89.676,-117
89.701,162
89.726,370
89.751,491
89.776,560
89.801,609
89.826,640
89.851,639
89.876,608
89.901,574
89.926,561
89.951,567
89.976,566
90.001,532
90.026,465
90.051,387
90.076,319
90.101,258
90.126,185
90.151,91
90.176,-9
90.201,-92
90.226,-153
90.251,-217
90.276,-317
90.301,-448
90.326,-546
90.351,-533
90.376,-372
90.401,-109
90.426,161
90.451,365
90.476,484
90.501,549
90.526,588
90.551,610
90.576,604
90.601,575
90.626,546
90.651,537
90.676,545
90.701,542
90.726,507
90.751,441
90.776,365
90.801,299
90.826,241
90.851,174
90.876,90
90.901,0
90.926,-78
90.951,-139
90.976,-205
91.001,-301
91.026,-420
91.051,-500
91.076,-462
91.101,-277
91.126,-1
91.151,259
91.176,429
91.201,505
91.226,537
91.251,562
91.276,576
91.301,557
91.326,517
91.351,492
91.376,504
91.401,529
91.426,522
91.451,470
91.476,402
91.501,351
91.526,307
91.551,240
91.576,139
91.601,35
91.626,-42
91.651,-109
91.676,-208
91.701,-342
91.726,-439
91.751,-408
91.776,-224
91.801,40
91.826,277
91.851,423
91.876,488
91.901,510
91.926,508
91.951,482
91.976,442
92.001,415
92.026,416
92.051,430
92.076,426
92.101,394
92.126,346
92.151,296
92.176,237
92.201,164
92.226,88
92.251,28
92.276,-19
92.301,-90
92.326,-203
92.351,-318
92.376,-351
92.401,-242
92.426,-17
92.451,229
92.476,413
92.501,509
92.526,542
92.551,541
92.576,521
92.601,484
92.626,445
92.651,423
92.676,421
92.701,424
92.726,412
92.751,371
92.776,302
92.801,210
92.826,110
92.851,24
92.876,-39
92.901,-101
92.926,-192
92.951,-313
92.976,-411
93.001,-407
93.026,-266
93.051,-33
93.076,198
93.101,361
93.126,449
93.151,494
93.176,518
93.201,519
93.226,493
93.251,454
93.276,425
93.301,414
93.326,405
93.351,381
93.376,333
93.401,265
93.426,189
93.451,115
93.476,47
93.501,-18
93.526,-106
93.551,-228
93.576,-362
93.601,-439
93.626,-391
93.651,-214
93.676,24
93.701,235
93.726,376
93.751,463
93.776,526
93.801,569
93.826,573
93.851,538
93.876,493
93.901,469
93.926,466
93.951,456
93.976,417
94.001,355
94.026,284
94.051,211
94.076,133
94.101,54
94.126,-20
94.151,-99
94.176,-203
94.201,-330
94.226,-426
94.251,-408
94.276,-245
94.301,8
94.326,248
94.351,408
94.376,500
94.401,570
94.426,633
94.451,659
94.476,627
94.501,566
94.526,530
94.551,538
94.576,550
94.601,520
94.626,445
94.651,361
94.676,294
94.701,231
94.726,147
94.751,47
94.776,-40
94.801,-105
94.826,-179
94.851,-298
94.876,-437
94.901,-511
94.926,-444
94.951,-239
94.976,18
95.001,234
95.026,378
95.051,474
95.076,551
95.101,603
95.126,608
95.151,571
95.176,530
95.201,520
95.226,533
95.251,530
95.276,487
95.301,415
95.326,344
95.351,284
95.376,221
95.401,136
95.426,41
95.451,-38
95.476,-90
95.501,-143
95.526,-234
95.551,-361
95.576,-464
95.601,-463
95.626,-326
95.651,-99
95.676,131
95.701,298
95.726,397
95.751,458
95.776,505
95.801,532
95.826,524
95.851,492
95.876,468
95.901,470
95.926,482
95.951,467
95.976,408
96.001,328
96.026,261
96.051,214
96.076,161
96.101,82
96.126,-7
96.151,-79
96.176,-130
96.201,-194
96.226,-298
96.251,-412
96.276,-455
96.301,-364
96.326,-154
96.351,90
96.376,288
96.401,424
96.426,527
96.451,623
96.476,697
96.501,721
96.526,696
96.551,660
96.576,648
96.601,659
96.626,662
96.651,636
96.676,586
96.701,530
96.726,476
96.751,416
96.776,349
96.801,278
96.826,211
96.851,144
96.876,68
96.901,-10
96.926,-84
96.951,-149
96.976,-217
97.001,-295
97.026,-373
97.051,-433
97.076,-481
97.101,-547
97.126,-650
97.151,-751
97.176,-763
97.201,-625
97.226,-360
97.251,-66
97.276,168
97.301,332
97.326,473
97.351,621
97.376,755
97.401,827
97.426,830
97.451,807
97.476,810
97.501,844
97.526,870
97.551,855
97.576,806
97.601,752
97.626,707
97.651,658
97.676,592
97.701,515
97.726,445
97.751,383
97.776,314
97.801,228
97.826,134
97.851,49
97.876,-30
97.901,-125
97.926,-238
97.951,-342
97.976,-407
98.001,-444
98.026,-503
98.051,-620
98.076,-753
98.101,-806
98.126,-703
98.151,-458
98.176,-165
98.201,84
98.226,264
98.251,404
98.276,537
98.301,657
98.326,734
98.351,755
98.376,746
98.401,742
98.426,759
98.451,781
98.476,782
98.501,749
98.526,694
98.551,634
98.576,580
98.601,526
98.626,460
98.651,375
98.676,282
98.701,197
98.726,123
98.751,50
98.776,-36
98.801,-134
98.826,-221
98.851,-288
98.876,-353
98.901,-451
98.926,-580
98.951,-684
98.976,-676
99.001,-513
99.026,-241
99.051,39
99.076,250
99.101,382
99.126,476
99.151,563
99.176,634
99.201,662
99.226,645
99.251,614
99.276,604
99.301,619
99.326,629
99.351,603
99.376,538
99.401,459
99.426,389
99.451,331
99.476,266
99.501,180
99.526,81
99.551,-9
99.576,-80
99.601,-144
99.626,-231
99.651,-348
99.676,-455
99.701,-477
99.726,-366
99.751,-139
99.776,120
99.801,329
99.826,457
99.851,531
99.876,589
99.901,637
99.926,653
99.951,626
99.976,578
100.001,549
100.026,551
100.051,556
100.076,524
100.101,449
100.126,359
100.151,284
100.176,224
100.201,156
100.226,65
100.251,-33
100.276,-115
100.301,-176
100.326,-249
100.351,-360
100.376,-489
100.401,-562
100.426,-508
100.451,-315
100.476,-50
100.501,191
100.526,355
100.551,454
100.576,528
100.601,597
100.626,643
100.651,641
100.676,603
100.701,564
100.726,554
100.751,558
100.776,542
100.801,485
100.826,406
100.851,331
100.876,267
100.901,194
100.926,98
100.951,-4
100.976,-89
101.001,-156
101.026,-239
101.051,-361
101.076,-489
101.101,-539
101.126,-446
101.151,-224
101.176,37
101.201,248
101.226,378
101.251,461
101.276,534
101.301,596
101.326,619
101.351,592
101.376,545
101.401,520
101.426,526
101.451,533
101.476,506
101.501,443
101.526,371
101.551,308
101.576,245
101.601,162
101.626,61
101.651,-32
101.676,-104
101.701,-176
101.726,-279
101.751,-405
101.776,-482
101.801,-432
101.826,-240
101.851,19
101.876,245
101.901,389
101.926,475
101.951,546
101.976,605
102.001,622
102.026,584
102.051,526
102.076,498
102.101,509
102.126,518
102.151,488
102.176,422
102.201,355
102.226,304
102.251,247
102.276,158
102.301,50
102.326,-37
102.351,-96
102.376,-163
102.401,-276
102.426,-408
102.451,-466
102.476,-374
102.501,-146
102.526,120
102.551,330
102.576,454
102.601,520
102.626,557
102.651,567
102.676,544
102.701,504
102.726,477
102.751,473
102.776,471
102.801,448
102.826,402
102.851,347
102.876,288
102.901,213
102.926,124
102.951,39
102.976,-25
103.001,-88
103.026,-186
103.051,-315
103.076,-409
103.101,-380
103.126,-203
103.151,53
103.176,286
103.201,431
103.226,498
103.251,526
103.276,537
103.301,528
103.326,496
103.351,458
103.376,435
103.401,428
103.426,421
103.451,395
103.476,343
103.501,268
103.526,176
103.551,84
103.576,3
103.601,-68
103.626,-155
103.651,-277
103.676,-408
103.701,-474
103.726,-405
103.751,-201
103.776,61
103.801,290
103.826,442
103.851,532
103.876,588
103.901,614
103.926,599
103.951,553
103.976,506
104.001,481
104.026,471
104.051,450
104.076,403
104.101,332
104.126,248
104.151,155
104.176,59
104.201,-27
104.226,-107
104.251,-203
104.276,-337
104.301,-484
104.326,-559
104.351,-481
104.376,-251
104.401,37
104.426,275
104.451,421
104.476,511
104.501,588
104.526,646
104.551,653
104.576,605
104.601,543
104.626,511
104.651,505
104.676,489
104.701,438
104.726,363
104.751,284
104.776,202
104.801,108
104.826,9
104.851,-76
104.876,-153
104.901,-253
104.926,-389
104.951,-506
104.976,-502
105.001,-325
105.026,-34
105.051,243
105.076,426
105.101,528
105.126,610
105.151,689
105.176,727
105.201,695
105.226,623
105.251,574
105.276,568
105.301,567
105.326,523
105.351,441
105.376,362
105.401,305
105.426,241
105.451,141
105.476,21
105.501,-75
105.526,-145
105.551,-232
105.576,-371
105.601,-512
105.626,-545
105.651,-403
105.676,-130
105.701,151
105.726,352
105.751,465
105.776,536
105.801,591
105.826,612
105.851,587
105.876,538
105.901,508
105.926,509
105.951,513
105.976,487
106.001,428
106.026,353
106.051,274
106.076,189
106.101,100
106.126,16
106.151,-61
106.176,-153
106.201,-277
106.226,-409
106.251,-473
106.276,-397
106.301,-184
106.326,82
106.351,295
106.376,405
106.401,436
106.426,440
106.451,437
106.476,421
106.501,386
106.526,356
106.551,364
106.576,411
106.601,456
106.626,449
106.651,375
106.676,269
106.701,175
106.726,108
106.751,41
106.776,-62
106.801,-205
106.826,-334
106.851,-372
106.876,-276
106.901,-66
106.926,177
106.951,375
106.976,491
107.001,537
107.026,548
107.051,542
107.076,521
107.101,480
107.126,432
107.151,397
107.176,382
107.201,367
107.226,322
107.251,237
107.276,136
107.301,52
107.326,-8
107.351,-76
107.376,-187
107.401,-333
107.426,-453
107.451,-468
107.476,-347
107.501,-129
107.526,105
107.551,295
107.576,425
107.601,513
107.626,573
107.651,597
107.676,580
107.701,533
107.726,484
107.751,454
107.776,438
107.801,415
107.826,366
107.851,289
107.876,197
107.901,108
107.926,31
107.951,-40
107.976,-128
108.001,-248
108.026,-382
108.051,-475
108.076,-456
108.101,-301
108.126,-57
108.151,186
108.176,366
108.201,481
108.226,569
108.251,648
108.276,697
108.301,686
108.326,629
108.351,576
108.376,563
108.401,569
108.426,548
108.451,476
108.476,383
108.501,308
108.526,255
108.551,187
108.576,85
108.601,-27
108.626,-110
108.651,-162
108.676,-234
108.701,-362
108.726,-510
108.751,-578
108.776,-489
108.801,-261
108.826,8
108.851,229
108.876,380
108.901,495
108.926,598
108.951,677
108.976,703
109.001,681
109.026,649
109.051,637
109.076,644
109.101,640
109.126,605
109.151,547
109.176,481
109.201,416
109.226,346
109.251,271
109.276,197
109.301,125
109.326,46
109.351,-43
109.376,-132
109.401,-204
109.426,-263
109.451,-340
109.476,-453
109.501,-567
109.526,-601
109.551,-487
109.576,-243
109.601,39
109.626,260
109.651,386
109.676,454
109.701,511
109.726,564
109.751,586
109.776,566
109.801,534
109.826,528
109.851,550
109.876,563
109.901,529
109.926,454
109.951,378
109.976,324
110.001,277
110.026,205
110.051,108
110.076,20
110.101,-32
110.126,-73
110.151,-153
110.176,-280
110.201,-390
110.226,-389
110.251,-240
110.276,0
110.301,232
110.326,390
110.351,478
110.376,529
110.401,558
110.426,555
110.451,519
110.476,476
110.501,457
110.526,459
110.551,454
110.576,420
110.601,362
110.626,300
110.651,237
110.676,163
110.701,77
110.726,-4
110.751,-75
110.776,-159
110.801,-282
110.826,-425
110.851,-507
110.876,-451
110.901,-255
110.926,-1
110.951,213
110.976,354
111.001,445
111.026,516
111.051,563
111.076,569
111.101,541
111.126,515
111.151,512
111.176,519
111.201,505
111.226,457
111.251,391
111.276,319
111.301,241
111.326,153
111.351,67
111.376,-7
111.401,-84
111.426,-192
111.451,-328
111.476,-428
111.501,-406
111.526,-241
111.551,1
111.576,223
111.601,372
111.626,468
111.651,547
111.676,609
111.701,625
111.726,586
111.751,524
111.776,480
111.801,463
111.826,445
111.851,403
111.876,336
111.901,258
111.926,175
111.951,86
111.976,1
112.001,-71
112.026,-142
112.051,-238
112.076,-365
112.101,-471
112.126,-475
112.151,-332
112.176,-87
112.201,164
112.226,347
112.251,457
112.276,529
112.301,584
112.326,612
112.351,600
112.376,561
112.401,525
112.426,508
112.451,496
112.476,469
112.501,416
112.526,343
112.551,263
112.576,184
112.601,112
112.626,44
112.651,-33
112.676,-140
112.701,-267
112.726,-360
112.751,-351
112.776,-210
112.801,18
112.826,248
112.851,409
112.876,491
112.901,523
112.926,532
112.951,525
112.976,498
113.001,458
113.026,424
113.051,409
113.076,403
113.101,382
113.126,327
113.151,244
113.176,155
113.201,83
113.226,31
113.251,-27
113.276,-120
113.301,-245
113.326,-348
113.351,-358
113.376,-239
113.401,-26
113.426,202
113.451,377
113.476,478
113.501,525
113.526,541
113.551,533
113.576,501
113.601,459
113.626,424
113.651,402
113.676,383
113.701,351
113.726,301
113.751,237
113.776,164
113.801,88
113.826,15
113.851,-49
113.876,-121
113.901,-221
113.926,-346
113.951,-443
113.976,-438
114.001,-296
114.026,-64
114.051,167
114.076,334
114.101,436
114.126,510
114.151,570
114.176,596
114.201,570
114.226,516
114.251,476
114.276,468
114.301,467
114.326,438
114.351,376
114.376,304
114.401,239
114.426,173
114.451,96
114.476,15
114.501,-53
114.526,-118
114.551,-209
114.576,-331
114.601,-428
114.626,-415
114.651,-256
114.676,-5
114.701,229
114.726,383
114.751,469
114.776,538
114.801,608
114.826,647
114.851,627
114.876,569
114.901,530
114.926,534
114.951,552
114.976,532
115.001,461
115.026,374
115.051,308
115.076,262
115.101,200
115.126,105
115.151,0
115.176,-74
115.201,-119
115.226,-178
115.251,-287
115.276,-421
115.301,-500
115.326,-449
115.351,-266
115.376,-19
115.401,206
115.426,368
115.451,471
115.476,539
115.501,585
115.526,602
115.551,588
115.576,556
115.601,529
115.626,520
115.651,518
115.676,499
115.701,449
115.726,378
115.751,309
115.776,256
115.801,208
115.826,142
115.851,49
115.876,-44
115.901,-112
115.926,-155
115.951,-215
115.976,-325
116.001,-452
116.026,-505
116.051,-409
116.076,-176
116.101,94
116.126,300
116.151,411
116.176,468
116.201,515
116.226,550
116.251,548
116.276,513
116.301,486
116.326,497
116.351,526
116.376,524
116.401,472
116.426,397
116.451,339
116.476,295
116.501,236
116.526,152
116.551,68
116.576,11
116.601,-39
116.626,-129
116.651,-259
116.676,-357
116.701,-330
116.726,-151
116.751,106
116.776,336
116.801,479
116.826,543
116.851,559
116.876,543
116.901,499
116.926,443
116.951,404
116.976,394
117.001,395
117.026,380
117.051,339
117.076,283
117.101,220
117.126,147
117.151,68
117.176,-4
117.201,-63
117.226,-128
117.251,-229
117.276,-355
117.301,-435
117.326,-387
117.351,-196
117.376,68
117.401,303
117.426,451
117.451,522
117.476,553
117.501,559
117.526,539
117.551,498
117.576,457
117.601,435
117.626,427
117.651,409
117.676,369
117.701,309
117.726,238
117.751,161
117.776,82
117.801,8
117.826,-63
117.851,-154
117.876,-282
117.901,-417
117.926,-482
117.951,-408
117.976,-197
118.001,70
118.026,298
118.051,446
118.076,534
118.101,593
118.126,626
118.151,620
118.176,581
118.201,541
118.226,520
118.251,512
118.276,491
118.301,446
118.326,384
118.351,312
118.376,229
118.401,138
118.426,51
118.451,-24
118.476,-108
118.501,-226
118.526,-357
118.551,-424
118.576,-347
118.601,-123
118.626,156
118.651,385
118.676,523
118.701,601
118.726,657
118.751,681
118.776,637
118.801,523
118.826,392
118.851,301
118.876,261
118.901,239
118.926,200
118.951,141
118.976,77
119.001,19
119.026,-31
119.051,-73
119.076,-106
119.101,-148
119.126,-222
119.151,-322
119.176,-380
119.201,-315
119.226,-105
119.251,176
119.276,422
119.301,572
119.326,645
119.351,687
119.376,708
119.401,688
119.426,623
119.451,549
119.476,508
119.501,500
119.526,486
119.551,436
119.576,363
119.601,291
119.626,225
119.651,146
119.676,50
119.701,-42
119.726,-115
119.751,-187
119.776,-295
119.801,-432
119.826,-524
119.851,-481
119.876,-283
119.901,-3
119.926,246
119.951,403
119.976,477
120.001,509
120.026,521
120.051,510
120.076,470
120.101,419
120.126,381
120.151,366
120.176,358
120.201,334
120.226,283
120.251,213
120.276,142
120.301,83
120.326,36
120.351,-17
120.376,-100
120.401,-204
120.426,-282
120.451,-268
120.476,-133
120.501,84
120.526,303
120.551,451
120.576,515
120.601,530
120.626,529
120.651,521
120.676,495
120.701,455
120.726,422
120.751,411
120.776,411
120.801,390
120.826,329
120.851,243
120.876,162
120.901,105
120.926,55
120.951,-21
120.976,-137
121.001,-257
121.026,-318
121.051,-266
121.076,-99
121.101,123
121.126,324
121.151,448
121.176,492
121.201,489
121.226,471
121.251,449
121.276,417
121.301,381
121.326,354
121.351,343
121.376,333
121.401,299
121.426,232
121.451,155
121.476,93
121.501,45
121.526,-17
121.551,-117
121.576,-231
121.601,-293
121.626,-241
121.651,-74
121.676,148
121.701,342
121.726,458
121.751,499
121.776,495
121.801,473
121.826,440
121.851,400
121.876,364
121.901,346
121.926,340
121.951,320
121.976,266
122.001,186
122.026,111
122.051,61
122.076,17
122.101,-60
122.126,-182
122.151,-296
122.176,-319
122.201,-200
122.226,25
122.251,263
122.276,432
122.301,513
122.326,539
122.351,546
122.376,535
122.401,497
122.426,438
122.451,389
122.476,370
122.501,366
122.526,339
122.551,269
122.576,175
122.601,96
122.626,42
122.651,-20
122.676,-129
122.701,-273
122.726,-384
122.751,-382
122.776,-238
122.801,-4
122.826,226
122.851,384
122.876,461
122.901,492
122.926,508
122.951,508
122.976,477
123.001,419
123.026,364
123.051,336
123.076,326
123.101,294
123.126,217
123.151,120
123.176,50
123.201,19
123.226,-14
123.251,-109
123.276,-267
123.301,-411
123.326,-446
123.351,-334
123.376,-128
123.401,81
123.426,239
123.451,353
123.476,461
123.501,576
123.526,679
123.551,738
123.576,746
123.601,721
123.626,689
123.651,658
123.676,613
123.701,533
123.726,412
123.751,275
123.776,159
123.801,75
123.826,-2
123.851,-116
123.876,-274
123.901,-423
123.926,-482
123.951,-402
123.976,-212
124.001,7
124.026,184
124.051,298
124.076,360
124.101,389
124.126,390
124.151,370
124.176,342
124.201,316
124.226,291
124.251,266
124.276,255
124.301,282
124.326,352
124.351,430
124.376,469
124.401,449
124.426,385
124.451,299
124.476,182
124.501,18
124.526,-168
124.551,-299
124.576,-295
124.601,-146
124.626,74
124.651,269
124.676,388
124.701,441
124.726,461
124.751,466
124.776,452
124.801,423
124.826,393
124.851,378
124.876,371
124.901,358
124.926,322
124.951,265
124.976,192
125.001,118
125.026,53
125.051,-1
125.076,-59
125.101,-141
125.126,-250
125.151,-344
125.176,-356
125.201,-247
125.226,-41
125.251,182
125.276,355
125.301,452
125.326,492
125.351,501
125.376,489
125.401,460
125.426,425
125.451,399
125.476,386
125.501,377
125.526,352
125.551,304
125.576,235
125.601,158
125.626,84
125.651,23
125.676,-31
125.701,-100
125.726,-204
125.751,-321
125.776,-390
125.801,-346
125.826,-178
125.851,51
125.876,258
125.901,398
125.926,483
125.951,545
125.976,588
126.001,592
126.026,555
126.051,505
126.076,476
126.101,469
126.126,456
126.151,415
126.176,350
126.201,280
126.226,212
126.251,139
126.276,58
126.301,-18
126.326,-93
126.351,-182
126.376,-296
126.401,-399
126.426,-418
126.451,-304
126.476,-83
126.501,150
126.526,321
126.551,420
126.576,494
126.601,568
126.626,620
126.651,618
126.676,568
126.701,519
126.726,507
126.751,514
126.776,496
126.801,437
126.826,361
126.851,298
126.876,246
126.901,177
126.926,81
126.951,-14
126.976,-83
127.001,-137
127.026,-218
127.051,-341
127.076,-450
127.101,-459
127.126,-330
127.151,-106
127.176,119
127.201,284
127.226,389
127.251,470
127.276,539
127.301,578
127.326,568
127.351,528
127.376,499
127.401,505
127.426,525
127.451,518
127.476,466
127.501,392
127.526,328
127.551,280
127.576,224
127.601,141
127.626,45
127.651,-35
127.676,-92
127.701,-157
127.726,-264
127.751,-395
127.776,-473
127.801,-423
127.826,-237
127.851,7
127.876,218
127.901,352
127.926,433
127.951,500
127.976,558
128.001,579
128.026,554
128.051,512
128.076,497
128.101,513
128.126,523
128.151,489
128.176,418
128.201,347
128.226,295
128.251,246
128.276,172
128.301,79
128.326,1
128.351,-48
128.376,-103
128.401,-203
128.426,-332
128.451,-409
128.476,-355
128.501,-168
128.526,69
128.551,271
128.576,399
128.601,474
128.626,521
128.651,539
128.676,521
128.701,483
128.726,454
128.751,450
128.776,454
128.801,439
128.826,397
128.851,343
128.876,289
128.901,229
128.926,159
128.951,88
128.976,29
129.001,-25
129.026,-104
129.051,-215
129.076,-310
129.101,-314
129.126,-185
129.151,37
129.176,262
129.201,417
129.226,490
129.251,512
129.276,514
129.301,503
129.326,475
129.351,436
129.376,399
129.401,374
129.426,356
129.451,328
129.476,277
129.501,203
129.526,119
129.551,45
129.576,-8
129.601,-54
129.626,-122
129.651,-227
129.676,-339
129.701,-391
129.726,-324
129.751,-142
129.776,89
129.801,292
129.826,426
129.851,496
129.876,529
129.901,538
129.926,525
129.951,496
129.976,465
130.001,445
130.026,433
130.051,417
130.076,382
130.101,321
130.126,238
130.151,148
130.176,68
130.201,6
130.226,-57
130.251,-154
130.276,-281
130.301,-385
130.326,-387
130.351,-250
130.376,-19
130.401,215
130.426,384
130.451,481
130.476,540
130.501,582
130.526,596
130.551,570
130.576,521
130.601,481
130.626,465
130.651,453
130.676,422
130.701,366
130.726,298
130.751,224
130.776,143
130.801,58
130.826,-20
130.851,-94
130.876,-184
130.901,-306
130.926,-425
130.951,-463
130.976,-354
131.001,-121
131.026,135
131.051,326
131.076,432
131.101,501
131.126,568
131.151,616
131.176,609
131.201,554
131.226,500
131.251,485
131.276,495
131.301,484
131.326,429
131.351,353
131.376,285
131.401,225
131.426,150
131.451,55
131.476,-32
131.501,-100
131.526,-170
131.551,-277
131.576,-404
131.601,-468
131.626,-389
131.651,-168
131.676,103
131.701,317
131.726,438
131.751,502
131.776,555
131.801,597
131.826,598
131.851,554
131.876,505
131.901,489
131.926,503
131.951,503
131.976,458
132.001,381
132.026,308
132.051,255
132.076,200
132.101,119
132.126,21
132.151,-61
132.176,-120
132.201,-184
132.226,-288
132.251,-414
132.276,-480
132.301,-409
132.326,-195
132.351,79
132.376,309
132.401,441
132.426,498
132.451,528
132.476,551
132.501,553
132.526,525
132.551,486
132.576,471
132.601,483
132.626,490
132.651,458
132.676,392
132.701,323
132.726,270
132.751,217
132.776,141
132.801,47
132.826,-30
132.851,-80
132.876,-131
132.901,-228
132.926,-359
132.951,-438
132.976,-377
133.001,-165
133.026,107
133.051,332
133.076,458
133.101,511
133.126,536
133.151,547
133.176,530
133.201,489
133.226,455
133.251,453
133.276,467
133.301,462
133.326,420
133.351,360
133.376,306
133.401,254
133.426,186
133.451,102
133.476,27
133.501,-23
133.526,-73
133.551,-163
133.576,-286
133.601,-370
133.626,-328
133.651,-144
133.676,111
133.701,336
133.726,471
133.751,525
133.776,532
133.801,516
133.826,482
133.851,442
133.876,414
133.901,407
133.926,409
133.951,398
133.976,360
134.001,304
134.026,241
134.051,174
134.076,108
134.101,47
134.126,-10
134.151,-79
134.176,-178
134.201,-289
134.226,-354
134.251,-302
134.276,-116
134.301,139
134.326,368
134.351,501
134.376,542
134.401,533
134.426,512
134.451,487
134.476,452
134.501,416
134.526,394
134.551,390
134.576,383
134.601,346
134.626,274
134.651,187
134.676,110
134.701,54
134.726,-1
134.751,-85
134.776,-206
134.801,-329
134.826,-390
134.851,-330
134.876,-144
134.901,110
134.926,342
134.951,487
134.976,539
135.001,540
135.026,528
135.051,512
135.076,481
135.101,436
135.126,399
135.151,385
135.176,377
135.201,339
135.226,256
135.251,152
135.276,68
135.301,12
135.326,-48
135.351,-154
135.376,-298
135.401,-415
135.426,-428
135.451,-304
135.476,-79
135.501,167
135.526,367
135.551,490
135.576,549
135.601,569
135.626,569
135.651,554
135.676,523
135.701,485
135.726,454
135.751,437
135.776,418
135.801,370
135.826,282
135.851,176
135.876,86
135.901,22
135.926,-45
135.951,-157
135.976,-306
136.001,-425
136.026,-432
136.051,-296
136.076,-65
136.101,172
136.126,358
136.151,479
136.176,552
136.201,588
136.226,590
136.251,565
136.276,533
136.301,509
136.326,493
136.351,473
136.376,439
136.401,385
136.426,313
136.451,226
136.476,135
136.501,57
136.526,-10
136.551,-92
136.576,-211
136.601,-348
136.626,-434
136.651,-396
136.676,-224
136.701,16
136.726,235
136.751,387
136.776,481
136.801,541
136.826,572
136.851,567
136.876,534
136.901,503
136.926,493
136.951,492
136.976,471
137.001,423
137.026,360
137.051,296
137.076,228
137.101,148
137.126,63
137.151,-10
137.176,-77
137.201,-166
137.226,-290
137.251,-401
137.276,-417
137.301,-293
137.326,-64
137.351,173
137.376,347
137.401,446
137.426,502
137.451,535
137.476,541
137.501,517
137.526,482
137.551,460
137.576,456
137.601,450
137.626,420
137.651,365
137.676,297
137.701,226
137.726,155
137.751,88
137.776,28
137.801,-37
137.826,-129
137.851,-245
137.876,-338
137.901,-341
137.926,-219
137.951,-11
137.976,200
138.001,352
138.026,433
138.051,471
138.076,489
138.101,490
138.126,472
138.151,443
138.176,420
138.201,407
138.226,393
138.251,361
138.276,306
138.301,235
138.326,160
138.351,92
138.376,35
138.401,-16
138.426,-88
138.451,-193
138.476,-307
138.501,-368
138.526,-315
138.551,-148
138.576,70
138.601,262
138.626,391
138.651,471
138.676,528
138.701,563
138.726,561
138.751,523
138.776,478
138.801,455
138.826,449
138.851,434
138.876,389
138.901,322
138.926,250
138.951,178
138.976,102
139.001,21
139.026,-59
139.051,-143
139.076,-247
139.101,-373
139.126,-478
139.151,-489
139.176,-363
139.201,-131
139.226,115
139.251,307
139.276,438
139.301,546
139.326,648
139.351,716
139.376,715
139.401,654
139.426,588
139.451,563
139.476,570
139.501,556
139.526,493
139.551,400
139.576,319
139.601,263
139.626,199
139.651,102
139.676,-13
139.701,-108
139.726,-170
139.751,-236
139.776,-352
139.801,-506
139.826,-617
139.851,-601
139.876,-438
139.901,-193
139.926,48
139.951,244
139.976,403
140.001,548
140.026,671
140.051,745
140.076,757
140.101,730
140.126,699
140.151,686
140.176,682
140.201,665
140.226,620
140.251,548
140.276,463
140.301,377
140.326,297
140.351,219
140.376,132
140.401,33
140.426,-66
140.451,-153
140.476,-228
140.501,-314
140.526,-435
140.551,-569
140.576,-650
140.601,-605
140.626,-422
140.651,-160
140.676,91
140.701,283
140.726,422
140.751,540
140.776,645
140.801,713
140.826,723
140.851,689
140.876,654
140.901,646
140.926,656
140.951,645
140.976,592
141.001,505
141.026,417
141.051,346
141.076,280
141.101,199
141.126,98
141.151,-1
141.176,-78
141.201,-140
141.226,-224
141.251,-351
141.276,-484
141.301,-539
141.326,-452
141.351,-235
141.376,24
141.401,236
141.426,368
141.451,450
141.476,519
141.501,571
141.526,581
141.551,545
141.576,500
141.601,483
141.626,491
141.651,487
141.676,442
141.701,371
141.726,300
141.751,239
141.776,169
141.801,80
141.826,-8
141.851,-80
141.876,-147
141.901,-243
141.926,-368
141.951,-459
141.976,-430
142.001,-257
142.026,-8
142.051,214
142.076,361
142.101,452
142.126,529
142.151,595
142.176,618
142.201,589
142.226,540
142.251,516
142.276,519
142.301,515
142.326,472
142.351,399
142.376,326
142.401,264
142.426,193
142.451,101
142.476,2
142.501,-75
142.526,-141
142.551,-232
142.576,-363
142.601,-480
142.626,-492
142.651,-352
142.676,-107
142.701,136
142.726,308
142.751,414
142.776,501
142.801,587
142.826,643
142.851,637
142.876,585
142.901,540
142.926,535
142.951,548
142.976,532
143.001,471
143.026,390
143.051,323
143.076,267
143.101,196
143.126,99
143.151,0
143.176,-75
143.201,-133
143.226,-216
143.251,-345
143.276,-476
143.301,-524
143.326,-428
143.351,-210
143.376,42
143.401,249
143.426,385
143.451,475
143.476,551
143.501,611
143.526,633
143.551,613
143.576,578
143.601,559
143.626,565
143.651,569
143.676,541
143.701,477
143.726,400
143.751,338
143.776,286
143.801,220
143.826,127
143.851,21
143.876,-65
143.901,-127
143.926,-192
143.951,-296
143.976,-429
144.001,-526
144.026,-510
144.051,-353
144.076,-108
144.101,136
144.126,314
144.151,423
144.176,493
144.201,550
144.226,590
144.251,598
144.276,577
144.301,551
144.326,545
144.351,556
144.376,556
144.401,518
144.426,447
144.451,370
144.476,309
144.501,256
144.526,186
144.551,93
144.576,-2
144.601,-73
144.626,-124
144.651,-196
144.676,-314
144.701,-439
144.726,-483
144.751,-379
144.776,-146
144.801,115
144.826,313
144.851,422
144.876,482
144.901,532
144.926,566
144.951,561
144.976,523
145.001,489
145.026,487
145.051,502
145.076,494
145.101,447
145.126,381
145.151,324
145.176,269
145.201,195
145.226,101
145.251,15
145.276,-43
145.301,-104
145.326,-206
145.351,-342
145.376,-434
145.401,-392
145.426,-205
145.451,49
145.476,269
145.501,405
145.526,473
145.551,507
145.576,520
145.601,508
145.626,478
145.651,454
145.676,446
145.701,443
145.726,424
145.751,385
145.776,334
145.801,273
145.826,197
145.851,109
145.876,28
145.901,-39
145.926,-114
145.951,-226
145.976,-359
146.001,-437
146.026,-379
146.051,-178
146.076,86
146.101,310
146.126,446
146.151,517
146.176,559
146.201,581
146.226,569
146.251,526
146.276,481
146.301,459
146.326,452
146.351,434
146.376,390
146.401,325
146.426,250
146.451,167
146.476,81
146.501,0
146.526,-75
146.551,-164
146.576,-288
146.601,-426
146.626,-499
146.651,-427
146.676,-204
146.701,79
146.726,316
146.751,459
146.776,539
146.801,600
146.826,642
146.851,641
146.876,594
146.901,539
146.926,512
146.951,509
146.976,493
147.001,446
147.026,377
147.051,306
147.076,228
147.101,133
147.126,32
147.151,-52
147.176,-123
147.201,-216
147.226,-353
147.251,-483
147.276,-504
147.301,-354
147.326,-80
147.351,194
147.376,380
147.401,477
147.426,540
147.451,594
147.476,617
147.501,586
147.526,528
147.551,492
147.576,495
147.601,500
147.626,469
147.651,402
147.676,331
147.701,267
147.726,195
147.751,103
147.776,8
147.801,-65
147.826,-133
147.851,-234
147.876,-372
147.901,-468
147.926,-426
147.951,-222
147.976,56
148.001,292
148.026,429
148.051,498
148.076,547
148.101,582
148.126,576
148.151,529
148.176,480
148.201,465
148.226,472
148.251,461
148.276,415
148.301,354
148.326,303
148.351,251
148.376,175
148.401,77
148.426,-8
148.451,-68
148.476,-131
148.501,-238
148.526,-370
148.551,-440
148.576,-364
148.601,-146
148.626,119
148.651,328
148.676,443
148.701,489
148.726,504
148.751,499
148.776,473
148.801,436
148.826,412
148.851,410
148.876,415
148.901,404
148.926,370
148.951,318
148.976,255
149.001,186
149.026,120
149.051,67
149.076,16
149.101,-61
149.126,-178
149.151,-294
149.176,-327
149.201,-221
149.226,-1
149.251,240
149.276,418
149.301,505
149.326,529
149.351,521
149.376,494
149.401,454
149.426,417
149.451,402
149.476,405
149.501,400
149.526,369
149.551,315
149.576,253
149.601,187
149.626,114
149.651,36
149.676,-32
149.701,-97
149.726,-184
149.751,-305
149.776,-419
149.801,-441
149.826,-315
149.851,-72
149.876,186
149.901,371
149.926,467
149.951,515
149.976,548
150.001,558
150.026,532
150.051,484
150.076,451
150.101,447
150.126,449
150.151,429
150.176,376
150.201,309
150.226,237
150.251,162
150.276,82
150.301,8
150.326,-60
150.351,-147
150.376,-268
150.401,-394
150.426,-439
150.451,-331
150.476,-90
150.501,181
150.526,380
150.551,480
150.576,526
150.601,563
150.626,585
150.651,570
150.676,524
150.701,488
150.726,488
150.751,499
150.776,479
150.801,419
150.826,347
150.851,287
150.876,227
150.901,144
150.926,45
150.951,-39
150.976,-105
151.001,-187
151.026,-310
151.051,-428
151.076,-442
151.101,-289
151.126,-20
151.151,240
151.176,402
151.201,472
151.226,511
151.251,549
151.276,561
151.301,523
151.326,463
151.351,434
151.376,449
151.401,468
151.426,444
151.451,382
151.476,319
151.501,272
151.526,219
151.551,134
151.576,35
151.601,-40
151.626,-91
151.651,-162
151.676,-287
151.701,-420
151.726,-458
151.751,-333
151.776,-82
151.801,184
151.826,376
151.851,480
151.876,530
151.901,552
151.926,543
151.951,506
151.976,466
152.001,451
152.026,457
152.051,459
152.076,436
152.101,391
152.126,338
152.151,276
152.176,199
152.201,113
152.226,41
152.251,-18
152.276,-93
152.301,-210
152.326,-340
152.351,-398
152.376,-313
152.401,-94
152.426,171
152.451,386
152.476,506
152.501,548
152.526,546
152.551,522
152.576,487
152.601,453
152.626,434
152.651,427
152.676,417
152.701,392
152.726,348
152.751,288
152.776,215
152.801,132
152.826,52
152.851,-16
152.876,-89
152.901,-193
152.926,-331
152.951,-445
152.976,-450
153.001,-302
153.026,-46
153.051,214
153.076,398
153.101,491
153.126,529
153.151,545
153.176,541
153.201,514
153.226,478
153.251,452
153.276,445
153.301,437
153.326,410
153.351,357
153.376,284
153.401,199
153.426,111
153.451,31
153.476,-38
153.501,-115
153.526,-225
153.551,-362
153.576,-461
153.601,-433
153.626,-248
153.651,29
153.676,286
153.701,453
153.726,536
153.751,586
153.776,622
153.801,628
153.826,592
153.851,540
153.876,510
153.901,511
153.926,509
153.951,472
153.976,403
154.001,328
154.026,257
154.051,179
154.076,83
154.101,-14
154.126,-102
154.151,-196
154.176,-324
154.201,-471
154.226,-556
154.251,-489
154.276,-258
154.301,42
154.326,292
154.351,432
154.376,494
154.401,534
154.426,566
154.451,566
154.476,529
154.501,491
154.526,492
154.551,526
154.576,540
154.601,498
154.626,419
154.651,349
154.676,302
154.701,245
154.726,148
154.751,26
154.776,-71
154.801,-129
154.826,-190
154.851,-305
154.876,-454
154.901,-539
154.926,-464
154.951,-231
154.976,60
155.001,298
155.026,439
155.051,514
155.076,563
155.101,589
155.126,575
155.151,532
155.176,499
155.201,503
155.226,524
155.251,517
155.276,465
155.301,396
155.326,340
155.351,293
155.376,224
155.401,126
155.426,32
155.451,-30
155.476,-81
155.501,-173
155.526,-316
155.551,-439
155.576,-440
155.601,-276
155.626,-10
155.651,246
155.676,421
155.701,511
155.726,549
155.751,554
155.776,528
155.801,483
155.826,447
155.851,438
155.876,445
155.901,439
155.926,408
155.951,359
155.976,303
156.001,236
156.026,154
156.051,72
156.076,8
156.101,-48
156.126,-134
156.151,-262
156.176,-381
156.201,-399
156.226,-264
156.251,-19
156.276,232
156.301,408
156.326,499
156.351,535
156.376,542
156.401,522
156.426,479
156.451,440
156.476,426
156.501,431
156.526,425
156.551,391
156.576,337
156.601,275
156.626,206
156.651,121
156.676,28
156.701,-51
156.726,-118
156.751,-206
156.776,-336
156.801,-464
156.826,-494
156.851,-359
156.876,-97
156.901,180
156.926,376
156.951,478
156.976,531
157.001,567
157.026,575
157.051,542
157.076,488
157.101,460
157.126,469
157.151,483
157.176,463
157.201,403
157.226,332
157.251,265
157.276,192
157.301,104
157.326,12
157.351,-67
157.376,-148
157.401,-260
157.426,-397
157.451,-481
157.476,-420
157.501,-198
157.526,96
157.551,340
157.576,478
157.601,542
157.626,585
157.651,618
157.676,613
157.701,564
157.726,511
157.751,496
157.776,510
157.801,505
157.826,451
157.851,370
157.876,299
157.901,245
157.926,178
157.951,82
157.976,-19
158.001,-99
158.026,-167
158.051,-267
158.076,-406
158.101,-512
158.126,-483
158.151,-284
158.176,9
158.201,274
158.226,435
158.251,511
158.276,557
158.301,594
158.326,600
158.351,560
158.376,505
158.401,481
158.426,497
158.451,512
158.476,482
158.501,410
158.526,334
158.551,277
158.576,221
158.601,139
158.626,32
158.651,-64
158.676,-132
158.701,-201
158.726,-310
158.751,-443
158.776,-515
158.801,-435
158.826,-198
158.851,100
158.876,341
158.901,473
158.926,527
158.951,555
158.976,571
159.001,558
159.026,514
159.051,475
159.076,473
159.101,496
159.126,499
159.151,454
159.176,380
159.201,315
159.226,264
159.251,202
159.276,113
159.301,18
159.326,-50
159.351,-101
159.376,-182
159.401,-313
159.426,-436
159.451,-447
159.476,-289
159.501,-14
159.526,262
159.551,449
159.576,538
159.601,566
159.626,564
159.651,536
159.676,488
159.701,445
159.726,431
159.751,439
159.776,438
159.801,408
159.826,356
159.851,300
159.876,239
159.901,164
159.926,79
159.951,6
159.976,-48
160.001,-116
160.026,-227
160.051,-357
160.076,-417
160.101,-327
160.126,-94
160.151,184
160.176,402
160.201,517
160.226,555
160.251,557
160.276,535
160.301,489
160.326,436
160.351,404
160.376,404
160.401,410
160.426,393
160.451,348
160.476,291
160.501,228
160.526,152
160.551,61
160.576,-27
160.601,-99
160.626,-172
160.651,-278
160.676,-407
160.701,-482
160.726,-412
160.751,-185
160.776,112
160.801,362
160.826,509
160.851,578
160.876,615
160.901,629
160.926,604
160.951,546
160.976,494
161.001,478
161.026,483
161.051,470
161.076,419
161.101,350
161.126,285
161.151,217
161.176,130
161.201,29
161.226,-59
161.251,-133
161.276,-224
161.301,-358
161.326,-490
161.351,-516
161.376,-366
161.401,-83
161.426,209
161.451,411
161.476,513
161.501,567
161.526,605
161.551,614
161.576,576
161.601,517
161.626,483
161.651,487
161.676,494
161.701,464
161.726,399
161.751,327
161.776,262
161.801,187
161.826,91
161.851,-7
161.876,-84
161.901,-154
161.926,-258
161.951,-399
161.976,-502
162.001,-464
162.026,-253
162.051,45
162.076,307
162.101,464
162.126,537
162.151,575
162.176,595
162.201,583
162.226,540
162.251,500
162.276,489
162.301,496
162.326,483
162.351,437
162.376,375
162.401,316
162.426,252
162.451,163
162.476,59
162.501,-29
162.526,-94
162.551,-169
162.576,-290
162.601,-424
162.626,-478
162.651,-371
162.676,-122
162.701,162
162.726,380
162.751,501
162.776,555
162.801,576
162.826,570
162.851,534
162.876,491
162.901,468
162.926,473
162.951,478
162.976,455
163.001,402
163.026,336
163.051,265
163.076,187
163.101,102
163.126,22
163.151,-49
163.176,-132
163.201,-248
163.226,-375
163.251,-440
163.276,-371
163.301,-167
163.326,96
163.351,322
163.376,456
163.401,510
163.426,518
163.451,503
163.476,472
163.501,436
163.526,412
163.551,406
163.576,405
163.601,389
163.626,347
163.651,282
163.676,204
163.701,128
163.726,60
163.751,0
163.776,-71
163.801,-176
163.826,-301
163.851,-388
163.876,-365
163.901,-202
163.926,48
163.951,293
163.976,461
164.001,545
164.026,580
164.051,590
164.076,575
164.101,535
164.126,489
164.151,460
164.176,452
164.201,440
164.226,401
164.251,336
164.276,257
164.301,173
164.326,83
164.351,-7
164.376,-91
164.401,-171
164.426,-269
164.451,-395
164.476,-507
164.501,-522
164.526,-386
164.551,-133
164.576,133
164.601,324
164.626,430
164.651,500
164.676,565
164.701,608
164.726,595
164.751,540
164.776,492
164.801,486
164.826,498
164.851,478
164.876,408
164.901,318
164.926,245
164.951,186
164.976,110
165.001,8
165.026,-91
165.051,-162
165.076,-220
165.101,-313
165.126,-453
165.151,-575
165.176,-580
165.201,-420
165.226,-146
165.251,135
165.276,351
165.301,499
165.326,615
165.351,718
165.376,791
165.401,812
165.426,795
165.451,777
165.476,785
165.501,806
165.526,807
165.551,771
165.576,712
165.601,655
165.626,606
165.651,550
165.676,476
165.701,393
165.726,320
165.751,257
165.776,190
165.801,106
165.826,13
165.851,-64
165.876,-122
165.901,-181
165.926,-266
165.951,-369
165.976,-455
166.001,-508
166.026,-555
166.051,-642
166.076,-771
166.101,-873
166.126,-849
166.151,-657
166.176,-354
166.201,-47
166.226,186
166.251,345
166.276,472
166.301,590
166.326,686
166.351,735
166.376,741
166.401,734
166.426,746
166.451,773
166.476,792
166.501,779
166.526,735
166.551,678
166.576,624
166.601,574
166.626,517
166.651,448
166.676,370
166.701,295
166.726,226
166.751,157
166.776,76
166.801,-16
166.826,-103
166.851,-171
166.876,-227
166.901,-301
166.926,-410
166.951,-522
166.976,-564
167.001,-475
167.026,-264
167.051,-10
167.076,197
167.101,323
167.126,395
167.151,457
167.176,517
167.201,551
167.226,544
167.251,517
167.276,508
167.301,527
167.326,547
167.351,531
167.376,475
167.401,405
167.426,350
167.451,306
167.476,247
167.501,160
167.526,63
167.551,-14
167.576,-69
167.601,-130
167.626,-227
167.651,-351
167.676,-438
167.701,-420
167.726,-274
167.751,-50
167.776,170
167.801,333
167.826,437
167.851,513
167.876,579
167.901,621
167.926,619
167.951,579
167.976,537
168.001,522
168.026,530
168.051,524
168.076,482
168.101,411
168.126,340
168.151,279
168.176,213
168.201,122
168.226,16
168.251,-75
168.276,-145
168.301,-216
168.326,-326
168.351,-466
168.376,-567
168.401,-548
168.426,-382
168.451,-128
168.476,117
168.501,293
168.526,406
168.551,496
168.576,580
168.601,637
168.626,639
168.651,599
168.676,559
168.701,552
168.726,566
168.751,560
168.776,509
168.801,431
168.826,359
168.851,301
168.876,235
168.901,142
168.926,33
168.951,-60
168.976,-130
169.001,-205
169.026,-320
169.051,-460
169.076,-549
169.101,-510
169.126,-326
169.151,-61
169.176,187
169.201,366
169.226,481
169.251,565
169.276,635
169.301,677
169.326,674
169.351,637
169.376,597
169.401,583
169.426,590
169.451,587
169.476,546
169.501,469
169.526,381
169.551,301
169.576,228
169.601,146
169.626,50
169.651,-44
169.676,-119
169.701,-187
169.726,-279
169.751,-410
169.776,-533
169.801,-561
169.826,-434
169.851,-179
169.876,100
169.901,311
169.926,429
169.951,496
169.976,550
170.001,590
170.026,589
170.051,549
170.076,510
170.101,505
170.126,524
170.151,523
170.176,479
170.201,407
170.226,341
170.251,283
170.276,211
170.301,116
170.326,21
170.351,-48
170.376,-111
170.401,-209
170.426,-344
170.451,-446
170.476,-421
170.501,-240
170.526,24
170.551,260
170.576,406
170.601,482
170.626,531
170.651,562
170.676,557
170.701,514
170.726,467
170.751,450
170.776,456
170.801,448
170.826,403
170.851,336
170.876,274
170.901,216
170.926,141
170.951,44
170.976,-47
171.001,-118
171.026,-188
171.051,-297
171.076,-434
171.101,-515
171.126,-450
171.151,-231
171.176,49
171.201,278
171.226,415
171.251,495
171.276,566
171.301,624
171.326,635
171.351,594
171.376,539
171.401,512
171.426,508
171.451,494
171.476,447
171.501,379
171.526,310
171.551,238
171.576,148
171.601,45
171.626,-47
171.651,-121
171.676,-206
171.701,-332
171.726,-470
171.751,-526
171.776,-423
171.801,-178
171.826,104
171.851,320
171.876,448
171.901,534
171.926,616
171.951,675
171.976,676
172.001,624
172.026,571
172.051,556
172.076,566
172.101,552
172.126,490
172.151,404
172.176,326
172.201,256
172.226,169
172.251,59
172.276,-48
172.301,-131
172.326,-212
172.351,-328
172.376,-472
172.401,-563
172.426,-508
172.451,-292
172.476,-4
172.501,241
172.526,394
172.551,483
172.576,555
172.601,612
172.626,624
172.651,584
172.676,528
172.701,503
172.726,506
172.751,497
172.776,444
172.801,362
172.826,285
172.851,223
172.876,148
172.901,41
172.926,-77
172.951,-167
172.976,-222
173.001,-281
173.026,-374
173.051,-464
173.076,-462
173.101,-314
173.126,-59
173.151,195
173.176,367
173.201,456
173.226,512
173.251,558
173.276,576
173.301,545
173.326,495
173.351,484
173.376,536
173.401,607
173.426,633
173.451,591
173.476,513
173.501,436
173.526,355
173.551,245
173.576,106
173.601,-21
173.626,-112
173.651,-190
173.676,-302
173.701,-444
173.726,-535
173.751,-479
173.776,-266
173.801,12
173.826,238
173.851,368
173.876,438
173.901,497
173.926,546
173.951,553
173.976,516
174.001,475
174.026,471
174.051,493
174.076,495
174.101,452
174.126,384
174.151,325
174.176,277
174.201,215
174.226,130
174.251,45
174.276,-16
174.301,-76
174.326,-174
174.351,-311
174.376,-414
174.401,-392
174.426,-218
174.451,36
174.476,268
174.501,418
174.526,497
174.551,537
174.576,552
174.601,538
174.626,504
174.651,476
174.676,470
174.701,471
174.726,453
174.751,408
174.776,348
174.801,285
174.826,212
174.851,125
174.876,38
174.901,-28
174.926,-83
174.951,-157
174.976,-264
175.001,-359
175.026,-364
175.051,-235
175.076,-8
175.101,225
175.126,393
175.151,480
175.176,514
175.201,520
175.226,503
175.251,467
175.276,428
175.301,404
175.326,393
175.351,381
175.376,352
175.401,304
175.426,240
175.451,164
175.476,84
175.501,12
175.526,-50
175.551,-123
175.576,-230
175.601,-356
175.626,-435
175.651,-392
175.676,-213
175.701,36
175.726,260
175.751,407
175.776,491
175.801,547
175.826,586
175.851,594
175.876,564
175.901,522
175.926,495
175.951,484
175.976,467
176.001,425
176.026,361
176.051,286
176.076,203
176.101,113
176.126,20
176.151,-70
176.176,-169
176.201,-293
176.226,-428
176.251,-510
176.276,-464
176.301,-273
176.326,-8
176.351,222
176.376,366
176.401,451
176.426,525
176.451,597
176.476,629
176.501,602
176.526,550
176.551,525
176.576,538
176.601,548
176.626,512
176.651,432
176.676,344
176.701,268
176.726,192
176.751,96
176.776,-6
176.801,-94
176.826,-168
176.851,-265
176.876,-404
176.901,-539
176.926,-575
176.951,-452
176.976,-203
177.001,69
177.026,278
177.051,411
177.076,509
177.101,599
177.126,668
177.151,685
177.176,653
177.201,612
177.226,598
177.251,606
177.276,597
177.301,542
177.326,455
177.351,372
177.376,310
177.401,249
177.426,161
177.451,47
177.476,-61
177.501,-134
177.526,-190
177.551,-274
177.576,-406
177.601,-542
177.626,-588
177.651,-483
177.676,-250
177.701,23
177.726,249
177.751,402
177.776,504
177.801,587
177.826,649
177.851,675
177.876,661
177.901,632
177.926,616
177.951,621
177.976,625
178.001,603
178.026,546
178.051,469
178.076,394
178.101,329
178.126,267
178.151,190
178.176,95
178.201,0
178.226,-78
178.251,-138
178.276,-210
178.301,-320
178.326,-448
178.351,-519
178.376,-457
178.401,-253
178.426,15
178.451,243
178.476,375
178.501,433
178.526,468
178.551,498
178.576,504
178.601,472
178.626,428
178.651,416
178.676,442
178.701,464
178.726,440
178.751,372
178.776,300
178.801,253
178.826,214
178.851,148
178.876,54
178.901,-33
178.926,-92
178.951,-145
178.976,-235
179.001,-358
179.026,-443
179.051,-404
179.076,-224
179.101,24
179.126,244
179.151,385
179.176,470
179.201,535
179.226,588
179.251,606
179.276,580
179.301,537
179.326,513
179.351,515
179.376,515
179.401,484
179.426,420
179.451,351
179.476,292
179.501,233
179.526,156
179.551,64
179.576,-20
179.601,-87
179.626,-158
179.651,-263
179.676,-396
179.701,-498
179.726,-488
179.751,-338
179.776,-94
179.801,150
179.826,329
179.851,438
179.876,514
179.901,580
179.926,625
179.951,627
179.976,590
180.001,551
180.026,542
180.051,555
180.076,551
180.101,501
180.126,417
180.151,335
180.176,272
180.201,207
180.226,117
180.251,6
180.276,-91
180.301,-157
180.326,-213
180.351,-303
180.376,-434
180.401,-546
180.426,-551
180.451,-407
180.476,-158
180.501,100
180.526,294
180.551,415
180.576,497
180.601,569
180.626,624
180.651,640
180.676,615
180.701,581
180.726,568
180.751,578
180.776,579
180.801,539
180.826,462
180.851,378
180.876,311
180.901,259
180.926,197
180.951,113
180.976,24
181.001,-46
181.026,-103
181.051,-179
181.076,-301
181.101,-442
181.126,-525
181.151,-478
181.176,-292
181.201,-32
181.226,210
181.251,383
181.276,490
181.301,559
181.326,606
181.351,629
181.376,621
181.401,595
181.426,574
181.451,570
181.476,575
181.501,562
181.526,518
181.551,449
181.576,372
181.601,303
181.626,236
181.651,157
181.676,60
181.701,-38
181.726,-119
181.751,-184
181.776,-262
181.801,-379
181.826,-510
181.851,-575
181.876,-497
181.901,-269
181.926,25
181.951,276
181.976,425
182.001,494
182.026,532
182.051,559
182.076,560
182.101,528
182.126,490
182.151,482
182.176,503
182.201,510
182.226,471
182.251,400
182.276,334
182.301,285
182.326,230
182.351,145
182.376,47
182.401,-28
182.426,-83
182.451,-160
182.476,-283
182.501,-403
182.526,-416
182.551,-262
182.576,5
182.601,267
182.626,434
182.651,509
182.676,544
182.701,568
182.726,568
182.751,530
182.776,480
182.801,459
182.826,475
182.851,492
182.876,473
182.901,418
182.926,353
182.951,285
182.976,202
183.001,98
183.026,-3
183.051,-81
183.076,-151
183.101,-255
183.126,-394
183.151,-493
183.176,-454
183.201,-250
183.226,37
183.251,287
183.276,433
183.301,500
183.326,537
183.351,558
183.376,545
183.401,491
183.426,428
183.451,393
183.476,386
183.501,377
183.526,346
183.551,299
183.576,247
183.601,186
183.626,105
183.651,14
183.676,-62
183.701,-124
183.726,-209
183.751,-338
183.776,-467
183.801,-495
183.826,-355
183.851,-87
183.876,189
183.901,380
183.926,483
183.951,551
183.976,613
184.001,646
184.026,625
184.051,570
184.076,531
184.101,532
184.126,542
184.151,520
184.176,462
184.201,391
184.226,322
184.251,244
184.276,143
184.301,38
184.326,-46
184.351,-121
184.376,-226
184.401,-374
184.426,-498
184.451,-499
184.476,-331
184.501,-57
184.526,204
184.551,379
184.576,473
184.601,529
184.626,569
184.651,580
184.676,551
184.701,507
184.726,479
184.751,474
184.776,472
184.801,449
184.826,402
184.851,339
184.876,262
184.901,176
184.926,89
184.951,16
184.976,-54
185.001,-150
185.026,-281
185.051,-401
185.076,-423
185.101,-293
185.126,-44
185.151,220
185.176,406
185.201,492
185.226,516
185.251,522
185.276,522
185.301,505
185.326,471
185.351,439
185.376,427
185.401,430
185.426,418
185.451,369
185.476,287
185.501,196
185.526,121
185.551,60
185.576,-10
185.601,-116
185.626,-251
185.651,-365
185.676,-393
185.701,-294
185.726,-86
185.751,159
185.776,365
185.801,490
185.826,539
185.851,545
185.876,531
185.901,505
185.926,465
185.951,419
185.976,383
186.001,363
186.026,349
186.051,314
186.076,245
186.101,153
186.126,67
186.151,5
186.176,-52
186.201,-143
186.226,-278
186.251,-416
186.276,-477
186.301,-400
186.326,-199
186.351,50
186.376,266
186.401,410
186.426,494
186.451,546
186.476,578
186.501,581
186.526,550
186.551,503
186.576,465
186.601,449
186.626,442
186.651,416
186.676,353
186.701,260
186.726,164
186.751,89
186.776,27
186.801,-53
186.826,-177
186.851,-322
186.876,-414
186.901,-382
186.926,-213
186.951,26
186.976,249
187.001,401
187.026,490
187.051,545
187.076,576
187.101,572
187.126,532
187.151,479
187.176,441
187.201,421
187.226,401
187.251,362
187.276,304
187.301,235
187.326,162
187.351,87
187.376,14
187.401,-52
187.426,-126
187.451,-228
187.476,-352
187.501,-440
187.526,-416
187.551,-251
187.576,-3
187.601,227
187.626,381
187.651,469
187.676,535
187.701,590
187.726,609
187.751,579
187.776,527
187.801,497
187.826,495
187.851,488
187.876,447
187.901,379
187.926,315
187.951,261
187.976,194
188.001,105
188.026,11
188.051,-59
188.076,-119
188.101,-206
188.126,-328
188.151,-422
188.176,-398
188.201,-228
188.226,20
188.251,245
188.276,389
188.301,466
188.326,513
188.351,542
188.376,538
188.401,504
188.426,469
188.451,458
188.476,465
188.501,459
188.526,422
188.551,364
188.576,298
188.601,229
188.626,154
188.651,81
188.676,19
188.701,-42
188.726,-129
188.751,-244
188.776,-334
188.801,-321
188.826,-173
188.851,57
188.876,276
188.901,418
188.926,485
188.951,512
188.976,518
189.001,501
189.026,463
189.051,426
189.076,412
189.101,412
189.126,398
189.151,355
189.176,294
189.201,230
189.226,165
189.251,89
189.276,7
189.301,-66
189.326,-132
189.351,-215
189.376,-329
189.401,-430
189.426,-437
189.451,-296
189.476,-51
189.501,195
189.526,362
189.551,451
189.576,510
189.601,564
189.626,590
189.651,567
189.676,511
189.701,471
189.726,467
189.751,470
189.776,441
189.801,377
189.826,305
189.851,244
189.876,182
189.901,98
189.926,3
189.951,-76
189.976,-142
190.001,-228
190.026,-351
190.051,-464
190.076,-474
190.101,-328
190.126,-75
190.151,174
190.176,344
190.201,439
190.226,513
190.251,585
190.276,628
190.301,614
190.326,561
190.351,520
190.376,517
190.401,524
190.426,501
190.451,439
190.476,366
190.501,305
190.526,244
190.551,161
190.576,59
190.601,-32
190.626,-97
190.651,-161
190.676,-262
190.701,-394
190.726,-488
190.751,-458
190.776,-285
190.801,-30
190.826,207
190.851,372
190.876,471
190.901,541
190.926,599
190.951,628
190.976,615
191.001,575
191.026,544
191.051,540
191.076,546
191.101,527
191.126,467
191.151,386
191.176,317
191.201,263
191.226,202
191.251,114
191.276,14
191.301,-69
191.326,-130
191.351,-201
191.376,-316
191.401,-452
191.426,-522
191.451,-443
191.476,-217
191.501,64
191.526,292
191.551,424
191.576,494
191.601,548
191.626,590
191.651,592
191.676,550
191.701,503
191.726,491
191.751,509
191.776,512
191.801,469
191.826,398
191.851,334
191.876,284
191.901,220
191.926,128
191.951,30
191.976,-38
192.001,-88
192.026,-167
192.051,-296
192.076,-420
192.101,-438
192.126,-297
192.151,-45
192.176,208
192.201,383
192.226,474
192.251,514
192.276,528
192.301,516
192.326,482
192.351,447
192.376,433
192.401,435
192.426,429
192.451,403
192.476,358
192.501,302
192.526,233
192.551,150
192.576,67
192.601,0
192.626,-60
192.651,-147
192.676,-275
192.701,-393
192.726,-413
192.751,-283
192.776,-39
192.801,217
192.826,403
192.851,501
192.876,542
192.901,555
192.926,546
192.951,513
192.976,469
193.001,435
193.026,420
193.051,410
193.076,389
193.101,347
193.126,282
193.151,199
193.176,106
193.201,22
193.226,-48
193.251,-128
193.276,-243
193.301,-381
193.326,-475
193.351,-441
193.376,-255
193.401,12
193.426,258
193.451,419
193.476,507
193.501,562
193.526,597
193.551,598
193.576,560
193.601,508
193.626,474
193.651,464
193.676,452
193.701,414
193.726,349
193.751,270
193.776,185
193.801,99
193.826,16
193.851,-59
193.876,-144
193.901,-261
193.926,-400
193.951,-493
193.976,-455
194.001,-261
194.026,16
194.051,268
194.076,429
194.101,515
194.126,577
194.151,629
194.176,646
194.201,612
194.226,552
194.251,508
194.276,492
194.301,479
194.326,440
194.351,373
194.376,294
194.401,211
194.426,121
194.451,30
194.476,-51
194.501,-129
194.526,-230
194.551,-365
194.576,-480
194.601,-479
194.626,-312
194.651,-31
194.676,240
194.701,412
194.726,494
194.751,548
194.776,603
194.801,632
194.826,604
194.851,538
194.876,492
194.901,489
194.926,496
194.951,467
194.976,397
195.001,321
195.026,257
195.051,191
195.076,100
195.101,0
195.126,-77
195.151,-136
195.176,-221
195.201,-355
195.226,-481
195.251,-491
195.276,-328
195.301,-52
195.326,213
195.351,385
195.376,473
195.401,528
195.426,572
195.451,583
195.476,549
195.501,497
195.526,470
195.551,474
195.576,474
195.601,440
195.626,380
195.651,318
195.676,259
195.701,191
195.726,108
195.751,29
195.776,-34
195.801,-103
195.826,-207
195.851,-332
195.876,-402
195.901,-339
195.926,-133
195.951,132
195.976,355
196.001,482
196.026,528
196.051,536
196.076,527
196.101,501
196.126,464
196.151,429
196.176,410
196.201,403
196.226,390
196.251,359
196.276,310
196.301,244
196.326,168
196.351,92
196.376,26
196.401,-37
196.426,-120
196.451,-237
196.476,-356
196.501,-404
196.526,-320
196.551,-109
196.576,152
196.601,367
196.626,486
196.651,522
196.676,517
196.701,499
196.726,475
196.751,444
196.776,412
196.801,392
196.826,386
196.851,377
196.876,342
196.901,271
196.926,181
196.951,98
196.976,37
197.001,-16
197.026,-98
197.051,-222
197.076,-354
197.101,-418
197.126,-352
197.151,-158
197.176,91
197.201,310
197.226,450
197.251,519
197.276,548
197.301,557
197.326,545
197.351,513
197.376,472
197.401,439
197.426,421
197.451,406
197.476,374
197.501,310
197.526,218
197.551,121
197.576,40
197.601,-23
197.626,-97
197.651,-210
197.676,-350
197.701,-451
197.726,-435
197.751,-272
197.776,-20
197.801,226
197.826,400
197.851,503
197.876,568
197.901,612
197.926,622
197.951,590
197.976,536
198.001,493
198.026,471
198.051,452
198.076,414
198.101,355
198.126,284
198.151,209
198.176,127
198.201,41
198.226,-37
198.251,-114
198.276,-213
198.301,-345
198.326,-461
198.351,-473
198.376,-326
198.401,-59
198.426,210
198.451,391
198.476,480
198.501,533
198.526,585
198.551,615
198.576,593
198.601,535
198.626,492
198.651,494
198.676,511
198.701,496
198.726,438
198.751,368
198.776,306
198.801,239
198.826,144
198.851,31
198.876,-62
198.901,-134
198.926,-222
198.951,-354
198.976,-483
199.001,-506
199.026,-358
199.051,-84
199.076,192
199.101,379
199.126,474
199.151,527
199.176,564
199.201,571
199.226,535
199.251,483
199.276,458
199.301,468
199.326,477
199.351,451
199.376,393
199.401,330
199.426,273
199.451,207
199.476,123
199.501,40
199.526,-25
199.551,-86
199.576,-180
199.601,-309
199.626,-408
199.651,-386
199.676,-210
199.701,56
199.726,305
199.751,465
199.776,533
199.801,548
199.826,541
199.851,518
199.876,480
199.901,440
199.926,411
199.951,396
199.976,382
200.001,352
200.026,300
200.051,228
200.076,147
200.101,76
200.126,20
200.151,-31
200.176,-108
200.201,-221
200.226,-333
200.251,-370
200.276,-275
200.301,-61
200.326,194
200.351,401
200.376,516
200.401,553
200.426,548
200.451,526
200.476,493
200.501,452
200.526,413
200.551,386
200.576,372
200.601,358
200.626,324
200.651,260
200.676,171
200.701,80
200.726,5
200.751,-56
200.776,-131
200.801,-244
200.826,-375
200.851,-455
200.876,-411
200.901,-227
200.926,33
200.951,275
200.976,436
201.001,515
201.026,545
201.051,554
201.076,545
201.101,517
201.126,477
201.151,444
201.176,425
201.201,411
201.226,388
201.251,340
201.276,265
201.301,175
201.326,91
201.351,25
201.376,-34
201.401,-123
201.426,-253
201.451,-382
201.476,-426
201.501,-326
201.526,-99
201.551,162
201.576,368
201.601,486
201.626,545
201.651,578
201.676,591
201.701,572
201.726,527
201.751,481
201.776,455
201.801,446
201.826,432
201.851,395
201.876,334
201.901,256
201.926,167
201.951,79
201.976,0
202.001,-78
202.026,-179
202.051,-313
202.076,-441
202.101,-481
202.126,-371
202.151,-131
202.176,147
202.201,366
202.226,492
202.251,554
202.276,589
202.301,604
202.326,590
202.351,548
202.376,504
202.401,481
202.426,472
202.451,455
202.476,412
202.501,344
202.526,261
202.551,175
202.576,95
202.601,24
202.626,-48
202.651,-144
202.676,-268
202.701,-383
202.726,-413
202.751,-301
202.776,-64
202.801,206
202.826,413
202.851,514
202.876,531
202.901,514
202.926,489
202.951,457
202.976,416
203.001,379
203.026,360
203.051,359
203.076,356
203.101,328
203.126,266
203.151,184
203.176,104
203.201,43
203.226,-7
203.251,-74
203.276,-178
203.301,-302
203.326,-379
203.351,-338
203.376,-157
203.401,108
203.426,364
203.451,531
203.476,594
203.501,588
203.526,556
203.551,521
203.576,487
203.601,455
203.626,430
203.651,416
203.676,406
203.701,383
203.726,330
203.751,245
203.776,148
203.801,63
203.826,-1
203.851,-69
203.876,-169
203.901,-303
203.926,-417
203.951,-429
203.976,-294
204.001,-43
204.026,229
204.051,435
204.076,542
204.101,573
204.126,568
204.151,550
204.176,520
204.201,478
204.226,434
204.251,400
204.276,376
204.301,349
204.326,298
204.351,215
204.376,111
204.401,10
204.426,-65
204.451,-127
204.476,-205
204.501,-324
204.526,-456
204.551,-524
204.576,-456
204.601,-243
204.626,40
204.651,296
204.676,466
204.701,550
204.726,584
204.751,591
204.776,578
204.801,548
204.826,515
204.851,493
204.876,481
204.901,465
204.926,430
204.951,370
204.976,289
205.001,200
205.026,121
205.051,63
205.076,12
205.101,-67
205.126,-192
205.151,-322
205.176,-370
205.201,-270
205.226,-41
205.251,220
205.276,417
205.301,521
205.326,569
205.351,599
205.376,610
205.401,583
205.426,520
205.451,456
205.476,414
205.501,387
205.526,350
205.551,293
205.576,229
205.601,167
205.626,103
205.651,31
205.676,-37
205.701,-95
205.726,-156
205.751,-251
205.776,-375
205.801,-463
205.826,-431
205.851,-256
205.876,-9
205.901,207
205.926,338
205.951,401
205.976,438
206.001,463
206.026,462
206.051,437
206.076,422
206.101,451
206.126,516
206.151,574
206.176,582
206.201,531
206.226,439
206.251,326
206.276,212
206.301,113
206.326,35
206.351,-36
206.376,-129
206.401,-237
206.426,-309
206.451,-273
206.476,-108
206.501,123
206.526,329
206.551,454
206.576,507
206.601,527
206.626,528
206.651,502
206.676,451
206.701,404
206.726,385
206.751,384
206.776,369
206.801,320
206.826,255
206.851,196
206.876,144
206.901,80
206.926,1
206.951,-75
206.976,-139
207.001,-206
207.026,-299
207.051,-396
207.076,-425
207.101,-327
207.126,-115
207.151,127
207.176,315
207.201,427
207.226,495
207.251,545
207.276,570
207.301,548
207.326,493
207.351,446
207.376,432
207.401,433
207.426,412
207.451,356
207.476,287
207.501,232
207.526,185
207.551,125
207.576,45
207.601,-32
207.626,-87
207.651,-132
207.676,-197
207.701,-287
207.726,-352
207.751,-327
207.776,-189
207.801,16
207.826,213
207.851,358
207.876,460
207.901,546
207.926,622
207.951,666
207.976,664
208.001,633
208.026,610
208.051,615
208.076,627
208.101,611
208.126,555
208.151,480
208.176,417
208.201,370
208.226,318
208.251,245
208.276,161
208.301,91
208.326,41
208.351,-17
208.376,-114
208.401,-239
208.426,-331
208.451,-321
208.476,-195
208.501,-1
208.526,188
208.551,330
208.576,426
208.601,499
208.626,554
208.651,576
208.676,556
208.701,511
208.726,470
208.751,449
208.776,435
208.801,400
208.826,331
208.851,240
208.876,150
208.901,69
208.926,-11
208.951,-106
208.976,-212
209.001,-313
209.026,-399
209.051,-480
209.076,-579
209.101,-701
209.126,-812
209.151,-845
209.176,-749
209.201,-532
209.226,-261
209.251,-20
209.276,150
209.301,270
209.326,383
209.351,506
209.376,618
209.401,683
209.426,691
209.451,667
209.476,641
209.501,620
209.526,588
209.551,535
209.576,473
209.601,429
209.626,407
209.651,386
209.676,341
209.701,275
209.726,213
209.751,171
209.776,130
209.801,56
209.826,-51
209.851,-142
209.876,-145
209.901,-33
209.926,150
209.951,336
209.976,472
210.001,556
210.026,604
210.051,617
210.076,590
210.101,532
210.126,481
210.151,471
210.176,492
210.201,505
210.226,478
210.251,425
210.276,384
210.301,368
210.326,346
210.351,281
210.376,174
210.401,61
210.426,-32
210.451,-124
210.476,-239
210.501,-361
210.526,-416
210.551,-342
210.576,-150
210.601,75
210.626,245
210.651,335
210.676,378
210.701,409
210.726,420
210.751,390
210.776,321
210.801,254
210.826,228
210.851,243
210.876,266
210.901,269
210.926,250
210.951,222
210.976,186
211.001,133
211.026,64
211.051,0
211.076,-51
211.101,-100
211.126,-175
211.151,-275
211.176,-349
211.201,-332
211.226,-202
211.251,-1
211.276,198
211.301,348
211.326,449
211.351,522
211.376,576
211.401,597
211.426,582
211.451,547
211.476,515
211.501,496
211.526,471
211.551,423
211.576,355
211.601,288
211.626,237
211.651,196
211.676,145
211.701,79
211.726,15
211.751,-29
211.776,-64
211.801,-118
211.826,-207
211.851,-303
211.876,-344
211.901,-282
211.926,-126
211.951,65
211.976,228
212.001,334
212.026,400
212.051,447
212.076,478
212.101,480
212.126,452
212.151,416
212.176,401
212.201,407
212.226,412
212.251,389
212.276,337
212.301,278
212.326,225
212.351,174
212.376,111
212.401,40
212.426,-22
212.451,-69
212.476,-120
212.501,-196
212.526,-284
212.551,-330
212.576,-281
212.601,-139
212.626,36
212.651,179
212.676,266
212.701,322
212.726,372
212.751,411
212.776,414
212.801,376
212.826,325
212.851,293
212.876,289
212.901,291
212.926,278
212.951,252
212.976,222
213.001,187
213.026,133
213.051,57
213.076,-17
213.101,-72
213.126,-111
213.151,-161
213.176,-228
213.201,-275
213.226,-245
213.251,-116
213.276,72
213.301,253
213.326,386
213.351,480
213.376,560
213.401,631
213.426,676
213.451,688
213.476,687
213.501,700
213.526,733
213.551,766
213.576,780
213.601,774
213.626,761
213.651,742
213.676,708
213.701,654
213.726,596
213.751,543
213.776,479
213.801,372
213.826,221
213.851,79
213.876,19
213.901,70
213.926,184
213.951,276
213.976,292
214.001,237
214.026,151
214.051,63
214.076,-24
214.101,-111
214.126,-183
214.151,-231
214.176,-264
214.201,-304
214.226,-358
214.251,-402
214.276,-415
214.301,-403
214.326,-393
214.351,-403
214.376,-414
214.401,-400
214.426,-365
214.451,-343
214.476,-353
214.501,-364
214.526,-316
214.551,-183
214.576,0
214.601,170
214.626,291
214.651,371
214.676,437
214.701,489
214.726,513
214.751,502
214.776,480
214.801,474
214.826,486
214.851,496
214.876,489
214.901,466
214.926,438
214.951,402
214.976,350
215.001,289
215.026,237
215.051,197
215.076,146
215.101,62
215.126,-36
215.151,-86
215.176,-34
215.201,108
215.226,276
215.251,401
215.276,470
215.301,508
215.326,539
215.351,551
215.376,529
215.401,482
215.426,440
215.451,423
215.476,417
215.501,399
215.526,360
215.551,310
215.576,257
215.601,198
215.626,131
215.651,66
215.676,14
215.701,-33
215.726,-100
215.751,-185
215.776,-244
215.801,-219
215.826,-97
215.851,73
215.876,223
215.901,324
215.926,397
215.951,470
215.976,533
216.001,557
216.026,532
216.051,490
216.076,467
216.101,465
216.126,456
216.151,418
216.176,357
216.201,289
216.226,222
216.251,147
216.276,65
216.301,-14
216.326,-91
216.351,-178
216.376,-283
216.401,-372
216.426,-381
216.451,-273
216.476,-78
216.501,121
216.526,262
216.551,341
216.576,395
216.601,442
216.626,469
216.651,456
216.676,414
216.701,376
216.726,361
216.751,355
216.776,336
216.801,299
216.826,255
216.851,206
216.876,146
216.901,74
216.926,6
216.951,-42
216.976,-82
217.001,-145
217.026,-234
217.051,-304
217.076,-288
217.101,-164
217.126,24
217.151,198
217.176,311
217.201,368
217.226,399
217.251,418
217.276,422
217.301,409
217.326,392
217.351,389
217.376,396
217.401,399
217.426,383
217.451,348
217.476,299
217.501,241
217.526,179
217.551,120
217.576,67
217.601,7
217.626,-73
217.651,-162
217.676,-214
217.701,-178
217.726,-46
217.751,133
217.776,297
217.801,409
217.826,474
217.851,513
217.876,529
217.901,515
217.926,478
217.951,439
217.976,416
218.001,401
218.026,374
218.051,325
218.076,268
218.101,216
218.126,168
218.151,112
218.176,46
218.201,-22
218.226,-92
218.251,-172
218.276,-260
218.301,-324
218.326,-314
218.351,-208
218.376,-42
218.401,113
218.426,216
218.451,274
218.476,321
218.501,373
218.526,418
218.551,436
218.576,432
218.601,428
218.626,429
218.651,423
218.676,396
218.701,355
218.726,313
218.751,277
218.776,235
218.801,185
218.826,136
218.851,96
218.876,49
218.901,-28
218.926,-135
218.951,-220
218.976,-220
219.001,-118
219.026,40
219.051,187
219.076,288
219.101,358
219.126,420
219.151,479
219.176,516
219.201,526
219.226,521
219.251,517
219.276,510
219.301,484
219.326,433
219.351,366
219.376,291
219.401,203
219.426,97
219.451,-12
219.476,-100
219.501,-158
219.526,-215
219.551,-306
219.576,-421
219.601,-499
219.626,-470
219.651,-318
219.676,-94
219.701,129
219.726,308
219.751,437
219.776,526
219.801,576
219.826,585
219.851,564
219.876,532
219.901,507
219.926,486
219.951,455
219.976,401
220.001,326
220.026,238
220.051,146
220.076,58
220.101,-24
220.126,-111
220.151,-213
220.176,-328
220.201,-418
220.226,-428
220.251,-319
220.276,-103
220.301,156
220.326,391
220.351,565
220.376,684
220.401,762
220.426,803
220.451,803
220.476,768
220.501,717
220.526,666
220.551,610
220.576,529
220.601,412
220.626,271
220.651,132
220.676,11
220.701,-104
220.726,-237
220.751,-392
220.776,-537
220.801,-614
220.826,-576
220.851,-420
220.876,-198
220.901,18
220.926,177
220.951,272
220.976,325
221.001,360
221.026,384
221.051,399
221.076,418
221.101,455
221.126,504
221.151,530
221.176,493
221.201,390
221.226,268
221.251,182
221.276,142
221.301,106
221.326,22
221.351,-108
221.376,-226
221.401,-251
221.426,-152
221.451,37
221.476,245
221.501,410
221.526,513
221.551,572
221.576,613
221.601,646
221.626,660
221.651,641
221.676,585
221.701,502
221.726,412
221.751,318
221.776,216
221.801,103
221.826,0
221.851,-70
221.876,-107
221.901,-144
221.926,-224
221.951,-347
221.976,-460
222.001,-488
222.026,-395
222.051,-211
222.076,-4
222.101,173
222.126,309
222.151,411
222.176,481
222.201,511
222.226,500
222.251,465
222.276,433
222.301,418
222.326,417
222.351,409
222.376,379
222.401,321
222.426,242
222.451,157
222.476,83
222.501,21
222.526,-43
222.551,-130
222.576,-237
222.601,-320
222.626,-319
222.651,-205
222.676,-4
222.701,212
222.726,384
222.751,488
222.776,542
222.801,570
222.826,575
222.851,551
222.876,503
222.901,451
222.926,412
222.951,384
222.976,338
223.001,254
223.026,144
223.051,48
223.076,3
223.101,3
223.126,4
223.151,-45
223.176,-153
223.201,-267
223.226,-312
223.251,-241
223.276,-72
223.301,129
223.326,298
223.351,401
223.376,445
223.401,453
223.426,441
223.451,417
223.476,389
223.501,370
223.526,370
223.551,384
223.576,390
223.601,364
223.626,302
223.651,224
223.676,154
223.701,99
223.726,37
223.751,-52
223.776,-164
223.801,-255
223.826,-273
223.851,-194
223.876,-44
223.901,125
223.926,269
223.951,372
223.976,438
224.001,477
224.026,492
224.051,480
224.076,448
224.101,408
224.126,374
224.151,349
224.176,323
224.201,275
224.226,193
224.251,83
224.276,-27
224.301,-113
224.326,-173
224.351,-229
224.376,-304
224.401,-379
224.426,-397
224.451,-308
224.476,-114
224.501,125
224.526,336
224.551,483
224.576,576
224.601,637
224.626,676
224.651,680
224.676,644
224.701,584
224.726,526
224.751,486
224.776,462
224.801,440
224.826,405
224.851,350
224.876,276
224.901,193
224.926,108
224.951,12
224.976,-109
225.001,-260
225.026,-404
225.051,-471
225.076,-410
225.101,-233
225.126,-10
225.151,178
225.176,298
225.201,362
225.226,398
225.251,418
225.276,418
225.301,400
225.326,379
225.351,370
225.376,370
225.401,363
225.426,335
225.451,285
225.476,224
225.501,160
225.526,97
225.551,36
225.576,-31
225.601,-119
225.626,-229
225.651,-333
225.676,-372
225.701,-295
225.726,-105
225.751,131
225.776,334
225.801,458
225.826,518
225.851,551
225.876,576
225.901,584
225.926,563
225.951,523
225.976,487
226.001,465
226.026,438
226.051,382
226.076,291
226.101,186
226.126,94
226.151,23
226.176,-48
226.201,-146
226.226,-266
226.251,-366
226.276,-385
226.301,-286
226.326,-87
226.351,142
226.376,329
226.401,434
226.426,467
226.451,465
226.476,453
226.501,436
226.526,411
226.551,383
226.576,363
226.601,354
226.626,341
226.651,304
226.676,240
226.701,168
226.726,109
226.751,60
226.776,-6
226.801,-117
226.826,-257
226.851,-366
226.876,-371
226.901,-242
226.926,-15
226.951,225
226.976,405
227.001,500
227.026,530
227.051,532
227.076,520
227.101,493
227.126,447
227.151,400
227.176,371
227.201,359
227.226,341
227.251,292
227.276,213
227.301,133
227.326,78
227.351,43
227.376,-7
227.401,-100
227.426,-215
227.451,-287
227.476,-249
227.501,-88
227.526,140
227.551,351
227.576,481
227.601,525
227.626,527
227.651,528
227.676,534
227.701,525
227.726,482
227.751,416
227.776,355
227.801,318
227.826,295
227.851,259
227.876,197
227.901,122
227.926,50
227.951,-25
227.976,-124
228.001,-256
228.026,-381
228.051,-435
228.076,-365
228.101,-181
228.126,49
228.151,249
228.176,375
228.201,433
228.226,454
228.251,462
228.276,457
228.301,430
228.326,387
228.351,344
228.376,317
228.401,304
228.426,281
228.451,230
228.476,153
228.501,73
228.526,11
228.551,-43
228.576,-121
228.601,-233
228.626,-345
228.651,-386
228.676,-301
228.701,-100
228.726,145
228.751,353
228.776,480
228.801,534
228.826,551
228.851,550
228.876,532
228.901,495
228.926,451
228.951,422
228.976,414
229.001,413
229.026,393
229.051,340
229.076,265
229.101,190
229.126,130
229.151,78
229.176,10
229.201,-84
229.226,-188
229.251,-250
229.276,-217
229.301,-76
229.326,127
229.351,318
229.376,436
229.401,474
229.426,465
229.451,443
229.476,422
229.501,395
229.526,361
229.551,331
229.576,317
229.601,309
229.626,284
229.651,226
229.676,152
229.701,89
229.726,45
229.751,-1
229.776,-81
229.801,-189
229.826,-271
229.851,-261
229.876,-132
229.901,77
229.926,289
229.951,438
229.976,503
230.001,509
230.026,487
230.051,458
230.076,423
230.101,385
230.126,355
230.151,336
230.176,320
230.201,284
230.226,218
230.251,138
230.276,70
230.301,24
230.326,-22
230.351,-103
230.376,-216
230.401,-309
230.426,-306
230.451,-176
230.476,39
230.501,258
230.526,408
230.551,479
230.576,503
230.601,511
230.626,505
230.651,473
230.676,418
230.701,363
230.726,328
230.751,307
230.776,270
230.801,201
230.826,118
230.851,52
230.876,14
230.901,-25
230.926,-106
230.951,-226
230.976,-328
231.001,-336
231.026,-214
231.051,2
231.076,231
231.101,400
231.126,486
231.151,516
231.176,522
231.201,514
231.226,486
231.251,438
231.276,387
231.301,356
231.326,343
231.351,319
231.376,258
231.401,166
231.426,81
231.451,28
231.476,-5
231.501,-62
231.526,-168
231.551,-289
231.576,-352
231.601,-294
231.626,-122
231.651,98
231.676,288
231.701,407
231.726,464
231.751,488
231.776,497
231.801,487
231.826,451
231.851,402
231.876,363
231.901,349
231.926,347
231.951,327
231.976,271
232.001,192
232.026,119
232.051,67
232.076,19
232.101,-58
232.126,-172
232.151,-283
232.176,-324
232.201,-253
232.226,-83
232.251,126
232.276,312
232.301,438
232.326,506
232.351,534
232.376,536
232.401,522
232.426,496
232.451,463
232.476,432
232.501,405
232.526,376
232.551,331
232.576,261
232.601,175
232.626,96
232.651,41
232.676,0
232.701,-60
232.726,-161
232.751,-275
232.776,-338
232.801,-292
232.826,-135
232.851,73
232.876,265
232.901,398
232.926,472
232.951,503
232.976,503
233.001,484
233.026,457
233.051,439
233.076,431
233.101,425
233.126,406
233.151,370
233.176,318
233.201,252
233.226,178
233.251,104
233.276,41
233.301,-20
233.326,-102
233.351,-216
233.376,-330
233.401,-373
233.426,-292
233.451,-96
233.476,138
233.501,326
233.526,428
233.551,460
233.576,457
233.601,441
233.626,418
233.651,392
233.676,372
233.701,363
233.726,358
233.751,342
233.776,306
233.801,251
233.826,185
233.851,119
233.876,64
233.901,20
233.926,-27
233.951,-99
233.976,-192
234.001,-262
234.026,-249
234.051,-128
234.076,65
234.101,258
234.126,394
234.151,468
234.176,501
234.201,510
234.226,494
234.251,455
234.276,412
234.301,384
234.326,373
234.351,358
234.376,325
234.401,277
234.426,226
234.451,173
234.476,111
234.501,42
234.526,-22
234.551,-82
234.576,-155
234.601,-254
234.626,-345
234.651,-363
234.676,-262
234.701,-66
234.726,138
234.751,284
234.776,364
234.801,420
234.826,474
234.851,508
234.876,496
234.901,444
234.926,393
234.951,371
234.976,366
235.001,347
235.026,307
235.051,262
235.076,227
235.101,193
235.126,141
235.151,73
235.176,9
235.201,-49
235.226,-125
235.251,-225
235.276,-310
235.301,-305
235.326,-174
235.351,35
235.376,230
235.401,349
235.426,409
235.451,463
235.476,525
235.501,558
235.526,531
235.551,466
235.576,430
235.601,458
235.626,520
235.651,555
235.676,531
235.701,471
235.726,405
235.751,335
235.776,243
235.801,130
235.826,28
235.851,-41
235.876,-105
235.901,-205
235.926,-345
235.951,-459
235.976,-467
236.001,-342
236.026,-134
236.051,75
236.076,244
236.101,377
236.126,482
236.151,549
236.176,561
236.201,527
236.226,483
236.251,462
236.276,460
236.301,448
236.326,408
236.351,346
236.376,279
236.401,221
236.426,169
236.451,121
236.476,72
236.501,5
236.526,-99
236.551,-236
236.576,-354
236.601,-381
236.626,-279
236.651,-83
236.676,124
236.701,275
236.726,354
236.751,386
236.776,398
236.801,395
236.826,373
236.851,341
236.876,320
236.901,323
236.926,339
236.951,345
236.976,327
237.001,286
237.026,237
237.051,192
237.076,150
237.101,95
237.126,9
237.151,-101
237.176,-193
237.201,-206
237.226,-103
237.251,89
237.276,292
237.301,432
237.326,493
237.351,515
237.376,534
237.401,548
237.426,528
237.451,468
237.476,401
237.501,366
237.526,356
237.551,329
237.576,251
237.601,147
237.626,74
237.651,54
237.676,40
237.701,-42
237.726,-216
237.751,-414
237.776,-525
237.801,-476
237.826,-288
237.851,-46
237.876,162
237.901,302
237.926,386
237.951,439
237.976,467
238.001,452
238.026,385
238.051,284
238.076,198
238.101,162
238.126,169
238.151,177
238.176,152
238.201,107
238.226,88
238.251,117
238.276,159
238.301,153
238.326,81
238.351,8
238.376,31
238.401,193
238.426,442
238.451,675
238.476,821
238.501,885
238.526,910
238.551,922
238.576,909
238.601,847
238.626,745
238.651,634
238.676,543
238.701,472
238.726,397
238.751,300
238.776,176
238.801,40
238.826,-88
238.851,-204
238.876,-320
238.901,-457
238.926,-620
238.951,-769
238.976,-831
239.001,-748
239.026,-533
239.051,-271
239.076,-54
239.101,82
239.126,168
239.151,243
239.176,307
239.201,322
239.226,273
239.251,190
239.276,127
239.301,103
239.326,89
239.351,52
239.376,1
239.401,-23
239.426,0
239.451,44
239.476,48
239.501,-19
239.526,-125
239.551,-200
239.576,-187
239.601,-81
239.626,69
239.651,209
239.676,312
239.701,389
239.726,460
239.751,526
239.776,553
239.801,508
239.826,406
239.851,319
239.876,330
239.901,463
239.926,660
239.951,825
239.976,890
240.001,848
240.026,727
240.051,544
240.076,308
240.101,52
240.126,-153
240.151,-243
240.176,-203
240.201,-95
240.226,1
240.251,46
240.276,51
240.301,46
240.326,37
240.351,6
240.376,-54
240.401,-120
240.426,-157
240.451,-158
240.476,-150
240.501,-162
240.526,-193
240.551,-213
240.576,-195
240.601,-151
240.626,-124
240.651,-151
240.676,-225
240.701,-291
240.726,-280
240.751,-154
240.776,71
240.801,337
240.826,574
240.851,740
240.876,837
240.901,904
240.926,979
240.951,1073
240.976,1168
241.001,1240
241.026,1283
241.051,1315
241.076,1349
241.101,1379
241.126,1393
241.151,1399
241.176,1432
241.201,1522
241.226,1649
241.251,1735
241.276,1696
241.301,1502
241.326,1190
241.351,821
241.376,428
241.401,11
241.426,-422
241.451,-838
241.476,-1179
241.501,-1411
241.526,-1534
241.551,-1565
241.576,-1525
241.601,-1436
241.626,-1335
241.651,-1249
241.676,-1174
241.701,-1076
241.726,-943
241.751,-818
241.776,-769
241.801,-804
241.826,-831
241.851,-725
241.876,-451
241.901,-117
241.926,115
241.951,175
241.976,141
242.001,150
242.026,268
242.051,444
242.076,580
242.101,629
242.126,623
242.151,609
242.176,598
242.201,567
242.226,507
242.251,441
242.276,391
242.301,350
242.326,280
242.351,166
242.376,44
242.401,-19
242.426,23
242.451,163
242.476,345
242.501,504
242.526,605
242.551,650
242.576,662
242.601,661
242.626,650
242.651,633
242.676,614
242.701,601
242.726,577
242.751,508
242.776,364
242.801,154
242.826,-70
242.851,-265
242.876,-424
242.901,-564
242.926,-677
242.951,-696
242.976,-553
243.001,-258
243.026,77
243.051,331
243.076,466
243.101,555
243.126,675
243.151,800
243.176,816
243.201,644
243.226,346
243.251,102
243.276,59
243.301,214
243.326,424
243.351,534
243.376,482
243.401,310
243.426,103
243.451,-66
243.476,-143
243.501,-84
243.526,129
243.551,456
243.576,799
243.601,1060
243.626,1199
243.651,1245
243.676,1254
243.701,1253
243.726,1230
243.751,1166
243.776,1059
243.801,912
243.826,723
243.851,489
243.876,239
243.901,31
243.926,-85
243.951,-131
243.976,-200
244.001,-375
244.026,-637
244.051,-857
244.076,-889
244.101,-702
244.126,-404
244.151,-155
244.176,-47
244.201,-51
244.226,-87
244.251,-106
244.276,-118
244.301,-146
244.326,-188
244.351,-214
244.376,-213
244.401,-200
244.426,-193
244.451,-185
244.476,-155
244.501,-108
244.526,-84
244.551,-110
244.576,-159
244.601,-160
244.626,-61
244.651,113
244.676,284
244.701,378
244.726,387
244.751,358
244.776,337
244.801,340
244.826,360
244.851,391
244.876,428
244.901,460
244.926,467
244.951,444
244.976,415
245.001,410
245.026,422
245.051,411
245.076,341
245.101,232
245.126,157
245.151,172
245.176,264
245.201,369
245.226,432
245.251,462
245.276,493
245.301,523
245.326,490
245.351,333
245.376,77
245.401,-147
245.426,-192
245.451,-4
245.476,325
245.501,613
245.526,702
245.551,548
245.576,238
245.601,-62
245.626,-196
245.651,-84
245.676,236
245.701,631
245.726,940
245.751,1060
245.776,993
245.801,828
245.826,676
245.851,601
245.876,597
245.901,610
245.926,586
245.951,506
245.976,389
246.001,265
246.026,147
246.051,22
246.076,-132
246.101,-316
246.126,-494
246.151,-616
246.176,-651
246.201,-604
246.226,-512
246.251,-418
246.276,-355
246.301,-340
246.326,-367
246.351,-409
246.376,-438
246.401,-447
246.426,-464
246.451,-528
246.476,-647
246.501,-787
246.526,-900
246.551,-969
246.576,-998
246.601,-974
246.626,-839
246.651,-529
246.676,-53
246.701,482
246.726,937
246.751,1234
246.776,1394
246.801,1478
246.826,1514
246.851,1483
246.876,1380
246.901,1245
246.926,1140
246.951,1083
246.976,1038
247.001,960
247.026,853
247.051,754
247.076,682
247.101,611
247.126,511
247.151,401
247.176,342
247.201,384
247.226,505
247.251,636
247.276,721
247.301,756
247.326,760
247.351,741
247.376,688
247.401,600
247.426,502
247.451,420
247.476,356
247.501,286
247.526,201
247.551,120
247.576,53
247.601,-23
247.626,-159
247.651,-371
247.676,-605
247.701,-774
247.726,-830
247.751,-798
247.776,-741
247.801,-700
247.826,-671
247.851,-643
247.876,-633
247.901,-673
247.926,-762
247.951,-852
247.976,-888
248.001,-860
248.026,-810
248.051,-783
248.076,-777
248.101,-749
248.126,-664
248.151,-532
248.176,-393
248.201,-267
248.226,-130
248.251,67
248.276,347
248.301,677
248.326,996
248.351,1260
248.376,1465
248.401,1629
248.426,1753
248.451,1807
248.476,1767
248.501,1643
248.526,1492
248.551,1374
248.576,1306
248.601,1253
248.626,1165
248.651,1019
248.676,826
248.701,614
248.726,407
248.751,231
248.776,117
248.801,91
248.826,143
248.851,217
248.876,251
248.901,222
248.926,162
248.951,121
248.976,118
249.001,123
249.026,86
249.051,-28
249.076,-231
249.101,-501
249.126,-786
249.151,-1000
249.176,-1058
249.201,-941
249.226,-718
249.251,-511
249.276,-393
249.301,-338
249.326,-267
249.351,-132
249.376,38
249.401,188
249.426,306
249.451,430
249.476,584
249.501,719
249.526,743
249.551,622
249.576,430
249.601,289
249.626,252
249.651,258
249.676,200
249.701,46
249.726,-124
249.751,-200
249.776,-150
249.801,-60
249.826,-43
249.851,-137
249.876,-263
249.901,-304
249.926,-204
249.951,-1
249.976,217
250.001,391
250.026,503
250.051,558
250.076,550
250.101,478
250.126,369
250.151,276
250.176,239
250.201,245
250.226,243
250.251,195
250.276,116
250.301,52
250.326,24
250.351,11
250.376,-19
250.401,-58
250.426,-55
250.451,31
250.476,189
250.501,362
250.526,500
250.551,594
250.576,662
250.601,710
250.626,721
250.651,684
250.676,618
250.701,558
250.726,518
250.751,474
250.776,394
250.801,272
250.826,140
250.851,31
250.876,-44
250.901,-108
250.926,-168
250.951,-209
250.976,-197
251.001,-119
251.026,6
251.051,146
251.076,269
251.101,363
251.126,423
251.151,446
251.176,435
251.201,402
251.226,370
251.251,348
251.276,331
251.301,299
251.326,244
251.351,178
251.376,127
251.401,100
251.426,79
251.451,34
251.476,-43
251.501,-120
251.526,-141
251.551,-73
251.576,62
251.601,203
251.626,300
251.651,347
251.676,371
251.701,386
251.726,384
251.751,345
251.776,279
251.801,220
251.826,189
251.851,170
251.876,135
251.901,85
251.926,63
251.951,100
251.976,161
252.001,169
252.026,82
252.051,-46
252.076,-110
252.101,-45
252.126,105
252.151,253
252.176,352
252.201,432
252.226,528
252.251,609
252.276,591
252.301,438
252.326,226
252.351,82
252.376,71
252.401,142
252.426,192
252.451,166
252.476,79
252.501,-42
252.526,-210
252.551,-435
252.576,-666
252.601,-793
252.626,-744
252.651,-567
252.676,-395
252.701,-324
252.726,-327
252.751,-307
252.776,-205
252.801,-57
252.826,62
252.851,124
252.876,158
252.901,193
252.926,215
252.951,188
252.976,115
253.001,36
253.026,-18
253.051,-62
253.076,-113
253.101,-142
253.126,-69
253.151,160
253.176,508
253.201,862
253.226,1122
253.251,1265
253.276,1335
253.301,1376
253.326,1394
253.351,1377
253.376,1323
253.401,1246
253.426,1152
253.451,1046
253.476,944
253.501,875
253.526,850
253.551,828
253.576,734
253.601,528
253.626,259
253.651,33
253.676,-64
253.701,-38
253.726,36
253.751,82
253.776,65
253.801,-7
253.826,-124
253.851,-272
253.876,-433
253.901,-568
253.926,-645
253.951,-669
253.976,-680
254.001,-711
254.026,-748
254.051,-744
254.076,-668
254.101,-550
254.126,-465
254.151,-466
254.176,-525
254.201,-555
254.226,-477
254.251,-290
254.276,-59
254.301,138
254.326,273
254.351,361
254.376,434
254.401,499
254.426,551
254.451,586
254.476,605
254.501,602
254.526,563
254.551,491
254.576,425
254.601,411
254.626,451
254.651,487
254.676,451
254.701,346
254.726,256
254.751,274
254.776,419
254.801,618
254.826,781
254.851,870
254.876,908
254.901,922
254.926,910
254.951,859
254.976,786
255.001,728
255.026,700
255.051,667
255.076,587
255.101,458
255.126,326
255.151,224
255.176,136
255.201,16
255.226,-141
255.251,-281
255.276,-336
255.301,-300
255.326,-228
255.351,-181
255.376,-173
255.401,-175
255.426,-171
255.451,-178
255.476,-218
255.501,-281
255.526,-325
255.551,-332
255.576,-323
255.601,-338
255.626,-384
255.651,-437
255.676,-474
255.701,-508
255.726,-567
255.751,-639
255.776,-664
255.801,-577
255.826,-371
255.851,-105
255.876,143
255.901,334
255.926,466
255.951,553
255.976,594
256.001,590
256.026,562
256.051,540
256.076,536
256.101,524
256.126,474
256.151,385
256.176,287
256.201,202
256.226,116
256.251,3
256.276,-127
256.301,-206
256.326,-161
256.351,18
256.376,268
256.401,499
256.426,667
256.451,786
256.476,876
256.501,933
256.526,932
256.551,873
256.576,789
256.601,710
256.626,629
256.651,515
256.676,361
256.701,208
256.726,97
256.751,25
256.776,-56
256.801,-183
256.826,-327
256.851,-411
256.876,-380
256.901,-248
256.926,-74
256.951,92
256.976,239
257.001,363
257.026,445
257.051,459
257.076,412
257.101,347
257.126,319
257.151,343
257.176,392
257.201,425
257.226,420
257.251,382
257.276,321
257.301,247
257.326,162
257.351,70
257.376,-30
257.401,-143
257.426,-259
257.451,-340
257.476,-339
257.501,-235
257.526,-63
257.551,107
257.576,228
257.601,297
257.626,342
257.651,378
257.676,391
257.701,365
257.726,312
257.751,266
257.776,246
257.801,235
257.826,201
257.851,136
257.876,65
257.901,15
257.926,-19
257.951,-71
257.976,-157
258.001,-248
258.026,-287
258.051,-233
258.076,-99
258.101,65
258.126,209
258.151,317
258.176,394
258.201,449
258.226,473
258.251,458
258.276,409
258.301,353
258.326,317
258.351,304
258.376,294
258.401,265
258.426,218
258.451,170
258.476,129
258.501,76
258.526,-17
258.551,-162
258.576,-321
258.601,-433
258.626,-458
