df_hash,22ZHK4.25F3JF
device,HZ2X61
project_hash,29R7
project_name,istanbul_aydin_university
person_hash,29R7.7JT9
person_label,V145
date_time_start,2026-06-08_16-35-56.969000_+03
date_time_start_unix,1780918556.969
date_time_end,2026-06-08_16-48-43.335000_+03
length_difference_noticed,no

time,ppg_ir,ppg_ambient,ppg_red
4.828,29964,208,24068
4.833,29826,216,23880
4.838,29578,212,23535
4.843,29237,215,23125
4.848,28902,208,22700
4.853,28598,219,22361
4.858,28412,210,22134
4.863,28293,216,21995
4.868,28210,207,21905
4.873,28186,221,21919
4.878,28193,211,21896
4.883,28234,219,21938
4.888,28292,210,22010
4.893,28384,221,22129
4.897,28490,213,22265
4.902,28576,218,22352
4.907,28598,212,22368
4.912,28546,220,22292
4.917,28424,215,22147
4.922,28349,218,22009
4.927,28229,214,21934
4.932,28157,219,21859
4.937,28142,216,21869
4.942,28278,214,22078
4.947,28634,212,22533
4.952,29306,215,23334
4.957,30226,213,24329
4.962,31487,207,25673
4.967,34322,203,28616
4.972,37178,209,32264
4.977,39072,207,34895
4.982,40254,202,36960
4.987,41225,199,38687
4.992,41527,201,39358
4.997,41596,200,39737
5.002,41586,198,39907
5.007,41434,194,39813
5.012,41186,199,39584
5.017,40928,196,39293
5.022,40708,198,39030
5.027,40509,193,38809
5.032,40379,199,38699
5.037,40280,195,38641
5.041,40241,202,38677
5.046,40308,196,38853
5.051,40479,202,39145
5.056,40765,197,39563
5.061,41203,201,40144
5.066,41838,194,40949
5.071,42698,201,42008
5.076,43809,198,43256
5.081,45121,200,44794
5.086,46614,195,46558
5.091,48289,202,48553
5.096,50122,199,50739
5.101,52040,200,53040
5.106,53995,196,55439
5.111,55976,200,57916
5.116,57994,198,60307
5.121,59935,193,62828
5.126,62066,190,65340
5.131,64309,193,67898
5.136,66643,193,70440
5.141,69055,195,72894
5.146,71462,193,75212
5.151,73844,194,77159
5.156,75930,195,79081
5.161,78051,192,80775
5.166,79906,184,82194
5.171,81376,189,83423
5.176,82462,191,84497
5.181,83220,189,85312
5.185,83666,187,85821
5.190,83924,190,86113
5.195,84071,191,86330
5.200,84156,191,86590
5.205,84139,189,86984
5.210,83938,192,87491
5.215,83583,190,88121
5.220,83110,193,88748
5.225,82766,188,89398
5.230,82750,194,90252
5.235,83192,192,91169
5.240,84166,193,92912
5.245,85693,188,95258
5.250,87726,187,98251
5.255,90270,183,101826
5.260,92919,183,105841
5.265,96208,178,110149
5.270,99745,179,114358
5.275,103406,176,118763
5.280,107052,174,122905
5.285,110273,170,126480
5.290,113406,170,129802
5.295,115952,171,132624
5.300,117801,170,135015
5.305,118892,169,136900
5.310,119189,171,138223
5.315,118814,170,138936
5.320,117776,169,138995
5.325,116221,169,138382
5.329,114313,171,137166
5.334,112181,173,135613
5.339,110074,172,133996
5.344,108267,172,132727
5.349,106992,173,132036
5.354,106410,174,132110
5.359,106649,173,133079
5.364,107469,169,134557
5.369,108512,170,136168
5.374,109600,171,137718
5.379,110655,170,139196
5.384,111688,169,140623
5.389,112712,169,141905
5.394,113699,170,143244
5.399,114599,170,144448
5.404,115411,168,145453
5.409,116018,169,146162
5.414,116436,169,146562
5.419,116717,169,146692
5.424,116904,168,146704
5.429,117044,169,146676
5.434,117154,169,146619
5.439,117245,170,146514
5.444,117314,168,146428
5.449,117449,170,146453
5.454,117677,171,146628
5.459,118105,169,147077
5.464,118866,168,147853
5.469,120742,168,149268
5.473,123206,168,150956
5.478,125782,168,152725
5.483,128930,168,154314
5.488,131555,168,155745
5.493,133645,168,157045
5.498,135532,168,158437
5.503,137083,168,159638
5.508,138302,168,160615
5.513,139125,168,161356
5.518,139617,168,161870
5.523,139825,168,162173
5.528,140046,168,162302
5.533,140196,168,162291
5.538,140306,168,162145
5.543,140435,168,161942
5.548,140559,168,161724
5.553,140762,168,161532
5.558,141106,168,161488
5.563,141589,168,161615
5.568,142280,168,161935
5.573,143166,168,162480
5.578,144222,168,163165
5.583,145268,168,163977
5.588,146205,168,164863
5.593,147102,168,165853
5.598,147932,168,166843
5.603,148614,168,167753
5.608,149120,168,168573
5.613,149560,168,169341
5.618,150045,168,170061
5.622,150587,168,170741
5.627,151093,168,171387
5.632,151602,168,172055
5.637,152123,168,172642
5.642,152712,168,173475
5.647,153388,168,174465
5.652,154197,168,175656
5.657,155247,168,177174
5.662,156562,168,179198
5.667,158192,168,181882
5.672,160405,168,185268
5.677,163107,168,189515
5.682,166083,168,194488
5.687,169268,168,200032
5.692,172660,168,205400
5.697,175563,168,209940
5.702,177884,168,212975
5.707,179281,168,214532
5.712,180032,168,214949
5.717,180265,168,214691
5.722,180171,168,214082
5.727,179797,168,213206
5.732,179259,168,212259
5.737,178671,168,211272
5.742,178160,168,210416
5.747,177827,168,209776
5.752,177735,168,209351
5.757,177912,168,209163
5.762,178399,168,209263
5.766,179211,168,209659
5.771,180385,168,210436
5.776,181856,168,211556
5.781,183641,168,213079
5.786,185760,168,214940
5.791,188068,168,217098
5.796,190361,168,219338
5.801,192430,168,221104
5.806,193799,168,222134
5.811,194646,168,222651
5.816,194915,168,222499
5.821,194888,168,222036
5.826,194659,168,221470
5.831,194340,168,220867
5.836,194121,168,220290
5.841,194063,168,219822
5.846,194155,168,219530
5.851,194280,168,219295
5.856,194511,168,219317
5.861,194900,168,219456
5.866,195464,168,219759
5.871,196203,168,220363
5.876,197163,168,221264
5.881,198285,168,222494
5.886,199544,168,224059
5.891,201029,168,226035
5.896,202753,168,228412
5.901,204673,168,230996
5.906,206659,168,233789
5.910,208643,168,236460
5.915,210427,168,238676
5.920,211947,168,240315
5.925,213073,168,241949
5.930,214043,168,243139
5.935,214984,168,244283
5.940,215910,168,245452
5.945,216907,168,246583
5.950,217829,168,247664
5.955,218776,168,248733
5.960,219704,168,249899
5.965,220862,168,251326
5.970,222349,168,253063
5.975,224176,168,255058
5.980,226072,168,257203
5.985,228040,168,259592
5.990,229963,168,262114
5.995,231775,168,264571
6.000,233390,168,266875
6.005,234845,168,269105
6.010,236309,168,271262
6.015,237774,168,273455
6.020,239128,168,275750
6.025,240681,168,277984
6.030,242282,168,280263
6.035,243892,168,282603
6.040,245421,168,284796
6.045,247047,168,287080
6.050,248600,168,289255
6.054,249853,168,290886
6.059,250988,168,292417
6.064,252136,168,293947
6.069,253360,168,295588
6.074,254824,168,297605
6.079,256331,168,299928
6.084,258257,168,302429
6.089,260460,168,305103
6.094,262639,168,307695
6.099,264577,168,309938
6.104,266334,168,311971
6.109,267732,168,313633
6.114,269045,168,315140
6.119,270278,168,316652
6.124,271866,168,318741
6.129,273111,168,320186
6.134,274387,168,321391
6.139,275571,168,322594
6.144,276825,168,323873
6.149,278055,168,325000
6.154,279301,168,326159
6.159,280402,168,327292
6.164,281801,168,328474
6.169,283200,168,329543
6.174,284678,168,330449
6.179,286080,168,331099
6.184,287309,168,331234
6.189,288528,168,330981
6.194,289191,168,329805
6.198,289406,168,327830
6.203,289468,168,325701
6.208,288905,168,322938
6.213,288005,168,319749
6.218,286949,168,316675
6.223,285836,168,313461
6.228,284417,168,309922
6.233,282881,168,306192
6.238,281204,168,302634
6.243,279398,168,298973
6.248,277498,168,295255
6.253,275801,168,292050
6.258,274255,168,289407
6.263,273090,168,287279
6.268,272101,168,285655
6.273,271246,168,284225
6.278,270626,168,283289
6.283,270125,168,282604
6.288,269811,168,282124
6.293,269602,168,281928
6.298,269413,168,281751
6.303,269265,168,281538
6.308,268990,168,281284
6.313,268817,168,281027
6.318,268627,168,280784
6.323,268387,168,280295
6.328,268107,168,279907
6.333,267899,168,279548
6.338,267591,168,278991
6.342,267131,168,278118
6.347,266607,168,277221
6.352,266074,168,276273
6.357,265331,168,275048
6.362,264582,168,273780
6.367,263877,168,272405
6.372,263263,168,271690
6.377,263098,168,271102
6.382,263130,168,271069
6.387,263396,168,271493
6.392,263875,168,272248
6.397,264563,168,273503
6.402,265494,168,275277
6.407,266473,168,277179
6.412,267912,168,279527
6.417,269712,168,282186
6.422,271430,168,284669
6.427,272851,168,286821
6.432,273973,168,288712
6.437,275188,168,290926
6.442,276544,168,293518
6.447,277400,168,295064
6.452,277813,168,296412
6.457,277894,168,297130
6.462,277703,168,297522
6.467,277896,168,298615
6.472,278151,168,299690
6.477,278339,168,300592
6.482,278602,168,301454
6.486,278918,168,302255
6.491,279148,168,302800
6.496,279216,168,303187
6.501,279233,168,303547
6.506,279115,168,303629
6.511,278853,168,303642
6.516,278339,168,303370
6.521,277559,168,302721
6.526,276620,168,301825
6.531,275561,168,300812
6.536,274557,168,299939
6.541,273577,168,298936
6.546,272379,168,297616
6.551,271236,168,296376
6.556,270276,168,295364
6.561,269432,168,294498
6.566,268791,168,293921
6.571,268320,168,293600
6.576,268031,168,293444
6.581,267895,168,293625
6.586,267960,168,294023
6.591,268395,168,295156
6.596,268947,168,296419
6.601,269457,168,297729
6.606,269894,168,298948
6.611,270066,168,299944
6.616,270069,168,300877
6.621,270055,168,301629
6.626,269960,168,302426
6.631,269947,168,303368
6.635,270058,168,304659
6.640,270602,168,306440
6.645,271730,168,308994
6.650,272856,168,311905
6.655,273000,168,313153
6.660,273486,168,315016
6.665,274026,168,316830
6.670,274285,168,317865
6.675,274379,168,318524
6.680,274672,168,319660
6.685,275348,168,320485
6.690,275431,168,322040
6.695,275985,168,323777
6.700,276382,168,324874
6.705,276427,168,325149
6.710,276300,168,325059
6.715,276106,168,324879
6.720,275897,168,324462
6.725,275503,168,323725
6.730,275096,168,322868
6.735,274560,168,321809
6.740,274123,168,320946
6.745,273871,168,320546
6.750,273925,168,320770
6.755,274199,168,321412
6.760,274307,168,321775
6.765,274331,168,321875
6.770,274307,168,321855
6.775,274305,168,321786
6.779,274280,168,321694
6.784,274119,168,321295
6.789,273975,168,320940
6.794,273960,168,320947
6.799,274545,168,321964
6.804,275311,168,323052
6.809,275871,168,323845
6.814,275992,168,323793
6.819,275461,168,322487
6.824,274872,168,321354
6.829,274367,168,320339
6.834,274143,168,319957
6.839,274275,168,320182
6.844,274488,168,320859
6.849,274696,168,321538
6.854,274867,168,322102
6.859,274839,168,322165
6.864,274559,168,321594
6.869,274100,168,320814
6.874,273651,168,320036
6.879,273260,168,319435
6.884,273029,168,319146
6.889,272936,168,319158
6.894,272969,168,319324
6.899,273030,168,319588
6.904,273144,168,319872
6.909,273281,168,320174
6.914,273409,168,320416
6.919,273591,168,320700
6.923,273786,168,321101
6.928,274021,168,321543
6.933,274269,168,322024
6.938,274490,168,322445
6.943,274638,168,322763
6.948,274710,168,322877
6.953,274671,168,322823
6.958,274565,168,322591
6.963,274374,168,322252
6.968,274169,168,321831
6.973,273892,168,321423
6.978,273668,168,321050
6.983,273472,168,320729
6.988,273250,168,320456
6.993,273013,168,319883
6.998,272510,168,318377
7.003,271802,168,316277
7.008,271119,168,314023
7.013,270485,168,312390
7.018,270030,168,311029
7.023,269456,168,309517
7.028,269032,168,308450
7.033,268806,168,307728
7.038,269022,168,307979
7.043,269286,168,308379
7.048,269535,168,308756
7.053,269494,168,308564
7.058,269234,168,307999
7.063,268792,168,307210
7.067,268516,168,306825
7.072,268425,168,306863
7.077,268459,168,307145
7.082,268588,168,307725
7.087,268702,168,308299
7.092,268788,168,308790
7.097,268752,168,309065
7.102,268674,168,309342
7.107,268695,168,309848
7.112,268818,168,310622
7.117,268995,168,311401
7.122,269021,168,311747
7.127,268857,168,311616
7.132,268680,168,311497
7.137,268688,168,311684
7.142,268914,168,312121
7.147,269204,168,312703
7.152,269625,168,313269
7.157,269975,168,313609
7.162,270166,168,313540
7.167,270243,168,313300
7.172,270311,168,313253
7.177,270517,168,313532
7.182,270841,168,313913
7.187,271109,168,314140
7.192,271256,168,314258
7.197,271281,168,314279
7.202,271246,168,314463
7.207,271231,168,314760
7.211,271313,168,315361
7.216,271368,168,316010
7.221,271555,168,316913
7.226,271883,168,318031
7.231,272189,168,319060
7.236,272344,168,319053
7.241,271860,168,317486
7.246,271323,168,316349
7.251,271049,168,316480
7.256,271027,168,316852
7.261,271127,168,317323
7.266,271378,168,318003
7.271,271561,168,318298
7.276,271639,168,318082
7.281,271601,168,317765
7.286,271546,168,317591
7.291,271545,168,317615
7.296,271548,168,317762
7.301,271631,168,318014
7.306,271628,168,318064
7.311,271614,168,318003
7.316,271540,168,317771
7.321,271453,168,317386
7.326,271230,168,316857
7.331,270976,168,316198
7.336,270735,168,315600
7.341,270549,168,315074
7.346,270484,168,314725
7.351,270498,168,314434
7.355,270508,168,314157
7.360,270555,168,313910
7.365,270649,168,313665
7.370,270770,168,313512
7.375,270881,168,313278
7.380,271023,168,313242
7.385,271169,168,313251
7.390,271346,168,313420
7.395,271519,168,313633
7.400,271625,168,314061
7.405,271719,168,314483
7.410,271856,168,314956
7.415,272019,168,315373
7.420,272189,168,315932
7.425,272413,168,316614
7.430,272695,168,317390
7.435,273038,168,318281
7.440,273357,168,319156
7.445,273635,168,319963
7.450,273849,168,320678
7.455,273904,168,321180
7.460,273749,168,321285
7.465,273538,168,321130
7.470,273367,168,320932
7.475,273238,168,320725
7.480,273127,168,320543
7.485,273069,168,320490
7.490,273039,168,320579
7.495,273043,168,320680
7.499,273055,168,320685
7.504,273059,168,320648
7.509,273014,168,320457
7.514,272916,168,320181
7.519,272822,168,319909
7.524,272729,168,319645
7.529,272646,168,319512
7.534,272610,168,319381
7.539,272581,168,319254
7.544,272527,168,319162
7.549,272496,168,319044
7.554,272427,168,318961
7.559,272405,168,318923
7.564,272386,168,318942
7.569,272399,168,319093
7.574,272378,168,319056
7.579,272275,168,318771
7.584,272312,168,318928
7.589,272647,168,319773
7.594,273210,168,320858
7.599,273708,168,321688
7.604,274057,168,322147
7.609,274166,168,322085
7.614,274138,168,321740
7.619,274033,168,321324
7.624,273948,168,321056
7.629,273885,168,320970
7.634,273790,168,320902
7.639,273611,168,320755
7.643,273272,168,320374
7.648,272736,168,319651
7.653,272087,168,318691
7.658,271346,168,317693
7.663,270589,168,316653
7.668,269839,168,315608
7.673,269129,168,314602
7.678,268381,168,313679
7.683,267592,168,312591
7.688,266728,168,311445
7.693,265804,168,310143
7.698,264760,168,308610
7.703,263604,168,306979
7.708,262477,168,305343
7.713,261412,168,304064
7.718,260289,168,302427
7.723,259194,168,301216
7.728,258159,168,299995
7.733,257376,168,299196
7.738,256848,168,298739
7.743,256494,168,298448
7.748,256258,168,298315
7.753,256107,168,298251
7.758,256008,168,298236
7.763,256008,168,298372
7.768,255967,168,298350
7.773,255935,168,298250
7.778,255828,168,298030
7.783,255607,168,297702
7.788,255466,168,297405
7.792,255230,168,297014
7.797,254956,168,296630
7.802,254786,168,296414
7.807,254641,168,296324
7.812,254649,168,296476
7.817,254680,168,296613
7.822,254787,168,296802
7.827,254890,168,297034
7.832,255038,168,297211
7.837,255175,168,297455
7.842,255313,168,297746
7.847,255464,168,297920
7.852,255668,168,298198
7.857,255672,168,298125
7.862,255727,168,298270
7.867,255833,168,298398
7.872,255904,168,298411
7.877,255952,168,298529
7.882,255996,168,298586
7.887,256093,168,298703
7.892,256252,168,298840
7.897,256370,168,298965
7.902,256445,168,299054
7.907,256529,168,299103
7.912,256620,168,299198
7.917,256685,168,299312
7.922,256760,168,299437
7.927,256716,168,299284
7.932,256582,168,299026
7.936,256346,168,298628
7.941,256037,168,298070
7.946,255741,168,297560
7.951,255416,168,296997
7.956,255052,168,296438
7.961,254781,168,296075
7.966,254633,168,295871
7.971,254491,168,295716
7.976,254430,168,295749
7.981,254442,168,295794
7.986,254545,168,296077
7.991,254783,168,296473
7.996,255004,168,296985
8.001,255356,168,297640
8.006,255710,168,298262
8.011,256056,168,298722
8.016,256412,168,299338
8.021,256768,168,300077
8.026,257446,168,301402
8.031,258485,168,303251
8.036,259312,168,304560
8.041,259763,168,305323
8.046,260104,168,305919
8.051,260530,168,306695
8.056,260980,168,307715
8.061,261272,168,308522
8.066,261635,168,309353
8.071,261742,168,309884
8.076,261772,168,310274
8.080,261842,168,310550
8.085,261917,168,310774
8.090,261919,168,310872
8.095,261987,168,310877
8.100,261972,168,310813
8.105,261927,168,310625
8.110,261827,168,310300
8.115,261696,168,309946
8.120,261529,168,309547
8.125,261366,168,309056
8.130,261164,168,308493
8.135,260886,168,307873
8.140,260584,168,307262
8.145,260295,168,306712
8.150,259966,168,306169
8.155,259644,168,305630
8.160,259347,168,305149
8.165,259054,168,304665
8.170,258738,168,304118
8.175,258363,168,303522
8.180,258062,168,302906
8.185,257722,168,302346
8.190,257362,168,301702
8.195,257040,168,301197
8.200,256810,168,300752
8.205,256571,168,300367
8.210,256362,168,300002
8.215,256099,168,299579
8.220,255888,168,299134
8.224,255618,168,298652
8.229,255395,168,298161
8.234,255102,168,297587
8.239,254917,168,297131
8.244,254773,168,296647
8.249,254676,168,296376
8.254,254695,168,296284
8.259,254726,168,296333
8.264,254758,168,296311
8.269,254681,168,296135
8.274,254498,168,295793
8.279,254253,168,295301
8.284,253934,168,294714
8.289,253551,168,294043
8.294,253157,168,293368
8.299,252737,168,292644
8.304,252309,168,291883
8.309,251864,168,291065
8.314,251395,168,290270
8.319,250911,168,289438
8.324,250377,168,288516
8.329,249820,168,287579
8.334,249235,168,286603
8.339,248651,168,285512
8.344,248061,168,284481
8.349,247393,168,283372
8.354,246817,168,282484
8.359,246250,168,281511
8.364,245598,168,280467
8.368,244932,168,279405
8.373,244225,168,278239
8.378,243512,168,277050
8.383,242819,168,275994
8.388,242119,168,274910
8.393,241406,168,273828
8.398,240668,168,272680
8.403,239874,168,271296
8.408,238871,168,269674
8.413,237874,168,268001
8.418,236979,168,266523
8.423,236343,168,265334
8.428,235601,168,264303
8.433,235046,168,263479
8.438,234481,168,262624
8.443,233752,168,261553
8.448,232986,168,260382
8.453,232195,168,259092
8.458,231303,168,257706
8.463,230429,168,256350
8.468,229451,168,254923
8.473,228544,168,253785
8.478,227717,168,252753
8.483,226954,168,251874
8.488,226305,168,251106
8.493,225704,168,250350
8.498,225213,168,249652
8.503,224754,168,249126
8.508,224447,168,248797
8.512,224189,168,248516
8.517,223990,168,248259
8.522,223845,168,247940
8.527,223709,168,247639
8.532,223586,168,247288
8.537,223363,168,246766
8.542,223128,168,246237
8.547,222932,168,245798
8.552,222712,168,245397
8.557,222470,168,244912
8.562,222208,168,244440
8.567,221972,168,243945
8.572,221746,168,243480
8.577,221560,168,243067
8.582,221390,168,242802
8.587,221310,168,242664
8.592,221250,168,242580
8.597,221275,168,242628
8.602,221334,168,242729
8.607,221430,168,242928
8.612,221625,168,243193
8.617,221775,168,243481
8.622,221981,168,243727
8.627,222055,168,243906
8.632,222051,168,243993
8.637,221935,168,243955
8.642,221736,168,243790
8.647,221493,168,243585
8.652,221232,168,243365
8.656,220979,168,243114
8.661,220892,168,242936
8.666,220720,168,242697
8.671,220572,168,242483
8.676,220505,168,242288
8.681,220478,168,242132
8.686,220543,168,242008
8.691,220635,168,241975
8.696,220843,168,242155
8.701,221169,168,242424
8.706,221527,168,242660
8.711,221932,168,242885
8.716,222325,168,243039
8.721,222719,168,243143
8.726,222972,168,243137
8.731,223148,168,242928
8.736,223123,168,242559
8.741,223028,168,242175
8.746,222826,168,241809
8.751,222551,168,241494
8.756,222270,168,241325
8.761,222025,168,241256
8.766,221777,168,241229
8.771,221558,168,241298
8.776,221284,168,241377
8.781,220987,168,241502
8.786,220665,168,241674
8.791,220363,168,241863
8.796,220224,168,242042
8.801,220163,168,242179
8.805,220173,168,242227
8.810,220240,168,242213
8.815,220327,168,242136
8.820,220398,168,242107
8.825,220420,168,242170
8.830,220465,168,242216
8.835,220461,168,242231
8.840,220472,168,242203
8.845,220502,168,242229
8.850,220526,168,242261
8.855,220615,168,242359
8.860,220716,168,242455
8.865,220872,168,242536
8.870,221110,168,242565
8.875,221352,168,242595
8.880,221513,168,242587
8.885,221697,168,242575
8.890,221800,168,242532
8.895,221866,168,242470
8.900,221894,168,242402
8.905,221931,168,242349
8.910,221888,168,242258
8.915,221868,168,242117
8.920,221771,168,241980
8.925,221678,168,241838
8.930,221574,168,241730
8.935,221453,168,241598
8.940,221286,168,241442
8.945,221123,168,241295
8.949,220962,168,241180
8.954,220845,168,241052
8.959,220732,168,240891
8.964,220646,168,240812
8.969,220607,168,240694
8.974,220598,168,240602
8.979,220564,168,240550
8.984,220557,168,240498
8.989,220541,168,240458
8.994,220533,168,240423
8.999,220519,168,240418
9.004,220522,168,240448
9.009,220520,168,240467
9.014,220548,168,240540
9.019,220536,168,240573
9.024,220501,168,240601
9.029,220438,168,240617
9.034,220360,168,240599
9.039,220275,168,240593
9.044,220155,168,240563
9.049,219979,168,240483
9.054,219799,168,240408
9.059,219634,168,240279
9.064,219634,168,240399
9.069,219755,168,240574
9.074,219966,168,240899
9.079,220118,168,241182
9.084,220299,168,241421
9.089,220672,168,241660
9.093,221003,168,241818
9.098,221188,168,241785
9.103,221217,168,241685
9.108,221145,168,241594
9.113,221009,168,241493
9.118,220905,168,241403
9.123,220846,168,241299
9.128,220836,168,241238
9.133,220836,168,241204
9.138,220878,168,241214
9.143,220948,168,241215
9.148,221018,168,241221
9.153,221065,168,241177
9.158,221024,168,241098
9.163,221008,168,241071
9.168,220975,168,241025
9.173,220930,168,241024
9.178,220909,168,241004
9.183,220877,168,241046
9.188,220869,168,241122
9.193,220871,168,241202
9.198,220901,168,241309
9.203,220907,168,241404
9.208,220930,168,241529
9.213,220950,168,241669
9.218,220979,168,241820
9.223,221030,168,241957
9.228,221065,168,242083
9.233,221151,168,242198
9.237,221186,168,242275
9.242,221222,168,242379
9.247,221273,168,242445
9.252,221273,168,242478
9.257,221308,168,242567
9.262,221330,168,242545
9.267,221305,168,242585
9.272,221173,168,242446
9.277,221117,168,242286
9.282,221058,168,242160
9.287,220952,168,241958
9.292,220858,168,241831
9.297,220772,168,241783
9.302,220691,168,241740
9.307,220611,168,241720
9.312,220528,168,241721
9.317,220412,168,241755
9.322,220310,168,241742
9.327,220215,168,241811
9.332,220109,168,241909
9.337,220041,168,242006
9.342,219962,168,242111
9.347,219746,168,242135
9.352,219446,168,242093
9.357,219071,168,241824
9.362,218699,168,241748
9.367,219029,168,241544
9.372,219205,168,241672
9.377,219516,168,241890
9.381,219727,168,241941
9.386,219886,168,241969
9.391,219967,168,241954
9.396,219985,168,241965
9.401,219976,168,242093
9.406,220011,168,242419
9.411,220087,168,242743
9.416,220139,168,243067
9.421,220222,168,243467
9.426,220346,168,243919
9.431,220503,168,244355
9.436,220698,168,244874
9.441,220943,168,245498
9.446,221208,168,246167
9.451,221485,168,246777
9.456,221804,168,247380
9.461,222113,168,247894
9.466,222381,168,248240
9.471,222609,168,248312
9.476,222802,168,248325
9.481,222975,168,248522
9.486,223223,168,248979
9.491,223626,168,249608
9.496,224086,168,249577
9.501,224371,168,249413
9.506,224568,168,249074
9.511,224701,168,248777
9.516,224821,168,248544
9.521,224900,168,248272
9.525,224881,168,247974
9.530,224754,168,247617
9.535,224571,168,247323
9.540,224399,168,247070
9.545,224267,168,246939
9.550,224137,168,246923
9.555,224063,168,246855
9.560,223954,168,246871
9.565,223869,168,246880
9.570,223794,168,247020
9.575,223759,168,247241
9.580,223770,168,247476
9.585,223836,168,247768
9.590,223913,168,247995
9.595,224034,168,248302
9.600,224234,168,248662
9.605,224559,168,249079
9.610,224954,168,249472
9.615,225232,168,249609
9.620,225287,168,249718
9.625,225236,168,249755
9.630,225146,168,249702
9.635,224970,168,249741
9.640,224847,168,249981
9.645,224910,168,250575
9.650,224981,168,250581
9.655,225028,168,250744
9.660,224918,168,250653
9.665,224958,168,250796
9.669,225104,168,251190
9.674,225331,168,251745
9.679,225582,168,252492
9.684,225915,168,253379
9.689,226312,168,254385
9.694,226770,168,255503
9.699,227169,168,256608
9.704,227526,168,257848
9.709,228117,168,259128
9.714,228586,168,260311
9.719,228985,168,261182
9.724,229247,168,261783
9.729,229461,168,262051
9.734,229594,168,262247
9.739,229644,168,262311
9.744,229734,168,262376
9.749,229775,168,262435
9.754,229817,168,262446
9.759,229855,168,262404
9.764,229888,168,262364
9.769,229898,168,262307
9.774,229928,168,262262
9.779,229953,168,262304
9.784,229940,168,262370
9.789,229941,168,262499
9.794,229962,168,262631
9.799,230019,168,262871
9.804,230055,168,263052
9.809,230092,168,263231
9.813,230138,168,263328
9.818,230178,168,263423
9.823,230223,168,263494
9.828,230247,168,263537
9.833,230316,168,263623
9.838,230378,168,263718
9.843,230477,168,263802
9.848,230500,168,263940
9.853,230580,168,264078
9.858,230697,168,264267
9.863,230778,168,264443
9.868,230855,168,264631
9.873,230929,168,264793
9.878,231017,168,264944
9.883,231083,168,265079
9.888,231153,168,265219
9.893,231222,168,265310
9.898,231282,168,265407
9.903,231336,168,265511
9.908,231344,168,265594
9.913,231379,168,265652
9.918,231376,168,265717
9.923,231391,168,265819
9.928,231465,168,265940
9.933,231479,168,266083
9.938,231567,168,266209
9.943,231651,168,266329
9.948,231705,168,266461
9.953,231785,168,266585
9.958,231882,168,266753
9.962,231972,168,266878
9.967,232039,168,267000
9.972,232100,168,267129
9.977,232151,168,267261
9.982,232224,168,267417
9.987,232270,168,267541
9.992,232317,168,267649
9.997,232384,168,267723
10.002,232443,168,267792
10.007,232463,168,267861
10.012,232489,168,267954
10.017,232532,168,268007
10.022,232592,168,268078
10.027,232623,168,268184
10.032,232636,168,268251
10.037,232637,168,268380
10.042,232661,168,268430
10.047,232687,168,268551
10.052,232677,168,268665
10.057,232702,168,268752
10.062,232728,168,268839
10.067,232748,168,268986
10.072,232792,168,269061
10.077,232875,168,269167
10.082,232879,168,269255
10.087,232940,168,269298
10.092,232951,168,269349
10.097,232945,168,269323
10.102,232922,168,269306
10.106,232903,168,269295
10.111,232898,168,269306
10.116,232883,168,269333
10.121,232869,168,269332
10.126,232878,168,269374
10.131,232886,168,269408
10.136,232911,168,269407
10.141,232962,168,269471
10.146,232975,168,269508
10.151,233027,168,269526
10.156,233047,168,269542
10.161,233052,168,269546
10.166,233059,168,269565
10.171,233072,168,269615
10.176,233094,168,269646
10.181,233110,168,269648
10.186,233125,168,269691
10.191,233121,168,269657
10.196,233115,168,269589
10.201,233092,168,269534
10.206,233106,168,269481
10.211,233064,168,269420
10.216,233052,168,269327
10.221,233011,168,269245
10.226,232990,168,269168
10.231,232936,168,269114
10.236,232939,168,269131
10.241,232959,168,269160
10.246,232997,168,269240
10.250,233073,168,269341
10.255,233140,168,269429
10.260,233230,168,269443
10.265,233267,168,269415
10.270,233265,168,269302
10.275,233230,168,269195
10.280,233198,168,269024
10.285,233121,168,268914
10.290,233046,168,268783
10.295,232971,168,268647
10.300,232851,168,268535
10.305,232772,168,268387
10.310,232711,168,268282
10.315,232671,168,268259
10.320,232668,168,268248
10.325,232689,168,268255
10.330,232747,168,268312
10.335,232820,168,268370
10.340,232910,168,268434
10.345,232964,168,268493
10.350,233024,168,268498
10.355,233055,168,268530
10.360,233039,168,268517
10.365,233037,168,268522
10.370,233006,168,268503
10.375,232982,168,268493
10.380,232971,168,268499
10.385,232953,168,268523
10.390,232927,168,268558
10.394,232954,168,268553
10.399,232968,168,268543
10.404,232972,168,268559
10.409,233008,168,268563
10.414,233006,168,268570
10.419,233020,168,268552
10.424,233031,168,268559
10.429,233014,168,268530
10.434,233005,168,268511
10.439,233012,168,268524
10.444,232978,168,268500
10.449,232962,168,268483
10.454,232951,168,268486
10.459,232942,168,268478
10.464,232913,168,268471
10.469,232906,168,268469
10.474,232907,168,268463
10.479,232901,168,268458
10.484,232893,168,268476
10.489,232885,168,268477
10.494,232862,168,268479
10.499,232908,168,268500
10.504,232954,168,268538
10.509,232975,168,268617
10.514,233018,168,268673
10.519,233066,168,268743
10.524,233116,168,268758
10.529,233112,168,268749
10.534,233133,168,268742
10.538,233124,168,268704
10.543,233093,168,268638
10.548,233066,168,268595
10.553,233011,168,268574
10.558,232984,169,268487
10.563,232941,168,268433
10.568,232920,168,268415
10.573,232932,168,268429
10.578,232967,168,268469
10.583,232970,168,268501
10.588,233019,168,268538
10.593,233069,168,268602
10.598,233074,168,268639
10.603,233130,168,268665
10.608,233175,168,268687
10.613,233165,168,268726
10.618,233146,168,268751
10.623,233141,168,268813
10.628,233139,168,268835
10.633,233166,168,268888
10.638,233188,168,268970
10.643,233199,168,269029
10.648,233258,168,269031
10.653,233245,168,269054
10.658,233248,168,269024
10.663,233242,168,268984
10.668,233219,168,268933
10.673,233180,169,268860
10.678,233116,168,268790
10.682,233054,168,268731
10.687,232988,168,268667
10.692,232943,168,268625
10.697,232888,168,268567
10.702,232856,168,268566
10.707,232844,168,268585
10.712,232833,168,268626
10.717,232892,168,268667
10.722,232921,168,268778
10.727,232983,168,268853
10.732,233042,168,268940
10.737,233075,168,269008
10.742,233129,168,269076
10.747,233165,168,269098
10.752,233180,168,269116
10.757,233168,168,269132
10.762,233192,168,269128
10.767,233162,168,269098
10.772,233146,168,269045
10.777,233113,168,269016
10.782,233077,168,268943
10.787,233034,168,268919
10.792,233038,168,268894
10.797,232999,168,268884
10.802,232996,168,268874
10.807,233013,168,268902
10.812,232996,168,268901
10.817,233001,168,268886
10.822,233004,168,268933
10.826,232991,168,268956
10.831,232993,169,268975
10.836,232995,169,269032
10.841,233013,169,269029
10.846,232986,168,269058
10.851,233001,169,269076
10.856,232978,169,269078
10.861,232994,169,269045
10.866,233008,168,269053
10.871,232959,168,269078
10.876,232941,168,269051
10.881,232892,168,269037
10.886,232875,168,269009
10.891,232810,168,268978
10.896,232784,168,268934
10.901,232772,169,268943
10.906,232767,169,268930
10.911,232736,168,268951
10.916,232748,168,268983
10.921,232740,168,268988
10.926,232737,168,268984
10.931,232739,169,269020
10.936,232734,169,269061
10.941,232759,169,269086
10.946,232759,169,269097
10.951,232745,168,269104
10.956,232748,168,269112
10.961,232738,168,269111
10.966,232721,168,269164
10.971,232734,169,269155
10.975,232729,169,269190
10.980,232704,170,269212
10.985,232737,169,269200
10.990,232702,168,269233
10.995,232705,168,269220
11.000,232704,168,269223
11.005,232680,168,269224
11.010,232674,168,269263
11.015,232676,169,269285
11.020,232699,169,269297
11.025,232707,169,269340
11.030,232704,169,269356
11.035,232712,170,269355
11.040,232713,168,269357
11.045,232720,168,269380
11.050,232744,168,269425
11.055,232770,168,269484
11.060,232791,168,269494
11.065,232802,168,269550
11.070,232829,168,269576
11.075,232831,168,269600
11.080,232836,168,269629
11.085,232842,168,269657
11.090,232854,168,269674
11.095,232889,168,269699
11.100,232886,168,269726
11.105,232887,168,269726
11.110,232899,169,269738
11.115,232902,168,269767
11.119,232941,168,269775
11.124,232941,168,269816
11.129,232944,168,269834
11.134,232968,168,269845
11.139,232986,168,269874
11.144,232997,168,269897
11.149,233006,168,269948
11.154,233029,168,269960
11.159,233058,169,269997
11.164,233069,168,270008
11.169,233079,169,270051
11.174,233097,169,270028
11.179,233074,169,270053
11.184,233077,169,270046
11.189,233058,169,270035
11.194,233075,169,270034
11.199,233057,169,270045
11.204,233060,168,270048
11.209,233089,168,270054
11.214,233110,168,270050
11.219,233110,168,270089
11.224,233122,168,270106
11.229,233156,170,270111
11.234,233187,170,270140
11.239,233226,170,270141
11.244,233228,168,270166
11.249,233231,168,270191
11.254,233224,168,270183
11.259,233227,168,270197
11.263,233235,168,270191
11.268,233225,169,270183
11.273,233203,169,270156
11.278,233188,170,270153
11.283,233201,168,270138
11.288,233193,168,270136
11.293,233215,168,270130
11.298,233199,168,270131
11.303,233188,168,270141
11.308,233202,168,270141
11.313,233220,169,270163
11.318,233230,169,270153
11.323,233232,168,270147
11.328,233222,170,270144
11.333,233218,168,270153
11.338,233232,168,270153
11.343,233237,168,270116
11.348,233250,168,270146
11.353,233232,170,270119
11.358,233241,169,270105
11.363,233250,169,270109
11.368,233247,170,270112
11.373,233252,168,270098
11.378,233250,168,270086
11.383,233228,168,270064
11.388,233239,168,270064
11.393,233228,168,270025
11.398,233222,168,270013
11.403,233198,168,269986
11.407,233197,168,269971
11.412,233192,168,269937
11.417,233166,168,269941
11.422,233175,168,269924
11.427,233189,168,269911
11.432,233184,169,269895
11.437,233195,168,269921
11.442,233215,168,269916
11.447,233229,168,269915
11.452,233256,168,269945
11.457,233238,168,269923
11.462,233236,168,269921
11.467,233250,168,269893
11.472,233224,169,269854
11.477,233209,170,269829
11.482,233199,170,269805
11.487,233186,168,269761
11.492,233202,168,269749
11.497,233173,168,269746
11.502,233182,169,269721
11.507,233181,169,269716
11.512,233190,170,269697
11.517,233191,170,269703
11.522,233193,170,269707
11.527,233187,168,269698
11.532,233191,168,269688
11.537,233206,170,269717
11.542,233223,170,269718
11.547,233246,169,269728
11.551,233234,168,269743
11.556,233244,168,269768
11.561,233236,168,269761
11.566,233241,168,269749
11.571,233231,170,269760
11.576,233234,170,269763
11.581,233219,169,269741
11.586,233225,168,269729
11.591,233184,168,269744
11.596,233164,169,269713
11.601,233164,168,269740
11.606,233148,168,269717
11.611,233112,168,269686
11.616,233092,168,269681
11.621,233048,168,269674
11.626,233034,168,269664
11.631,233022,168,269645
11.636,233006,168,269666
11.641,232994,168,269654
11.646,232995,168,269631
11.651,232973,168,269644
11.656,232939,168,269623
11.661,232942,168,269597
11.666,232950,168,269603
11.671,232939,168,269608
11.676,232904,168,269604
11.681,232923,168,269603
11.686,232935,168,269625
11.691,232914,168,269595
11.695,232898,169,269590
11.700,232874,169,269592
11.705,232885,168,269626
11.710,232863,169,269600
11.715,232861,169,269587
11.720,232867,169,269578
11.725,232842,169,269572
11.730,232822,169,269565
11.735,232824,168,269540
11.740,232804,169,269546
11.745,232790,168,269514
11.750,232783,168,269495
11.755,232785,168,269504
11.760,232760,168,269475
11.765,232756,168,269483
11.770,232754,168,269466
11.775,232752,168,269475
11.780,232777,168,269457
11.785,232758,168,269472
11.790,232764,168,269440
11.795,232748,168,269451
11.800,232768,168,269422
11.805,232756,168,269388
11.810,232771,170,269338
11.815,232737,170,269315
11.820,232721,170,269248
11.825,232716,169,269216
11.830,232707,170,269183
11.835,232678,170,269132
11.839,232655,169,269077
11.844,232623,168,269029
11.849,232607,168,268964
11.854,232597,168,268911
11.859,232591,168,268850
11.864,232577,168,268795
11.869,232540,168,268761
11.874,232530,168,268720
11.879,232522,168,268679
11.884,232507,168,268618
11.889,232518,168,268550
11.894,232473,168,268537
11.899,232467,168,268485
11.904,232442,168,268446
11.909,232431,169,268431
11.914,232411,168,268408
11.919,232415,169,268369
11.924,232398,168,268367
11.929,232392,168,268356
11.934,232379,168,268350
11.939,232365,169,268330
11.944,232351,168,268312
11.949,232344,168,268308
11.954,232351,168,268304
11.959,232364,169,268268
11.964,232337,168,268268
11.969,232323,169,268259
11.974,232313,168,268229
11.979,232316,168,268234
11.984,232291,168,268207
11.988,232297,168,268194
11.993,232269,168,268216
11.998,232261,170,268217
12.003,232253,169,268249
12.008,232267,169,268285
12.013,232273,168,268334
12.018,232309,169,268350
12.023,232326,168,268410
12.028,232338,168,268468
12.033,232382,168,268500
12.038,232370,168,268528
12.043,232381,168,268566
12.048,232403,168,268641
12.053,232450,168,268671
12.058,232452,168,268691
12.063,232462,168,268737
12.068,232469,168,268738
12.073,232494,168,268751
12.078,232505,168,268807
12.083,232537,169,268823
12.088,232557,168,268894
12.093,232601,168,268925
12.098,232626,168,268979
12.103,232645,168,269017
12.108,232664,168,269069
12.113,232702,168,269100
12.118,232731,168,269126
12.123,232739,168,269150
12.128,232732,168,269144
12.132,232747,168,269148
12.137,232747,168,269155
12.142,232749,168,269159
12.147,232762,168,269182
12.152,232786,168,269211
12.157,232800,168,269228
12.162,232804,168,269244
12.167,232851,168,269267
12.172,232862,168,269308
12.177,232879,170,269300
12.182,232863,168,269303
12.187,232866,168,269327
12.192,232864,168,269318
12.197,232875,169,269301
12.202,232888,168,269307
12.207,232864,168,269309
12.212,232874,168,269310
12.217,232862,169,269298
12.222,232872,168,269300
12.227,232877,168,269306
12.232,232866,169,269287
12.237,232835,169,269255
12.242,232817,168,269218
12.247,232803,168,269203
12.252,232779,169,269213
12.257,232774,169,269187
12.262,232741,169,269166
12.267,232712,168,269151
12.272,232711,168,269166
12.276,232682,168,269181
12.281,232714,168,269165
12.286,232691,168,269182
12.291,232697,168,269203
12.296,232710,168,269215
12.301,232730,169,269255
12.306,232738,168,269298
12.311,232769,168,269291
12.316,232756,168,269342
12.321,232769,168,269338
12.326,232770,168,269372
12.331,232757,168,269395
12.336,232737,168,269383
12.341,232749,168,269426
12.346,232731,168,269442
12.351,232702,169,269499
12.356,232704,169,269535
12.361,232696,168,269594
12.366,232687,168,269668
12.371,232680,168,269739
12.376,232682,168,269783
12.381,232704,168,269885
12.386,232727,168,269961
12.391,232789,168,270039
12.396,232823,168,270135
12.401,232826,168,270210
12.406,232862,168,270279
12.411,232888,168,270339
12.416,232901,168,270403
12.420,232945,168,270459
12.425,232933,168,270537
12.430,232945,168,270613
12.435,232959,168,270656
12.440,232952,168,270694
12.445,233001,168,270770
12.450,233023,168,270846
12.455,233049,168,270947
12.460,233069,168,271027
12.465,233129,168,271154
12.470,233185,168,271298
12.475,233265,168,271377
12.480,233312,168,271497
12.485,233389,168,271598
12.490,233437,168,271671
12.495,233482,168,271740
12.500,233512,168,271790
12.505,233517,168,271849
12.510,233553,168,271880
12.515,233552,168,271954
12.520,233604,168,272024
12.525,233627,168,272189
12.530,233677,168,272323
12.535,233734,169,272474
12.540,233805,168,272619
12.545,233890,168,272718
12.550,233990,168,272835
12.555,234062,168,272944
12.560,234142,168,273081
12.564,234215,168,273195
12.569,234284,168,273272
12.574,234310,168,273307
12.579,234360,168,273355
12.584,234347,168,273410
12.589,234357,168,273417
12.594,234373,168,273449
12.599,234406,168,273491
12.604,234419,168,273539
12.609,234439,168,273617
12.614,234484,168,273728
12.619,234515,168,273827
12.624,234553,168,273929
12.629,234590,168,274028
12.634,234625,168,274122
12.639,234673,168,274202
12.644,234710,168,274273
12.649,234749,168,274298
12.654,234754,168,274298
12.659,234779,168,274260
12.664,234778,168,274237
12.669,234768,168,274182
12.674,234732,168,274186
12.679,234713,168,274160
12.684,234691,168,274141
12.689,234660,168,274132
12.694,234665,168,274139
12.699,234636,168,274159
12.704,234661,168,274206
12.708,234671,168,274247
12.713,234677,168,274286
12.718,234692,168,274312
12.723,234695,168,274339
12.728,234713,168,274348
12.733,234716,168,274383
12.738,234735,168,274427
12.743,234761,168,274494
12.748,234823,168,274584
12.753,234844,168,274707
12.758,234891,168,274793
12.763,234991,168,274916
12.768,235037,168,275033
12.773,235102,168,275136
12.778,235158,168,275205
12.783,235192,168,275251
12.788,235245,168,275273
12.793,235251,168,275274
12.798,235234,168,275209
12.803,235199,168,275158
12.808,235168,168,275093
12.813,235112,168,275045
12.818,235073,168,274971
12.823,235021,168,274962
12.828,234993,168,274943
12.833,234994,168,274949
12.838,235022,168,275028
12.843,235040,168,275123
12.848,235113,168,275266
12.852,235183,168,275400
12.857,235264,168,275561
12.862,235331,168,275675
12.867,235417,168,275786
12.872,235492,168,275873
12.877,235546,168,275917
12.882,235599,168,275934
12.887,235617,168,275967
12.892,235625,168,275947
12.897,235626,168,275942
12.902,235613,168,275918
12.907,235597,168,275935
12.912,235592,168,275969
12.917,235610,168,275991
12.922,235609,168,276022
12.927,235635,168,276102
12.932,235670,168,276112
12.937,235723,168,276177
12.942,235732,168,276197
12.947,235741,168,276235
12.952,235743,168,276225
12.957,235759,168,276209
12.962,235751,168,276185
12.967,235728,168,276147
12.972,235702,168,276137
12.977,235710,168,276137
12.982,235716,168,276179
12.987,235724,168,276199
12.992,235757,168,276218
12.996,235784,168,276283
13.001,235819,168,276337
13.006,235846,168,276344
13.011,235860,168,276404
13.016,235890,168,276441
13.021,235889,168,276475
13.026,235910,168,276482
13.031,235895,168,276462
13.036,235881,168,276443
13.041,235898,168,276438
13.046,235900,168,276427
13.051,235909,168,276417
13.056,235915,168,276427
13.061,235922,168,276467
13.066,235958,168,276500
13.071,235972,168,276548
13.076,235984,168,276570
13.081,235997,168,276602
13.086,235995,168,276626
13.091,235985,168,276632
13.096,235965,168,276630
13.101,235926,168,276606
13.106,235917,168,276557
13.111,235879,168,276505
13.116,235820,168,276495
13.121,235792,168,276467
13.126,235766,168,276438
13.131,235726,168,276410
13.136,235739,168,276474
13.141,235709,168,276521
13.145,235744,168,276574
13.150,235726,168,276603
13.155,235857,168,276819
13.160,235957,168,276786
13.165,236016,168,276549
13.170,235992,168,276211
13.175,235912,168,275881
13.180,235805,168,275530
13.185,235678,168,275140
13.190,235481,168,274645
13.195,235234,168,274101
13.200,234970,168,273623
13.205,234813,168,273324
13.210,234621,168,273111
13.215,234537,168,272951
13.220,234491,168,272893
13.225,234501,168,272897
13.230,234521,168,272950
13.235,234516,168,272988
13.240,234605,168,273129
13.245,234676,168,273355
13.250,234676,168,273619
13.255,234787,168,273982
13.260,234822,168,274262
13.265,234856,168,274442
13.270,234879,168,274542
13.275,234888,168,274580
13.280,234903,168,274624
13.285,234916,168,274672
13.289,234955,168,274728
13.294,235009,168,274726
13.299,235018,168,274720
13.304,235046,168,274704
13.309,235018,168,274668
13.314,235030,168,274643
13.319,235089,168,274747
13.324,235142,168,274752
13.329,235204,168,274645
13.334,235253,168,274428
13.339,235299,168,274133
13.344,235332,168,273827
13.349,235362,168,273673
13.354,235454,168,273616
13.359,235508,168,273504
13.364,235599,168,273515
13.369,235607,168,273487
13.374,235581,168,273474
13.379,235550,168,273485
13.384,235517,168,273551
13.389,235509,168,273620
13.394,235565,168,273825
13.399,235716,168,274081
13.404,235925,168,274415
13.409,236209,168,274798
13.414,236539,168,275349
13.419,236944,168,276031
13.424,237371,168,276770
13.429,237807,168,277555
13.433,238016,168,278267
13.438,238239,168,278816
13.443,238226,168,279001
13.448,238072,168,278888
13.453,237835,168,278566
13.458,237474,168,278142
13.463,237101,168,277659
13.468,236805,168,277379
13.473,236567,168,277262
13.478,236411,168,277317
13.483,236292,168,277438
13.488,236227,168,277548
13.493,236162,168,277488
13.498,236078,168,277305
13.503,236019,168,277113
13.508,236013,168,276862
13.513,236025,168,276636
13.518,236009,168,276433
13.523,236027,168,276190
13.528,236060,168,276113
13.533,236064,168,276054
13.538,236013,168,276062
13.543,235997,168,276191
13.548,235962,168,276410
13.553,235974,168,276805
13.558,236166,168,277368
13.563,236276,168,277869
13.568,236458,168,278441
13.573,236633,168,279095
13.577,236905,168,279779
13.582,237123,168,280216
13.587,237331,168,280547
13.592,237482,168,280617
13.597,237496,168,280627
13.602,237489,168,280690
13.607,237373,168,280564
13.612,237291,168,280518
13.617,237304,168,280613
13.622,237377,168,280750
13.627,237494,168,280881
13.632,237652,168,281041
13.637,237785,168,281153
13.642,237887,168,281239
13.647,237966,168,281318
13.652,237993,168,281380
13.657,238010,168,281475
13.662,238011,168,281629
13.667,238050,168,281814
13.672,238150,168,282212
13.677,238349,168,282864
13.682,238483,168,283486
13.687,238699,168,284280
13.692,238959,168,284990
13.697,239161,168,285488
13.702,239216,168,285819
13.707,239346,168,286126
13.712,239481,168,286332
13.717,239594,168,286536
13.721,239733,168,286776
13.726,239956,168,287264
13.731,240261,168,287807
13.736,240473,168,288221
13.741,240757,168,288910
13.746,241132,168,289735
13.751,241509,168,290638
13.756,242042,168,291614
13.761,242579,168,292709
13.766,243174,168,293918
13.771,243867,168,295265
13.776,244673,168,296721
13.781,245512,168,298094
13.786,246395,168,299521
13.791,247404,168,301072
13.796,248337,168,302467
13.801,249140,168,303721
13.806,249875,168,305187
13.811,250485,168,306539
13.816,250809,168,307636
13.821,250918,168,308453
13.826,250691,168,308819
13.831,250518,168,309232
13.836,250478,168,309928
13.841,251000,168,311355
13.846,251683,168,312852
13.851,252622,168,314644
13.856,253882,168,316746
13.861,255275,168,319107
13.865,256872,168,321881
13.870,258743,168,324590
13.875,260696,168,327506
13.880,262466,168,330081
13.885,263917,168,332071
13.890,264915,168,333554
13.895,265630,168,334661
13.900,266147,168,335487
13.905,266509,168,336111
13.910,266882,168,336590
13.915,267377,168,337306
13.920,268014,168,338230
13.925,268996,168,339537
13.930,270519,168,341430
13.935,272532,168,344014
13.940,275074,168,347178
13.945,278016,168,350758
13.950,280990,168,354230
13.955,283634,168,357279
13.960,286093,168,359967
13.965,288298,168,362345
13.970,290235,168,364238
13.975,292100,168,365961
13.980,293764,168,367499
13.985,295327,168,368843
13.990,296677,168,369853
13.995,297778,168,370623
14.000,298858,168,371446
14.005,299772,168,372074
14.009,300428,168,372301
14.014,300883,168,372323
14.019,301153,168,372245
14.024,301299,168,372085
14.029,301424,168,372035
14.034,301550,168,372305
14.039,301851,168,372483
14.044,302032,168,372416
14.049,302153,168,372214
14.054,302379,168,372040
14.059,302362,168,371572
14.064,302234,168,370993
14.069,302060,168,370343
14.074,301643,168,369789
14.079,301447,168,369248
14.084,301186,168,368593
14.089,301027,168,368157
14.094,300987,168,367718
14.099,301064,168,367309
14.104,301145,168,366980
14.109,301264,168,366606
14.114,301370,168,366125
14.119,301424,168,365494
14.124,301427,168,364785
14.129,301211,168,363640
14.134,300777,168,362111
14.139,299985,168,360028
14.144,298976,168,357567
14.149,297867,168,355056
14.154,296650,168,352398
14.158,295599,168,350202
14.163,294492,168,348293
14.168,293384,168,346226
14.173,292470,168,344578
14.178,291573,168,343027
14.183,290836,168,341747
14.188,290166,168,340549
14.193,289430,168,339368
14.198,288712,168,338194
14.203,288070,168,337159
14.208,287447,168,336125
14.213,286853,168,335092
14.218,286300,168,334284
14.223,285907,168,333637
14.228,285561,168,333121
14.233,285310,168,332642
14.238,285042,168,332271
14.243,284875,168,331959
14.248,284753,168,331744
14.253,284657,168,331626
14.258,284679,168,331653
14.263,284779,168,331848
14.268,284883,168,332077
14.273,285074,168,332425
14.278,285307,168,332795
14.283,285542,168,333180
14.288,285729,168,333548
14.293,285936,168,333860
14.298,286138,168,334214
14.302,286276,168,334555
14.307,286399,168,334763
14.312,286460,168,335036
14.317,286543,168,335301
14.322,286676,168,335626
14.327,286823,168,335811
14.332,286906,168,336123
14.337,287100,168,336501
14.342,287246,168,336794
14.347,287340,168,336939
14.352,287386,168,336929
14.357,287396,168,336912
14.362,287348,168,336849
14.367,287301,168,336696
14.372,287359,168,336744
14.377,287427,168,336874
14.382,287509,168,337065
14.387,287575,168,337238
14.392,287608,168,337301
14.397,287668,168,337433
14.402,287634,168,337489
14.407,287596,168,337416
14.412,287446,168,337207
14.417,287218,168,336775
14.422,286745,168,335770
14.427,286191,168,334876
14.432,285672,168,333960
14.437,285057,168,332907
14.442,284441,168,331862
14.446,283763,168,330609
14.451,282808,168,328850
14.456,281564,168,326678
14.461,280124,168,324035
14.466,278455,168,321169
14.471,276728,168,318313
14.476,275038,168,315677
14.481,273348,168,313019
14.486,271694,168,310537
14.491,270012,168,308070
14.496,268352,168,305788
14.501,267071,168,304105
14.506,266110,168,302858
14.511,265565,168,302320
14.516,265397,168,302072
14.521,265497,168,302192
14.526,265816,168,302625
14.531,266269,168,303187
14.536,266707,168,303731
14.541,267185,168,304320
14.546,267578,168,304812
14.551,267775,168,305030
14.556,267882,168,305115
14.561,267895,168,305087
14.566,267828,168,304905
14.571,267657,168,304615
14.576,267399,168,304253
14.581,267065,168,303758
14.586,266650,168,303144
14.590,266175,168,302464
14.595,265645,168,301734
14.600,265141,168,301013
14.605,264589,168,300259
14.610,264020,168,299443
14.615,263462,168,298652
14.620,262869,168,297870
14.625,262288,168,297150
14.630,261674,168,296393
14.635,261095,168,295757
14.640,260424,168,294988
14.645,259697,168,294117
14.650,258810,168,293240
14.655,257777,168,292215
14.660,256497,168,290924
14.665,255033,168,289613
14.670,253558,168,288413
14.675,252031,168,287170
14.680,250379,168,285618
14.685,248076,168,282841
14.690,245753,168,280114
14.695,243264,168,277080
14.700,240741,168,274207
14.705,237898,168,271235
14.710,235052,168,268658
14.715,231998,168,265759
14.720,228366,168,262337
14.725,223620,168,257802
14.730,219693,168,254031
14.734,223465,168,261566
14.739,229280,168,269198
14.744,232573,168,274366
14.749,236578,168,281183
14.754,240102,168,287290
14.759,242149,168,291813
14.764,243109,168,294053
14.769,243128,168,294224
14.774,242847,168,293649
14.779,242548,168,292599
14.784,242264,168,291557
14.789,242337,168,291296
14.794,242718,168,291924
14.799,243296,168,293219
14.804,243981,168,294872
14.809,244568,168,296289
14.814,244881,168,297157
14.819,244865,168,297356
14.824,244628,168,297066
14.829,244298,168,296511
14.834,243974,168,295949
14.839,243730,168,295552
14.844,243653,168,295439
14.849,243667,168,295511
14.854,243816,168,295733
14.859,243940,168,296002
14.864,244069,168,296149
14.869,244105,168,296281
14.874,244139,168,296327
14.878,244099,168,296302
14.883,244058,168,296232
14.888,244011,168,296120
14.893,243933,168,296035
14.898,243879,168,295993
14.903,243838,168,296055
14.908,244463,168,296572
14.913,244756,168,296564
14.918,244984,168,296559
14.923,245137,168,296315
14.928,245286,168,296162
14.933,245496,168,296071
14.938,245766,168,296058
14.943,245981,168,296005
14.948,246057,168,295789
14.953,245945,168,295352
14.958,245724,168,294803
14.963,245500,168,294327
14.968,245291,168,293863
14.973,245106,168,293446
14.978,244982,168,293092
14.983,244914,168,292766
14.988,244881,168,292465
14.993,244851,168,292235
14.998,244816,168,291965
15.003,244744,168,291731
15.008,244640,168,291448
15.013,244513,168,291210
15.018,244337,168,291003
15.022,244221,168,290819
15.027,244055,168,290595
15.032,243815,168,290252
15.037,243409,168,289696
15.042,242942,168,289093
15.047,242505,168,288422
15.052,242086,168,287707
15.057,241720,168,287069
15.062,241556,168,286610
15.067,241618,168,286486
15.072,241864,168,286545
15.077,242196,168,286755
15.082,242568,168,286945
15.087,242845,168,286993
15.092,242993,168,286886
15.097,242998,168,286616
15.102,242879,168,286202
15.107,242680,168,285708
15.112,242390,168,285025
15.117,241953,168,284321
15.122,241497,168,283575
15.127,240966,168,282725
15.132,240349,168,281753
15.137,239636,168,280701
15.142,238845,168,279587
15.147,238151,168,278614
15.152,237487,168,277667
15.157,236943,168,276888
15.162,236658,168,276496
15.166,236725,168,276446
15.171,236956,168,276625
15.176,237250,168,276792
15.181,237598,168,277048
15.186,237928,168,277310
15.191,238287,168,277585
15.196,238608,168,277859
15.201,238906,168,278146
15.206,239173,168,278397
15.211,239464,168,278631
15.216,239691,168,278800
15.221,239911,168,279026
15.226,240123,168,279215
15.231,240341,168,279411
15.236,240569,168,279620
15.241,240773,168,279818
15.246,240915,168,280003
15.251,241021,168,280228
15.256,241080,168,280400
15.261,241081,168,280488
15.266,241046,168,280559
15.271,240931,168,280568
15.276,240801,168,280572
15.281,240657,168,280510
15.286,240482,168,280404
15.291,240374,168,280277
15.296,240305,168,280211
15.301,240238,168,280234
15.306,240190,168,280255
15.311,240229,168,280312
15.315,240217,168,280270
15.320,240249,168,280171
15.325,240362,168,280068
15.330,240602,168,280151
15.335,240947,168,280268
15.340,241403,168,280435
15.345,241954,168,280795
15.350,242651,168,281248
15.355,243441,168,281769
15.360,244309,168,282467
15.365,245155,168,283119
15.370,245958,168,283875
15.375,246682,168,284534
15.380,247268,168,285233
15.385,247809,168,285946
15.390,248117,168,286416
15.395,248271,168,286848
15.400,248395,168,287291
15.405,248595,168,287862
15.410,249063,168,288711
15.415,249572,168,289646
15.420,250163,168,290640
15.425,251329,168,292317
15.430,252581,168,293854
15.435,253900,168,295269
15.440,255093,168,296389
15.445,255759,168,297082
15.450,256556,168,297703
15.455,257358,168,298262
15.459,257976,168,298629
15.464,258476,168,298826
15.469,258735,168,298800
15.474,258839,168,298710
15.479,258738,168,298461
15.484,258389,168,297985
15.489,257873,168,297318
15.494,257188,168,296563
15.499,256424,168,295708
15.504,255684,168,294952
15.509,254897,168,294190
15.514,254143,168,293492
15.519,253451,168,292814
15.524,252793,168,292143
15.529,252192,168,291529
15.534,251636,168,290890
15.539,251168,168,290199
15.544,250543,169,289367
15.549,249915,168,288410
15.554,249173,168,287402
15.559,248474,168,286409
15.564,247854,168,285507
15.569,247360,168,284776
15.574,246955,168,284037
15.579,246519,168,283247
15.584,246094,168,282370
15.589,245645,168,281413
15.594,245183,168,280474
15.599,244738,168,279536
15.603,244266,168,278528
15.608,243735,168,277505
15.613,243214,168,276578
15.618,242785,168,275762
15.623,242486,168,275201
15.628,242367,168,274968
15.633,242453,168,275076
15.638,242717,168,275486
15.643,243026,168,275979
15.648,243387,168,276703
15.653,243979,168,278177
15.658,245159,168,280414
15.663,246585,168,283103
15.668,248129,168,285945
15.673,249843,168,288988
15.678,251559,168,292220
15.683,253049,168,295271
15.688,254159,168,297757
15.693,254822,168,299629
15.698,255188,168,301185
15.703,255538,168,302844
15.708,255755,168,304205
15.713,255680,168,305168
15.718,255275,168,305638
15.723,254636,168,305567
15.728,253810,168,305061
15.733,252505,168,303961
15.738,251605,168,303102
15.743,250936,168,302451
15.747,250640,168,302045
15.752,250335,168,301825
15.757,250224,168,301826
15.762,250178,168,301903
15.767,250140,168,302031
15.772,250092,168,302072
15.777,249955,168,302005
15.782,249784,168,301921
15.787,249664,168,301878
15.792,249581,168,301899
15.797,249559,168,301926
15.802,249531,168,301982
15.807,249529,168,302003
15.812,249472,168,301996
15.817,249467,168,301973
15.822,249444,168,301990
15.827,249444,168,301959
15.832,249386,168,301908
15.837,249327,168,301879
15.842,249285,168,301814
15.847,249299,168,301821
15.852,249248,168,301861
15.857,249265,168,301957
15.862,249296,168,302123
15.867,249395,168,302388
15.872,249510,168,302694
15.877,249658,168,302996
15.882,249780,168,303288
15.887,249929,168,303518
15.891,249989,168,303664
15.896,250027,168,303703
15.901,249978,168,303625
15.906,249868,168,303384
15.911,249646,168,303004
15.916,249387,168,302570
15.921,249138,168,302150
15.926,248926,168,301839
15.931,248791,168,301690
15.936,248726,168,301654
15.941,248740,168,301754
15.946,248767,168,301942
15.951,248890,168,302189
15.956,248983,168,302482
15.961,249129,168,302756
15.966,249238,168,302996
15.971,249352,168,303200
15.976,249434,168,303288
15.981,249446,168,303293
15.986,249392,168,303217
15.991,249274,168,302921
15.996,249034,168,302455
16.001,248723,168,301868
16.006,248337,168,301213
16.011,248015,168,300600
16.016,247738,168,300121
16.021,247547,168,299802
16.026,247431,168,299639
16.031,247387,168,299583
16.035,247337,168,299567
16.040,247338,168,299629
16.045,247393,168,299750
16.050,247443,168,299843
16.055,247537,168,299948
16.060,247561,168,299981
16.065,247607,168,299987
16.070,247603,168,299923
16.075,247600,168,299818
16.080,247525,168,299642
16.085,247470,168,299431
16.090,247344,168,299152
16.095,247199,168,298879
16.100,247061,168,298634
16.105,246941,168,298405
16.110,246785,168,298160
16.115,246660,168,297922
16.120,246499,168,297649
16.125,246308,168,297350
16.130,246185,168,297060
16.135,246030,168,296870
16.140,245947,168,296738
16.145,245910,168,296672
16.150,245876,168,296644
16.155,245870,168,296654
16.160,245856,168,296625
16.165,245828,168,296619
16.170,245833,168,296582
16.175,245799,168,296505
16.179,245781,168,296492
16.184,245742,168,296507
16.189,245734,168,296497
16.194,245730,168,296509
16.199,245697,168,296516
16.204,245666,168,296523
16.209,245617,168,296492
16.214,245574,168,296462
16.219,245492,168,296377
16.224,245398,168,296238
16.229,245317,168,296104
16.234,245185,169,295915
16.239,245067,168,295735
16.244,244943,168,295558
16.249,244852,168,295424
16.254,244768,168,295305
16.259,244674,168,295197
16.264,244600,168,295056
16.269,244527,168,294929
16.274,244458,168,294873
16.279,244408,168,294768
16.284,244366,168,294690
16.289,244340,168,294684
16.294,244317,169,294627
16.299,244291,168,294594
16.304,244266,168,294574
16.309,244292,169,294570
16.314,244247,169,294566
16.319,244246,168,294539
16.324,244235,168,294573
16.328,244259,168,294604
16.333,244261,168,294655
16.338,244266,168,294703
16.343,244272,168,294758
16.348,244263,168,294765
16.353,244239,168,294753
16.358,244196,168,294727
16.363,244163,168,294682
16.368,244111,168,294641
16.373,244056,168,294580
16.378,244023,168,294525
16.383,243994,168,294521
16.388,244016,168,294552
16.393,243989,168,294573
16.398,244020,168,294603
16.403,243994,168,294672
16.408,244055,168,294752
16.413,244135,168,294901
16.418,244202,168,295067
16.423,244312,168,295244
16.428,244396,168,295414
16.433,244457,169,295507
16.438,244496,168,295591
16.443,244516,168,295625
16.448,244491,168,295543
16.453,244452,168,295438
16.458,244367,168,295271
16.463,244279,168,295126
16.468,244181,168,294955
16.472,244104,168,294758
16.477,243996,168,294645
16.482,243929,168,294530
16.487,243889,168,294516
16.492,243842,169,294509
16.497,243852,168,294481
16.502,243849,168,294554
16.507,243888,168,294657
16.512,243933,169,294762
16.517,243992,169,294952
16.522,244086,168,295141
16.527,244195,168,295376
16.532,244307,168,295578
16.537,244396,168,295803
16.542,244496,168,296021
16.547,244569,168,296120
16.552,244619,169,296225
16.557,244696,168,296291
16.562,244733,168,296314
16.567,244717,168,296320
16.572,244724,168,296287
16.577,244705,168,296236
16.582,244669,168,296204
16.587,244676,168,296220
16.592,244633,168,296223
16.597,244639,168,296233
16.602,244636,168,296313
16.607,244651,168,296363
16.612,244675,169,296470
16.616,244692,168,296549
16.621,244718,168,296640
16.626,244807,168,296841
16.631,244855,168,296978
16.636,244949,168,297175
16.641,245008,168,297369
16.646,245095,168,297522
16.651,245144,168,297630
16.656,245152,168,297700
16.661,245159,168,297755
16.666,245165,168,297712
16.671,245131,168,297703
16.676,245115,168,297719
16.681,245078,168,297721
16.686,245067,168,297786
16.691,245041,169,297786
16.696,245055,168,297781
16.701,245032,168,297790
16.706,245040,168,297864
16.711,245085,169,297906
16.716,245138,168,298028
16.721,245199,168,298119
16.726,245213,168,298181
16.731,245264,168,298253
16.736,245282,168,298317
16.741,245305,168,298348
16.746,245339,168,298375
16.751,245361,169,298406
16.756,245350,168,298443
16.760,245343,168,298437
16.765,245346,168,298465
16.770,245335,168,298466
16.775,245347,168,298502
16.780,245360,168,298509
16.785,245340,168,298493
16.790,245350,168,298481
16.795,245340,168,298467
16.800,245321,168,298451
16.805,245320,168,298460
16.810,245301,170,298450
16.815,245330,168,298454
16.820,245313,168,298448
16.825,245338,168,298484
16.830,245327,168,298473
16.835,245346,168,298466
16.840,245344,168,298496
16.845,245322,168,298465
16.850,245313,168,298444
16.855,245309,168,298468
16.860,245286,168,298445
16.865,245283,168,298440
16.870,245259,169,298406
16.875,245226,169,298385
16.880,245202,168,298384
16.885,245217,168,298367
16.890,245209,168,298401
16.895,245206,168,298418
16.900,245245,168,298485
16.904,245232,168,298514
16.909,245261,168,298550
16.914,245288,168,298607
16.919,245289,168,298620
16.924,245265,168,298625
16.929,245268,169,298637
16.934,245256,169,298604
16.939,245237,168,298549
16.944,245191,168,298502
16.949,245181,168,298469
16.954,245136,168,298422
16.959,245105,168,298385
16.964,245073,168,298333
16.969,245058,168,298315
16.974,245035,168,298271
16.979,245009,168,298239
16.984,245003,168,298253
16.989,244984,169,298266
16.994,244980,169,298271
16.999,244976,168,298333
17.004,244967,168,298360
17.009,244964,168,298379
17.014,244948,168,298395
17.019,244941,168,298438
17.024,244939,168,298424
17.029,244903,168,298395
17.034,244888,169,298420
17.039,244860,168,298369
17.044,244841,168,298374
17.048,244810,169,298327
17.053,244758,168,298288
17.058,244730,168,298264
17.063,244695,168,298246
17.068,244684,168,298267
17.073,244658,169,298294
17.078,244648,168,298303
17.083,244661,168,298324
17.088,244662,169,298359
17.093,244644,169,298375
17.098,244638,168,298396
17.103,244626,168,298392
17.108,244630,168,298370
17.113,244606,168,298333
17.118,244572,168,298327
17.123,244533,168,298293
17.128,244516,168,298275
17.133,244497,168,298239
17.138,244496,168,298248
17.143,244470,168,298240
17.148,244480,168,298277
17.153,244463,168,298277
17.158,244456,168,298273
17.163,244442,168,298250
17.168,244439,168,298320
17.173,244430,168,298287
17.178,244391,168,298247
17.183,244391,168,298208
17.188,244364,168,298177
17.192,244335,168,298166
17.197,244335,168,298139
17.202,244305,168,298098
17.207,244285,168,298071
17.212,244243,168,298026
17.217,244246,168,297971
17.222,244199,168,297918
17.227,244183,168,297895
17.232,244159,168,297844
17.237,244119,168,297857
17.242,244103,168,297838
17.247,244059,168,297797
17.252,244059,169,297803
17.257,244065,168,297765
17.262,244023,168,297789
17.267,244030,168,297789
17.272,244003,169,297782
17.277,243997,168,297752
17.282,244001,168,297764
17.287,243981,168,297719
17.292,243936,168,297664
17.297,243915,168,297573
17.302,243844,168,297516
17.307,243807,168,297433
17.312,243767,168,297397
17.317,243772,168,297338
17.322,243717,168,297298
17.327,243688,168,297267
17.332,243661,169,297272
17.336,243653,169,297260
17.341,243655,168,297277
17.346,243689,168,297293
17.351,243677,168,297347
17.356,243708,168,297379
17.361,243721,168,297411
17.366,243720,168,297414
17.371,243723,168,297399
17.376,243700,168,297363
17.381,243700,168,297351
17.386,243690,168,297311
17.391,243680,168,297285
17.396,243663,168,297300
17.401,243669,168,297311
17.406,243685,168,297352
17.411,243710,169,297348
17.416,243720,168,297390
17.421,243738,168,297431
17.426,243761,168,297471
17.431,243772,169,297458
17.436,243778,168,297517
17.441,243814,168,297557
17.446,243822,168,297547
17.451,243818,168,297539
17.456,243798,168,297491
17.461,243760,168,297452
17.466,243739,168,297387
17.471,243741,168,297343
17.476,243710,168,297305
17.481,243680,168,297310
17.485,243705,168,297302
17.490,243671,168,297298
17.495,243697,168,297311
17.500,243711,168,297332
17.505,243723,168,297379
17.510,243741,169,297411
17.515,243773,168,297432
17.520,243784,168,297488
17.525,243813,168,297535
17.530,243802,169,297551
17.535,243832,168,297556
17.540,243855,168,297599
17.545,243882,168,297652
17.550,243900,169,297697
17.555,243912,169,297740
17.560,243930,168,297779
17.565,243956,168,297812
17.570,243959,169,297822
17.575,243961,168,297847
17.580,243988,168,297842
17.585,243982,168,297836
17.590,243974,169,297804
17.595,243974,169,297787
17.600,243959,168,297749
17.605,243952,168,297709
17.610,243914,169,297652
17.615,243904,169,297634
17.620,243898,168,297618
17.625,243896,168,297568
17.629,243873,169,297580
17.634,243875,168,297594
17.639,243894,168,297594
17.644,243891,168,297640
17.649,243933,168,297696
17.654,243913,168,297735
17.659,243968,168,297776
17.664,243971,168,297845
17.669,243993,168,297867
17.674,244006,168,297879
17.679,244026,168,297900
17.684,244041,168,297897
17.689,244027,168,297859
17.694,244034,169,297868
17.699,244047,168,297888
17.704,244050,168,297897
17.709,244061,169,297887
17.714,244068,171,297917
17.719,244105,168,297960
17.724,244121,168,298022
17.729,244136,169,298059
17.734,244161,174,298114
17.739,244174,168,298154
17.744,244186,168,298201
17.749,244218,170,298214
17.754,244233,176,298251
17.759,244276,168,298261
17.764,244297,168,298301
17.769,244304,171,298313
17.773,244335,178,298357
17.778,244365,168,298381
17.783,244373,168,298382
17.788,244369,170,298410
17.793,244385,179,298467
17.798,244384,168,298466
17.803,244441,168,298483
17.808,244414,171,298472
17.813,244423,186,298511
17.818,244408,168,298524
17.823,244408,168,298565
17.828,244374,173,298568
17.833,244398,182,298571
17.838,244400,168,298626
17.843,244355,168,298648
17.848,244365,171,298634
17.853,244356,174,298621
17.858,244391,168,298617
17.863,244365,168,298618
17.868,244298,171,298559
17.873,244265,192,298507
17.878,244206,168,298408
17.883,244164,168,298323
17.888,244138,174,298296
17.893,244096,196,298270
17.898,244096,168,298237
17.903,244077,168,298205
17.908,244065,172,298148
17.913,244034,201,298084
17.917,243999,168,298101
17.922,244013,168,298085
17.927,243977,175,298030
17.932,243987,201,298020
17.937,243990,168,297962
17.942,243959,168,297925
17.947,243928,171,297935
17.952,243970,204,297890
17.957,243910,168,297881
17.962,243918,168,297870
17.967,243902,171,297855
17.972,243918,209,297799
17.977,243901,168,297810
17.982,243880,168,297774
17.987,243907,173,297746
17.992,243887,216,297690
17.997,243870,168,297667
18.002,243875,168,297617
18.007,243838,173,297593
18.012,243834,216,297502
18.017,243811,168,297517
18.022,243821,168,297470
18.027,243744,170,297376
18.032,243740,219,297281
18.037,243698,168,297210
18.042,243682,168,297161
18.047,243668,168,297093
18.052,243612,212,297018
18.057,243625,168,297012
18.061,243613,168,297003
18.066,243591,168,296902
18.071,243548,205,296929
18.076,243549,168,296846
18.081,243563,168,296919
18.086,243563,168,296886
18.091,243501,232,296889
18.096,243547,168,296882
18.101,243528,168,296899
18.106,243512,168,296880
18.111,243527,235,296827
18.116,243501,168,296863
18.121,243532,168,296737
18.126,243460,168,296503
18.131,243283,220,296218
18.136,243181,169,296039
18.141,243193,168,296057
18.146,243257,168,296093
18.151,243321,231,296201
18.156,243434,176,296307
18.161,243493,168,296395
18.166,243617,168,296543
18.171,243579,249,296615
18.176,243591,187,296505
18.181,243627,168,296323
18.186,243577,168,296168
18.191,243527,238,296073
18.196,243587,196,296094
18.201,243590,168,296150
18.205,243664,168,296111
18.210,243670,247,296031
18.215,243763,211,296076
18.220,243784,168,296114
18.225,243765,168,296137
18.230,243744,270,296026
18.235,243749,227,295962
18.240,243810,168,295776
18.245,243628,168,295527
18.250,243598,322,295074
18.255,243553,242,294938
18.260,243438,168,294901
18.265,243497,168,294654
18.270,243567,324,294365
18.275,243524,250,294068
18.280,243463,168,293910
18.285,243458,168,293718
18.290,243421,300,293597
18.295,243612,250,293508
18.300,243633,168,293514
18.305,243548,168,293517
18.310,243631,360,293610
18.315,243696,262,293676
18.320,243763,168,293892
18.325,243727,168,294070
18.330,243678,338,293988
18.335,243493,270,293691
18.340,243364,168,293352
18.345,242971,168,292875
18.349,242443,222,291996
18.354,241901,277,291013
18.359,241321,168,290026
18.364,240792,168,288847
18.369,240315,246,287784
18.374,239985,297,286925
18.379,239563,168,285783
18.384,239081,168,284854
18.389,238635,236,283986
18.394,238358,293,283376
18.399,237944,168,282975
18.404,237727,168,282512
18.409,237503,235,281938
18.414,237428,312,281636
18.419,236893,168,281190
18.424,236650,168,280537
18.429,236415,232,279981
18.434,236190,349,279505
18.439,236039,168,279376
18.444,235950,168,279120
18.449,235824,236,278723
18.454,235527,372,278267
18.459,235554,168,277840
18.464,235199,168,277497
18.469,234856,237,276945
18.474,234577,402,276407
18.479,234206,168,276066
18.484,233747,168,275539
18.489,233460,243,274858
18.494,233030,406,274315
18.498,232599,168,273807
18.503,232141,168,273404
18.508,231874,245,272844
18.513,231613,433,272551
18.518,231245,168,272190
18.523,231203,168,272076
18.528,230903,254,271928
18.533,230740,462,272073
18.538,230967,168,272128
18.543,231166,168,272227
18.548,231166,244,271941
18.553,231084,498,271508
18.558,230437,168,270805
18.563,229879,168,269823
18.568,229190,222,268659
18.573,228155,428,267055
18.578,226392,168,265248
18.583,224695,168,263357
18.588,222416,224,260448
18.593,219818,256,256417
18.598,216910,168,251988
18.603,214408,168,248608
18.608,213397,212,247574
18.613,213112,443,247200
18.618,213148,168,247165
18.623,212985,168,246997
18.628,212707,201,246330
18.633,212194,438,245891
18.638,212061,168,245547
18.642,211678,168,245291
18.647,211280,194,244802
18.652,210870,445,244236
18.657,210297,168,243814
18.662,209607,168,243500
18.667,209284,193,243511
18.672,209099,456,243720
18.677,209226,168,243769
18.682,209399,168,244132
18.687,209647,187,244286
18.692,209762,492,244463
18.697,210083,168,244885
18.702,210214,168,245108
18.707,210458,186,245647
18.712,210599,514,246101
18.717,210843,168,246698
18.722,210960,168,247123
18.727,211213,182,247831
18.732,211451,507,248285
18.737,211642,168,248776
18.742,212293,168,250197
18.747,213278,175,251283
18.752,213825,480,252122
18.757,214513,168,253091
18.762,215151,168,253971
18.767,215567,168,254500
18.772,215730,409,255172
18.777,216077,169,255788
18.782,216564,168,256796
18.786,217235,168,257605
18.791,217916,369,258690
18.796,218747,170,259679
18.801,219739,168,261188
18.806,220697,168,262361
18.811,221571,354,263267
18.816,222309,172,264205
18.821,222838,168,264855
18.826,223086,168,265117
18.831,223041,343,265238
18.836,222956,174,265352
18.841,223019,168,265733
18.846,222971,168,265826
18.851,222917,312,266012
18.856,222664,183,266362
18.861,222635,168,266830
18.866,222563,168,267300
18.871,222613,293,267732
18.876,222892,180,268325
18.881,223223,168,268998
18.886,223615,168,269497
18.891,223837,291,269911
18.896,223877,194,270053
18.901,224106,168,270585
18.906,224692,168,271352
18.911,224975,268,271868
18.916,225402,196,272477
18.921,225832,168,273193
18.926,226272,168,273830
18.930,226691,254,274540
18.935,227128,206,275450
18.940,227683,168,276703
18.945,228564,168,278043
18.950,229503,287,279722
18.955,230790,229,281666
18.960,232164,168,283721
18.965,233363,168,285599
18.970,234326,312,287267
18.975,235383,240,288799
18.980,236251,168,290250
18.985,236939,168,291115
18.990,237201,355,291575
18.995,237392,255,292049
19.000,237274,168,292415
19.005,237545,168,292650
19.010,237579,331,292807
19.015,237514,248,293436
19.020,238132,168,294567
19.025,238533,168,295409
19.030,238835,304,296060
19.035,239231,243,296803
19.040,239588,168,297374
19.045,239813,168,297802
19.050,240067,353,298364
19.055,240309,237,298960
19.060,240590,168,299451
19.065,240721,168,299971
19.070,241016,294,300609
19.074,241265,241,301214
19.079,241506,168,301816
19.084,241518,168,301998
19.089,241701,227,302450
19.094,241717,254,302616
19.099,241369,168,302299
19.104,240688,168,301793
19.109,239847,236,301163
19.114,238996,260,300927
19.119,238128,168,300240
19.124,237168,168,300078
19.129,236574,233,299962
19.134,236335,257,300342
19.139,236368,168,300965
19.144,236459,168,301359
19.149,236757,224,301878
19.154,237036,251,302585
19.159,237223,168,303127
19.164,237447,168,303410
19.169,237325,217,303437
19.174,237178,282,303322
19.179,236983,168,303497
19.184,237031,168,303617
19.189,237129,213,303904
19.194,237272,295,304464
19.199,238141,168,305978
19.204,239226,168,307687
19.209,239821,213,309057
19.214,240148,306,310810
19.218,240615,168,313227
19.223,241845,168,316667
19.228,243825,216,321926
19.233,246563,314,327327
19.238,250026,168,334390
19.243,253017,168,340744
19.248,255838,221,346357
19.253,258249,332,351626
19.258,260328,168,355519
19.263,261814,168,358323
19.268,263005,231,360307
19.273,263542,362,361705
19.278,264060,168,362373
19.283,264250,168,362553
19.288,264090,220,362408
19.293,263995,409,362297
19.298,263774,168,362363
19.303,263747,168,362513
19.308,264110,216,363011
19.313,264548,362,363870
19.318,265292,168,365227
19.323,266185,168,366830
19.328,267200,207,368363
19.333,267946,238,369698
19.338,268565,168,370437
19.343,268783,168,371005
19.348,268579,212,370888
19.353,268005,353,370353
19.358,267557,168,369471
19.362,266945,168,368792
19.367,266257,203,368021
19.372,265711,363,367181
19.377,264963,168,366336
19.382,264318,168,365387
19.387,263565,193,364455
19.392,262839,357,363299
19.397,262060,168,362434
19.402,261614,168,361570
19.407,261028,193,360401
19.412,260491,357,359434
19.417,259969,168,358304
19.422,259579,168,357238
19.427,259500,192,356570
19.432,259450,361,355979
19.437,259641,168,355401
19.442,259918,168,355173
19.447,260403,186,355141
19.452,261072,382,355402
19.457,261939,168,355950
19.462,262699,168,356228
19.467,263431,183,356557
19.472,264120,423,356477
19.477,264864,168,356489
19.482,265191,168,356003
19.487,264941,178,355117
19.492,264512,422,354039
19.497,264034,168,352909
19.502,263349,168,352047
19.506,262814,173,351480
19.511,262345,396,350928
19.516,261912,168,350469
19.521,261395,168,349736
19.526,260752,168,348852
19.531,260095,377,347625
19.536,259414,178,346474
19.541,258722,168,345055
19.546,258053,168,343356
19.551,257451,314,341942
19.556,257017,180,340776
19.561,256482,168,339645
19.566,256011,168,338438
19.571,255742,318,337649
19.576,255512,180,336713
19.581,255395,168,336243
19.586,255218,168,335434
19.591,255295,342,334876
19.596,255494,178,334916
19.601,255474,168,334015
19.606,255165,168,333088
19.611,254986,328,332210
19.616,254817,185,331217
19.621,254708,168,330243
19.626,254562,168,329288
19.631,254378,295,328081
19.636,254168,191,326800
19.641,254318,168,326476
19.646,254846,168,326852
19.651,255455,302,327274
19.655,256492,195,328375
19.660,257705,168,329750
19.665,258981,168,330945
19.670,260299,284,332021
19.675,261384,207,333014
19.680,262242,168,333915
19.685,262790,168,334734
19.690,263059,273,335085
19.695,263100,218,335127
19.700,262826,168,334994
19.705,262647,168,334207
19.710,261964,292,332571
19.715,261098,238,330482
19.720,260070,168,328324
19.725,259190,168,325628
19.730,258245,325,322803
19.735,257340,249,319951
19.740,256402,168,316941
19.745,255414,168,314103
19.750,254527,353,311194
19.755,253901,267,308433
19.760,253297,168,305949
19.765,252707,168,303478
19.770,252487,420,301226
19.775,252268,298,300046
19.780,252210,168,299067
19.785,252549,168,298356
19.790,252674,411,297913
19.795,252568,299,297580
19.799,252582,168,297529
19.804,252438,168,297246
19.809,252183,379,296804
19.814,252064,309,296268
19.819,251979,168,295657
19.824,251715,168,294890
19.829,251421,438,294034
19.834,251386,298,293291
19.839,251116,168,292679
19.844,250908,168,292015
19.849,250808,392,291395
19.854,250540,286,290911
19.859,250602,168,290721
19.864,250391,168,290658
19.869,250300,249,290881
19.874,250320,317,291325
19.879,250569,168,292365
19.884,251071,168,293449
19.889,251794,273,295119
19.894,252665,323,297284
19.899,253842,168,299495
19.904,254916,168,301549
19.909,255961,264,303182
19.914,256657,329,304229
19.919,257290,168,304593
19.924,257679,168,304726
19.929,257883,255,304885
19.934,258152,325,305522
19.939,258718,168,306503
19.943,259048,168,307504
19.948,259426,258,308800
19.953,259960,362,310274
19.958,260462,168,312007
19.963,261126,168,313611
19.968,261700,256,315309
19.973,262609,398,317392
19.978,263498,168,319570
19.983,264916,168,321604
19.988,266477,248,323804
19.993,267909,419,326443
19.998,269633,168,329404
20.003,271315,168,332746
20.008,273009,252,336094
20.013,274696,417,339173
20.018,276185,168,342759
20.023,277988,168,346354
20.028,279555,259,350011
20.033,281276,393,353668
20.038,282675,168,357094
20.043,284062,168,360238
20.048,285275,263,363076
20.053,286200,479,365791
20.058,287609,168,368205
20.063,288534,168,370578
20.068,289166,262,372413
20.073,289963,522,374082
20.078,290518,168,375417
20.083,290658,168,376563
20.087,291018,256,377108
20.092,291229,504,377798
20.097,291204,168,378484
20.102,291485,168,379379
20.107,291671,247,380349
20.112,292074,339,381604
20.117,292527,168,383294
20.122,293121,168,384740
20.127,293596,245,386444
20.132,294047,383,387748
20.137,294603,168,389351
20.142,294993,168,390730
20.147,295397,238,391838
20.152,295548,509,392948
20.157,295841,168,393682
20.162,295922,168,394618
20.167,296055,216,395213
20.172,296016,516,395756
20.177,296115,168,395871
20.182,295842,168,396006
20.187,295536,210,395950
20.192,295345,492,395468
20.197,294743,168,395510
20.202,294501,168,395099
20.207,294152,207,394771
20.212,293719,528,394296
20.217,293382,168,394104
20.222,293119,168,393713
20.227,292847,203,393390
20.231,292601,523,393170
20.236,292537,168,393110
20.241,292417,168,393162
20.246,292286,198,393063
20.251,292294,660,392946
20.256,291800,168,392851
20.261,291593,168,392549
20.266,291246,200,392046
20.271,290817,550,391476
20.276,290391,168,390595
20.281,289745,168,389851
20.286,289337,186,388911
20.291,288630,497,388179
20.296,288248,168,387606
20.301,287897,168,387215
20.306,287391,173,386492
20.311,286810,453,385695
20.316,286251,171,385272
20.321,285714,168,384825
20.326,285242,169,384400
20.331,284748,376,383866
20.336,284254,168,383332
20.341,283922,168,383081
20.346,283423,171,382674
20.351,282920,337,382017
20.356,282491,168,381542
20.361,282081,168,381007
20.366,281599,175,380360
20.371,281253,363,380029
20.375,281087,169,379981
20.380,281159,168,380370
20.385,281287,169,380821
20.390,281487,328,381580
20.395,281780,176,382410
20.400,281956,168,383315
20.405,282055,168,384351
20.410,282254,301,385287
20.415,282535,180,386428
20.420,282802,168,387601
20.425,282975,168,388541
20.430,283096,308,389342
20.435,283288,190,390094
20.440,283516,168,390808
20.445,283485,168,391477
20.450,283425,287,391923
20.455,283379,199,392345
20.460,283618,168,392572
20.465,283252,168,392654
20.470,282710,278,392469
20.475,282296,205,392564
20.480,282060,168,392978
20.485,282038,168,393315
20.490,281857,302,393167
20.495,281545,224,393006
20.500,281290,168,392889
20.505,281202,168,392607
20.510,280960,328,392174
20.515,280751,229,391718
20.519,280686,168,391297
20.524,280344,168,390546
20.529,280053,380,389763
20.534,279788,239,388932
20.539,279303,168,388098
20.544,279049,168,387180
20.549,278767,376,386162
20.554,278234,236,385105
20.559,277766,168,384042
20.564,277366,168,382790
20.569,276600,333,381450
20.574,276094,224,380277
20.579,275693,168,378978
20.584,274972,168,377530
20.589,274427,350,376043
20.594,273667,209,374596
20.599,272890,168,373004
20.604,272294,168,371637
20.609,271606,352,370339
20.614,270894,204,369214
20.619,270171,168,367969
20.624,269294,168,366714
20.629,268341,250,365235
20.634,267404,203,363716
20.639,266448,168,362485
20.644,265465,168,360957
20.649,264405,251,359586
20.654,263399,212,358431
20.659,262542,168,357662
20.664,262080,168,357137
20.668,261685,247,356703
20.673,261367,220,356112
20.678,260998,168,355576
20.683,260980,168,355474
20.688,260790,240,355088
20.693,260697,241,354869
20.698,260615,168,355068
20.703,260742,168,355088
20.708,260606,241,355101
20.713,260536,258,355284
20.718,260734,168,355415
20.723,260583,168,355428
20.728,260493,243,355262
20.733,260293,280,355198
20.738,260147,168,355038
20.743,259929,168,354978
20.748,259773,232,354893
20.753,259574,283,354841
20.758,259542,168,354903
20.763,259504,168,354795
20.768,259303,228,354520
20.773,258953,291,354145
20.778,258794,168,354040
20.783,258497,168,353891
20.788,258394,234,353794
20.793,258287,294,353731
20.798,258068,168,353785
20.803,258108,168,353874
20.808,258276,232,353985
20.812,258198,316,354113
20.817,258389,168,354329
20.822,258488,168,354515
20.827,258439,238,354587
20.832,258493,375,354811
20.837,258551,168,354895
20.842,258557,168,355143
20.847,258577,231,355328
20.852,258616,329,355440
20.857,258757,168,355544
20.862,258697,168,355683
20.867,258680,232,355732
20.872,258743,209,355732
20.877,258644,168,355953
20.882,258735,168,356004
20.887,258682,230,356136
20.892,258808,403,356324
20.897,258882,168,356553
20.902,259006,168,356558
20.907,258876,225,356411
20.912,258868,420,356427
20.917,258836,168,356183
20.922,258767,168,356082
20.927,258588,214,355738
20.932,258573,451,355308
20.937,258270,168,355022
20.942,258201,168,354722
20.947,257952,216,353833
20.952,257631,464,353058
20.956,257202,168,352358
20.961,256839,168,351654
20.966,256617,213,351059
20.971,256341,481,350480
20.976,256098,168,350137
20.981,256111,168,349858
20.986,256010,206,349646
20.991,255954,536,349464
20.996,256054,168,349577
21.001,255893,168,349434
21.006,255767,202,349393
21.011,255771,578,349411
21.016,256491,168,350782
21.021,256763,168,350742
21.026,256753,203,350778
21.031,257104,579,351292
21.036,257431,168,351866
21.041,257560,168,352163
21.046,257481,193,352273
21.051,257126,529,352333
21.056,257044,168,352235
21.061,256885,168,352313
21.066,256783,178,352170
21.071,256863,460,352372
21.076,256850,169,352500
21.081,257057,168,353016
21.086,257133,171,353125
21.091,257186,408,353382
21.096,257151,168,353350
21.100,257126,168,353491
21.105,257079,172,353711
21.110,257108,348,353742
21.115,257117,168,353821
21.120,257001,168,353822
21.125,256897,175,353782
21.130,256787,364,353691
21.135,256726,168,353753
21.140,256710,168,353866
21.145,256646,176,353799
21.150,256532,320,353780
21.155,256507,173,353818
21.160,256559,168,353884
21.165,256353,170,353734
21.170,256175,280,353532
21.175,256015,172,353356
21.180,255810,168,353171
21.185,255623,169,352987
21.190,255340,266,352656
21.195,254910,181,352235
21.200,254478,168,351772
21.205,254009,168,351262
21.210,253519,251,350835
21.215,253280,195,350634
21.220,253176,168,350665
21.225,253070,168,350503
21.230,252916,263,350201
21.235,252926,198,350316
21.240,252802,168,350441
21.244,252999,168,350607
21.249,253096,273,350689
21.254,253114,195,350632
21.259,253009,168,350575
21.264,253015,168,350524
21.269,253060,281,350485
21.274,253004,203,350332
21.279,252865,168,350210
21.284,252704,168,350075
21.289,252654,300,349963
21.294,252653,216,349933
21.299,252508,168,349844
21.304,252406,168,349568
21.309,252199,301,349196
21.314,251901,213,348793
21.319,251436,168,348397
21.324,251216,168,348021
21.329,250955,279,347627
21.334,250624,213,347158
21.339,250453,168,346794
21.344,250006,168,346334
21.349,249641,280,345889
21.354,249361,216,345428
21.359,249078,168,344985
21.364,248787,168,344430
21.369,248390,300,343919
21.374,248066,212,343389
21.379,247710,168,342995
21.384,247352,168,342513
21.388,246996,247,342014
21.393,246721,205,341722
21.398,246495,168,341405
21.403,246260,168,341017
21.408,246090,219,340729
21.413,245885,221,340521
21.418,245720,168,340316
21.423,245518,168,340034
21.428,245344,222,339810
21.433,245113,227,339496
21.438,245053,168,339236
21.443,244895,168,339058
21.448,244738,221,338864
21.453,244509,229,338523
21.458,244450,168,338425
21.463,244305,168,338208
21.468,244100,213,337919
21.473,244007,245,337770
21.478,243897,168,337717
21.483,243854,168,337622
21.488,243771,215,337500
21.493,243715,259,337418
21.498,243766,168,337368
21.503,243691,168,337325
21.508,243627,212,337274
21.513,243532,269,337227
21.518,243463,168,337109
21.523,243432,168,336992
21.528,243411,217,336858
21.532,243265,285,336736
21.537,243229,168,336710
21.542,243205,168,336731
21.547,243162,217,336726
21.552,243214,298,336742
21.557,243105,168,336800
21.562,243081,168,336761
21.567,243086,223,336580
21.572,243048,301,336455
21.577,242926,168,336286
21.582,242690,168,336079
21.587,242534,221,335778
21.592,242271,316,335535
21.597,242194,168,335299
21.602,242384,168,335333
21.607,242059,219,334939
21.612,241955,341,334726
21.617,241963,168,334556
21.622,241797,168,334338
21.627,241599,208,334041
21.632,241480,316,333797
21.637,241337,168,333551
21.642,241228,168,333476
21.647,241150,206,333336
21.652,241067,242,333190
21.657,240987,168,333032
21.662,240837,168,332868
21.667,240778,208,332719
21.672,240689,320,332614
21.676,240617,168,332579
21.681,240492,168,332398
21.686,240351,200,332190
21.691,240109,338,331943
21.696,239916,168,331764
21.701,239621,168,331473
21.706,239422,198,331343
21.711,239334,353,331362
21.716,239318,168,331344
21.721,239211,168,331387
21.726,239140,197,331207
21.731,239048,357,331032
21.736,238992,168,331081
21.741,238882,168,331025
21.746,238731,193,330943
21.751,238595,388,330817
21.756,238553,168,330699
21.761,238390,168,330492
21.766,238275,197,330310
21.771,238141,413,330147
21.776,237950,168,330090
21.781,237881,168,330074
21.786,237788,192,329956
21.791,237709,419,329860
21.796,237676,168,329912
21.801,237631,168,329893
21.806,237523,191,329814
21.811,237678,428,329828
21.816,237674,168,329850
21.821,237730,168,329905
21.825,237670,181,329808
21.830,237673,407,329814
21.835,237680,168,329741
21.840,237708,168,329841
21.845,237722,174,329744
21.850,237724,373,329659
21.855,237667,172,329587
21.860,237637,168,329539
21.865,237544,169,329417
21.870,237540,354,329309
21.875,237525,176,329272
21.880,237473,168,329276
21.885,237418,170,329221
21.890,237403,300,329160
21.895,237456,172,329201
21.900,237435,168,329210
21.905,237371,172,329119
21.910,237377,354,329136
21.915,237380,176,329132
21.920,237367,168,329066
21.925,237380,168,328923
21.930,237298,349,328891
21.935,237248,176,328714
21.940,237179,168,328703
21.945,237023,168,328435
21.950,236878,303,328128
21.955,236777,186,327999
21.960,236791,168,328005
21.965,236700,169,327839
21.969,236486,308,327552
21.974,236452,191,327432
21.979,236353,168,327337
21.984,236258,168,327264
21.989,236242,304,327185
21.994,236175,196,327090
21.999,236201,168,327029
22.004,236092,168,326959
22.009,236026,293,326934
22.014,236108,205,326966
22.019,236106,168,327122
22.024,236039,168,326770
22.029,235909,301,326707
22.034,235846,216,326528
22.039,235608,168,326362
22.044,235441,168,326103
22.049,235239,341,325693
22.054,234793,240,325210
22.059,234564,168,324913
22.064,234359,168,324518
22.069,234155,390,324266
22.074,234051,267,324117
22.079,233967,168,324090
22.084,233850,168,324099
22.089,233982,447,324130
22.094,234005,282,324430
22.099,234108,168,324779
22.104,234501,168,325187
22.109,234667,411,325482
22.113,234940,299,325906
22.118,235480,168,326560
22.123,235807,168,327122
22.128,236063,393,327714
22.133,236835,299,328545
22.138,237417,168,329456
22.143,238079,168,330515
22.148,239049,504,331644
22.153,239762,315,332819
22.158,240362,168,333627
22.163,240752,168,334057
22.168,240834,445,334274
22.173,240781,334,334443
22.178,240770,168,334662
22.183,240689,168,334470
22.188,240524,290,334299
22.193,240489,348,334285
22.198,240372,168,334508
22.203,240099,168,334119
22.208,239975,327,333838
22.213,239691,371,333366
22.218,239480,168,333065
22.223,239256,168,332776
22.228,239079,306,332396
22.233,238855,370,331939
22.238,238675,168,331346
22.243,238400,168,331049
22.248,238226,308,330463
22.253,238075,367,330074
22.257,237793,168,330055
22.262,237596,168,329310
22.267,237350,285,328699
22.272,236996,424,328266
22.277,236673,168,327918
22.282,236704,168,327748
22.287,236527,294,327448
22.292,236432,460,327103
22.297,236325,168,327039
22.302,236361,168,326927
22.307,236306,278,326758
22.312,236260,501,326446
22.317,236205,168,326229
22.322,236150,168,326165
22.327,236099,281,325729
22.332,235854,477,325375
22.337,235811,168,324773
22.342,235470,168,324266
22.347,235038,275,323659
22.352,234964,479,323122
22.357,234462,168,322610
22.362,234306,168,321955
22.367,234032,271,321214
22.372,233836,470,320423
22.377,233553,168,319594
22.382,233099,168,318710
22.387,232658,280,317853
22.392,231942,517,316753
22.397,231475,168,315584
22.401,231043,168,314473
22.406,230671,261,313334
22.411,230172,502,312152
22.416,229964,168,312034
22.421,229889,168,311694
22.426,229550,241,311096
22.431,229467,395,310786
22.436,229300,168,310428
22.441,229228,168,310358
22.446,229175,237,310215
22.451,229330,306,310379
22.456,229381,168,310318
22.461,229316,168,310182
22.466,229239,231,310213
22.471,229254,417,310167
22.476,229319,168,310306
22.481,229139,168,310041
22.486,229100,215,310037
22.491,228850,337,309689
22.496,228665,168,309391
22.501,228264,168,308904
22.506,227903,209,308514
22.511,227989,331,308722
22.516,227723,335,308490
22.521,227496,168,308857
22.526,227628,168,308774
22.531,227303,839,308548
22.536,227076,239,308282
22.541,227050,168,308485
22.545,227054,168,308486
22.550,227513,820,309275
22.555,227418,247,308876
22.560,227476,168,308951
22.565,227773,168,309103
22.570,227812,745,308973
22.575,227675,274,308857
22.580,227812,168,309015
22.585,227963,168,309055
22.590,228186,530,309119
22.595,228386,286,309034
22.600,228804,168,309656
22.605,229026,220,309542
22.610,229048,1217,309306
22.615,228991,168,308717
22.620,228776,168,308363
22.625,228495,205,307694
22.630,228495,323,307418
22.635,228608,168,307082
22.640,228670,168,306788
22.645,228525,184,305973
22.650,228295,291,305209
22.655,228091,168,304521
22.660,227952,168,303782
22.665,227882,181,303065
22.670,227841,262,302478
22.675,227757,168,301646
22.680,227836,168,300993
22.685,227722,184,300086
22.689,227719,245,299982
22.694,228384,168,299862
22.699,228256,168,298938
22.704,228267,183,298315
22.709,228304,237,297787
22.714,228310,168,297215
22.719,228313,168,296669
22.724,228277,185,296037
22.729,228204,226,295448
22.734,228146,168,294923
22.739,228055,168,294543
22.744,227818,180,293966
22.749,227987,206,294155
22.754,228316,168,294338
22.759,228651,168,294556
22.764,228958,183,294602
22.769,229296,199,294802
22.774,229714,168,294884
22.779,229842,168,294665
22.784,229868,182,294479
22.789,230034,190,294512
22.794,230225,168,294674
22.799,230660,168,294999
22.804,230909,172,294962
22.809,230915,183,294822
22.814,230978,177,294873
22.819,231055,168,294983
22.824,231170,171,295174
22.829,231305,187,295407
22.834,231437,181,295613
22.838,231501,168,295816
22.843,231585,168,296031
22.848,231665,188,296274
22.853,231736,180,296499
22.858,231830,168,296754
22.863,231846,170,296981
22.868,231875,196,297224
22.873,231997,176,297545
22.878,232069,168,297877
22.883,232095,170,297927
22.888,232089,180,297744
22.893,231479,171,297254
22.898,231502,168,297637
22.903,231820,170,298025
22.908,231854,177,298090
22.913,231792,174,298041
22.918,231632,168,297878
22.923,231514,172,297789
22.928,231519,178,297822
22.933,231584,175,297942
22.938,231644,168,298018
22.943,231639,173,298029
22.948,231636,174,298020
22.953,231583,172,298020
22.958,231574,168,298009
22.963,231556,170,298023
22.968,231576,172,298040
22.973,231563,172,298063
22.978,231554,169,298098
22.982,231562,170,298092
22.987,231551,172,298125
22.992,231551,172,298129
22.997,231548,170,298157
23.002,231588,172,298164
23.007,231570,174,298177
23.012,231568,173,298182
23.017,231553,170,298188
23.022,231575,171,298213
23.027,231546,174,298207
23.032,231548,173,298207
23.037,231549,171,298263
23.042,231570,171,298235
23.047,231565,170,298264
23.052,231559,174,298270
23.057,231554,171,298282
23.062,231540,171,298301
23.067,231544,173,298326
23.072,231535,175,298319
23.077,231529,170,298323
23.082,231524,171,298348
23.087,231536,175,298342
23.092,231537,178,298350
23.097,231536,168,298362
23.102,231538,169,298370
23.107,231538,173,298396
23.112,231548,179,298395
23.117,231544,168,298392
23.122,231524,169,298415
23.126,231520,178,298428
23.131,231554,181,298438
23.136,231543,168,298445
23.141,231554,171,298446
23.146,231575,176,298481
23.151,231562,177,298494
23.156,231579,168,298515
23.161,231569,168,298522
23.166,231592,175,298529
23.171,231574,177,298545
23.176,231588,170,298553
23.181,231606,171,298557
23.186,231617,176,298573
23.191,231609,172,298571
23.196,231626,170,298573
23.201,231619,171,298619
23.206,231615,173,298639
23.211,231618,172,298692
23.216,231628,172,298674
23.221,231653,173,298717
23.226,231648,175,298705
23.231,231658,175,298725
23.236,231665,170,298734
23.241,231651,172,298761
23.246,231680,173,298738
23.251,231675,173,298754
23.256,231670,174,298766
23.261,231672,171,298759
23.266,231677,170,298795
23.270,231670,169,298811
23.275,231706,172,298827
23.280,231704,173,298824
23.285,231686,171,298833
23.290,231713,172,298829
23.295,231695,175,298860
23.300,231718,175,298850
23.305,231709,175,298852
23.310,231719,168,298842
23.315,231696,173,298857
23.320,231734,173,298857
23.325,231730,172,298847
23.330,231726,169,298861
23.335,231722,174,298849
23.340,231746,173,298887
23.345,231739,171,298877
23.350,231722,169,298850
23.355,231734,174,298866
23.360,231731,176,298857
23.365,231746,173,298839
23.370,231729,170,298830
23.375,231712,175,298814
23.380,231706,179,298831
23.385,231708,175,298818
23.390,231708,168,298823
23.395,231688,173,298830
23.400,231697,178,298858
23.405,231718,173,298894
23.410,231727,169,298921
23.414,231731,174,298924
23.419,231763,180,298915
23.424,231760,175,298915
23.429,231765,169,298906
23.434,231819,175,298862
23.439,231787,178,298825
23.444,231783,173,298821
23.449,231760,168,298789
23.454,231743,175,298795
23.459,231736,182,298739
23.464,231710,175,298744
23.469,231690,168,298762
23.474,231686,176,298754
23.479,231692,185,298731
23.484,231670,173,298724
23.489,231666,168,298747
23.494,231693,174,298786
23.499,231675,184,298761
23.504,231692,175,298785
23.509,231694,169,298785
23.514,231731,175,298807
23.519,231704,188,298812
23.524,231721,176,298821
23.529,231708,170,298796
23.534,231753,172,298815
23.539,231752,186,298819
23.544,231744,174,298811
23.549,231774,169,298811
23.554,231768,173,298806
23.558,231775,188,298823
23.563,231779,177,298815
23.568,231796,168,298817
23.573,231801,172,298805
23.578,231795,183,298784
23.583,231807,176,298836
23.588,231824,171,298828
23.593,231825,175,298845
23.598,231802,183,298853
23.603,231827,178,298885
23.608,231870,169,298887
23.613,231861,172,298927
23.618,231873,177,298921
23.623,231910,174,298919
23.628,231893,171,298901
23.633,231880,176,298917
23.638,231920,181,298872
23.643,231905,178,298869
23.648,231911,176,298868
23.653,231908,177,298877
23.658,231926,177,298884
23.663,231924,174,298883
23.668,231920,173,298885
23.673,231936,173,298902
23.678,231916,178,298919
23.683,231971,177,298962
23.688,231975,177,298947
23.693,231974,176,298967
23.698,231969,183,298950
23.702,232008,173,298963
23.707,231991,174,298967
23.712,232024,174,298947
23.717,232046,179,298954
23.722,232026,176,298940
23.727,232041,174,298949
23.732,232041,176,298947
23.737,232040,179,298942
23.742,232036,179,298946
23.747,232025,178,298951
23.752,232025,179,298950
23.757,232039,175,298939
23.762,232031,175,298940
23.767,232038,173,298953
23.772,232047,174,298956
23.777,232047,178,298968
23.782,232054,178,298968
23.787,232060,177,298994
23.792,232051,177,298970
23.797,232054,181,298961
23.802,232044,179,298965
23.807,232027,179,298946
23.812,232004,177,298932
23.817,231958,182,298879
23.822,231979,174,298886
23.827,231946,176,298831
23.832,231917,174,298822
23.837,231901,180,298815
23.842,231867,177,298762
23.847,231840,178,298772
23.851,231843,176,298783
23.856,231841,181,298774
23.861,231852,179,298802
23.866,231865,179,298799
23.871,231855,177,298835
23.876,231852,177,298843
23.881,231861,177,298834
23.886,231853,176,298867
23.891,231855,176,298860
23.896,231857,178,298857
23.901,231866,179,298827
23.906,231882,177,298848
23.911,231867,172,298824
23.916,231857,174,298804
23.921,231862,178,298777
23.926,231848,173,298792
23.931,231854,173,298815
23.936,231847,175,298814
23.941,231857,175,298841
23.946,231855,176,298812
23.951,231843,175,298802
23.956,231847,178,298798
23.961,231855,177,298789
23.966,231846,178,298772
23.971,231839,173,298795
23.976,231831,175,298738
23.981,231836,174,298731
23.986,231833,177,298735
23.991,231814,175,298756
23.995,231844,177,298740
24.000,231845,171,298750
24.005,231831,173,298754
24.010,231821,171,298774
24.015,231830,173,298791
24.020,231825,175,298795
24.025,231839,176,298796
24.030,231840,175,298827
24.035,231845,171,298838
24.040,231870,171,298840
24.045,231876,171,298835
24.050,231891,171,298865
24.055,231909,171,298890
24.060,231913,171,298876
24.065,231937,171,298885
24.070,231934,173,298877
24.075,231919,173,298879
24.080,231935,174,298875
24.085,231909,175,298874
24.090,231922,170,298878
24.095,231926,170,298883
24.100,231912,171,298863
24.105,231928,172,298850
24.110,231924,171,298887
24.115,231926,172,298862
24.120,231915,171,298869
24.125,231921,173,298877
24.130,231909,173,298848
24.135,231915,174,298859
24.139,231911,173,298811
24.144,231904,170,298813
24.149,231881,170,298794
24.154,231874,172,298763
24.159,231863,170,298741
24.164,231848,175,298759
24.169,231879,170,298659
24.174,231843,171,298639
24.179,231841,170,298604
24.184,231841,171,298584
24.189,231818,171,298559
24.194,231828,171,298574
24.199,231783,171,298548
24.204,231807,172,298544
24.209,231820,173,298539
24.214,231805,169,298536
24.219,231807,171,298530
24.224,231820,171,298523
24.229,231832,171,298537
24.234,231834,171,298552
24.239,231845,172,298551
24.244,231848,172,298555
24.249,231865,173,298556
24.254,231853,173,298560
24.259,231870,170,298561
24.264,231886,171,298598
24.269,231886,172,298613
24.274,231904,173,298660
24.279,231939,173,298683
24.283,231937,173,298744
24.288,231968,174,298771
24.293,232007,169,298799
24.298,232028,170,298857
24.303,232037,171,298910
24.308,232081,170,298947
24.313,232109,173,298999
24.318,232115,172,299078
24.323,232177,169,299135
24.328,232180,169,299179
24.333,232212,170,299218
24.338,232248,169,299257
24.343,232270,170,299306
24.348,232282,171,299288
24.353,232282,171,299326
24.358,232293,172,299314
24.363,232316,169,299347
24.368,232332,170,299356
24.373,232326,170,299383
24.378,232336,170,299415
24.383,232341,171,299434
24.388,232361,172,299456
24.393,232369,169,299508
24.398,232401,169,299508
24.403,232428,169,299577
24.408,232443,171,299605
24.413,232493,169,299651
24.418,232504,169,299704
24.423,232538,169,299779
24.427,232567,171,299795
24.432,232583,170,299835
24.437,232506,170,299774
24.442,232443,171,299652
24.447,232404,172,299599
24.452,232353,171,299559
24.457,232403,168,299556
24.462,232370,168,299577
24.467,232406,169,299603
24.472,232436,169,299631
24.477,232490,168,299665
24.482,232556,169,299746
24.487,232633,169,299814
24.492,232705,169,299873
24.497,232779,168,299959
24.502,232879,169,300079
24.507,233059,171,300315
24.512,233250,168,300550
24.517,233485,168,300867
24.522,233708,168,301128
24.527,233891,169,301367
24.532,234042,169,301521
24.537,234128,169,301660
24.542,234210,169,301804
24.547,234249,171,301835
24.552,234286,170,301941
24.557,234345,169,302075
24.562,234404,169,302187
24.567,234456,171,302354
24.571,234609,170,302696
24.576,234780,171,302985
24.581,234902,169,303301
24.586,235070,170,303615
24.591,235264,169,303888
24.596,235427,169,304180
24.601,235657,169,304530
24.606,235886,169,304909
24.611,236148,169,305324
24.616,236403,169,305711
24.621,236640,170,306046
24.626,236869,170,306444
24.631,237126,170,306875
24.636,237357,170,307314
24.641,237564,170,307677
24.646,237743,171,308059
24.651,237946,169,308443
24.656,238163,169,308900
24.661,238423,169,309454
24.666,238709,170,310092
24.671,239005,172,310797
24.676,239407,168,311654
24.681,239843,168,312567
24.686,240213,169,313484
24.691,240605,169,314271
24.696,240873,169,314959
24.701,241135,169,315619
24.706,241359,170,316217
24.711,241532,170,316643
24.715,241647,170,316990
24.720,241707,170,317207
24.725,241704,172,317338
24.730,241654,168,317289
24.735,241573,168,317203
24.740,241459,168,317070
24.745,241365,169,316935
24.750,241274,172,316786
24.755,241148,169,316587
24.760,241030,169,316435
24.765,240938,171,316216
24.770,240773,171,315927
24.775,240570,170,315509
24.780,240320,168,314967
24.785,239910,168,314177
24.790,239476,169,313317
24.795,239028,168,312452
24.800,238577,168,311441
24.805,238001,168,310290
24.810,237232,170,308896
24.815,236353,169,307366
24.820,235213,171,305618
24.825,233943,173,303902
24.830,233158,173,302976
24.835,232702,173,302380
24.840,232363,169,301955
24.845,232033,169,301500
24.850,231694,172,301130
24.855,231451,172,300875
24.859,231300,168,300677
24.864,231114,169,300409
24.869,231079,169,300388
24.874,231023,169,300269
24.879,231036,169,300322
24.884,231129,170,300493
24.889,231359,170,300851
24.894,231731,171,301449
24.899,232095,169,302070
24.904,232409,172,302595
24.909,232712,172,303100
24.914,233017,168,303590
24.919,233300,168,304022
24.924,233497,170,304380
24.929,233683,170,304605
24.934,233832,170,304744
24.939,233907,170,304806
24.944,233913,175,304752
24.949,233886,170,304643
24.954,233850,170,304490
24.959,233872,170,304452
24.964,233898,171,304322
24.969,233734,173,303864
24.974,233615,172,303538
24.979,233597,171,303355
24.984,233971,172,303615
24.989,234096,169,303388
24.994,233901,171,302838
24.999,233425,172,301943
25.004,233178,168,301451
25.008,232563,169,300647
25.013,232877,169,300972
25.018,233036,170,301200
25.023,233188,172,301435
25.028,233387,169,301770
25.033,233655,169,302307
25.038,233802,168,302730
25.043,233886,171,303041
25.048,233825,172,303126
25.053,233657,169,303126
25.058,233428,168,303037
25.063,233209,170,302880
25.068,232890,170,302536
25.073,232521,171,302087
25.078,232047,171,301471
25.083,231458,173,300556
25.088,230787,169,299672
25.093,230315,172,299093
25.098,230191,172,298917
25.103,230212,168,299040
25.108,230366,169,299299
25.113,230500,168,299633
25.118,230687,169,300006
25.123,230883,169,300384
25.128,231143,170,300868
25.133,231414,170,301435
25.138,231701,171,302032
25.143,232029,170,302685
25.148,232297,172,303398
25.152,232634,168,304144
25.157,233013,168,305085
25.162,233360,168,305941
25.167,233663,169,306721
25.172,233915,169,307472
25.177,234067,169,308038
25.182,234093,170,308418
25.187,234068,170,308651
25.192,234000,169,308741
25.197,233882,169,308777
25.202,233698,170,308671
25.207,233486,171,308589
25.212,233312,168,308512
25.217,233331,168,308837
25.222,233414,168,309121
25.227,233287,169,309236
25.232,233521,169,309894
25.237,233775,168,310408
25.242,233803,168,310780
25.247,234197,169,311536
25.252,234717,169,312563
25.257,235172,169,313429
25.262,235416,169,313974
25.267,235733,171,314735
25.272,235984,168,315415
25.277,236515,168,316452
25.282,236693,168,316977
25.287,236892,168,317549
25.292,237156,168,318303
25.296,237437,168,319009
25.301,237600,169,319561
25.306,237721,171,319795
25.311,237805,168,320171
25.316,237844,168,320456
25.321,237836,168,320582
25.326,237814,168,320675
25.331,237769,169,320739
25.336,237714,170,320808
25.341,237661,168,320832
25.346,237611,168,320849
25.351,237555,168,320878
25.356,237515,168,320922
25.361,237506,168,321010
25.366,237514,168,321133
25.371,237547,169,321275
25.376,237515,168,321400
25.381,237544,169,321654
25.386,237593,169,321909
25.391,237635,168,322228
25.396,237683,168,322523
25.401,237712,168,322831
25.406,237767,169,323135
25.411,237856,168,323497
25.416,237914,169,323840
25.421,238003,169,324165
25.426,238096,170,324460
25.431,238155,168,324742
25.436,238184,168,325003
25.440,238183,168,325182
25.445,238141,169,325315
25.450,238112,168,325407
25.455,238042,168,325464
25.460,237986,168,325571
25.465,237960,169,325694
25.470,237973,169,325882
25.475,237994,169,326068
25.480,238017,168,326236
25.485,238029,169,326473
25.490,238107,169,326727
25.495,238097,168,326912
25.500,237959,169,326894
25.505,237846,169,326913
25.510,237709,170,326900
25.515,237562,169,326815
25.520,237363,169,326735
25.525,237192,170,326687
25.530,236857,168,326399
25.535,236429,168,326069
25.540,236165,168,325917
25.545,235907,169,325825
25.550,235749,168,325874
25.555,235702,169,326085
25.560,235762,169,326317
25.565,235875,170,326632
25.570,236002,169,326950
25.575,236146,170,327250
25.580,236253,168,327495
25.584,236354,168,327731
25.589,236476,168,327925
25.594,236563,168,328135
25.599,236642,168,328285
25.604,236681,168,328393
25.609,236772,168,328467
25.614,236786,168,328504
25.619,236828,168,328497
25.624,236834,168,328436
25.629,236876,169,328311
25.634,236873,169,328183
25.639,236928,168,328119
25.644,236976,169,327920
25.649,236937,170,327577
25.654,236866,170,327186
25.659,236850,170,326794
25.664,236764,171,326272
25.669,236699,168,325730
25.674,236592,169,325130
25.679,236492,168,324370
25.684,236178,168,322981
25.689,235042,168,321132
25.694,234401,168,319644
25.699,233713,168,317914
25.704,233016,169,316097
25.709,232329,169,314263
25.714,231927,169,312923
25.719,231821,168,311981
25.724,231850,171,311418
25.728,232152,168,311061
25.733,232351,168,310761
25.738,232349,168,310279
25.743,232376,168,309786
25.748,232258,168,309163
25.753,232132,168,308612
25.758,231896,168,307937
25.763,231457,169,307007
25.768,230923,169,305898
25.773,230293,171,304690
25.778,230123,170,304266
25.783,230113,171,303976
25.788,229939,172,303639
25.793,229884,168,303423
25.798,229923,168,303326
25.803,230029,169,303265
25.808,230126,169,303198
25.813,230203,169,303122
25.818,230156,169,302915
25.823,230051,169,302907
25.828,229970,169,302725
25.833,229928,168,302601
25.838,229882,169,302459
25.843,229898,169,302431
25.848,229908,171,302364
25.853,229919,170,302354
25.858,229915,170,302318
25.863,229931,171,302286
25.868,229963,171,302266
25.872,229970,169,302302
25.877,230010,169,302292
25.882,230015,170,302291
25.887,230040,170,302320
25.892,230055,170,302269
25.897,230063,170,302226
25.902,230080,172,302234
25.907,230061,172,302175
25.912,230087,173,302123
25.917,230094,169,302060
25.922,230081,171,302036
25.927,230047,171,301984
25.932,230070,171,301925
25.937,230066,171,301867
25.942,230047,173,301832
25.947,230042,173,301804
25.952,230034,170,301765
25.957,230048,169,301758
25.962,230057,169,301745
25.967,230064,168,301711
25.972,230084,170,301709
25.977,230082,169,301687
25.982,230074,169,301678
25.987,230066,171,301609
25.992,230058,171,301564
25.997,230043,172,301550
26.002,230045,172,301528
26.007,230053,169,301509
26.012,231495,168,303564
26.017,232783,170,304334
26.021,232671,171,303954
26.026,232419,173,303499
26.031,232269,173,303166
26.036,232450,171,303626
26.041,232843,169,304585
26.046,233243,169,305549
26.051,233430,169,305972
26.056,233427,168,306083
26.061,233377,169,306250
26.066,233416,172,306493
26.071,233330,172,306620
26.076,233194,171,306613
26.081,232993,172,306455
26.086,232785,173,306255
26.091,232513,174,305929
26.096,232254,168,305662
26.101,232091,169,305494
26.106,231978,170,305531
26.111,232054,169,305779
26.116,232228,170,306163
26.121,232451,171,306646
26.126,232751,172,307223
26.131,233138,171,307912
26.136,233648,171,308802
26.141,234296,171,310006
26.146,235074,169,311375
26.151,235875,168,312783
26.156,236663,169,314189
26.161,237406,169,315578
26.165,238239,168,316983
26.170,239056,168,318328
26.175,239888,168,319704
26.180,240721,169,320931
26.185,241495,170,322234
26.190,242104,170,323294
26.195,242610,168,324217
26.200,243058,168,325064
26.205,243493,168,325895
26.210,243890,170,326690
26.215,244309,168,327545
26.220,244758,169,328419
26.225,245244,170,329367
26.230,245739,171,330358
26.235,246217,168,331252
26.240,246612,168,332111
26.245,246943,168,332878
26.250,247292,169,333666
26.255,247590,168,334457
26.260,247857,168,335167
26.265,248051,169,335836
26.270,248233,169,336498
26.275,248434,169,337040
26.280,248692,168,337746
26.285,248925,168,338609
26.290,249258,168,339366
26.295,249541,168,340147
26.300,249757,168,340845
26.305,249954,168,341433
26.309,250111,168,341986
26.314,250218,168,342379
26.319,250288,168,342751
26.324,250371,168,343149
26.329,250480,168,343428
26.334,250504,168,343630
26.339,250519,168,343755
26.344,250523,169,343928
26.349,250629,168,344195
26.354,250703,170,344543
26.359,250831,168,344840
26.364,250973,169,345130
26.369,251049,168,345386
26.374,251119,168,345574
26.379,251183,168,345672
26.384,251237,168,345817
26.389,251245,168,345901
26.394,251220,168,345936
26.399,251477,168,346453
26.404,251648,169,346670
26.409,251725,168,346918
26.414,251887,168,347251
26.419,252064,168,347608
26.424,252200,169,348034
26.429,252365,168,348383
26.434,252432,168,348650
26.439,252419,168,348805
26.444,252279,168,348743
26.449,252016,168,348530
26.453,251696,170,348242
26.458,251385,168,348012
26.463,251187,169,347872
26.468,250987,169,347681
26.473,250748,168,347571
26.478,250558,168,347541
26.483,250424,170,347571
26.488,250273,168,347597
26.493,250149,168,347718
26.498,250037,168,347765
26.503,249894,169,347793
26.508,249755,169,347768
26.513,249611,169,347744
26.518,249414,168,347565
26.523,249166,168,347328
26.528,248914,168,347056
26.533,248646,168,346764
26.538,248411,168,346504
26.543,248175,169,346273
26.548,247986,170,346019
26.553,247756,168,345753
26.558,247508,169,345507
26.563,247266,170,345287
26.568,246922,168,344898
26.573,246656,168,344696
26.578,246435,168,344474
26.583,246183,168,344241
26.588,246019,168,344147
26.593,245922,168,344074
26.597,245840,168,344060
26.602,245817,170,344030
26.607,245784,168,344023
26.612,245790,168,344026
26.617,245768,168,343981
26.622,245792,168,343949
26.627,245814,168,343907
26.632,245829,168,343833
26.637,245789,168,343707
26.642,245770,168,343549
26.647,245716,169,343409
26.652,245702,168,343224
26.657,245614,168,342982
26.662,245541,168,342755
26.667,245586,168,342571
26.672,245528,168,342103
26.677,245337,168,341495
26.682,245204,168,340805
26.687,245035,169,339920
26.692,244803,168,338886
26.697,244378,169,337349
26.702,243411,168,335012
26.707,242536,168,332702
26.712,241233,168,329861
26.717,239770,168,326977
26.722,238436,168,324395
26.727,237557,168,322463
26.732,236770,168,320904
26.737,236357,168,319932
26.741,236062,169,319015
26.746,235690,168,318186
26.751,235211,168,317046
26.756,234724,168,315943
26.761,235984,168,317681
26.766,235423,169,315381
26.771,234030,168,313733
26.776,233655,168,313188
26.781,233801,168,312991
26.786,233504,169,312497
26.791,233262,168,312194
26.796,233247,168,312100
26.801,233221,168,312063
26.806,233198,168,312033
26.811,233137,168,311871
26.816,232991,168,311570
26.821,232843,169,311271
26.826,232711,169,311057
26.831,232648,169,310951
26.836,232617,169,310924
26.841,232631,169,310867
26.846,232610,168,310820
26.851,232575,168,310719
26.856,232499,168,310606
26.861,232435,168,310485
26.866,232398,169,310401
26.871,232379,169,310330
26.876,232343,169,310257
26.881,232313,170,310206
26.885,232291,171,310158
26.890,232260,171,310072
26.895,232211,170,310031
26.900,232184,170,309996
26.905,232181,172,309917
26.910,232147,171,309864
26.915,232112,172,309839
26.920,232066,171,309766
26.925,232051,169,309707
26.930,231991,169,309635
26.935,231974,169,309569
26.940,231946,171,309495
26.945,231903,169,309426
26.950,231884,170,309343
26.955,231826,170,309282
26.960,231784,171,309206
26.965,231755,172,309161
26.970,231706,173,309069
26.975,231657,173,308967
26.980,231615,174,308867
26.985,231562,175,308786
26.990,231493,172,308694
26.995,231453,173,308601
27.000,231392,174,308546
27.005,231382,176,308521
27.010,231333,175,308481
27.015,231322,178,308417
27.020,231304,177,308366
27.025,231268,179,308378
27.029,231260,178,308303
27.034,231259,176,308314
27.039,231205,176,308267
27.044,231224,179,308272
27.049,231212,177,308268
27.054,231215,180,308278
27.059,231219,178,308285
27.064,231228,181,308326
27.069,231235,179,308311
27.074,231234,183,308281
27.079,231244,181,308275
27.084,231219,183,308239
27.089,231195,177,308216
27.094,231170,180,308161
27.099,231167,179,308163
27.104,231168,180,308168
27.109,231155,180,308160
27.114,231134,182,308137
27.119,231142,183,308149
27.124,231134,177,308125
27.129,231138,177,308164
27.134,231169,178,308128
27.139,231167,180,308140
27.144,231163,179,308168
27.149,231152,180,308151
27.154,231163,182,308139
27.159,231150,182,308128
27.164,231147,183,308093
27.169,231142,183,308104
27.174,231122,179,308127
27.178,231150,178,308133
27.183,231140,179,308134
27.188,231129,177,308168
27.193,231167,180,308183
27.198,231179,178,308167
27.203,231192,179,308168
27.208,231187,178,308184
27.213,231180,182,308165
27.218,231196,180,308184
27.223,231200,182,308208
27.228,231209,180,308217
27.233,231221,179,308190
27.238,231218,180,308175
27.243,231212,183,308152
27.248,231187,181,308123
27.253,231167,184,308077
27.258,231136,177,307985
27.263,231098,178,307932
27.268,231043,176,307886
27.273,231023,177,307804
27.278,230955,178,307761
27.283,230927,180,307726
27.288,230918,180,307705
27.293,230909,180,307709
27.298,230898,181,307694
27.303,230873,181,307686
27.308,230867,175,307619
27.313,230850,176,307621
27.318,230808,173,307584
27.322,230785,176,307584
27.327,230771,176,307552
27.332,230741,180,307544
27.337,230746,179,307516
27.342,230742,180,307502
27.347,230744,178,307501
27.352,230753,179,307473
27.357,230743,177,307457
27.362,230727,177,307425
27.367,230719,176,307387
27.372,230695,177,307365
27.377,230702,170,307386
27.382,230699,173,307364
27.387,230692,172,307358
27.392,230691,173,307358
27.397,230684,172,307329
27.402,230672,174,307331
27.407,230663,173,307299
27.412,230686,174,307292
27.417,230652,169,307253
27.422,230633,169,307229
27.427,230609,170,307178
27.432,230601,171,307149
27.437,230599,172,307122
27.442,230605,172,307174
27.447,230619,173,307224
27.452,230644,169,307258
27.457,230658,169,307276
27.462,230675,169,307361
27.466,230659,170,307507
27.471,230469,170,307584
27.476,230267,173,307768
27.481,229887,170,307830
27.486,229476,171,307889
27.491,228990,170,307938
27.496,228848,169,308308
27.501,229140,170,309132
27.506,229285,170,309785
27.511,229583,170,310616
27.516,230006,170,311558
27.521,230396,170,312381
27.526,230722,169,313092
27.531,230996,168,313696
27.536,231218,168,314211
27.541,231414,169,314623
27.546,231625,169,314969
27.551,231796,170,315231
27.556,231927,169,315491
27.561,232093,170,315824
27.566,232325,170,316270
27.571,232536,171,316780
27.576,232794,169,317473
27.581,233052,169,318249
27.586,233196,169,318942
27.591,233115,169,319218
27.596,232896,169,319203
27.601,232470,169,318772
27.606,231968,170,318220
27.610,231507,170,317629
27.615,231364,170,317513
27.620,231622,168,317832
27.625,231993,171,318235
27.630,232499,170,318777
27.635,233070,168,319340
27.640,233567,168,319679
27.645,233938,168,319675
27.650,233967,169,319373
27.655,234717,168,319762
27.660,235259,169,319853
27.665,235496,170,319620
27.670,235837,170,319841
27.675,236260,168,320216
27.680,236688,169,320672
27.685,237085,169,321151
27.690,237465,170,321686
27.695,237928,170,322284
27.700,238352,171,322842
27.705,238654,171,323186
27.710,238949,171,323616
27.715,239181,171,323963
27.720,239412,168,324561
27.725,239739,169,324994
27.730,239774,169,325253
27.735,240367,169,326303
27.740,241018,169,327147
27.745,241613,170,327910
27.750,242368,170,328891
27.754,243205,171,329923
27.759,244029,170,330889
27.764,244842,172,331797
27.769,245760,168,332787
27.774,246621,171,333736
27.779,247561,170,334791
27.784,248531,171,335926
27.789,249381,171,336749
27.794,249665,171,336989
27.799,249829,171,337178
27.804,249974,171,337348
27.809,249982,172,337355
27.814,249889,171,337180
27.819,249679,169,336801
27.824,249404,170,336382
27.829,249207,170,336197
27.834,248941,169,335983
27.839,248603,170,335688
27.844,248250,169,335450
27.849,247786,170,335173
27.854,247361,169,334958
27.859,246910,169,334768
27.864,246520,169,334594
27.869,246206,171,334455
27.874,246009,170,334469
27.879,246060,170,334765
27.884,246253,170,335192
27.889,246505,170,335722
27.894,246859,169,336423
27.898,247318,169,337204
27.903,247789,170,338102
27.908,248336,169,339081
27.913,248864,169,340034
27.918,249364,168,341015
27.923,249766,169,341756
27.928,250043,169,342295
27.933,250093,169,342402
27.938,249983,169,342382
27.943,249842,169,342206
27.948,249702,169,342018
27.953,249564,169,341835
27.958,249420,169,341567
27.963,249194,171,341225
27.968,248980,168,340811
27.973,248701,168,340382
27.978,248381,168,339961
27.983,248114,168,339632
27.988,248013,168,339568
27.993,247980,168,339662
27.998,248108,168,340114
28.003,248507,168,340974
28.008,249090,169,342124
28.013,249835,170,343533
28.018,250587,170,344924
28.023,251266,170,346174
28.028,251808,170,347235
28.033,252262,170,348099
28.038,252494,169,348622
28.042,252492,170,348775
28.047,252253,170,348478
28.052,251765,170,347743
28.057,251103,168,346731
28.062,250254,168,345419
28.067,249215,168,343837
28.072,248081,168,342113
28.077,246912,168,340298
28.082,245759,169,338520
28.087,244733,169,336999
28.092,243800,169,335573
28.097,242890,169,334260
28.102,242272,168,333515
28.107,241944,168,333388
28.112,241951,168,333675
28.117,241945,168,334035
28.122,241991,168,334576
28.127,241957,168,335154
28.132,241819,168,335443
28.137,241412,168,335226
28.142,240701,168,334512
28.147,239793,169,333349
28.152,238719,169,331823
28.157,237675,169,330345
28.162,236216,168,328146
28.167,234338,169,325322
28.172,232055,168,321734
28.177,229369,168,317576
28.182,226812,169,313781
28.187,224450,169,310145
28.191,222217,168,306799
28.196,220217,168,303902
28.201,218620,169,301533
28.206,217294,168,300307
28.211,216645,169,299952
28.216,216409,168,300242
28.221,216254,169,300712
28.226,215914,168,300991
28.231,215237,169,300724
28.236,214193,168,300109
28.241,212879,168,299091
28.246,211667,168,298317
28.251,210825,168,297697
28.256,209781,168,296824
28.261,209029,169,296343
28.266,208766,169,296508
28.271,208919,168,297061
28.276,209264,168,297811
28.281,209629,168,298436
28.286,209907,168,298920
28.291,210027,168,299067
28.296,209884,168,298789
28.301,209615,168,298408
28.306,209427,168,298140
28.311,209418,168,298191
28.316,209487,168,298364
28.321,209655,168,298765
28.326,210024,168,299560
28.331,210595,168,300652
28.335,211222,168,301845
28.340,211845,168,302987
28.345,212865,168,304964
28.350,214766,168,308045
28.355,216204,168,310057
28.360,216596,168,310724
28.365,217606,168,312356
28.370,217649,168,312628
28.375,217483,168,312581
28.380,217075,168,312117
28.385,216926,168,312088
28.390,217023,168,312364
28.395,217324,168,312924
28.400,217842,168,313880
28.405,218675,168,315183
28.410,219755,168,316891
28.415,221126,168,318908
28.420,222721,168,321346
28.425,224599,168,323887
28.430,226515,168,326964
28.435,229294,168,330499
28.440,231014,168,332960
28.445,232672,168,335276
28.450,234224,168,337324
28.455,235738,168,339132
28.460,237466,168,341261
28.465,239370,168,343384
28.470,241201,168,345292
28.475,242801,168,346729
28.479,243734,168,347510
28.484,244149,168,347600
28.489,244788,168,347602
28.494,245628,168,347115
28.499,246384,168,346192
28.504,247060,168,345104
28.509,247426,168,344006
28.514,247943,168,343193
28.519,248136,168,342583
28.524,248266,168,341878
28.529,248341,168,341238
28.534,248307,168,340577
28.539,248085,168,339939
28.544,247960,168,339456
28.549,247740,168,338980
28.554,247581,168,338595
28.559,247285,168,338305
28.564,247108,168,338082
28.569,246834,168,337972
28.574,246803,168,338055
28.579,246661,168,338076
28.584,246674,168,338301
28.589,246656,168,338565
28.594,246771,168,338998
28.599,246938,168,339342
28.604,247025,168,339409
28.609,247091,168,339367
28.614,247088,168,339199
28.619,247067,168,338852
28.623,246983,168,338484
28.628,246902,168,338024
28.633,246772,168,337517
28.638,246589,168,336917
28.643,246490,168,336535
28.648,246072,168,335951
28.653,245600,168,335254
28.658,245176,168,334547
28.663,245016,168,334191
28.668,245114,168,334206
28.673,245257,168,334176
28.678,245320,168,334193
28.683,245362,168,334280
28.688,245654,168,334993
28.693,245804,168,335238
28.698,245853,168,335481
28.703,246058,168,335958
28.708,246206,168,336311
28.713,246283,168,336543
28.718,246257,168,336696
28.723,246250,168,336877
28.728,246179,168,336901
28.733,245983,168,336775
28.738,245629,168,336544
28.743,245355,168,336236
28.748,245065,168,335930
28.753,244736,168,335512
28.758,244341,168,335062
28.763,244008,168,334630
28.767,243813,168,334368
28.772,243722,168,334304
28.777,243715,168,334349
28.782,243709,168,334439
28.787,243735,168,334550
28.792,243753,168,334723
28.797,243668,168,334750
28.802,243497,168,334605
28.807,243016,168,333941
28.812,242384,168,333302
28.817,241886,168,332699
28.822,241470,168,332175
28.827,241211,168,331907
28.832,240952,168,331667
