df_hash,22ZHK4.LYE8RS
device,HZ2X61
project_hash,29R7
project_name,istanbul_aydin_university
person_hash,29R7.XR9V
person_label,V20
date_time_start,2025-05-23_10-51-26.361000_+03
date_time_start_unix,1747986686.361
date_time_end,2025-05-23_11-00-10.433000_+03
length_difference_noticed,no

time,ppg_med
5.858,530
5.883,609
5.908,735
5.933,803
5.958,776
5.983,748
6.008,821
6.033,955
6.058,1005
6.083,923
6.108,835
6.133,881
6.158,1005
6.183,1013
6.208,836
6.233,649
6.258,639
6.283,732
6.308,666
6.333,352
6.358,23
6.383,-68
6.408,-25
6.433,-190
6.458,-679
6.483,-1181
6.508,-1371
6.533,-1376
6.558,-1647
6.583,-2328
6.608,-3016
6.633,-3288
6.658,-3311
6.683,-3660
6.708,-4518
6.733,-5367
6.758,-5667
6.783,-5632
6.808,-5990
6.833,-6968
6.858,-7911
6.883,-8138
6.908,-7920
6.933,-8169
6.958,-9169
6.983,-10099
7.008,-10107
7.033,-9531
7.058,-9513
7.083,-10407
7.108,-11188
7.133,-10794
7.158,-9651
7.183,-9181
7.208,-9831
7.233,-10322
7.258,-9331
7.283,-7390
7.308,-6282
7.333,-6571
7.358,-6659
7.383,-4885
7.408,-1917
7.433,-7
7.458,117
7.483,475
7.508,3185
7.533,7405
7.558,10234
7.583,10708
7.608,11431
7.633,15191
7.658,20906
7.683,24717
7.708,25276
7.733,26073
7.758,30983
7.783,32767
7.808,32767
7.833,32767
7.858,32767
7.883,32767
7.908,32767
7.933,32767
7.958,32767
7.983,32767
8.008,32767
8.033,32767
8.058,32767
8.083,32767
8.108,13765
8.133,-32768
8.158,-32768
8.183,-32768
8.208,-32768
8.233,-32768
8.258,-32768
8.283,-32768
8.308,-32768
8.333,-32768
8.358,-32768
8.383,-32768
8.408,-32768
8.433,-32768
8.458,-32768
8.483,-26972
8.508,-24773
8.533,-24726
8.558,-22375
8.583,-17014
8.608,-12140
8.633,-10425
8.658,-10340
8.683,-8607
8.708,-4663
8.733,-1111
8.758,8
8.783,-155
8.808,918
8.833,3686
8.858,6138
8.883,6672
8.908,6168
8.933,6603
8.958,8347
8.983,9834
9.008,9832
9.033,9079
9.058,9160
9.083,10341
9.108,11305
9.133,11010
9.158,10028
9.183,9662
9.208,10177
9.233,10559
9.258,9981
9.283,8889
9.308,8312
9.333,8459
9.358,8528
9.383,7862
9.408,6812
9.433,6185
9.458,6137
9.483,6030
9.508,5351
9.533,4389
9.558,3788
9.583,3670
9.608,3528
9.633,2957
9.658,2183
9.683,1705
9.708,1616
9.733,1517
9.758,1091
9.783,510
9.808,160
9.833,113
9.858,67
9.883,-217
9.908,-620
9.933,-854
9.958,-860
9.983,-842
10.008,-946
10.033,-1066
10.058,-1013
10.083,-799
10.108,-630
10.133,-637
10.158,-718
10.183,-691
10.208,-535
10.233,-397
10.258,-384
10.283,-430
10.308,-399
10.333,-263
10.358,-128
10.383,-81
10.408,-90
10.433,-60
10.458,31
10.483,116
10.508,131
10.533,103
10.558,106
10.583,162
10.608,218
10.633,224
10.658,195
10.683,173
10.708,139
10.733,112
10.758,88
10.783,58
10.808,18
10.833,-21
10.858,-53
10.883,-80
10.908,-116
10.933,-169
10.958,-219
10.983,-226
11.008,-162
11.033,-38
11.058,98
11.083,201
11.108,256
11.133,285
11.158,312
11.183,344
11.208,365
11.233,364
11.258,349
11.283,342
11.308,355
11.333,383
11.358,407
11.383,417
11.408,415
11.433,407
11.458,398
11.483,384
11.508,362
11.533,335
11.558,309
11.583,283
11.608,255
11.633,222
11.658,188
11.683,161
11.708,140
11.733,117
11.758,88
11.783,55
11.808,27
11.833,4
11.858,-25
11.883,-74
11.908,-127
11.933,-149
11.958,-103
11.983,9
12.008,150
12.033,268
12.058,338
12.083,372
12.108,394
12.133,416
12.158,431
12.183,427
12.208,411
12.233,400
12.258,406
12.283,422
12.308,433
12.333,430
12.358,414
12.383,394
12.408,373
12.433,350
12.458,324
12.483,295
12.508,262
12.533,225
12.558,185
12.583,148
12.608,118
12.633,92
12.658,64
12.683,31
12.708,0
12.733,-27
12.758,-56
12.783,-98
12.808,-151
12.833,-189
12.858,-173
12.883,-89
12.908,36
12.933,154
12.958,229
12.983,258
13.008,266
13.033,271
13.058,269
13.083,254
13.108,228
13.133,210
13.158,218
13.183,246
13.208,274
13.233,284
13.258,276
13.283,262
13.308,253
13.333,245
13.358,230
13.383,206
13.408,181
13.433,164
13.458,153
13.483,141
13.508,122
13.533,101
13.558,87
13.583,78
13.608,63
13.633,31
13.658,-1
13.683,0
13.708,68
13.733,202
13.758,361
13.783,494
13.808,575
13.833,615
13.858,645
13.883,678
13.908,707
13.933,716
13.958,709
13.983,710
14.008,732
14.033,759
14.058,747
14.083,667
14.108,529
14.133,381
14.158,267
14.183,197
14.208,146
14.233,82
14.258,2
14.283,-74
14.308,-131
14.333,-167
14.358,-199
14.383,-234
14.408,-262
14.433,-277
14.458,-288
14.483,-316
14.508,-369
14.533,-417
14.558,-412
14.583,-325
14.608,-175
14.633,-16
14.658,103
14.683,173
14.708,214
14.733,253
14.758,295
14.783,331
14.808,352
14.833,366
14.858,389
14.883,430
14.908,479
14.933,522
14.958,548
14.983,555
15.008,545
15.033,517
15.058,472
15.083,413
15.108,353
15.133,299
15.158,251
15.183,196
15.208,129
15.233,61
15.258,9
15.283,-19
15.308,-39
15.333,-70
15.358,-106
15.383,-113
15.408,-52
15.433,78
15.458,234
15.483,351
15.508,398
15.533,389
15.558,364
15.583,346
15.608,333
15.633,310
15.658,278
15.683,255
15.708,257
15.733,275
15.758,293
15.783,295
15.808,286
15.833,275
15.858,264
15.883,247
15.908,222
15.933,194
15.958,167
15.983,144
16.008,123
16.033,103
16.058,86
16.083,67
16.108,37
16.133,0
16.158,-29
16.183,-18
16.208,43
16.233,134
16.258,214
16.283,254
16.308,263
16.333,266
16.358,277
16.383,288
16.408,287
16.433,283
16.458,296
16.483,336
16.508,384
16.533,414
16.558,420
16.583,418
16.608,422
16.633,424
16.658,407
16.683,366
16.708,321
16.733,295
16.758,285
16.783,271
16.808,244
16.833,220
16.858,219
16.883,227
16.908,204
16.933,123
16.958,8
16.983,-84
17.008,-124
17.033,-137
17.058,-172
17.083,-242
17.108,-301
17.133,-292
17.158,-204
17.183,-83
17.208,11
17.233,66
17.258,108
17.283,168
17.308,248
17.333,329
17.358,395
17.383,451
17.408,502
17.433,542
17.458,557
17.483,549
17.508,537
17.533,535
17.558,531
17.583,491
17.608,396
17.633,258
17.658,122
17.683,37
17.708,32
17.733,109
17.758,249
17.783,418
17.808,577
17.833,693
17.858,749
17.883,746
17.908,698
17.933,622
17.958,538
17.983,475
18.008,453
18.033,470
18.058,495
18.083,488
18.108,437
18.133,361
18.158,298
18.183,263
18.208,239
18.233,195
18.258,117
18.283,10
18.308,-108
18.333,-238
18.358,-382
18.383,-541
18.408,-691
18.433,-803
18.458,-850
18.483,-832
18.508,-766
18.533,-678
18.558,-590
18.583,-506
18.608,-415
18.633,-302
18.658,-158
18.683,6
18.708,175
18.733,332
18.758,469
18.783,578
18.808,648
18.833,671
18.858,659
18.883,638
18.908,632
18.933,641
18.958,646
18.983,629
19.008,599
19.033,579
19.058,577
19.083,575
19.108,549
19.133,493
19.158,430
19.183,388
19.208,389
19.233,448
19.258,567
19.283,725
19.308,861
19.333,888
19.358,749
19.383,471
19.408,155
19.433,-97
19.458,-247
19.483,-318
19.508,-343
19.533,-322
19.558,-235
19.583,-91
19.608,57
19.633,151
19.658,172
19.683,152
19.708,133
19.733,131
19.758,133
19.783,129
19.808,121
19.833,120
19.858,124
19.883,123
19.908,112
19.933,93
19.958,66
19.983,25
20.008,-23
20.033,-54
20.058,-35
20.083,41
20.108,145
20.133,233
20.158,283
20.183,309
20.208,334
20.233,363
20.258,382
20.283,382
20.308,374
20.333,376
20.358,395
20.383,416
20.408,424
20.433,416
20.458,399
20.483,381
20.508,360
20.533,334
20.558,304
20.583,276
20.608,251
20.633,227
20.658,200
20.683,173
20.708,147
20.733,121
20.758,92
20.783,64
20.808,38
20.833,9
20.858,-31
20.883,-86
20.908,-132
20.933,-133
20.958,-71
20.983,31
21.008,125
21.033,177
21.058,191
21.083,202
21.108,231
21.133,269
21.158,291
21.183,286
21.208,273
21.233,276
21.258,303
21.283,339
21.308,362
21.333,367
21.358,365
21.383,365
21.408,366
21.433,362
21.458,353
21.483,345
21.508,344
21.533,347
21.558,347
21.583,342
21.608,337
21.633,337
21.658,341
21.683,340
21.708,327
21.733,306
21.758,292
21.783,306
21.808,365
21.833,467
21.858,587
21.883,690
21.908,751
21.933,771
21.958,775
21.983,785
22.008,799
22.033,800
22.058,781
22.083,759
22.108,756
22.133,764
22.158,747
22.183,672
22.208,542
22.233,396
22.258,267
22.283,151
22.308,21
22.333,-136
22.358,-307
22.383,-465
22.408,-609
22.433,-761
22.458,-934
22.483,-1111
22.508,-1264
22.533,-1381
22.558,-1473
22.583,-1549
22.608,-1593
22.633,-1580
22.658,-1503
22.683,-1391
22.708,-1287
22.733,-1222
22.758,-1200
22.783,-1203
22.808,-1204
22.833,-1174
22.858,-1097
22.883,-988
22.908,-878
22.933,-775
22.958,-619
22.983,-295
23.008,281
23.033,1077
23.058,1931
23.083,2651
23.108,3123
23.133,3349
23.158,3395
23.183,3315
23.208,3128
23.233,2845
23.258,2504
23.283,2158
23.308,1848
23.333,1586
23.358,1364
23.383,1170
23.408,993
23.433,819
23.458,644
23.483,486
23.508,378
23.533,336
23.558,342
23.583,349
23.608,319
23.633,246
23.658,150
23.683,50
23.708,-42
23.733,-124
23.758,-186
23.783,-221
23.808,-238
23.833,-254
23.858,-282
23.883,-313
23.908,-333
23.933,-335
23.958,-333
23.983,-346
24.008,-380
24.033,-422
24.058,-453
24.083,-467
24.108,-467
24.133,-460
24.158,-446
24.183,-420
24.208,-383
24.233,-349
24.258,-335
24.283,-345
24.308,-363
24.333,-353
24.358,-286
24.383,-164
24.408,-21
24.433,99
24.458,177
24.483,224
24.508,265
24.533,311
24.558,351
24.583,372
24.608,375
24.633,381
24.658,405
24.683,437
24.708,455
24.733,446
24.758,419
24.783,396
24.808,384
24.833,374
24.858,354
24.883,323
24.908,294
24.933,270
24.958,248
24.983,216
25.008,180
25.033,150
25.058,128
25.083,101
25.108,53
25.133,-8
25.158,-47
25.183,-27
25.208,56
25.233,170
25.258,267
25.283,325
25.308,354
25.333,377
25.358,403
25.383,422
25.408,423
25.433,413
25.458,408
25.483,421
25.508,444
25.533,462
25.558,463
25.583,448
25.608,425
25.633,398
25.658,370
25.683,339
25.708,306
25.733,274
25.758,239
25.783,202
25.808,164
25.833,129
25.858,97
25.883,65
25.908,34
25.933,6
25.958,-20
25.983,-55
26.008,-106
26.033,-167
26.058,-206
26.083,-188
26.108,-101
26.133,28
26.158,151
26.183,231
26.208,270
26.233,294
26.258,322
26.283,350
26.308,361
26.333,355
26.358,347
26.383,356
26.408,384
26.433,413
26.458,427
26.483,425
26.508,418
26.533,412
26.558,403
26.583,383
26.608,352
26.633,320
26.658,296
26.683,281
26.708,268
26.733,255
26.758,244
26.783,236
26.808,222
26.833,193
26.858,151
26.883,110
26.908,80
26.933,52
26.958,5
26.983,-69
27.008,-148
27.033,-184
27.058,-141
27.083,-31
27.108,98
27.133,196
27.158,247
27.183,269
27.208,291
27.233,319
27.258,341
27.283,345
27.308,338
27.333,337
27.358,352
27.383,374
27.408,389
27.433,389
27.458,380
27.483,369
27.508,356
27.533,334
27.558,300
27.583,260
27.608,221
27.633,186
27.658,154
27.683,124
27.708,98
27.733,80
27.758,64
27.783,46
27.808,24
27.833,6
27.858,-8
27.883,-29
27.908,-69
27.933,-120
27.958,-148
27.983,-119
28.008,-25
28.033,97
28.058,203
28.083,267
28.108,300
28.133,326
28.158,354
28.183,373
28.208,370
28.233,353
28.258,343
28.283,355
28.308,383
28.333,405
28.358,407
28.383,393
28.408,375
28.433,362
28.458,352
28.483,338
28.508,316
28.533,286
28.558,252
28.583,221
28.608,198
28.633,180
28.658,162
28.683,137
28.708,109
28.733,84
28.758,62
28.783,30
28.808,-18
28.833,-69
28.858,-88
28.883,-43
28.908,59
28.933,177
28.958,263
28.983,300
29.008,309
29.033,317
29.058,331
29.083,339
29.108,331
29.133,319
29.158,323
29.183,347
29.208,373
29.233,382
29.258,372
29.283,355
29.308,341
29.333,326
29.358,301
29.383,268
29.408,235
29.433,211
29.458,192
29.483,167
29.508,136
29.533,105
29.558,78
29.583,45
29.608,-1
29.633,-53
29.658,-77
29.683,-42
29.708,47
29.733,156
29.758,240
29.783,281
29.808,293
29.833,298
29.858,304
29.883,300
29.908,282
29.933,262
29.958,259
29.983,280
30.008,308
30.033,322
30.058,314
30.083,294
30.108,279
30.133,270
30.158,259
30.183,236
30.208,205
30.233,175
30.258,154
30.283,134
30.308,109
30.333,78
30.358,50
30.383,27
30.408,0
30.433,-41
30.458,-92
30.483,-119
30.508,-87
30.533,9
30.558,137
30.583,247
30.608,311
30.633,338
30.658,355
30.683,381
30.708,409
30.733,424
30.758,422
30.783,416
30.808,420
30.833,436
30.858,453
30.883,462
30.908,458
30.933,443
30.958,421
30.983,393
31.008,361
31.033,329
31.058,296
31.083,258
31.108,216
31.133,174
31.158,138
31.183,108
31.208,75
31.233,33
31.258,-11
31.283,-50
31.308,-83
31.333,-124
31.358,-183
31.383,-243
31.408,-261
31.433,-203
31.458,-76
31.483,69
31.508,179
31.533,236
31.558,263
31.583,296
31.608,342
31.633,384
31.658,400
31.683,395
31.708,390
31.733,402
31.758,428
31.783,448
31.808,452
31.833,442
31.858,427
31.883,412
31.908,392
31.933,366
31.958,338
31.983,315
32.008,295
32.033,271
32.058,239
32.083,205
32.108,174
32.133,144
32.158,108
32.183,64
32.208,21
32.233,-13
32.258,-46
32.283,-93
32.308,-158
32.333,-215
32.358,-220
32.383,-147
32.408,-17
32.433,116
32.458,209
32.483,257
32.508,289
32.533,328
32.558,370
32.583,396
32.608,398
32.633,390
32.658,396
32.683,420
32.708,448
32.733,465
32.758,466
32.783,460
32.808,451
32.833,437
32.858,415
32.883,386
32.908,358
32.933,329
32.958,296
32.983,255
33.008,213
33.033,180
33.058,153
33.083,123
33.108,86
33.133,48
33.158,18
33.183,-6
33.208,-44
33.233,-106
33.258,-171
33.283,-196
33.308,-150
33.333,-41
33.358,85
33.383,185
33.408,243
33.433,273
33.458,300
33.483,328
33.508,348
33.533,350
33.558,343
33.583,342
33.608,360
33.633,390
33.658,414
33.683,417
33.708,401
33.733,378
33.758,357
33.783,337
33.808,310
33.833,274
33.858,234
33.883,201
33.908,175
33.933,149
33.958,116
33.983,79
34.008,48
34.033,21
34.058,-11
34.083,-62
34.108,-123
34.133,-161
34.158,-142
34.183,-65
34.208,42
34.233,139
34.258,200
34.283,229
34.308,239
34.333,242
34.358,238
34.383,226
34.408,214
34.433,214
34.458,238
34.483,278
34.508,317
34.533,339
34.558,336
34.583,319
34.608,300
34.633,284
34.658,265
34.683,239
34.708,210
34.733,189
34.758,177
34.783,159
34.808,123
34.833,75
34.858,52
34.883,87
34.908,181
34.933,300
34.958,401
34.983,469
35.008,514
35.033,552
35.058,583
35.083,599
35.108,603
35.133,609
35.158,628
35.183,656
35.208,683
35.233,709
35.258,737
35.283,752
35.308,709
35.333,564
35.358,319
35.383,37
35.408,-197
35.433,-332
35.458,-375
35.483,-366
35.508,-342
35.533,-318
35.558,-298
35.583,-286
35.608,-283
35.633,-288
35.658,-302
35.683,-327
35.708,-361
35.733,-381
35.758,-350
35.783,-249
35.808,-96
35.833,56
35.858,168
35.883,237
35.908,293
35.933,360
35.958,432
35.983,483
36.008,503
36.033,507
36.058,517
36.083,542
36.108,568
36.133,578
36.158,568
36.183,545
36.208,517
36.233,486
36.258,453
36.283,415
36.308,374
36.333,329
36.358,280
36.383,232
36.408,187
36.433,143
36.458,96
36.483,48
36.508,4
36.533,-31
36.558,-69
36.583,-124
36.608,-190
36.633,-236
36.658,-222
36.683,-133
36.708,-1
36.733,119
36.758,196
36.783,239
36.808,282
36.833,344
36.858,412
36.883,456
36.908,467
36.933,462
36.958,466
36.983,489
37.008,516
37.033,528
37.058,519
37.083,498
37.108,476
37.133,457
37.158,435
37.183,406
37.208,371
37.233,338
37.258,306
37.283,273
37.308,237
37.333,200
37.358,164
37.383,129
37.408,90
37.433,47
37.458,4
37.483,-36
37.508,-79
37.533,-136
37.558,-205
37.583,-265
37.608,-279
37.633,-225
37.658,-115
37.683,5
37.708,100
37.733,157
37.758,198
37.783,244
37.808,296
37.833,336
37.858,352
37.883,351
37.908,354
37.933,372
37.958,399
37.983,416
38.008,418
38.033,410
38.058,402
38.083,393
38.108,378
38.133,354
38.158,329
38.183,310
38.208,296
38.233,278
38.258,252
38.283,223
38.308,196
38.333,172
38.358,146
38.383,113
38.408,79
38.433,47
38.458,15
38.483,-28
38.508,-82
38.533,-122
38.558,-118
38.583,-55
38.608,48
38.633,153
38.658,229
38.683,275
38.708,303
38.733,325
38.758,341
38.783,344
38.808,340
38.833,342
38.858,357
38.883,382
38.908,404
38.933,412
38.958,404
38.983,388
39.008,369
39.033,349
39.058,324
39.083,295
39.108,261
39.133,228
39.158,197
39.183,169
39.208,140
39.233,110
39.258,82
39.283,58
39.308,34
39.333,1
39.358,-45
39.383,-93
39.408,-114
39.433,-84
39.458,-6
39.483,90
39.508,169
39.533,217
39.558,245
39.583,267
39.608,288
39.633,296
39.658,288
39.683,276
39.708,281
39.733,306
39.758,338
39.783,354
39.808,349
39.833,335
39.858,323
39.883,312
39.908,295
39.933,269
39.958,242
39.983,222
40.008,204
40.033,181
40.058,150
40.083,122
40.108,103
40.133,81
40.158,42
40.183,-11
40.208,-50
40.233,-38
40.258,32
40.283,130
40.308,215
40.333,267
40.358,302
40.383,338
40.408,374
40.433,390
40.458,376
40.483,349
40.508,339
40.533,357
40.558,388
40.583,409
40.608,408
40.633,393
40.658,374
40.683,355
40.708,332
40.733,308
40.758,286
40.783,267
40.808,243
40.833,210
40.858,174
40.883,142
40.908,110
40.933,61
40.958,-8
40.983,-73
41.008,-94
41.033,-53
41.058,30
41.083,113
41.108,168
41.133,201
41.158,232
41.183,267
41.208,295
41.233,306
41.258,305
41.283,308
41.308,320
41.333,337
41.358,346
41.383,345
41.408,335
41.433,318
41.458,294
41.483,264
41.508,235
41.533,207
41.558,173
41.583,126
41.608,72
41.633,22
41.658,-19
41.683,-69
41.708,-142
41.733,-226
41.758,-275
41.783,-250
41.808,-154
41.833,-34
41.858,57
41.883,109
41.908,144
41.933,189
41.958,245
41.983,290
42.008,311
42.033,320
42.058,340
42.083,377
42.108,417
42.133,442
42.158,443
42.183,428
42.208,408
42.233,389
42.258,365
42.283,336
42.308,304
42.333,278
42.358,256
42.383,226
42.408,176
42.433,102
42.458,29
42.483,-7
42.508,17
42.533,97
42.558,197
42.583,277
42.608,322
42.633,344
42.658,360
42.683,372
42.708,377
42.733,376
42.758,381
42.783,404
42.808,442
42.833,474
42.858,486
42.883,474
42.908,448
42.933,417
42.958,383
42.983,350
43.008,321
43.033,299
43.058,285
43.083,271
43.108,254
43.133,234
43.158,211
43.183,183
43.208,149
43.233,114
43.258,82
43.283,45
43.308,-7
43.333,-71
43.358,-113
43.383,-89
43.408,7
43.433,123
43.458,174
43.483,116
43.508,-20
43.533,-156
43.558,-224
43.583,-219
43.608,-175
43.633,-119
43.658,-46
43.683,61
43.708,200
43.733,332
43.758,416
43.783,439
43.808,427
43.833,409
43.858,396
43.883,377
43.908,343
43.933,298
43.958,258
43.983,233
44.008,214
44.033,191
44.058,160
44.083,130
44.108,108
44.133,85
44.158,44
44.183,-15
44.208,-64
44.233,-61
44.258,11
44.283,130
44.308,243
44.333,313
44.358,342
44.383,359
44.408,385
44.433,415
44.458,429
44.483,421
44.508,405
44.533,402
44.558,416
44.583,434
44.608,442
44.633,435
44.658,419
44.683,398
44.708,374
44.733,345
44.758,311
44.783,277
44.808,246
44.833,219
44.858,195
44.883,169
44.908,139
44.933,104
44.958,69
44.983,37
45.008,9
45.033,-28
45.058,-84
45.083,-148
45.108,-184
45.133,-154
45.158,-51
45.183,85
45.208,202
45.233,266
45.258,289
45.283,308
45.308,341
45.333,378
45.358,399
45.383,396
45.408,386
45.433,389
45.458,406
45.483,424
45.508,432
45.533,428
45.558,419
45.583,405
45.608,383
45.633,349
45.658,309
45.683,272
45.708,240
45.733,208
45.758,173
45.783,137
45.808,104
45.833,75
45.858,44
45.883,9
45.908,-26
45.933,-61
45.958,-101
45.983,-154
46.008,-214
46.033,-252
46.058,-232
46.083,-140
46.108,-5
46.133,122
46.158,206
46.183,248
46.208,274
46.233,305
46.258,337
46.283,355
46.308,352
46.333,341
46.358,341
46.383,355
46.408,373
46.433,382
46.458,379
46.483,372
46.508,362
46.533,347
46.558,323
46.583,291
46.608,262
46.633,240
46.658,220
46.683,195
46.708,166
46.733,138
46.758,115
46.783,97
46.808,81
46.833,68
46.858,61
46.883,55
46.908,39
46.933,12
46.958,-6
46.983,21
47.008,113
47.033,248
47.058,374
47.083,454
47.108,493
47.133,525
47.158,571
47.183,621
47.208,653
47.233,663
47.258,672
47.283,699
47.308,740
47.333,774
47.358,787
47.383,779
47.408,749
47.433,691
47.458,598
47.483,483
47.508,375
47.533,287
47.558,208
47.583,117
47.608,16
47.633,-68
47.658,-126
47.683,-177
47.708,-250
47.733,-342
47.758,-420
47.783,-475
47.808,-545
47.833,-677
47.858,-845
47.883,-948
47.908,-900
47.933,-732
47.958,-576
47.983,-531
48.008,-556
48.033,-508
48.058,-301
48.083,0
48.108,237
48.133,321
48.158,305
48.183,311
48.208,401
48.233,539
48.258,653
48.283,724
48.308,787
48.333,866
48.358,938
48.383,960
48.408,923
48.433,851
48.458,772
48.483,692
48.508,607
48.533,527
48.558,472
48.583,447
48.608,435
48.633,415
48.658,387
48.683,359
48.708,331
48.733,297
48.758,271
48.783,285
48.808,359
48.833,468
48.858,554
48.883,578
48.908,560
48.933,542
48.958,535
48.983,502
49.008,402
49.033,243
49.058,82
49.083,-33
49.108,-102
49.133,-153
49.158,-196
49.183,-215
49.208,-191
49.233,-142
49.258,-105
49.283,-105
49.308,-126
49.333,-137
49.358,-123
49.383,-93
49.408,-70
49.433,-64
49.458,-75
49.483,-97
49.508,-113
49.533,-99
49.558,-34
49.583,80
49.608,208
49.633,308
49.658,359
49.683,376
49.708,380
49.733,376
49.758,355
49.783,314
49.808,277
49.833,269
49.858,293
49.883,324
49.908,337
49.933,329
49.958,316
49.983,310
50.008,303
50.033,282
50.058,245
50.083,210
50.108,187
50.133,169
50.158,135
50.183,80
50.208,29
50.233,21
50.258,80
50.283,192
50.308,314
50.333,407
50.358,456
50.383,468
50.408,460
50.433,439
50.458,409
50.483,375
50.508,348
50.533,341
50.558,355
50.583,377
50.608,391
50.633,388
50.658,371
50.683,351
50.708,328
50.733,299
50.758,255
50.783,198
50.808,139
50.833,81
50.858,20
50.883,-51
50.908,-124
50.933,-167
50.958,-148
50.983,-61
51.008,62
51.033,174
51.058,241
51.083,265
51.108,269
51.133,267
51.158,258
51.183,240
51.208,222
51.233,220
51.258,242
51.283,270
51.308,283
51.333,273
51.358,254
51.383,241
51.408,232
51.433,213
51.458,179
51.483,141
51.508,113
51.533,91
51.558,58
51.583,8
51.608,-34
51.633,-30
51.658,42
51.683,163
51.708,286
51.733,371
51.758,408
51.783,411
51.808,395
51.833,365
51.858,326
51.883,289
51.908,269
51.933,271
51.958,284
51.983,290
52.008,280
52.033,259
52.058,236
52.083,218
52.108,201
52.133,172
52.158,125
52.183,62
52.208,6
52.233,-13
52.258,21
52.283,103
52.308,202
52.333,281
52.358,323
52.383,338
52.408,339
52.433,333
52.458,319
52.483,300
52.508,289
52.533,297
52.558,319
52.583,332
52.608,322
52.633,292
52.658,258
52.683,232
52.708,204
52.733,163
52.758,108
52.783,59
52.808,26
52.833,0
52.858,-39
52.883,-95
52.908,-136
52.933,-118
52.958,-27
52.983,104
53.008,225
53.033,300
53.058,335
53.083,353
53.108,369
53.133,378
53.158,371
53.183,352
53.208,341
53.233,353
53.258,380
53.283,398
53.308,392
53.333,362
53.358,324
53.383,288
53.408,250
53.433,206
53.458,158
53.483,116
53.508,82
53.533,46
53.558,0
53.583,-51
53.608,-83
53.633,-68
53.658,0
53.683,94
53.708,180
53.733,237
53.758,271
53.783,296
53.808,320
53.833,335
53.858,333
53.883,320
53.908,313
53.933,323
53.958,346
53.983,365
54.008,368
54.033,355
54.058,334
54.083,310
54.108,284
54.133,256
54.158,225
54.183,194
54.208,162
54.233,132
54.258,107
54.283,89
54.308,64
54.333,19
54.358,-49
54.383,-112
54.408,-128
54.433,-71
54.458,41
54.483,160
54.508,243
54.533,283
54.558,306
54.583,335
54.608,365
54.633,376
54.658,362
54.683,341
54.708,336
54.733,353
54.758,373
54.783,374
54.808,354
54.833,326
54.858,305
54.883,290
54.908,269
54.933,235
54.958,195
54.983,157
55.008,126
55.033,97
55.058,69
55.083,50
55.108,43
55.133,36
55.158,13
55.183,-29
55.208,-69
55.233,-68
55.258,-4
55.283,107
55.308,221
55.333,302
55.358,343
55.383,361
55.408,374
55.433,385
55.458,384
55.483,371
55.508,359
55.533,363
55.558,380
55.583,393
55.608,388
55.633,367
55.658,344
55.683,327
55.708,311
55.733,287
55.758,253
55.783,215
55.808,181
55.833,153
55.858,129
55.883,110
55.908,97
55.933,83
55.958,54
55.983,2
56.008,-56
56.033,-85
56.058,-57
56.083,20
56.108,114
56.133,187
56.158,231
56.183,256
56.208,277
56.233,295
56.258,301
56.283,295
56.308,286
56.333,287
56.358,299
56.383,312
56.408,316
56.433,311
56.458,304
56.483,298
56.508,292
56.533,280
56.558,260
56.583,238
56.608,217
56.633,201
56.658,186
56.683,167
56.708,143
56.733,117
56.758,92
56.783,72
56.808,49
56.833,11
56.858,-40
56.883,-85
56.908,-87
56.933,-30
56.958,71
56.983,174
57.008,241
57.033,271
57.058,289
57.083,317
57.108,353
57.133,376
57.158,376
57.183,366
57.208,368
57.233,388
57.258,413
57.283,424
57.308,416
57.333,400
57.358,384
57.383,369
57.408,348
57.433,321
57.458,294
57.483,269
57.508,246
57.533,221
57.558,192
57.583,163
57.608,133
57.633,100
57.658,63
57.683,29
57.708,2
57.733,-24
57.758,-64
57.783,-120
57.808,-169
57.833,-174
57.858,-116
57.883,-12
57.908,95
57.933,171
57.958,216
57.983,250
58.008,292
58.033,335
58.058,363
58.083,367
58.108,363
58.133,371
58.158,397
58.183,428
58.208,446
58.233,445
58.258,432
58.283,419
58.308,409
58.333,395
58.358,372
58.383,342
58.408,314
58.433,293
58.458,275
58.483,254
58.508,227
58.533,196
58.558,164
58.583,132
58.608,96
58.633,60
58.658,26
58.683,-5
58.708,-45
58.733,-100
58.758,-163
58.783,-203
58.808,-191
58.833,-119
58.858,-13
58.883,86
58.908,156
58.933,202
58.958,245
58.983,295
59.008,342
59.033,373
59.058,385
59.083,394
59.108,414
59.133,442
59.158,465
59.183,470
59.208,459
59.233,444
59.258,430
59.283,415
59.308,394
59.333,365
59.358,332
59.383,297
59.408,259
59.433,216
59.458,176
59.483,147
59.508,133
59.533,126
59.558,111
59.583,78
59.608,34
59.633,-7
59.658,-43
59.683,-80
59.708,-131
59.733,-190
59.758,-230
59.783,-215
59.808,-131
59.833,0
59.858,134
59.883,236
59.908,294
59.933,323
59.958,339
59.983,348
60.008,353
60.033,360
60.058,379
60.083,410
60.108,439
60.133,448
60.158,431
60.183,404
60.208,389
60.233,393
60.258,405
60.283,397
60.308,353
60.333,281
60.358,203
60.383,144
60.408,109
60.433,84
60.458,52
60.483,8
60.508,-27
60.533,-37
60.558,-22
60.583,-11
60.608,-31
60.633,-77
60.658,-101
60.683,-53
60.708,70
60.733,222
60.758,340
60.783,404
60.808,438
60.833,476
60.858,519
60.883,544
60.908,536
60.933,517
60.958,521
60.983,557
61.008,597
61.033,607
61.058,585
61.083,558
61.108,544
61.133,531
61.158,491
61.183,419
61.208,348
61.233,314
61.258,318
61.283,317
61.308,270
61.333,169
61.358,42
61.383,-84
61.408,-204
61.433,-314
61.458,-395
61.483,-407
61.508,-329
61.533,-189
61.558,-51
61.583,31
61.608,53
61.633,52
61.658,63
61.683,90
61.708,116
61.733,131
61.758,146
61.783,179
61.808,229
61.833,273
61.858,292
61.883,287
61.908,269
61.933,246
61.958,210
61.983,159
62.008,105
62.033,73
62.058,71
62.083,88
62.108,96
62.133,79
62.158,40
62.183,-7
62.208,-51
62.233,-84
62.258,-93
62.283,-68
62.308,-7
62.333,79
62.358,176
62.383,276
62.408,379
62.433,480
62.458,561
62.483,600
62.508,595
62.533,568
62.558,542
62.583,526
62.608,511
62.633,482
62.658,440
62.683,396
62.708,360
62.733,327
62.758,290
62.783,243
62.808,193
62.833,149
62.858,116
62.883,97
62.908,86
62.933,71
62.958,44
62.983,6
63.008,-17
63.033,0
63.058,69
63.083,167
63.108,255
63.133,306
63.158,323
63.183,329
63.208,338
63.233,344
63.258,335
63.283,314
63.308,301
63.333,312
63.358,345
63.383,381
63.408,399
63.433,393
63.458,369
63.483,339
63.508,309
63.533,277
63.558,240
63.583,197
63.608,154
63.633,119
63.658,92
63.683,63
63.708,22
63.733,-28
63.758,-64
63.783,-51
63.808,20
63.833,128
63.858,227
63.883,287
63.908,309
63.933,316
63.958,325
63.983,332
64.008,325
64.033,306
64.058,291
64.083,292
64.108,302
64.133,304
64.158,286
64.183,255
64.208,225
64.233,199
64.258,171
64.283,137
64.308,103
64.333,81
64.358,71
64.383,64
64.408,48
64.433,27
64.458,9
64.483,-5
64.508,-29
64.533,-73
64.558,-122
64.583,-140
64.608,-95
64.633,13
64.658,144
64.683,251
64.708,310
64.733,334
64.758,351
64.783,377
64.808,403
64.833,413
64.858,405
64.883,395
64.908,397
64.933,412
64.958,424
64.983,419
65.008,400
65.033,380
65.058,369
65.083,362
65.108,342
65.133,303
65.158,255
65.183,212
65.208,177
65.233,144
65.258,108
65.283,72
65.308,44
65.333,20
65.358,-14
65.383,-68
65.408,-121
65.433,-136
65.458,-84
65.483,23
65.508,142
65.533,228
65.558,269
65.583,285
65.608,301
65.633,322
65.658,340
65.683,344
65.708,338
65.733,338
65.758,349
65.783,368
65.808,381
65.833,381
65.858,370
65.883,355
65.908,340
65.933,323
65.958,299
65.983,268
66.008,234
66.033,204
66.058,180
66.083,157
66.108,130
66.133,100
66.158,75
66.183,57
66.208,37
66.233,3
66.258,-48
66.283,-95
66.308,-100
66.333,-43
66.358,62
66.383,177
66.408,264
66.433,310
66.458,330
66.483,344
66.508,357
66.533,365
66.558,361
66.583,354
66.608,358
66.633,377
66.658,405
66.683,425
66.708,428
66.733,415
66.758,394
66.783,369
66.808,337
66.833,293
66.858,241
66.883,191
66.908,153
66.933,126
66.958,101
66.983,74
67.008,48
67.033,26
67.058,4
67.083,-31
67.108,-85
67.133,-136
67.158,-147
67.183,-92
67.208,17
67.233,138
67.258,227
67.283,275
67.308,300
67.333,322
67.358,343
67.383,353
67.408,350
67.433,343
67.458,348
67.483,368
67.508,392
67.533,407
67.558,408
67.583,398
67.608,383
67.633,363
67.658,338
67.683,307
67.708,271
67.733,233
67.758,195
67.783,162
67.808,134
67.833,106
67.858,74
67.883,40
67.908,6
67.933,-25
67.958,-64
67.983,-117
68.008,-169
68.033,-184
68.058,-132
68.083,-20
68.108,108
68.133,205
68.158,254
68.183,278
68.208,304
68.233,340
68.258,370
68.283,380
68.308,376
68.333,376
68.358,392
68.383,416
68.408,436
68.433,444
68.458,439
68.483,426
68.508,405
68.533,377
68.558,348
68.583,320
68.608,293
68.633,261
68.658,225
68.683,190
68.708,160
68.733,131
68.758,100
68.783,64
68.808,28
68.833,-10
68.858,-60
68.883,-122
68.908,-174
68.933,-175
68.958,-102
68.983,25
69.008,157
69.033,249
69.058,295
69.083,321
69.108,352
69.133,386
69.158,405
69.183,400
69.208,383
69.233,376
69.258,386
69.283,404
69.308,413
69.333,408
69.358,392
69.383,369
69.408,343
69.433,315
69.458,286
69.483,252
69.508,214
69.533,174
69.558,138
69.583,112
69.608,91
69.633,67
69.658,36
69.683,6
69.708,-17
69.733,-40
69.758,-79
69.783,-133
69.808,-175
69.833,-163
69.858,-79
69.883,49
69.908,170
69.933,245
69.958,276
69.983,294
70.008,318
70.033,344
70.058,357
70.083,355
70.108,354
70.133,369
70.158,401
70.183,431
70.208,444
70.233,438
70.258,425
70.283,412
70.308,401
70.333,385
70.358,362
70.383,336
70.408,312
70.433,291
70.458,271
70.483,247
70.508,218
70.533,189
70.558,164
70.583,143
70.608,116
70.633,71
70.658,11
70.683,-42
70.708,-57
70.733,-14
70.758,76
70.783,176
70.808,246
70.833,273
70.858,274
70.883,274
70.908,279
70.933,272
70.958,231
70.983,155
71.008,70
71.033,15
71.058,15
71.083,71
71.108,159
71.133,248
71.158,313
71.183,342
71.208,333
71.233,297
71.258,245
71.283,193
71.308,149
71.333,116
71.358,97
71.383,88
71.408,83
71.433,67
71.458,28
71.483,-26
71.508,-68
71.533,-64
71.558,-2
71.583,95
71.608,192
71.633,261
71.658,301
71.683,327
71.708,350
71.733,366
71.758,370
71.783,367
71.808,370
71.833,388
71.858,415
71.883,437
71.908,448
71.933,449
71.958,442
71.983,429
72.008,408
72.033,378
72.058,345
72.083,315
72.108,287
72.133,259
72.158,228
72.183,197
72.208,168
72.233,139
72.258,108
72.283,74
72.308,31
72.333,-25
72.358,-91
72.383,-146
72.408,-158
72.433,-108
72.458,-8
72.483,97
72.508,173
72.533,210
72.558,233
72.583,265
72.608,304
72.633,328
72.658,326
72.683,310
72.708,301
72.733,312
72.758,333
72.783,347
72.808,346
72.833,338
72.858,328
72.883,318
72.908,306
72.933,288
72.958,268
72.983,248
73.008,227
73.033,205
73.058,181
73.083,154
73.108,127
73.133,99
73.158,72
73.183,47
73.208,18
73.233,-25
73.258,-78
73.283,-119
73.308,-116
73.333,-54
73.358,47
73.383,146
73.408,210
73.433,240
73.458,260
73.483,289
73.508,326
73.533,352
73.558,359
73.583,357
73.608,363
73.633,386
73.658,414
73.683,433
73.708,435
73.733,424
73.758,410
73.783,399
73.808,388
73.833,372
73.858,349
73.883,325
73.908,304
73.933,286
73.958,269
73.983,245
74.008,215
74.033,179
74.058,139
74.083,98
74.108,57
74.133,23
74.158,-1
74.183,-25
74.208,-59
74.233,-109
74.258,-160
74.283,-178
74.308,-138
74.333,-47
74.358,58
74.383,139
74.408,184
74.433,209
74.458,235
74.483,268
74.508,296
74.533,310
74.558,316
74.583,327
74.608,350
74.633,378
74.658,400
74.683,409
74.708,409
74.733,404
74.758,394
74.783,379
74.808,359
74.833,339
74.858,322
74.883,306
74.908,289
74.933,269
74.958,247
74.983,227
75.008,208
75.033,186
75.058,159
75.083,126
75.108,91
75.133,60
75.158,32
75.183,0
75.208,-41
75.233,-87
75.258,-117
75.283,-105
75.308,-43
75.333,50
75.358,141
75.383,202
75.408,233
75.433,253
75.458,274
75.483,294
75.508,304
75.533,302
75.558,303
75.583,318
75.608,346
75.633,373
75.658,384
75.683,382
75.708,372
75.733,361
75.758,346
75.783,327
75.808,306
75.833,286
75.858,266
75.883,243
75.908,218
75.933,195
75.958,178
75.983,161
76.008,139
76.033,110
76.058,81
76.083,54
76.108,21
76.133,-22
76.158,-68
76.183,-87
76.208,-53
76.233,28
76.258,126
76.283,205
76.308,250
76.333,275
76.358,298
76.383,321
76.408,334
76.433,334
76.458,330
76.483,340
76.508,366
76.533,394
76.558,412
76.583,413
76.608,406
76.633,397
76.658,387
76.683,371
76.708,349
76.733,324
76.758,299
76.783,277
76.808,255
76.833,233
76.858,213
76.883,190
76.908,162
76.933,131
76.958,105
76.983,83
77.008,56
77.033,8
77.058,-64
77.083,-136
77.108,-170
77.133,-142
77.158,-62
77.183,29
77.208,98
77.233,137
77.258,165
77.283,201
77.308,247
77.333,287
77.358,308
77.383,316
77.408,329
77.433,356
77.458,391
77.483,418
77.508,427
77.533,420
77.558,408
77.583,397
77.608,385
77.633,370
77.658,348
77.683,323
77.708,298
77.733,276
77.758,254
77.783,232
77.808,207
77.833,174
77.858,135
77.883,93
77.908,56
77.933,23
77.958,-14
77.983,-66
78.008,-120
78.033,-151
78.058,-126
78.083,-41
78.108,74
78.133,178
78.158,244
78.183,280
78.208,309
78.233,344
78.258,374
78.283,382
78.308,372
78.333,368
78.358,388
78.383,427
78.408,461
78.433,471
78.458,459
78.483,437
78.508,409
78.533,371
78.558,316
78.583,252
78.608,194
78.633,143
78.658,90
78.683,26
78.708,-43
78.733,-104
78.758,-152
78.783,-201
78.808,-265
78.833,-343
78.858,-420
78.883,-488
78.908,-559
78.933,-651
78.958,-753
78.983,-821
79.008,-804
79.033,-676
79.058,-445
79.083,-139
79.108,214
79.133,585
79.158,924
79.183,1171
79.208,1278
79.233,1246
79.258,1122
79.283,974
79.308,851
79.333,773
79.358,738
79.383,735
79.408,754
79.433,787
79.458,825
79.483,859
79.508,880
79.533,879
79.558,846
79.583,779
79.608,685
79.633,581
79.658,481
79.683,391
79.708,306
79.733,212
79.758,104
79.783,-12
79.808,-116
79.833,-188
79.858,-233
79.883,-281
79.908,-363
79.933,-479
79.958,-585
79.983,-619
80.008,-544
80.033,-381
80.058,-181
80.083,3
80.108,150
80.133,257
80.158,323
80.183,352
80.208,356
80.233,357
80.258,376
80.283,410
80.308,435
80.333,434
80.358,408
80.383,377
80.408,353
80.433,337
80.458,319
80.483,296
80.508,273
80.533,251
80.558,226
80.583,194
80.608,156
80.633,118
80.658,80
80.683,40
80.708,-1
80.733,-40
80.758,-74
80.783,-110
80.808,-159
80.833,-216
80.858,-254
80.883,-240
80.908,-165
80.933,-55
80.958,45
80.983,111
81.008,151
81.033,186
81.058,226
81.083,257
81.108,267
81.133,262
81.158,263
81.183,286
81.208,325
81.233,361
81.258,377
81.283,375
81.308,366
81.333,354
81.358,338
81.383,312
81.408,282
81.433,256
81.458,239
81.483,227
81.508,209
81.533,185
81.558,162
81.583,144
81.608,129
81.633,108
81.658,79
81.683,52
81.708,35
81.733,26
81.758,10
81.783,-23
81.808,-64
81.833,-79
81.858,-37
81.883,67
81.908,207
81.933,340
81.958,439
81.983,508
82.008,568
82.033,638
82.058,715
82.083,780
82.108,823
82.133,856
82.158,905
82.183,978
82.208,1056
82.233,1110
82.258,1134
82.283,1156
82.308,1198
82.333,1233
82.358,1179
82.383,959
82.408,566
82.433,93
82.458,-321
82.483,-577
82.508,-661
82.533,-627
82.558,-553
82.583,-498
82.608,-493
82.633,-546
82.658,-643
82.683,-758
82.708,-866
82.733,-959
82.758,-1035
82.783,-1075
82.808,-1034
82.833,-875
82.858,-615
82.883,-328
82.908,-96
82.933,52
82.958,157
82.983,270
83.008,407
83.033,540
83.058,639
83.083,706
83.108,759
83.133,801
83.158,812
83.183,780
83.208,722
83.233,677
83.258,665
83.283,668
83.308,655
83.333,612
83.358,554
83.383,501
83.408,464
83.433,444
83.458,439
83.483,450
83.508,461
83.533,450
83.558,407
83.583,348
83.608,299
83.633,263
83.658,219
83.683,153
83.708,92
83.733,91
83.758,174
83.783,299
83.808,387
83.833,388
83.858,323
83.883,254
83.908,223
83.933,221
83.958,214
83.983,188
84.008,164
84.033,163
84.058,184
84.083,200
84.108,189
84.133,156
84.158,124
84.183,110
84.208,109
84.233,109
84.258,101
84.283,85
84.308,68
84.333,54
84.358,43
84.383,27
84.408,0
84.433,-41
84.458,-90
84.483,-122
84.508,-116
84.533,-61
84.558,24
84.583,117
84.608,194
84.633,248
84.658,282
84.683,301
84.708,308
84.733,307
84.758,307
84.783,314
84.808,326
84.833,339
84.858,346
84.883,344
84.908,332
84.933,311
84.958,285
84.983,263
85.008,247
85.033,231
85.058,200
85.083,148
85.108,84
85.133,31
85.158,4
85.183,-8
85.208,-34
85.233,-88
85.258,-149
85.283,-175
85.308,-137
85.333,-49
85.358,45
85.383,106
85.408,130
85.433,145
85.458,179
85.483,232
85.508,284
85.533,319
85.558,338
85.583,354
85.608,373
85.633,390
85.658,399
85.683,403
85.708,414
85.733,434
85.758,453
85.783,460
85.808,454
85.833,443
85.858,432
85.883,424
85.908,420
85.933,426
85.958,443
85.983,461
86.008,469
86.033,464
86.058,462
86.083,470
86.108,477
86.133,462
86.158,433
86.183,435
86.208,513
86.233,659
86.258,813
86.283,916
86.308,972
86.333,1020
86.358,1061
86.383,1012
86.408,768
86.433,327
86.458,-172
86.483,-540
86.508,-677
86.533,-641
86.558,-570
86.583,-550
86.608,-565
86.633,-554
86.658,-495
86.683,-420
86.708,-371
86.733,-354
86.758,-346
86.783,-332
86.808,-318
86.833,-317
86.858,-325
86.883,-335
86.908,-346
86.933,-358
86.958,-350
86.983,-289
87.008,-164
87.033,-11
87.058,109
87.083,170
87.108,198
87.133,245
87.158,329
87.183,420
87.208,477
87.233,493
87.258,494
87.283,502
87.308,512
87.333,501
87.358,462
87.383,415
87.408,382
87.433,371
87.458,372
87.483,376
87.508,381
87.533,385
87.558,378
87.583,354
87.608,319
87.633,292
87.658,286
87.683,298
87.708,324
87.733,361
87.758,414
87.783,477
87.808,531
87.833,560
87.858,568
87.883,573
87.908,589
87.933,607
87.958,610
87.983,596
88.008,590
88.033,625
88.058,707
88.083,808
88.108,886
88.133,912
88.158,894
88.183,863
88.208,852
88.233,870
88.258,890
88.283,858
88.308,722
88.333,470
88.358,137
88.383,-209
88.408,-510
88.433,-737
88.458,-890
88.483,-976
88.508,-997
88.533,-959
88.558,-875
88.583,-770
88.608,-665
88.633,-561
88.658,-456
88.683,-355
88.708,-268
88.733,-203
88.758,-155
88.783,-108
88.808,-62
88.833,-32
88.858,-29
88.883,-41
88.908,-30
88.933,34
88.958,151
88.983,281
89.008,381
89.033,436
89.058,464
89.083,488
89.108,516
89.133,537
89.158,542
89.183,536
89.208,536
89.233,548
89.258,565
89.283,572
89.308,561
89.333,539
89.358,512
89.383,486
89.408,459
89.433,426
89.458,391
89.483,356
89.508,324
89.533,296
89.558,270
89.583,245
89.608,218
89.633,188
89.658,156
89.683,127
89.708,97
89.733,58
89.758,6
89.783,-45
89.808,-67
89.833,-34
89.858,51
89.883,154
89.908,232
89.933,266
89.958,271
89.983,276
90.008,294
90.033,316
90.058,326
90.083,325
90.108,325
90.133,338
90.158,359
90.183,374
90.208,374
90.233,360
90.258,338
90.283,315
90.308,291
90.333,267
90.358,245
90.383,226
90.408,206
90.433,182
90.458,155
90.483,132
90.508,113
90.533,95
90.558,72
90.583,43
90.608,14
90.633,-14
90.658,-50
90.683,-98
90.708,-144
90.733,-158
90.758,-112
90.783,-10
90.808,108
90.833,203
90.858,254
90.883,279
90.908,304
90.933,338
90.958,370
90.983,386
91.008,389
91.033,399
91.058,429
91.083,469
91.108,501
91.133,515
91.158,517
91.183,520
91.208,527
91.233,531
91.258,522
91.283,504
91.308,486
91.333,475
91.358,466
91.383,455
91.408,440
91.433,426
91.458,416
91.483,400
91.508,362
91.533,286
91.558,165
91.583,5
91.608,-172
91.633,-335
91.658,-450
91.683,-492
91.708,-463
91.733,-380
91.758,-269
91.783,-158
91.808,-71
91.833,-26
91.858,-20
91.883,-27
91.908,-6
91.933,60
91.958,150
91.983,219
92.008,241
92.033,241
92.058,267
92.083,342
92.108,432
92.133,480
92.158,462
92.183,409
92.208,374
92.233,376
92.258,385
92.283,363
92.308,304
92.333,237
92.358,194
92.383,177
92.408,163
92.433,134
92.458,100
92.483,77
92.508,62
92.533,37
92.558,-11
92.583,-70
92.608,-98
92.633,-65
92.658,23
92.683,136
92.708,234
92.733,298
92.758,331
92.783,347
92.808,356
92.833,362
92.858,368
92.883,374
92.908,382
92.933,397
92.958,417
92.983,439
93.008,453
93.033,450
93.058,434
93.083,417
93.108,406
93.133,398
93.158,379
93.183,347
93.208,316
93.233,298
93.258,292
93.283,277
93.308,246
93.333,215
93.358,210
93.383,222
93.408,200
93.433,93
93.458,-78
93.483,-217
93.508,-216
93.533,-49
93.558,197
93.583,401
93.608,491
93.633,494
93.658,477
93.683,476
93.708,468
93.733,418
93.758,324
93.783,228
93.808,178
93.833,188
93.858,235
93.883,286
93.908,320
93.933,331
93.958,316
93.983,274
94.008,211
94.033,142
94.058,88
94.083,57
94.108,43
94.133,29
94.158,0
94.183,-41
94.208,-86
94.233,-120
94.258,-144
94.283,-173
94.308,-214
94.333,-255
94.358,-261
94.383,-203
94.408,-84
94.433,57
94.458,176
94.483,247
94.508,278
94.533,294
94.558,311
94.583,327
94.608,338
94.633,345
94.658,358
94.683,388
94.708,435
94.733,484
94.758,516
94.783,518
94.808,491
94.833,446
94.858,392
94.883,338
94.908,288
94.933,249
94.958,226
94.983,217
95.008,208
95.033,186
95.058,151
95.083,119
95.108,99
95.133,79
95.158,36
95.183,-29
95.208,-80
95.233,-68
95.258,16
95.283,132
95.308,223
95.333,267
95.358,284
95.383,299
95.408,312
95.433,303
95.458,276
95.483,261
95.508,287
95.533,342
95.558,377
95.583,365
95.608,329
95.633,319
95.658,353
95.683,399
95.708,407
95.733,365
95.758,307
95.783,271
95.808,257
95.833,237
95.858,195
95.883,141
95.908,103
95.933,86
95.958,71
95.983,34
96.008,-28
96.033,-97
96.058,-143
96.083,-142
96.108,-86
96.133,9
96.158,116
96.183,198
96.208,238
96.233,248
96.258,260
96.283,289
96.308,330
96.333,363
96.358,384
96.383,405
96.408,435
96.433,463
96.458,471
96.483,453
96.508,425
96.533,408
96.558,401
96.583,385
96.608,350
96.633,309
96.658,283
96.683,273
96.708,256
96.733,217
96.758,170
96.783,152
96.808,183
96.833,234
96.858,260
96.883,239
96.908,204
96.933,212
96.958,289
96.983,399
97.008,475
97.033,476
97.058,412
97.083,328
97.108,260
97.133,210
97.158,165
97.183,118
97.208,83
97.233,72
97.258,83
97.283,97
97.308,102
97.333,98
97.358,92
97.383,82
97.408,57
97.433,14
97.458,-32
97.483,-63
97.508,-68
97.533,-57
97.558,-45
97.583,-37
97.608,-30
97.633,-27
97.658,-43
97.683,-83
97.708,-129
97.733,-138
97.758,-82
97.783,23
97.808,134
97.833,209
97.858,238
97.883,239
97.908,228
97.933,213
97.958,202
97.983,213
98.008,267
98.033,361
98.058,457
98.083,513
98.108,515
98.133,484
98.158,448
98.183,416
98.208,381
98.233,339
98.258,303
98.283,284
98.308,274
98.333,254
98.358,216
98.383,173
98.408,144
98.433,126
98.458,101
98.483,62
98.508,30
98.533,40
98.558,102
98.583,190
98.608,263
98.633,307
98.658,337
98.683,374
98.708,417
98.733,447
98.758,454
98.783,446
98.808,440
98.833,442
98.858,441
98.883,427
98.908,402
98.933,374
98.958,349
98.983,327
99.008,303
99.033,279
99.058,255
99.083,229
99.108,200
99.133,168
99.158,139
99.183,109
99.208,70
99.233,21
99.258,-16
99.283,-11
99.308,49
99.333,140
99.358,212
99.383,234
99.408,214
99.433,189
99.458,182
99.483,186
99.508,185
99.533,178
99.558,181
99.583,205
99.608,240
99.633,261
99.658,260
99.683,246
99.708,237
99.733,233
99.758,227
99.783,209
99.808,186
99.833,166
99.858,150
99.883,131
99.908,106
99.933,80
99.958,60
99.983,41
100.008,8
100.033,-39
100.058,-77
100.083,-72
100.108,-9
100.133,89
100.158,182
100.183,240
100.208,266
100.233,283
100.258,306
100.283,333
100.308,349
100.333,350
100.358,347
100.383,354
100.408,373
100.433,394
100.458,403
100.483,398
100.508,384
100.533,366
100.558,346
100.583,318
100.608,285
100.633,253
100.658,226
100.683,201
100.708,170
100.733,132
100.758,98
100.783,76
100.808,60
100.833,33
100.858,-13
100.883,-62
100.908,-76
100.933,-31
100.958,61
100.983,162
101.008,234
101.033,271
101.058,293
101.083,316
101.108,337
101.133,344
101.158,337
101.183,329
101.208,334
101.233,352
101.258,369
101.283,372
101.308,362
101.333,349
101.358,335
101.383,319
101.408,297
101.433,270
101.458,240
101.483,213
101.508,186
101.533,162
101.558,141
101.583,124
101.608,107
101.633,89
101.658,69
101.683,48
101.708,20
101.733,-21
101.758,-69
101.783,-99
101.808,-81
101.833,-8
101.858,91
101.883,177
101.908,225
101.933,245
101.958,265
101.983,295
102.008,327
102.033,343
102.058,343
102.083,342
102.108,352
102.133,370
102.158,386
102.183,389
102.208,383
102.233,373
102.258,360
102.283,342
102.308,319
102.333,296
102.358,274
102.383,253
102.408,231
102.433,207
102.458,185
102.483,167
102.508,150
102.533,131
102.558,108
102.583,82
102.608,47
102.633,1
102.658,-43
102.683,-63
102.708,-34
102.733,41
102.758,134
102.783,207
102.808,247
102.833,267
102.858,285
102.883,306
102.908,320
102.933,320
102.958,315
102.983,322
103.008,348
103.033,380
103.058,400
103.083,400
103.108,387
103.133,369
103.158,349
103.183,323
103.208,292
103.233,261
103.258,238
103.283,220
103.308,203
103.333,185
103.358,167
103.383,151
103.408,130
103.433,102
103.458,70
103.483,42
103.508,19
103.533,-9
103.558,-56
103.583,-113
103.608,-147
103.633,-125
103.658,-40
103.683,72
103.708,167
103.733,221
103.758,245
103.783,266
103.808,295
103.833,322
103.858,334
103.883,331
103.908,330
103.933,347
103.958,376
103.983,403
104.008,414
104.033,412
104.058,404
104.083,394
104.108,379
104.133,356
104.158,330
104.183,305
104.208,283
104.233,262
104.258,240
104.283,218
104.308,196
104.333,172
104.358,142
104.383,107
104.408,75
104.433,47
104.458,15
104.483,-30
104.508,-84
104.533,-117
104.558,-95
104.583,-15
104.608,92
104.633,185
104.658,240
104.683,268
104.708,291
104.733,316
104.758,334
104.783,336
104.808,329
104.833,333
104.858,357
104.883,389
104.908,410
104.933,410
104.958,395
104.983,375
105.008,355
105.033,335
105.058,312
105.083,288
105.108,266
105.133,243
105.158,216
105.183,186
105.208,158
105.233,133
105.258,107
105.283,75
105.308,42
105.333,17
105.358,1
105.383,-20
105.408,-57
105.433,-102
105.458,-121
105.483,-84
105.508,9
105.533,123
105.558,217
105.583,271
105.608,295
105.633,311
105.658,328
105.683,339
105.708,338
105.733,330
105.758,332
105.783,350
105.808,379
105.833,400
105.858,405
105.883,398
105.908,387
105.933,376
105.958,360
105.983,334
106.008,300
106.033,266
106.058,238
106.083,215
106.108,189
106.133,158
106.158,130
106.183,110
106.208,94
106.233,68
106.258,22
106.283,-27
106.308,-49
106.333,-16
106.358,68
106.383,171
106.408,252
106.433,293
106.458,305
106.483,308
106.508,308
106.533,303
106.558,290
106.583,280
106.608,289
106.633,316
106.658,344
106.683,355
106.708,345
106.733,327
106.758,313
106.783,300
106.808,277
106.833,239
106.858,196
106.883,162
106.908,138
106.933,116
106.958,89
106.983,61
107.008,41
107.033,26
107.058,0
107.083,-45
107.108,-98
107.133,-121
107.158,-88
107.183,-1
107.208,103
107.233,190
107.258,242
107.283,270
107.308,294
107.333,318
107.358,337
107.383,342
107.408,337
107.433,337
107.458,350
107.483,374
107.508,398
107.533,409
107.558,405
107.583,393
107.608,377
107.633,360
107.658,336
107.683,306
107.708,271
107.733,239
107.758,212
107.783,187
107.808,162
107.833,137
107.858,115
107.883,92
107.908,58
107.933,7
107.958,-46
107.983,-73
108.008,-45
108.033,33
108.058,132
108.083,211
108.108,254
108.133,271
108.158,283
108.183,298
108.208,308
108.233,306
108.258,298
108.283,301
108.308,323
108.333,351
108.358,366
108.383,361
108.408,343
108.433,326
108.458,313
108.483,296
108.508,270
108.533,238
108.558,211
108.583,192
108.608,175
108.633,156
108.658,133
108.683,112
108.708,94
108.733,69
108.758,29
108.783,-14
108.808,-35
108.833,-8
108.858,63
108.883,151
108.908,223
108.933,265
108.958,285
108.983,298
109.008,305
109.033,300
109.058,285
109.083,273
109.108,282
109.133,311
109.158,342
109.183,355
109.208,347
109.233,329
109.258,312
109.283,297
109.308,279
109.333,252
109.358,222
109.383,192
109.408,162
109.433,129
109.458,99
109.483,75
109.508,54
109.533,24
109.558,-18
109.583,-59
109.608,-65
109.633,-17
109.658,69
109.683,158
109.708,218
109.733,248
109.758,268
109.783,293
109.808,317
109.833,328
109.858,323
109.883,317
109.908,327
109.933,353
109.958,381
109.983,395
110.008,393
110.033,381
110.058,367
110.083,351
110.108,332
110.133,308
110.158,279
110.183,249
110.208,221
110.233,197
110.258,174
110.283,148
110.308,115
110.333,78
110.358,45
110.383,19
110.408,-4
110.433,-42
110.458,-97
110.483,-147
110.508,-155
110.533,-102
110.558,-2
110.583,104
110.608,181
110.633,225
110.658,254
110.683,289
110.708,331
110.733,367
110.758,388
110.783,398
110.808,408
110.833,425
110.858,446
110.883,462
110.908,468
110.933,465
110.958,457
110.983,447
111.008,433
111.033,415
111.058,390
111.083,360
111.108,327
111.133,294
111.158,257
111.183,206
111.208,133
111.233,40
111.258,-49
111.283,-103
111.308,-105
111.333,-73
111.358,-47
111.383,-60
111.408,-110
111.433,-156
111.458,-155
111.483,-93
111.508,7
111.533,105
111.558,174
111.583,215
111.608,245
111.633,276
111.658,308
111.683,332
111.708,345
111.733,354
111.758,369
111.783,393
111.808,421
111.833,444
111.858,456
111.883,455
111.908,444
111.933,429
111.958,412
111.983,394
112.008,372
112.033,347
112.058,321
112.083,297
112.108,273
112.133,245
112.158,215
112.183,184
112.208,152
112.233,119
112.258,83
112.283,46
112.308,16
112.333,-7
112.358,-36
112.383,-79
112.408,-126
112.433,-148
112.458,-116
112.483,-31
112.508,74
112.533,160
112.558,209
112.583,232
112.608,251
112.633,273
112.658,287
112.683,288
112.708,285
112.733,299
112.758,334
112.783,373
112.808,398
112.833,403
112.858,396
112.883,391
112.908,386
112.933,372
112.958,347
112.983,318
113.008,294
113.033,274
113.058,255
113.083,234
113.108,212
113.133,191
113.158,167
113.183,136
113.208,103
113.233,75
113.258,54
113.283,27
113.308,-16
113.333,-70
113.358,-103
113.383,-84
113.408,-11
113.433,86
113.458,169
113.483,220
113.508,249
113.533,277
113.558,308
113.583,331
113.608,337
113.633,332
113.658,335
113.683,355
113.708,386
113.733,410
113.758,415
113.783,406
113.808,393
113.833,380
113.858,366
113.883,345
113.908,319
113.933,294
113.958,273
113.983,253
114.008,230
114.033,206
114.058,183
114.083,162
114.108,137
114.133,104
114.158,67
114.183,34
114.208,5
114.233,-28
114.258,-77
114.283,-128
114.308,-150
114.333,-116
114.358,-28
114.383,80
114.408,168
114.433,219
114.458,245
114.483,269
114.508,297
114.533,319
114.558,325
114.583,322
114.608,328
114.633,352
114.658,387
114.683,414
114.708,422
114.733,418
114.758,410
114.783,403
114.808,389
114.833,366
114.858,338
114.883,312
114.908,291
114.933,268
114.958,241
114.983,213
115.008,189
115.033,168
115.058,142
115.083,109
115.108,73
115.133,41
115.158,13
115.183,-23
115.208,-75
115.233,-122
115.258,-134
115.283,-88
115.308,4
115.333,106
115.358,183
115.383,226
115.408,252
115.433,275
115.458,297
115.483,308
115.508,308
115.533,308
115.558,322
115.583,350
115.608,379
115.633,395
115.658,397
115.683,392
115.708,386
115.733,377
115.758,360
115.783,334
115.808,306
115.833,281
115.858,261
115.883,242
115.908,221
115.933,198
115.958,173
115.983,150
116.008,129
116.033,106
116.058,76
116.083,33
116.108,-15
116.133,-49
116.158,-45
116.183,6
116.208,89
116.233,172
116.258,231
116.283,262
116.308,278
116.333,289
116.358,294
116.383,286
116.408,271
116.433,267
116.458,284
116.483,317
116.508,344
116.533,350
116.558,338
116.583,321
116.608,311
116.633,301
116.658,283
116.683,254
116.708,222
116.733,195
116.758,173
116.783,150
116.808,124
116.833,101
116.858,83
116.883,62
116.908,28
116.933,-15
116.958,-48
116.983,-40
117.008,16
117.033,103
117.058,186
117.083,246
117.108,280
117.133,302
117.158,317
117.183,324
117.208,320
117.233,312
117.258,312
117.283,326
117.308,349
117.333,371
117.358,383
117.383,381
117.408,370
117.433,352
117.458,332
117.483,311
117.508,289
117.533,263
117.558,236
117.583,210
117.608,187
117.633,164
117.658,137
117.683,107
117.708,77
117.733,51
117.758,24
117.783,-16
117.808,-68
117.833,-108
117.858,-103
117.883,-41
117.908,57
117.933,153
117.958,215
117.983,244
118.008,263
118.033,287
118.058,311
118.083,323
118.108,321
118.133,318
118.158,330
118.183,355
118.208,379
118.233,388
118.258,382
118.283,370
118.308,359
118.333,348
118.358,329
118.383,301
118.408,268
118.433,239
118.458,216
118.483,195
118.508,172
118.533,145
118.558,119
118.583,95
118.608,68
118.633,28
118.658,-23
118.683,-69
118.708,-80
118.733,-42
118.758,35
118.783,123
118.808,191
118.833,232
118.858,258
118.883,284
118.908,308
118.933,320
118.958,315
118.983,301
119.008,299
119.033,317
119.058,346
119.083,368
119.108,373
119.133,364
119.158,351
119.183,338
119.208,321
119.233,297
119.258,269
119.283,243
119.308,225
119.333,211
119.358,193
119.383,170
119.408,146
119.433,125
119.458,103
119.483,68
119.508,19
119.533,-26
119.558,-39
119.583,-3
119.608,67
119.633,141
119.658,194
119.683,222
119.708,241
119.733,260
119.758,276
119.783,278
119.808,270
119.833,266
119.858,281
119.883,310
119.908,333
119.933,339
119.958,331
119.983,320
120.008,312
120.033,302
120.058,281
120.083,252
120.108,224
120.133,202
120.158,185
120.183,168
120.208,149
120.233,131
120.258,110
120.283,79
120.308,38
120.333,3
120.358,-3
120.383,28
120.408,89
120.433,153
120.458,199
120.483,229
120.508,251
120.533,271
120.558,284
120.583,285
120.608,279
120.633,279
120.658,296
120.683,324
120.708,346
120.733,351
120.758,341
120.783,327
120.808,316
120.833,305
120.858,287
120.883,262
120.908,236
120.933,217
120.958,204
120.983,189
121.008,165
121.033,138
121.058,110
121.083,82
121.108,46
121.133,0
121.158,-38
121.183,-45
121.208,-7
121.233,62
121.258,135
121.283,187
121.308,216
121.333,240
121.358,270
121.383,301
121.408,321
121.433,324
121.458,322
121.483,327
121.508,344
121.533,363
121.558,374
121.583,375
121.608,370
121.633,364
121.658,355
121.683,337
121.708,312
121.733,287
121.758,266
121.783,252
121.808,240
121.833,222
121.858,199
121.883,172
121.908,144
121.933,117
121.958,90
121.983,56
122.008,12
122.033,-35
122.058,-70
122.083,-72
122.108,-34
122.133,29
122.158,95
122.183,142
122.208,170
122.233,192
122.258,216
122.283,242
122.308,262
122.333,275
122.358,286
122.383,302
122.408,323
122.433,341
122.458,350
122.483,351
122.508,350
122.533,348
122.558,343
122.583,333
122.608,319
122.633,303
122.658,287
122.683,271
122.708,254
122.733,237
122.758,221
122.783,206
122.808,186
122.833,162
122.858,136
122.883,115
122.908,97
122.933,74
122.958,38
122.983,-1
123.008,-23
123.033,-5
123.058,48
123.083,116
123.108,171
123.133,203
123.158,225
123.183,250
123.208,280
123.233,302
123.258,307
123.283,302
123.308,304
123.333,322
123.358,346
123.383,359
123.408,357
123.433,347
123.458,340
123.483,337
123.508,328
123.533,307
123.558,282
123.583,263
123.608,254
123.633,248
123.658,233
123.683,211
123.708,190
123.733,175
123.758,162
123.783,142
123.808,113
123.833,83
123.858,55
123.883,26
123.908,-8
123.933,-39
123.958,-45
123.983,-11
124.008,56
124.033,128
124.058,180
124.083,207
124.108,225
124.133,245
124.158,267
124.183,278
124.208,277
124.233,276
124.258,288
124.283,315
124.308,343
124.333,357
124.358,357
124.383,352
124.408,349
124.433,345
124.458,335
124.483,315
124.508,291
124.533,270
124.558,255
124.583,241
124.608,223
124.633,202
124.658,181
124.683,165
124.708,155
124.733,145
124.758,127
124.783,93
124.808,42
124.833,-8
124.858,-36
124.883,-21
124.908,33
124.933,106
124.958,169
124.983,209
125.008,232
125.033,250
125.058,271
125.083,288
125.108,296
125.133,298
125.158,304
125.183,322
125.208,346
125.233,365
125.258,372
125.283,368
125.308,361
125.333,352
125.358,339
125.383,321
125.408,299
125.433,280
125.458,263
125.483,247
125.508,227
125.533,204
125.558,181
125.583,157
125.608,131
125.633,103
125.658,72
125.683,40
125.708,3
125.733,-41
125.758,-84
125.783,-104
125.808,-82
125.833,-19
125.858,60
125.883,126
125.908,164
125.933,186
125.958,211
125.983,245
126.008,275
126.033,290
126.058,293
126.083,298
126.108,317
126.133,347
126.158,373
126.183,386
126.208,387
126.233,385
126.258,382
126.283,376
126.308,366
126.333,351
126.358,338
126.383,325
126.408,311
126.433,295
126.458,279
126.483,264
126.508,249
126.533,229
126.558,204
126.583,180
126.608,159
126.633,137
126.658,104
126.683,63
126.708,31
126.733,30
126.758,72
126.783,147
126.808,234
126.833,308
126.858,352
126.883,352
126.908,298
126.933,198
126.958,80
126.983,-10
127.008,-39
127.033,-1
127.058,75
127.083,155
127.108,215
127.133,255
127.158,282
127.183,300
127.208,307
127.233,303
127.258,294
127.283,285
127.308,276
127.333,265
127.358,251
127.383,237
127.408,227
127.433,219
127.458,205
127.483,185
127.508,162
127.533,142
127.558,120
127.583,91
127.608,55
127.633,26
127.658,28
127.683,69
127.708,135
127.733,199
127.758,242
127.783,266
127.808,280
127.833,290
127.858,291
127.883,284
127.908,275
127.933,275
127.958,290
127.983,312
128.008,330
128.033,336
128.058,333
128.083,323
128.108,309
128.133,291
128.158,271
128.183,253
128.208,235
128.233,216
128.258,196
128.283,179
128.308,165
128.333,148
128.358,121
128.383,89
128.408,73
128.433,91
128.458,140
128.483,198
128.508,238
128.533,255
128.558,262
128.583,269
128.608,273
128.633,266
128.658,249
128.683,237
128.708,244
128.733,265
128.758,282
128.783,283
128.808,271
128.833,256
128.858,242
128.883,223
128.908,197
128.933,170
128.958,148
128.983,127
129.008,98
129.033,64
129.058,45
129.083,62
129.108,113
129.133,173
129.158,215
129.183,234
129.208,243
129.233,253
129.258,262
129.283,259
129.308,246
129.333,235
129.358,237
129.383,247
129.408,255
129.433,254
129.458,248
129.483,241
129.508,228
129.533,201
129.558,166
129.583,134
129.608,112
129.633,91
129.658,61
129.683,26
129.708,10
129.733,36
129.758,98
129.783,169
129.808,224
129.833,260
129.858,292
129.883,325
129.908,352
129.933,361
129.958,355
129.983,352
130.008,362
130.033,379
130.058,388
130.083,380
130.108,360
130.133,336
130.158,308
130.183,273
130.208,229
130.233,183
130.258,139
130.283,101
130.308,69
130.333,40
130.358,13
130.383,-18
130.408,-57
130.433,-93
130.458,-105
130.483,-77
130.508,-11
130.533,65
130.558,126
130.583,166
130.608,201
130.633,247
130.658,301
130.683,347
130.708,372
130.733,383
130.758,396
130.783,418
130.808,440
130.833,452
130.858,449
130.883,439
130.908,428
130.933,415
130.958,396
130.983,373
131.008,351
131.033,335
131.058,320
131.083,303
131.108,284
131.133,264
131.158,245
131.183,225
131.208,197
131.233,165
131.258,133
131.283,105
131.308,78
131.333,49
131.358,19
131.383,-10
131.408,-43
131.433,-85
131.458,-132
131.483,-164
131.508,-160
131.533,-109
131.558,-30
131.583,47
131.608,104
131.633,144
131.658,184
131.683,237
131.708,293
131.733,338
131.758,363
131.783,378
131.808,395
131.833,418
131.858,439
131.883,450
131.908,448
131.933,438
131.958,427
131.983,415
132.008,401
132.033,383
132.058,362
132.083,341
132.108,321
132.133,301
132.158,283
132.183,265
132.208,245
132.233,220
132.258,192
132.283,164
132.308,136
132.333,111
132.358,85
132.383,60
132.408,35
132.433,9
132.458,-22
132.483,-63
132.508,-102
132.533,-119
132.558,-98
132.583,-40
132.608,32
132.633,94
132.658,132
132.683,158
132.708,189
132.733,231
132.758,274
132.783,302
132.808,314
132.833,319
132.858,332
132.883,355
132.908,379
132.933,393
132.958,394
132.983,387
133.008,379
133.033,371
133.058,363
133.083,353
133.108,343
133.133,335
133.158,328
133.183,316
133.208,297
133.233,271
133.258,243
133.283,217
133.308,194
133.333,171
133.358,146
133.383,121
133.408,96
133.433,70
133.458,37
133.483,-4
133.508,-44
133.533,-65
133.558,-52
133.583,-5
133.608,56
133.633,109
133.658,143
133.683,165
133.708,190
133.733,223
133.758,257
133.783,280
133.808,289
133.833,293
133.858,302
133.883,320
133.908,338
133.933,350
133.958,351
133.983,346
134.008,337
134.033,325
134.058,313
134.083,303
134.108,298
134.133,294
134.158,288
134.183,277
134.208,260
134.233,243
134.258,226
134.283,209
134.308,191
134.333,172
134.358,153
134.383,135
134.408,114
134.433,93
134.458,70
134.483,46
134.508,18
134.533,-13
134.558,-37
134.583,-37
134.608,-5
134.633,50
134.658,110
134.683,154
134.708,182
134.733,208
134.758,242
134.783,278
134.808,308
134.833,323
134.858,331
134.883,343
134.908,364
134.933,387
134.958,407
134.983,417
135.008,422
135.033,422
135.058,418
135.083,409
135.108,395
135.133,379
135.158,367
135.183,356
135.208,345
135.233,330
135.258,311
135.283,289
135.308,265
135.333,241
135.358,215
135.383,189
135.408,162
135.433,137
135.458,113
135.483,86
135.508,52
135.533,13
135.558,-17
135.583,-25
135.608,0
135.633,51
135.658,108
135.683,156
135.708,189
135.733,214
135.758,236
135.783,251
135.808,253
135.833,247
135.858,243
135.883,251
135.908,270
135.933,286
135.958,287
135.983,273
136.008,251
136.033,230
136.058,209
136.083,186
136.108,160
136.133,130
136.158,100
136.183,69
136.208,39
136.233,14
136.258,0
136.283,0
136.308,6
136.333,16
136.358,23
136.383,25
136.408,19
136.433,0
136.458,-27
136.483,-49
136.508,-47
136.533,-4
136.558,76
136.583,176
136.608,273
136.633,351
136.658,409
136.683,449
136.708,477
136.733,494
136.758,499
136.783,500
136.808,504
136.833,517
136.858,537
136.883,554
136.908,561
136.933,554
136.958,536
136.983,511
137.008,480
137.033,444
137.058,404
137.083,363
137.108,323
137.133,283
137.158,238
137.183,185
137.208,126
137.233,64
137.258,3
137.283,-52
137.308,-98
137.333,-134
137.358,-167
137.383,-205
137.408,-248
137.433,-282
137.458,-281
137.483,-233
137.508,-150
137.533,-66
137.558,-10
137.583,16
137.608,32
137.633,56
137.658,90
137.683,123
137.708,152
137.733,181
137.758,218
137.783,263
137.808,305
137.833,336
137.858,358
137.883,379
137.908,398
137.933,412
137.958,416
137.983,419
138.008,429
138.033,447
138.058,466
138.083,479
138.108,488
138.133,499
138.158,511
138.183,516
138.208,513
138.233,515
138.258,536
138.283,576
138.308,615
138.333,629
138.358,619
138.383,608
138.408,619
138.433,647
138.458,651
138.483,581
138.508,413
138.533,177
138.558,-49
138.583,-178
138.608,-151
138.633,19
138.658,257
138.683,462
138.708,555
138.733,521
138.758,402
138.783,252
138.808,111
138.833,-10
138.858,-114
138.883,-197
138.908,-253
138.933,-280
138.958,-289
138.983,-294
139.008,-299
139.033,-297
139.058,-282
139.083,-259
139.108,-240
139.133,-231
139.158,-226
139.183,-217
139.208,-205
139.233,-197
139.258,-199
139.283,-202
139.308,-187
139.333,-137
139.358,-51
139.383,60
139.408,188
139.433,325
139.458,464
139.483,589
139.508,680
139.533,727
139.558,737
139.583,733
139.608,732
139.633,739
139.658,748
139.683,751
139.708,742
139.733,723
139.758,695
139.783,661
139.808,624
139.833,585
139.858,540
139.883,489
139.908,433
139.933,378
139.958,328
139.983,278
140.008,223
140.033,163
140.058,101
140.083,37
140.108,-36
140.133,-122
140.158,-204
140.183,-258
140.208,-270
140.233,-260
140.258,-261
140.283,-292
140.308,-336
140.333,-375
140.358,-412
140.383,-465
140.408,-531
140.433,-572
140.458,-547
140.483,-467
140.508,-383
140.533,-317
140.558,-191
140.583,133
140.608,725
140.633,1468
140.658,2094
140.683,2350
140.708,2165
140.733,1672
140.758,1087
140.783,567
140.808,162
140.833,-142
140.858,-358
140.883,-489
140.908,-554
140.933,-595
140.958,-636
140.983,-652
141.008,-591
141.033,-426
141.058,-202
141.083,-3
141.108,111
141.133,146
141.158,145
141.183,141
141.208,135
141.233,117
141.258,99
141.283,120
141.308,212
141.333,364
141.358,530
141.383,663
141.408,740
141.433,768
141.458,764
141.483,740
141.508,708
141.533,683
141.558,678
141.583,686
141.608,687
141.633,671
141.658,643
141.683,621
141.708,603
141.733,570
141.758,499
141.783,402
141.808,320
141.833,291
141.858,318
141.883,368
141.908,401
141.933,401
141.958,372
141.983,320
142.008,244
142.033,148
142.058,50
142.083,-25
142.108,-69
142.133,-92
142.158,-114
142.183,-145
142.208,-173
142.233,-187
142.258,-187
142.283,-188
142.308,-202
142.333,-231
142.358,-264
142.383,-288
142.408,-297
142.433,-297
142.458,-299
142.483,-314
142.508,-341
142.533,-364
142.558,-361
142.583,-320
142.608,-248
142.633,-168
142.658,-95
142.683,-31
142.708,35
142.733,112
142.758,192
142.783,261
142.808,314
142.833,359
142.858,416
142.883,503
142.908,612
142.933,718
142.958,785
142.983,798
143.008,774
143.033,752
143.058,759
143.083,784
143.108,784
143.133,727
143.158,622
143.183,510
143.208,429
143.233,378
143.258,336
143.283,290
143.308,253
143.333,250
143.358,286
143.383,334
143.408,367
143.433,375
143.458,378
143.483,391
143.508,412
143.533,427
143.558,421
143.583,397
143.608,361
143.633,316
143.658,259
143.683,195
143.708,132
143.733,79
143.758,29
143.783,-32
143.808,-111
143.833,-192
143.858,-243
143.883,-246
143.908,-207
143.933,-156
143.958,-126
143.983,-122
144.008,-120
144.033,-92
144.058,-24
144.083,69
144.108,159
144.133,224
144.158,263
144.183,287
144.208,308
144.233,328
144.258,343
144.283,353
144.308,362
144.333,371
144.358,373
144.383,357
144.408,314
144.433,250
144.458,180
144.483,119
144.508,72
144.533,33
144.558,-9
144.583,-63
144.608,-119
144.633,-156
144.658,-150
144.683,-95
144.708,-4
144.733,92
144.758,171
144.783,222
144.808,244
144.833,244
144.858,230
144.883,216
144.908,218
144.933,242
144.958,279
144.983,312
145.008,330
145.033,334
145.058,333
145.083,331
145.108,325
145.133,314
145.158,300
145.183,287
145.208,269
145.233,242
145.258,208
145.283,187
145.308,202
145.333,253
145.358,319
145.383,373
145.408,401
145.433,410
145.458,414
145.483,414
145.508,406
145.533,388
145.558,369
145.583,357
145.608,354
145.633,353
145.658,343
145.683,317
145.708,278
145.733,232
145.758,185
145.783,145
145.808,111
145.833,75
145.858,29
145.883,-20
145.908,-55
145.933,-53
145.958,-11
145.983,50
146.008,105
146.033,138
146.058,155
146.083,167
146.108,175
146.133,177
146.158,172
146.183,168
146.208,176
146.233,194
146.258,214
146.283,222
146.308,216
146.333,199
146.358,175
146.383,150
146.408,128
146.433,113
146.458,99
146.483,80
146.508,54
146.533,36
146.558,49
146.583,102
146.608,180
146.633,255
146.658,308
146.683,344
146.708,381
146.733,423
146.758,456
146.783,465
146.808,451
146.833,434
146.858,433
146.883,446
146.908,458
146.933,454
146.958,439
146.983,423
147.008,411
147.033,395
147.058,367
147.083,334
147.108,308
147.133,293
147.158,274
147.183,233
147.208,169
147.233,111
147.258,94
147.283,134
147.308,209
147.333,283
147.358,329
147.383,347
147.408,353
147.433,362
147.458,371
147.483,372
147.508,355
147.533,322
147.558,281
147.583,240
147.608,201
147.633,160
147.658,108
147.683,40
147.708,-36
147.733,-105
147.758,-147
147.783,-157
147.808,-151
147.833,-148
147.858,-156
147.883,-172
147.908,-187
147.933,-203
147.958,-226
147.983,-249
148.008,-247
148.033,-197
148.058,-96
148.083,29
148.108,148
148.133,239
148.158,306
148.183,354
148.208,383
148.233,394
148.258,395
148.283,399
148.308,416
148.333,438
148.358,450
148.383,445
148.408,427
148.433,407
148.458,390
148.483,373
148.508,354
148.533,337
148.558,321
148.583,303
148.608,277
148.633,246
148.658,217
148.683,189
148.708,158
148.733,120
148.758,90
148.783,90
148.808,132
148.833,196
148.858,252
148.883,283
148.908,297
148.933,315
148.958,339
148.983,356
149.008,353
149.033,337
149.058,329
149.083,340
149.108,357
149.133,357
149.158,332
149.183,295
149.208,264
149.233,242
149.258,223
149.283,200
149.308,175
149.333,155
149.358,141
149.383,128
149.408,112
149.433,95
149.458,77
149.483,61
149.508,44
149.533,26
149.558,7
149.583,-10
149.608,-27
149.633,-43
149.658,-58
149.683,-73
149.708,-84
149.733,-83
149.758,-53
149.783,16
149.808,118
149.833,222
149.858,299
149.883,347
149.908,389
149.933,446
149.958,509
149.983,549
150.008,553
150.033,541
150.058,553
150.083,600
150.108,659
150.133,698
150.158,718
150.183,741
150.208,779
150.233,815
150.258,825
150.283,820
150.308,832
150.333,865
150.358,860
150.383,735
150.408,463
150.433,108
150.458,-219
150.483,-451
150.508,-594
150.533,-682
150.558,-724
150.583,-698
150.608,-609
150.633,-510
150.658,-467
150.683,-493
150.708,-531
150.733,-513
150.758,-420
150.783,-290
150.808,-169
150.833,-59
150.858,59
150.883,193
150.908,314
150.933,391
150.958,421
150.983,437
151.008,465
151.033,503
151.058,531
151.083,536
151.108,524
151.133,509
151.158,492
151.183,473
151.208,453
151.233,440
151.258,434
151.283,426
151.308,405
151.333,374
151.358,348
151.383,330
151.408,308
151.433,262
151.458,195
151.483,131
151.508,96
151.533,90
151.558,86
151.583,59
151.608,11
151.633,-26
151.658,-26
151.683,17
151.708,88
151.733,158
151.758,209
151.783,241
151.808,264
151.833,288
151.858,316
151.883,344
151.908,368
151.933,380
151.958,386
151.983,390
152.008,401
152.033,415
152.058,424
152.083,420
152.108,403
152.133,379
152.158,357
152.183,338
152.208,317
152.233,293
152.258,267
152.283,243
152.308,225
152.333,210
152.358,191
152.383,165
152.408,131
152.433,92
152.458,51
152.483,16
152.508,-9
152.533,-28
152.558,-47
152.583,-74
152.608,-107
152.633,-126
152.658,-108
152.683,-43
152.708,52
152.733,145
152.758,207
152.783,236
152.808,249
152.833,265
152.858,288
152.883,310
152.908,324
152.933,333
152.958,345
152.983,363
153.008,382
153.033,393
153.058,394
153.083,390
153.108,384
153.133,376
153.158,361
153.183,339
153.208,316
153.233,299
153.258,287
153.283,275
153.308,255
153.333,231
153.358,208
153.383,190
153.408,173
153.433,150
153.458,122
153.483,93
153.508,68
153.533,44
153.558,14
153.583,-27
153.608,-66
153.633,-78
153.658,-46
153.683,25
153.708,112
153.733,184
153.758,228
153.783,251
153.808,269
153.833,293
153.858,319
153.883,337
153.908,345
153.933,348
153.958,354
153.983,367
154.008,381
154.033,390
154.058,392
154.083,386
154.108,377
154.133,363
154.158,345
154.183,322
154.208,300
154.233,280
154.258,262
154.283,245
154.308,227
154.333,208
154.358,188
154.383,164
154.408,132
154.433,93
154.458,58
154.483,34
154.508,19
154.533,2
154.558,-26
154.583,-55
154.608,-60
154.633,-23
154.658,52
154.683,142
154.708,214
154.733,258
154.758,281
154.783,296
154.808,310
154.833,318
154.858,317
154.883,312
154.908,314
154.933,326
154.958,341
154.983,352
155.008,353
155.033,347
155.058,338
155.083,326
155.108,308
155.133,284
155.158,255
155.183,226
155.208,200
155.233,177
155.258,157
155.283,136
155.308,115
155.333,95
155.358,78
155.383,62
155.408,42
155.433,15
155.458,-13
155.483,-25
155.508,-1
155.533,61
155.558,147
155.583,228
155.608,287
155.633,322
155.658,343
155.683,356
155.708,359
155.733,351
155.758,340
155.783,337
155.808,350
155.833,372
155.858,390
155.883,398
155.908,396
155.933,386
155.958,366
155.983,331
156.008,288
156.033,247
156.058,214
156.083,187
156.108,160
156.133,129
156.158,99
156.183,74
156.208,51
156.233,22
156.258,-10
156.283,-34
156.308,-26
156.333,23
156.358,100
156.383,179
156.408,239
156.433,276
156.458,296
156.483,307
156.508,308
156.533,299
156.558,286
156.583,279
156.608,288
156.633,309
156.658,330
156.683,341
156.708,338
156.733,325
156.758,308
156.783,290
156.808,270
156.833,245
156.858,218
156.883,187
156.908,153
156.933,118
156.958,85
156.983,58
157.008,36
157.033,10
157.058,-24
157.083,-65
157.108,-94
157.133,-87
157.158,-34
157.183,54
157.208,150
157.233,226
157.258,272
157.283,297
157.308,312
157.333,322
157.358,326
157.383,323
157.408,320
157.433,324
157.458,339
157.483,357
157.508,370
157.533,372
157.558,366
157.583,358
157.608,347
157.633,333
157.658,314
157.683,293
157.708,272
157.733,250
157.758,226
157.783,200
157.808,174
157.833,149
157.858,122
157.883,86
157.908,40
157.933,-2
157.958,-19
157.983,7
158.008,77
158.033,168
158.058,249
158.083,302
158.108,326
158.133,336
158.158,346
158.183,361
158.208,371
158.233,367
158.258,349
158.283,322
158.308,299
158.333,288
158.358,288
158.383,294
158.408,299
158.433,297
158.458,290
158.483,279
158.508,267
158.533,254
158.558,239
158.583,221
158.608,203
158.633,184
158.658,157
158.683,113
158.708,51
158.733,-14
158.758,-57
158.783,-62
158.808,-31
158.833,13
158.858,49
158.883,70
158.908,80
158.933,85
158.958,82
158.983,67
159.008,44
159.033,31
159.058,41
159.083,73
159.108,113
159.133,147
159.158,173
159.183,195
159.208,213
159.233,221
159.258,220
159.283,213
159.308,209
159.333,213
159.358,227
159.383,253
159.408,293
159.433,342
159.458,380
159.483,395
159.508,396
159.533,419
159.558,496
159.583,621
159.608,751
159.633,846
159.658,906
159.683,961
159.708,1021
159.733,1052
159.758,988
159.783,796
159.808,512
159.833,223
159.858,0
159.883,-138
159.908,-221
159.933,-274
159.958,-298
159.983,-284
160.008,-238
160.033,-192
160.058,-174
160.083,-186
160.108,-203
160.133,-202
160.158,-185
160.183,-175
160.208,-197
160.233,-255
160.258,-320
160.283,-346
160.308,-292
160.333,-143
160.358,75
160.383,305
160.408,483
160.433,577
160.458,608
160.483,620
160.508,645
160.533,678
160.558,694
160.583,689
160.608,690
160.633,726
160.658,778
160.683,784
160.708,684
160.733,484
160.758,254
160.783,78
160.808,-17
160.833,-64
160.858,-107
160.883,-153
160.908,-179
160.933,-171
160.958,-149
160.983,-144
161.008,-157
161.033,-154
161.058,-102
161.083,-4
161.108,102
161.133,180
161.158,224
161.183,246
161.208,258
161.233,254
161.258,232
161.283,210
161.308,213
161.333,251
161.358,307
161.383,351
161.408,366
161.433,359
161.458,342
161.483,319
161.508,291
161.533,256
161.558,216
161.583,171
161.608,122
161.633,77
161.658,59
161.683,86
161.708,157
161.733,243
161.758,314
161.783,352
161.808,366
161.833,369
161.858,364
161.883,345
161.908,316
161.933,288
161.958,277
161.983,284
162.008,294
162.033,294
162.058,281
162.083,261
162.108,246
162.133,237
162.158,227
162.183,209
162.208,180
162.233,147
162.258,118
162.283,99
162.308,84
162.333,60
162.358,22
162.383,-9
162.408,-5
162.433,56
162.458,164
162.483,280
162.508,367
162.533,419
162.558,451
162.583,480
162.608,507
162.633,526
162.658,538
162.683,544
162.708,533
162.733,480
162.758,375
162.783,242
162.808,130
162.833,66
162.858,29
162.883,-26
162.908,-117
162.933,-201
162.958,-216
162.983,-138
163.008,-7
163.033,109
163.058,173
163.083,190
163.108,185
163.133,174
163.158,160
163.183,159
163.208,194
163.233,274
163.258,379
163.283,472
163.308,533
163.333,573
163.358,611
163.383,637
163.408,617
163.433,529
163.458,393
163.483,256
163.508,156
163.533,95
163.558,55
163.583,24
163.608,6
163.633,9
163.658,27
163.683,47
163.708,64
163.733,83
163.758,108
163.783,126
163.808,126
163.833,107
163.858,85
163.883,71
163.908,58
163.933,31
163.958,-8
163.983,-33
164.008,-14
164.033,49
164.058,131
164.083,197
164.108,234
164.133,256
164.158,275
164.183,293
164.208,302
164.233,301
164.258,301
164.283,313
164.308,334
164.333,355
164.358,367
164.383,370
164.408,367
164.433,357
164.458,339
164.483,315
164.508,289
164.533,266
164.558,244
164.583,220
164.608,196
164.633,176
164.658,156
164.683,129
164.708,93
164.733,60
164.758,51
164.783,79
164.808,135
164.833,198
164.858,246
164.883,276
164.908,292
164.933,297
164.958,291
164.983,280
165.008,271
165.033,275
165.058,291
165.083,308
165.108,317
165.133,315
165.158,308
165.183,297
165.208,282
165.233,259
165.258,233
165.283,206
165.308,184
165.333,163
165.358,144
165.383,125
165.408,103
165.433,74
165.458,40
165.483,16
165.508,23
165.533,69
165.558,138
165.583,203
165.608,244
165.633,265
165.658,279
165.683,295
165.708,308
165.733,310
165.758,307
165.783,308
165.808,320
165.833,336
165.858,343
165.883,339
165.908,329
165.933,317
165.958,302
165.983,277
166.008,245
166.033,211
166.058,182
166.083,156
166.108,130
166.133,106
166.158,84
166.183,61
166.208,29
166.233,-11
166.258,-44
166.283,-42
166.308,4
166.333,80
166.358,154
166.383,204
166.408,233
166.433,256
166.458,282
166.483,304
166.508,313
166.533,311
166.558,309
166.583,317
166.608,331
166.633,343
166.658,348
166.683,347
166.708,341
166.733,333
166.758,319
166.783,302
166.808,283
166.833,265
166.858,246
166.883,225
166.908,201
166.933,174
166.958,144
166.983,113
167.008,86
167.033,62
167.058,37
167.083,2
167.108,-43
167.133,-87
167.158,-102
167.183,-67
167.208,10
167.233,102
167.258,177
167.283,224
167.308,252
167.333,279
167.358,310
167.383,338
167.408,357
167.433,367
167.458,376
167.483,389
167.508,407
167.533,425
167.558,435
167.583,435
167.608,425
167.633,410
167.658,395
167.683,379
167.708,363
167.733,343
167.758,320
167.783,299
167.808,279
167.833,257
167.858,232
167.883,201
167.908,169
167.933,139
167.958,109
167.983,77
168.008,42
168.033,9
168.058,-23
168.083,-62
168.108,-110
168.133,-155
168.158,-167
168.183,-127
168.208,-40
168.233,58
168.258,132
168.283,172
168.308,197
168.333,230
168.358,276
168.383,319
168.408,343
168.433,350
168.458,356
168.483,374
168.508,403
168.533,428
168.558,439
168.583,436
168.608,426
168.633,415
168.658,402
168.683,386
168.708,365
168.733,343
168.758,322
168.783,301
168.808,280
168.833,258
168.858,235
168.883,211
168.908,187
168.933,161
168.958,131
168.983,99
169.008,67
169.033,38
169.058,10
169.083,-27
169.108,-78
169.133,-134
169.158,-170
169.183,-159
169.208,-97
169.233,-3
169.258,86
169.283,151
169.308,190
169.333,220
169.358,252
169.383,287
169.408,315
169.433,331
169.458,341
169.483,355
169.508,377
169.533,402
169.558,421
169.583,430
169.608,430
169.633,424
169.658,415
169.683,401
169.708,383
169.733,364
169.758,348
169.783,333
169.808,318
169.833,298
169.858,276
169.883,255
169.908,234
169.933,212
169.958,183
169.983,147
170.008,105
170.033,63
170.058,21
170.083,-24
170.108,-77
170.133,-124
170.158,-140
170.183,-108
170.208,-30
170.233,66
170.258,148
170.283,201
170.308,232
170.333,259
170.358,290
170.383,316
170.408,327
170.433,324
170.458,321
170.483,332
170.508,355
170.533,378
170.558,388
170.583,385
170.608,375
170.633,363
170.658,348
170.683,328
170.708,305
170.733,284
170.758,267
170.783,250
170.808,229
170.833,207
170.858,188
170.883,173
170.908,157
170.933,136
170.958,112
170.983,91
171.008,67
171.033,31
171.058,-18
171.083,-63
171.108,-76
171.133,-39
171.158,36
171.183,119
171.208,184
171.233,226
171.258,256
171.283,282
171.308,299
171.333,301
171.358,294
171.383,293
171.408,311
171.433,343
171.458,372
171.483,384
171.508,380
171.533,369
171.558,360
171.583,349
171.608,330
171.633,302
171.658,272
171.683,245
171.708,222
171.733,197
171.758,166
171.783,132
171.808,103
171.833,84
171.858,67
171.883,40
171.908,-3
171.933,-48
171.958,-65
171.983,-32
172.008,46
172.033,144
172.058,226
172.083,278
172.108,307
172.133,324
172.158,334
172.183,336
172.208,328
172.233,321
172.258,327
172.283,348
172.308,374
172.333,391
172.358,393
172.383,383
172.408,367
172.433,349
172.458,325
172.483,294
172.508,256
172.533,214
172.558,173
172.583,136
172.608,103
172.633,68
172.658,26
172.683,-17
172.708,-42
172.733,-26
172.758,35
172.783,122
172.808,200
172.833,247
172.858,265
172.883,271
172.908,275
172.933,274
172.958,265
172.983,253
173.008,251
173.033,266
173.058,288
173.083,300
173.108,296
173.133,284
173.158,273
173.183,260
173.208,239
173.233,206
173.258,172
173.283,145
173.308,125
173.333,97
173.358,55
173.383,16
173.408,11
173.433,60
173.458,147
173.483,237
173.508,300
173.533,330
173.558,342
173.583,347
173.608,345
173.633,330
173.658,305
173.683,286
173.708,286
173.733,301
173.758,314
173.783,312
173.808,297
173.833,279
173.858,260
173.883,235
173.908,200
173.933,163
173.958,133
173.983,108
174.008,77
174.033,31
174.058,-14
174.083,-30
174.108,3
174.133,76
174.158,156
174.183,215
174.208,250
174.233,275
174.258,302
174.283,326
174.308,337
174.333,334
174.358,327
174.383,328
174.408,339
174.433,352
174.458,360
174.483,361
174.508,355
174.533,341
174.558,319
174.583,287
174.608,247
174.633,203
174.658,159
174.683,122
174.708,95
174.733,72
174.758,38
174.783,-16
174.808,-80
174.833,-121
174.858,-113
174.883,-55
174.908,26
174.933,104
174.958,166
174.983,220
175.008,269
175.033,305
175.058,317
175.083,306
175.108,290
175.133,287
175.158,299
175.183,314
175.208,320
175.233,315
175.258,307
175.283,298
175.308,286
175.333,268
175.358,245
175.383,218
175.408,186
175.433,152
175.458,120
175.483,94
175.508,69
175.533,34
175.558,-16
175.583,-63
175.608,-71
175.633,-21
175.658,75
175.683,179
175.708,256
175.733,301
175.758,333
175.783,365
175.808,394
175.833,407
175.858,404
175.883,399
175.908,406
175.933,426
175.958,443
175.983,447
176.008,439
176.033,423
176.058,405
176.083,383
176.108,355
176.133,327
176.158,304
176.183,282
176.208,256
176.233,223
176.258,188
176.283,156
176.308,125
176.333,91
176.358,55
176.383,21
176.408,-9
176.433,-45
176.458,-95
176.483,-148
176.508,-176
176.533,-149
176.558,-65
176.583,42
176.608,134
176.633,190
176.658,220
176.683,246
176.708,272
176.733,292
176.758,299
176.783,300
176.808,312
176.833,339
176.858,370
176.883,390
176.908,392
176.933,381
176.958,368
176.983,357
177.008,344
177.033,327
177.058,306
177.083,285
177.108,264
177.133,243
177.158,224
177.183,205
177.208,184
177.233,162
177.258,137
177.283,115
177.308,93
177.333,64
177.358,25
177.383,-13
177.408,-31
177.433,-6
177.458,56
177.483,134
177.508,197
177.533,235
177.558,254
177.583,266
177.608,272
177.633,269
177.658,258
177.683,253
177.708,263
177.733,287
177.758,314
177.783,330
177.808,330
177.833,320
177.858,306
177.883,292
177.908,281
177.933,272
177.958,262
177.983,249
178.008,230
178.033,212
178.058,197
178.083,187
178.108,175
178.133,159
178.158,141
178.183,128
178.208,115
178.233,94
178.258,64
178.283,38
178.308,42
178.333,85
178.358,155
178.383,219
178.408,255
178.433,265
178.458,261
178.483,252
178.508,239
178.533,220
178.558,206
178.583,208
178.608,227
178.633,252
178.658,265
178.683,263
178.708,253
178.733,243
178.758,234
178.783,221
178.808,203
178.833,187
178.858,176
178.883,169
178.908,160
178.933,148
178.958,133
178.983,119
179.008,109
179.033,102
179.058,98
179.083,98
179.108,98
179.133,95
179.158,93
179.183,109
179.208,154
179.233,231
179.258,322
179.283,400
179.308,446
179.333,454
179.358,432
179.383,388
179.408,337
179.433,290
179.458,261
179.483,254
179.508,261
179.533,268
179.558,265
179.583,252
179.608,239
179.633,228
179.658,218
179.683,204
179.708,190
179.733,182
179.758,180
179.783,180
179.808,174
179.833,162
179.858,150
179.883,146
179.908,148
179.933,147
179.958,138
179.983,130
180.008,138
180.033,172
180.058,228
180.083,287
180.108,328
180.133,343
180.158,337
180.183,319
180.208,299
180.233,282
180.258,273
180.283,272
180.308,282
180.333,298
180.358,315
180.383,328
180.408,339
180.433,350
180.458,360
180.483,362
180.508,353
180.533,341
180.558,336
180.583,331
180.608,294
180.633,192
180.658,24
180.683,-166
180.708,-323
180.733,-416
180.758,-456
180.783,-466
180.808,-441
180.833,-351
180.858,-192
180.883,-15
180.908,95
180.933,98
180.958,32
180.983,-17
181.008,6
181.033,88
181.058,175
181.083,245
181.108,330
181.133,467
181.158,648
181.183,816
181.208,919
181.233,959
181.258,970
181.283,969
181.308,934
181.333,832
181.358,670
181.383,503
181.408,388
181.433,335
181.458,308
181.483,266
181.508,204
181.533,148
181.558,124
181.583,135
181.608,164
181.633,195
181.658,221
181.683,238
181.708,241
181.733,227
181.758,207
181.783,198
181.808,208
181.833,225
181.858,223
181.883,187
181.908,125
181.933,63
181.958,26
181.983,22
182.008,34
182.033,40
182.058,29
182.083,0
182.108,-34
182.133,-66
182.158,-94
182.183,-115
182.208,-132
182.233,-146
182.258,-161
182.283,-181
182.308,-202
182.333,-212
182.358,-199
182.383,-157
182.408,-92
182.433,-7
182.458,100
182.483,233
182.508,376
182.533,496
182.558,561
182.583,565
182.608,537
182.633,514
182.658,514
182.683,526
182.708,534
182.733,530
182.758,523
182.783,522
182.808,528
182.833,535
182.858,543
182.883,551
182.908,550
182.933,525
182.958,458
182.983,355
183.008,236
183.033,125
183.058,26
183.083,-59
183.108,-122
183.133,-135
183.158,-74
183.183,48
183.208,181
183.233,264
183.258,275
183.283,237
183.308,194
183.333,171
183.358,159
183.383,141
183.408,118
183.433,108
183.458,125
183.483,159
183.508,191
183.533,211
183.558,224
183.583,236
183.608,241
183.633,230
183.658,200
183.683,163
183.708,138
183.733,133
183.758,150
183.783,190
183.808,254
183.833,328
183.858,386
183.883,410
183.908,412
183.933,426
183.958,480
183.983,567
184.008,653
184.033,708
184.058,720
184.083,687
184.108,603
184.133,469
184.158,316
184.183,190
184.208,113
184.233,59
184.258,-17
184.283,-127
184.308,-237
184.333,-314
184.358,-372
184.383,-444
184.408,-519
184.433,-531
184.458,-435
184.483,-295
184.508,-257
184.533,-403
184.558,-630
184.583,-718
184.608,-523
184.633,-128
184.658,224
184.683,348
184.708,257
184.733,125
184.758,104
184.783,206
184.808,340
184.833,428
184.858,469
184.883,504
184.908,548
184.933,575
184.958,563
184.983,530
185.008,510
185.033,522
185.058,551
185.083,582
185.108,620
185.133,683
185.158,770
185.183,846
185.208,877
185.233,861
185.258,836
185.283,843
185.308,883
185.333,916
185.358,908
185.383,874
185.408,868
185.433,913
185.458,946
185.483,842
185.508,524
185.533,47
185.558,-413
185.583,-689
185.608,-735
185.633,-638
185.658,-523
185.683,-450
185.708,-398
185.733,-329
185.758,-237
185.783,-144
185.808,-57
185.833,40
185.858,157
185.883,270
185.908,337
185.933,344
185.958,316
185.983,291
186.008,278
186.033,256
186.058,204
186.083,122
186.108,28
186.133,-60
186.158,-137
186.183,-197
186.208,-234
186.233,-252
186.258,-264
186.283,-279
186.308,-289
186.333,-272
186.358,-216
186.383,-139
186.408,-70
186.433,-24
186.458,13
186.483,62
186.508,128
186.533,197
186.558,255
186.583,302
186.608,351
186.633,404
186.658,455
186.683,496
186.708,525
186.733,545
186.758,561
186.783,573
186.808,579
186.833,582
186.858,581
186.883,577
186.908,570
186.933,559
186.958,542
186.983,520
187.008,503
187.033,512
187.058,562
187.083,638
187.108,694
187.133,685
187.158,599
187.183,477
187.208,373
187.233,310
187.258,270
187.283,220
187.308,155
187.333,99
187.358,75
187.383,78
187.408,85
187.433,76
187.458,54
187.483,29
187.508,3
187.533,-31
187.558,-74
187.583,-116
187.608,-143
187.633,-155
187.658,-160
187.683,-167
187.708,-175
187.733,-181
187.758,-189
187.783,-205
187.808,-216
187.833,-196
187.858,-125
187.883,-7
187.908,122
187.933,227
187.958,291
187.983,324
188.008,341
188.033,353
188.058,361
188.083,366
188.108,372
188.133,384
188.158,399
188.183,413
188.208,422
188.233,424
188.258,418
188.283,404
188.308,386
188.333,366
188.358,348
188.383,330
188.408,309
188.433,286
188.458,266
188.483,250
188.508,231
188.533,200
188.558,162
188.583,135
188.608,139
188.633,176
188.658,226
188.683,269
188.708,295
188.733,309
188.758,317
188.783,317
188.808,307
188.833,290
188.858,278
188.883,279
188.908,288
188.933,295
188.958,293
188.983,286
189.008,276
189.033,264
189.058,245
189.083,222
189.108,200
189.133,182
189.158,162
189.183,131
189.208,94
189.233,72
189.258,83
189.283,127
189.308,181
189.333,222
189.358,242
189.383,249
189.408,253
189.433,257
189.458,256
189.483,251
189.508,246
189.533,248
189.558,250
189.583,247
189.608,233
189.633,214
189.658,194
189.683,175
189.708,153
189.733,128
189.758,104
189.783,85
189.808,66
189.833,39
189.858,5
189.883,-19
189.908,-15
189.933,26
189.958,94
189.983,165
190.008,218
190.033,252
190.058,272
190.083,287
190.108,296
190.133,298
190.158,293
190.183,291
190.208,299
190.233,318
190.258,338
190.283,346
190.308,340
190.333,325
190.358,309
190.383,297
190.408,280
190.433,253
190.458,218
190.483,185
190.508,163
190.533,145
190.558,118
190.583,75
190.608,33
190.633,19
190.658,50
190.683,115
190.708,186
190.733,236
190.758,264
190.783,283
190.808,303
190.833,321
190.858,326
190.883,319
190.908,313
190.933,323
190.958,345
190.983,364
191.008,367
191.033,352
191.058,330
191.083,307
191.108,283
191.133,255
191.158,227
191.183,205
191.208,187
191.233,164
191.258,128
191.283,83
191.308,49
191.333,48
191.358,82
191.383,139
191.408,196
191.433,240
191.458,270
191.483,290
191.508,300
191.533,301
191.558,289
191.583,266
191.608,242
191.633,226
191.658,222
191.683,228
191.708,230
191.733,220
191.758,195
191.783,161
191.808,128
191.833,99
191.858,78
191.883,66
191.908,64
191.933,66
191.958,56
191.983,22
192.008,-29
192.033,-67
192.058,-62
192.083,-6
192.108,74
192.133,146
192.158,195
192.183,229
192.208,264
192.233,299
192.258,322
192.283,326
192.308,321
192.333,325
192.358,344
192.383,368
192.408,384
192.433,384
192.458,374
192.483,358
192.508,339
192.533,316
192.558,288
192.583,256
192.608,222
192.633,187
192.658,153
192.683,124
192.708,97
192.733,63
192.758,17
192.783,-26
192.808,-41
192.833,-9
192.858,63
192.883,149
192.908,219
192.933,263
192.958,293
192.983,320
193.008,344
193.033,357
193.058,359
193.083,357
193.108,363
193.133,379
193.158,397
193.183,408
193.208,406
193.233,391
193.258,369
193.283,342
193.308,315
193.333,288
193.358,265
193.383,243
193.408,220
193.433,194
193.458,161
193.483,123
193.508,86
193.533,55
193.558,30
193.583,3
193.608,-35
193.633,-79
193.658,-106
193.683,-89
193.708,-23
193.733,70
193.758,156
193.783,211
193.808,240
193.833,260
193.858,278
193.883,291
193.908,292
193.933,288
193.958,292
193.983,311
194.008,337
194.033,355
194.058,354
194.083,340
194.108,325
194.133,313
194.158,302
194.183,286
194.208,263
194.233,240
194.258,219
194.283,203
194.308,186
194.333,166
194.358,144
194.383,125
194.408,109
194.433,91
194.458,64
194.483,30
194.508,1
194.533,-2
194.558,30
194.583,92
194.608,164
194.633,222
194.658,259
194.683,278
194.708,287
194.733,289
194.758,283
194.783,273
194.808,269
194.833,280
194.858,303
194.883,327
194.908,338
194.933,333
194.958,321
194.983,311
195.008,305
195.033,296
195.058,278
195.083,251
195.108,224
195.133,201
195.158,181
195.183,160
195.208,136
195.233,116
195.258,102
195.283,91
195.308,71
195.333,42
195.358,13
195.383,3
195.408,26
195.433,75
195.458,130
195.483,174
195.508,200
195.533,209
195.558,203
195.583,181
195.608,151
195.633,126
195.658,118
195.683,131
195.708,152
195.733,170
195.758,184
195.783,199
195.808,223
195.833,250
195.858,271
195.883,279
195.908,280
195.933,280
195.958,282
195.983,280
196.008,268
196.033,251
196.058,237
196.083,234
196.108,241
196.133,251
196.158,253
196.183,245
196.208,231
196.233,227
196.258,246
196.283,292
196.308,355
196.333,410
196.358,439
196.383,434
196.408,404
196.433,364
196.458,325
196.483,291
196.508,268
196.533,258
196.558,260
196.583,264
196.608,261
196.633,248
196.658,228
196.683,208
196.708,190
196.733,172
196.758,152
196.783,130
196.808,112
196.833,98
196.858,87
196.883,78
196.908,72
196.933,69
196.958,68
196.983,60
197.008,47
197.033,40
197.058,56
197.083,102
197.108,167
197.133,230
197.158,276
197.183,301
197.208,310
197.233,306
197.258,291
197.283,269
197.308,250
197.333,245
197.358,257
197.383,276
197.408,291
197.433,296
197.458,294
197.483,287
197.508,276
197.533,262
197.558,244
197.583,225
197.608,205
197.633,185
197.658,164
197.683,144
197.708,125
197.733,104
197.758,75
197.783,43
197.808,21
197.833,28
197.858,72
197.883,140
197.908,209
197.933,261
197.958,291
197.983,306
198.008,310
198.033,304
198.058,289
198.083,270
198.108,259
198.133,261
198.158,272
198.183,283
198.208,289
198.233,288
198.258,282
198.283,273
198.308,261
198.333,245
198.358,226
198.383,204
198.408,183
198.433,167
198.458,154
198.483,137
198.508,108
198.533,68
198.558,31
198.583,22
198.608,51
198.633,110
198.658,176
198.683,230
198.708,265
198.733,288
198.758,303
198.783,310
198.808,306
198.833,296
198.858,290
198.883,296
198.908,312
198.933,327
198.958,336
198.983,335
199.008,325
199.033,308
199.058,285
199.083,259
199.108,232
199.133,205
199.158,180
199.183,155
199.208,128
199.233,97
199.258,57
199.283,16
199.308,-11
199.333,-6
199.358,38
199.383,111
199.408,187
199.433,245
199.458,281
199.483,306
199.508,324
199.533,336
199.558,336
199.583,326
199.608,316
199.633,316
199.658,326
199.683,338
199.708,345
199.733,343
199.758,334
199.783,315
199.808,288
199.833,257
199.858,226
199.883,198
199.908,170
199.933,138
199.958,104
199.983,74
200.008,43
200.033,4
200.058,-43
200.083,-85
200.108,-93
200.133,-51
200.158,27
200.183,110
200.208,170
200.233,205
200.258,228
200.283,253
200.308,275
200.333,288
200.358,293
200.383,302
200.408,326
200.433,360
200.458,390
200.483,405
200.508,407
200.533,401
200.558,390
200.583,369
200.608,340
200.633,307
200.658,275
200.683,246
200.708,214
200.733,178
200.758,141
200.783,107
200.808,71
200.833,22
200.858,-35
200.883,-81
200.908,-87
200.933,-43
200.958,35
200.983,115
201.008,174
201.033,210
201.058,236
201.083,262
201.108,284
201.133,298
201.158,303
201.183,308
201.208,322
201.233,345
201.258,369
201.283,384
201.308,386
201.333,375
201.358,356
201.383,334
201.408,313
201.433,293
201.458,272
201.483,249
201.508,226
201.533,203
201.558,179
201.583,153
201.608,125
201.633,96
201.658,68
201.683,35
201.708,-8
201.733,-56
201.758,-86
201.783,-76
201.808,-19
201.833,65
201.858,147
201.883,206
201.908,243
201.933,273
201.958,304
201.983,331
202.008,345
202.033,349
202.058,351
202.083,362
202.108,380
202.133,395
202.158,400
202.183,397
202.208,386
202.233,370
202.258,346
202.283,318
202.308,292
202.333,272
202.358,254
202.383,233
202.408,205
202.433,175
202.458,148
202.483,125
202.508,101
202.533,75
202.558,48
202.583,19
202.608,-16
202.633,-63
202.658,-109
202.683,-132
202.708,-110
202.733,-44
202.758,42
202.783,120
202.808,175
202.833,209
202.858,238
202.883,265
202.908,288
202.933,301
202.958,308
202.983,321
203.008,344
203.033,374
203.058,399
203.083,411
203.108,410
203.133,402
203.158,393
203.183,383
203.208,369
203.233,350
203.258,329
203.283,309
203.308,290
203.333,271
203.358,250
203.383,228
203.408,206
203.433,183
203.458,159
203.483,132
203.508,104
203.533,76
203.558,45
203.583,7
203.608,-34
203.633,-65
203.658,-62
203.683,-15
203.708,63
203.733,145
203.758,203
203.783,232
203.808,244
203.833,254
203.858,263
203.883,266
203.908,264
203.933,266
203.958,281
203.983,306
204.008,327
204.033,333
204.058,326
204.083,314
204.108,305
204.133,297
204.158,287
204.183,273
204.208,257
204.233,242
204.258,229
204.283,217
204.308,206
204.333,197
204.358,188
204.383,174
204.408,158
204.433,141
204.458,126
204.483,106
204.508,78
204.533,51
204.558,41
204.583,66
204.608,123
204.633,190
204.658,245
204.683,276
204.708,290
204.733,294
204.758,290
204.783,278
204.808,261
204.833,253
204.858,261
204.883,278
204.908,292
204.933,294
204.958,289
204.983,283
205.008,277
205.033,267
205.058,249
205.083,228
205.108,209
205.133,195
205.158,179
205.183,161
205.208,145
205.233,134
205.258,125
205.283,106
205.308,75
205.333,48
205.358,46
205.383,81
205.408,140
205.433,200
205.458,243
205.483,270
205.508,289
205.533,302
205.558,306
205.583,296
205.608,280
205.633,271
205.658,278
205.683,296
205.708,313
205.733,317
205.758,308
205.783,292
205.808,276
205.833,260
205.858,244
205.883,225
205.908,207
205.933,191
205.958,176
205.983,160
206.008,143
206.033,126
206.058,111
206.083,95
206.108,69
206.133,33
206.158,-3
206.183,-20
206.208,3
206.233,64
206.258,141
206.283,206
206.308,247
206.333,268
206.358,285
206.383,305
206.408,323
206.433,332
206.458,332
206.483,334
206.508,346
206.533,365
206.558,381
206.583,387
206.608,381
206.633,369
206.658,354
206.683,336
206.708,316
206.733,296
206.758,278
206.783,261
206.808,243
206.833,221
206.858,198
206.883,177
206.908,157
206.933,136
206.958,110
206.983,82
207.008,54
207.033,26
207.058,-5
207.083,-46
207.108,-88
207.133,-112
207.158,-97
207.183,-39
207.208,41
207.233,116
207.258,168
207.283,198
207.308,222
207.333,249
207.358,278
207.383,298
207.408,305
207.433,309
207.458,320
207.483,343
207.508,374
207.533,403
207.558,425
207.583,439
207.608,444
207.633,437
207.658,418
207.683,393
207.708,368
207.733,347
207.758,326
207.783,301
207.808,272
207.833,241
207.858,214
207.883,187
207.908,157
207.933,124
207.958,93
207.983,63
208.008,29
208.033,-13
208.058,-59
208.083,-85
208.108,-71
208.133,-13
208.158,65
208.183,135
208.208,182
208.233,213
208.258,240
208.283,267
208.308,284
208.333,285
208.358,276
208.383,273
208.408,288
208.433,318
208.458,347
208.483,365
208.508,369
208.533,365
208.558,359
208.583,349
208.608,334
208.633,314
208.658,289
208.683,264
208.708,241
208.733,223
208.758,206
208.783,187
208.808,160
208.833,128
208.858,97
208.883,67
208.908,34
208.933,-6
208.958,-48
208.983,-72
209.008,-56
209.033,1
209.058,83
209.083,158
209.108,210
209.133,242
209.158,266
209.183,289
209.208,304
209.233,304
209.258,295
209.283,291
209.308,302
209.333,327
209.358,350
209.383,362
209.408,360
209.433,353
209.458,346
209.483,336
209.508,317
209.533,290
209.558,261
209.583,237
209.608,217
209.633,195
209.658,168
209.683,140
209.708,116
209.733,95
209.758,68
209.783,28
209.808,-16
209.833,-42
209.858,-28
209.883,25
209.908,99
209.933,167
209.958,216
209.983,250
210.008,277
210.033,296
210.058,302
210.083,295
210.108,285
210.133,286
210.158,302
210.183,328
210.208,349
210.233,358
210.258,357
210.283,349
210.308,339
210.333,326
210.358,308
210.383,286
210.408,261
210.433,235
210.458,213
210.483,195
210.508,179
210.533,160
210.558,136
210.583,112
210.608,92
210.633,70
210.658,38
210.683,-6
210.708,-44
210.733,-50
210.758,-6
210.783,73
210.808,157
210.833,219
210.858,255
210.883,277
210.908,294
210.933,304
210.958,302
210.983,290
211.008,284
211.033,296
211.058,321
211.083,345
211.108,358
211.133,357
211.158,350
211.183,341
211.208,329
211.233,313
211.258,293
211.283,271
211.308,249
211.333,228
211.358,207
211.383,185
211.408,163
211.433,140
211.458,120
211.483,102
211.508,83
211.533,54
211.558,13
211.583,-24
211.608,-37
211.633,-5
211.658,65
211.683,149
211.708,215
211.733,253
211.758,273
211.783,290
211.808,303
211.833,305
211.858,293
211.883,280
211.908,282
211.933,305
211.958,337
211.983,358
212.008,360
212.033,348
212.058,332
212.083,316
212.108,299
212.133,277
212.158,253
212.183,231
212.208,213
212.233,197
212.258,178
212.283,155
212.308,132
212.333,111
212.358,88
212.383,57
212.408,21
212.433,-6
212.458,-8
212.483,26
212.508,90
212.533,161
212.558,217
212.583,252
212.608,271
212.633,283
212.658,288
212.683,281
212.708,264
212.733,250
212.758,253
212.783,272
212.808,297
212.833,312
212.858,313
212.883,305
212.908,297
212.933,288
212.958,275
212.983,259
213.008,241
213.033,225
213.058,207
213.083,187
213.108,168
213.133,157
213.158,149
213.183,132
213.208,96
213.233,52
213.258,25
213.283,41
213.308,96
213.333,167
213.358,222
213.383,252
213.408,266
213.433,274
213.458,277
213.483,272
213.508,260
213.533,252
213.558,257
213.583,276
213.608,296
213.633,309
213.658,313
213.683,311
213.708,307
213.733,296
213.758,280
213.783,259
213.808,240
213.833,223
213.858,206
213.883,189
213.908,168
213.933,144
213.958,113
213.983,81
214.008,61
214.033,68
214.058,108
214.083,167
214.108,220
214.133,251
214.158,262
214.183,261
214.208,255
214.233,243
214.258,226
214.283,215
214.308,223
214.333,250
214.358,279
214.383,294
214.408,289
214.433,275
214.458,264
214.483,254
214.508,237
214.533,211
214.558,183
214.583,159
214.608,137
214.633,107
214.658,73
214.683,52
214.708,67
214.733,121
214.758,196
214.783,261
214.808,300
214.833,316
214.858,318
214.883,311
214.908,297
214.933,283
214.958,278
214.983,287
215.008,307
215.033,325
215.058,331
215.083,324
215.108,307
215.133,284
215.158,256
215.183,224
215.208,191
215.233,159
215.258,130
215.283,104
215.308,81
215.333,59
215.358,30
215.383,-8
215.408,-47
215.433,-66
215.458,-44
215.483,17
215.508,96
215.533,163
215.558,205
215.583,231
215.608,252
215.633,270
215.658,280
215.683,278
215.708,275
215.733,283
215.758,305
215.783,329
215.808,343
215.833,342
215.858,332
215.883,318
215.908,302
215.933,279
215.958,252
215.983,221
216.008,190
216.033,159
216.058,129
216.083,101
216.108,71
216.133,31
216.158,-19
216.183,-64
216.208,-75
216.233,-34
216.258,48
216.283,141
216.308,212
216.333,255
216.358,284
216.383,318
216.408,354
216.433,383
216.458,398
216.483,404
216.508,414
216.533,431
216.558,448
216.583,457
216.608,455
216.633,448
216.658,440
216.683,431
216.708,416
216.733,393
216.758,365
216.783,337
216.808,311
216.833,285
216.858,258
216.883,228
216.908,196
216.933,161
216.958,121
216.983,77
217.008,34
217.033,-1
217.058,-29
217.083,-56
217.108,-95
217.133,-150
217.158,-208
217.183,-237
217.208,-212
217.233,-133
217.258,-30
217.283,62
217.308,125
217.333,166
217.358,204
217.383,248
217.408,292
217.433,324
217.458,342
217.483,354
217.508,372
217.533,396
217.558,422
217.583,439
217.608,444
217.633,437
217.658,424
217.683,405
217.708,385
217.733,364
217.758,344
217.783,325
217.808,306
217.833,286
217.858,264
217.883,240
217.908,216
217.933,191
217.958,163
217.983,131
218.008,98
218.033,67
218.058,41
218.083,11
218.108,-29
218.133,-78
218.158,-116
218.183,-116
218.208,-69
218.233,11
218.258,92
218.283,148
218.308,179
218.333,201
218.358,230
218.383,263
218.408,288
218.433,299
218.458,305
218.483,318
218.508,344
218.533,373
218.558,393
218.583,397
218.608,390
218.633,380
218.658,371
218.683,361
218.708,348
218.733,332
218.758,313
218.783,296
218.808,280
218.833,264
218.858,248
218.883,231
218.908,212
218.933,191
218.958,167
218.983,140
219.008,115
219.033,95
219.058,77
219.083,53
219.108,16
219.133,-30
219.158,-63
219.183,-58
219.208,-7
219.233,71
219.258,146
219.283,195
219.308,221
219.333,238
219.358,256
219.383,269
219.408,269
219.433,262
219.458,263
219.483,282
219.508,313
219.533,339
219.558,350
219.583,350
219.608,348
219.633,346
219.658,337
219.683,317
219.708,293
219.733,273
219.758,262
219.783,251
219.808,237
219.833,222
219.858,213
219.883,212
219.908,206
219.933,190
219.958,166
219.983,146
220.008,133
220.033,116
220.058,85
220.083,46
220.108,23
220.133,38
220.158,93
220.183,162
220.208,219
220.233,249
220.258,260
220.283,260
220.308,255
220.333,247
220.358,239
220.383,238
220.408,248
220.433,265
220.458,281
220.483,287
220.508,281
220.533,271
220.558,260
220.583,251
220.608,242
220.633,231
220.658,217
220.683,200
220.708,184
220.733,171
220.758,161
220.783,150
220.808,137
220.833,124
220.858,110
220.883,93
220.908,69
220.933,40
220.958,24
220.983,38
221.008,88
221.033,159
221.058,223
221.083,262
221.108,277
221.133,284
221.158,292
221.183,299
221.208,300
221.233,296
221.258,296
221.283,309
221.308,330
221.333,349
221.358,357
221.383,353
221.408,345
221.433,334
221.458,323
221.483,309
221.508,292
221.533,275
221.558,256
221.583,234
221.608,208
221.633,181
221.658,154
221.683,128
221.708,105
221.733,82
221.758,58
221.783,28
221.808,-7
221.833,-40
221.858,-50
221.883,-21
221.908,43
221.933,123
221.958,190
221.983,231
222.008,252
222.033,269
222.058,287
222.083,301
222.108,304
222.133,301
222.158,304
222.183,319
222.208,341
222.233,358
222.258,364
222.283,360
222.308,352
222.333,342
222.358,328
222.383,309
222.408,289
222.433,268
222.458,249
222.483,229
222.508,209
222.533,191
222.558,172
222.583,150
222.608,123
222.633,95
222.658,72
222.683,49
222.708,19
222.733,-19
222.758,-51
222.783,-52
222.808,-9
222.833,66
222.858,148
222.883,211
222.908,248
222.933,269
222.958,284
222.983,294
223.008,294
223.033,288
223.058,287
223.083,301
223.108,325
223.133,348
223.158,360
223.183,361
223.208,357
223.233,350
223.258,342
223.283,331
223.308,316
223.333,300
223.358,281
223.383,262
223.408,243
223.433,227
223.458,213
223.483,198
223.508,181
223.533,162
223.558,143
223.583,124
223.608,97
223.633,63
223.658,31
223.683,23
223.708,50
223.733,109
223.758,175
223.783,227
223.808,256
223.833,268
223.858,270
223.883,265
223.908,253
223.933,240
223.958,237
223.983,250
224.008,274
224.033,296
224.058,306
224.083,303
224.108,295
224.133,288
224.158,279
224.183,264
224.208,242
224.233,219
224.258,201
224.283,187
224.308,173
224.333,157
224.358,141
224.383,128
224.408,112
224.433,88
224.458,57
224.483,36
224.508,40
224.533,78
224.558,139
224.583,201
224.608,247
224.633,274
224.658,286
224.683,286
224.708,278
224.733,263
224.758,252
224.783,252
224.808,267
224.833,287
224.858,302
224.883,306
224.908,301
224.933,291
224.958,278
224.983,264
225.008,248
225.033,232
225.058,214
225.083,192
225.108,166
225.133,140
225.158,120
225.183,105
225.208,87
225.233,56
225.258,21
225.283,2
225.308,17
225.333,70
225.358,139
225.383,201
225.408,243
225.433,270
225.458,292
225.483,310
225.508,319
225.533,317
225.558,310
225.583,310
225.608,323
225.633,340
225.658,352
225.683,352
225.708,344
225.733,334
225.758,322
225.783,305
225.808,281
225.833,255
225.858,230
225.883,206
225.908,181
225.933,152
225.958,124
225.983,103
226.008,83
226.033,55
226.058,12
226.083,-33
226.108,-59
226.133,-41
226.158,17
226.183,96
226.208,166
226.233,213
226.258,241
226.283,262
226.308,284
226.333,304
226.358,316
226.383,318
226.408,319
226.433,326
226.458,340
226.483,355
226.508,365
226.533,365
226.558,359
226.583,350
226.608,341
226.633,326
226.658,302
226.683,273
226.708,245
226.733,221
226.758,203
226.783,185
226.808,163
226.833,141
226.858,120
226.883,98
226.908,66
226.933,26
226.958,-8
226.983,-19
227.008,8
227.033,66
227.058,131
227.083,182
227.108,214
227.133,236
227.158,257
227.183,275
227.208,284
227.233,283
227.258,279
227.283,283
227.308,300
227.333,321
227.358,335
227.383,338
227.408,330
227.433,317
227.458,303
227.483,287
227.508,266
227.533,244
227.558,223
227.583,205
227.608,187
227.633,163
227.658,136
227.683,109
227.708,89
227.733,73
227.758,48
227.783,10
227.808,-31
227.833,-53
227.858,-33
227.883,26
227.908,104
227.933,174
227.958,221
227.983,250
228.008,270
228.033,287
228.058,296
228.083,296
228.108,294
228.133,299
228.158,316
228.183,335
228.208,349
228.233,352
228.258,352
228.283,352
228.308,353
228.333,349
228.358,335
228.383,316
228.408,296
228.433,278
228.458,260
228.483,236
228.508,208
228.533,182
228.558,163
228.583,145
228.608,118
228.633,78
228.658,34
228.683,10
228.708,22
228.733,68
228.758,130
228.783,185
228.808,220
228.833,240
228.858,248
228.883,249
228.908,242
228.933,234
228.958,232
228.983,242
229.008,262
229.033,282
229.058,294
229.083,295
229.108,290
229.133,281
229.158,269
229.183,253
229.208,235
229.233,217
229.258,201
229.283,187
229.308,175
229.333,164
229.358,149
229.383,126
229.408,95
229.433,67
229.458,57
229.483,77
229.508,124
229.533,183
229.558,235
229.583,271
229.608,288
229.633,292
229.658,284
229.683,270
229.708,256
229.733,251
229.758,262
229.783,282
229.808,300
229.833,307
229.858,300
229.883,287
229.908,275
229.933,264
229.958,250
229.983,229
230.008,205
230.033,182
230.058,164
230.083,148
230.108,123
230.133,87
230.158,48
230.183,26
230.208,37
230.233,83
230.258,147
230.283,206
230.308,248
230.333,271
230.358,282
230.383,285
230.408,280
230.433,270
230.458,259
230.483,255
230.508,261
230.533,273
230.558,284
230.583,287
230.608,280
230.633,267
230.658,251
230.683,233
230.708,214
230.733,190
230.758,165
230.783,141
230.808,121
230.833,100
230.858,72
230.883,36
230.908,3
230.933,-7
230.958,20
230.983,82
231.008,155
231.033,214
231.058,249
231.083,269
231.108,287
231.133,305
231.158,315
231.183,313
231.208,307
231.233,309
231.258,325
231.283,346
231.308,358
231.333,354
231.358,341
231.383,328
231.408,315
231.433,296
231.458,269
231.483,238
231.508,210
231.533,187
231.558,165
231.583,141
231.608,117
231.633,92
231.658,61
231.683,19
231.708,-27
231.733,-57
231.758,-48
231.783,4
231.808,80
231.833,150
231.858,199
231.883,228
231.908,253
231.933,281
231.958,305
231.983,317
232.008,319
232.033,321
232.058,331
232.083,352
232.108,373
232.133,384
232.158,382
232.183,369
232.208,352
232.233,330
232.258,304
232.283,274
232.308,242
232.333,215
232.358,197
232.383,183
232.408,170
232.433,151
232.458,128
232.483,105
232.508,82
232.533,51
232.558,10
232.583,-28
232.608,-44
232.633,-18
232.658,47
232.683,127
232.708,195
232.733,241
232.758,272
232.783,302
232.808,334
232.833,358
232.858,368
232.883,370
232.908,370
232.933,372
232.958,367
232.983,349
233.008,321
233.033,294
233.058,276
233.083,267
233.108,261
233.133,253
233.158,242
233.183,231
233.208,219
233.233,206
233.258,192
233.283,179
233.308,165
233.333,148
233.358,128
233.383,107
233.408,85
233.433,57
233.458,23
233.483,-5
233.508,-8
233.533,26
233.558,91
233.583,158
233.608,205
233.633,228
233.658,242
233.683,256
233.708,267
233.733,268
233.758,262
233.783,264
233.808,282
233.833,309
233.858,326
233.883,322
233.908,307
233.933,296
233.958,292
233.983,283
234.008,258
234.033,221
234.058,187
234.083,167
234.108,155
234.133,136
234.158,106
234.183,75
234.208,56
234.233,44
234.258,25
234.283,-11
234.308,-51
234.333,-67
234.358,-42
234.383,14
234.408,78
234.433,123
234.458,146
234.483,154
234.508,156
234.533,154
234.558,147
234.583,139
234.608,141
234.633,157
234.658,184
234.683,209
234.708,223
234.733,226
234.758,224
234.783,222
234.808,221
234.833,217
234.858,213
234.883,212
234.908,217
234.933,229
234.958,241
234.983,249
235.008,250
235.033,247
235.058,251
235.083,276
235.108,334
235.133,426
235.158,537
235.183,645
235.208,731
235.233,793
235.258,844
235.283,900
235.308,962
235.333,1011
235.358,1019
235.383,972
235.408,875
235.433,754
235.458,638
235.483,546
235.508,477
235.533,418
235.558,357
235.583,288
235.608,215
235.633,145
235.658,86
235.683,35
235.708,-14
235.733,-71
235.758,-131
235.783,-183
235.808,-211
235.833,-210
235.858,-188
235.883,-160
235.908,-139
235.933,-126
235.958,-117
235.983,-109
236.008,-103
236.033,-98
236.058,-93
236.083,-80
236.108,-56
236.133,-27
236.158,-1
236.183,15
236.208,20
236.233,12
236.258,-6
236.283,-36
236.308,-73
236.333,-109
236.358,-142
236.383,-176
236.408,-216
236.433,-263
236.458,-308
236.483,-336
236.508,-337
236.533,-302
236.558,-234
236.583,-146
236.608,-58
236.633,14
236.658,77
236.683,150
236.708,255
236.733,392
236.758,529
236.783,629
236.808,673
236.833,671
236.858,645
236.883,606
236.908,555
236.933,500
236.958,456
236.983,440
237.008,447
237.033,451
237.058,433
237.083,397
237.108,364
237.133,350
237.158,356
237.183,375
237.208,407
237.233,460
237.258,531
237.283,596
237.308,626
237.333,609
237.358,560
237.383,502
237.408,453
237.433,417
237.458,396
237.483,392
237.508,401
237.533,408
237.558,398
237.583,370
237.608,338
237.633,316
237.658,298
237.683,272
237.708,228
237.733,175
237.758,127
237.783,88
237.808,48
237.833,3
237.858,-46
237.883,-92
237.908,-136
237.933,-183
237.958,-226
237.983,-242
238.008,-208
238.033,-127
238.058,-27
238.083,56
238.108,111
238.133,146
238.158,178
238.183,209
238.208,231
238.233,241
238.258,246
238.283,260
238.308,288
238.333,322
238.358,351
238.383,365
238.408,364
238.433,351
238.458,332
238.483,312
238.508,292
238.533,271
238.558,247
238.583,219
238.608,190
238.633,161
238.658,131
238.683,101
238.708,75
238.733,53
238.758,32
238.783,3
238.808,-32
238.833,-58
238.858,-48
238.883,11
238.908,102
238.933,190
238.958,250
238.983,282
239.008,304
239.033,323
239.058,338
239.083,343
239.108,345
239.133,359
239.158,391
239.183,429
239.208,456
239.233,465
239.258,464
239.283,459
239.308,448
239.333,418
239.358,363
239.383,292
239.408,224
239.433,174
239.458,144
239.483,123
239.508,99
239.533,67
239.558,30
239.583,1
239.608,-12
239.633,-14
239.658,-22
239.683,-45
239.708,-73
239.733,-75
239.758,-26
239.783,70
239.808,178
239.833,261
239.858,301
239.883,313
239.908,317
239.933,326
239.958,339
239.983,352
240.008,367
240.033,381
240.058,386
240.083,375
240.108,351
240.133,324
240.158,305
240.183,294
240.208,284
240.233,268
240.258,250
240.283,232
240.308,212
240.333,185
240.358,152
240.383,116
240.408,78
240.433,26
240.458,-50
240.483,-154
240.508,-273
240.533,-391
240.558,-490
240.583,-556
240.608,-571
240.633,-521
240.658,-417
240.683,-299
240.708,-215
240.733,-191
240.758,-211
240.783,-235
240.808,-234
240.833,-207
240.858,-167
240.883,-120
240.908,-61
240.933,8
240.958,78
240.983,131
241.008,176
241.033,245
241.058,364
241.083,531
241.108,708
241.133,853
241.158,953
241.183,1024
241.208,1089
241.233,1155
241.258,1207
241.283,1233
241.308,1234
241.333,1221
241.358,1194
241.383,1135
241.408,1024
241.433,864
241.458,691
241.483,565
241.508,530
241.533,588
241.558,696
241.583,800
241.608,875
241.633,936
241.658,1020
241.683,1137
241.708,1258
241.733,1331
241.758,1323
241.783,1246
241.808,1133
241.833,1005
241.858,847
241.883,630
241.908,352
241.933,51
241.958,-216
241.983,-428
242.008,-601
242.033,-769
242.058,-935
242.083,-1067
242.108,-1128
242.133,-1122
242.158,-1096
242.183,-1101
242.208,-1147
242.233,-1194
242.258,-1201
242.283,-1157
242.308,-1091
242.333,-1032
242.358,-978
242.383,-902
242.408,-792
242.433,-664
242.458,-548
242.483,-454
242.508,-363
242.533,-255
242.558,-131
242.583,-17
242.608,66
242.633,128
242.658,192
242.683,273
242.708,363
242.733,441
242.758,501
242.783,550
242.808,595
242.833,637
242.858,669
242.883,689
242.908,702
242.933,713
242.958,719
242.983,717
243.008,715
243.033,728
243.058,762
243.083,803
243.108,832
243.133,837
243.158,825
243.183,810
243.208,789
243.233,755
243.258,702
243.283,642
243.308,595
243.333,567
243.358,548
243.383,523
243.408,485
243.433,443
243.458,405
243.483,375
243.508,347
243.533,317
243.558,283
243.583,244
243.608,204
243.633,166
243.658,136
243.683,116
243.708,99
243.733,72
243.758,33
243.783,-5
243.808,-20
243.833,0
243.858,49
243.883,104
243.908,145
243.933,167
243.958,176
243.983,178
244.008,173
244.033,160
244.058,144
244.083,132
244.108,131
244.133,139
244.158,152
244.183,166
244.208,177
244.233,183
244.258,179
244.283,163
244.308,141
244.333,124
244.358,115
244.383,111
244.408,100
244.433,80
244.458,57
244.483,41
244.508,33
244.533,25
244.558,7
244.583,-14
244.608,-24
244.633,-2
244.658,50
244.683,114
244.708,163
244.733,182
244.758,178
244.783,167
244.808,158
244.833,150
244.858,139
244.883,130
244.908,141
244.933,183
244.958,251
244.983,329
245.008,398
245.033,450
245.058,486
245.083,508
245.108,519
245.133,523
245.158,532
245.183,551
245.208,573
245.233,585
245.258,578
245.283,563
245.308,557
245.333,562
245.358,562
245.383,544
245.408,515
245.433,500
245.458,516
245.483,542
245.508,539
245.533,487
245.558,409
245.583,352
245.608,344
245.633,365
245.658,369
245.683,326
245.708,244
245.733,156
245.758,85
245.783,38
245.808,6
245.833,-16
245.858,-28
245.883,-31
245.908,-30
245.933,-33
245.958,-38
245.983,-40
246.008,-38
246.033,-39
246.058,-54
246.083,-85
246.108,-121
246.133,-152
246.158,-176
246.183,-202
246.208,-233
246.233,-262
246.258,-267
246.283,-230
246.308,-148
246.333,-41
246.358,65
246.383,153
246.408,218
246.433,265
246.458,297
246.483,321
246.508,342
246.533,367
246.558,398
246.583,427
246.608,445
246.633,445
246.658,433
246.683,422
246.708,415
246.733,408
246.758,392
246.783,367
246.808,342
246.833,329
246.858,331
246.883,338
246.908,339
246.933,321
246.958,275
246.983,195
247.008,84
247.033,-41
247.058,-147
247.083,-202
247.108,-192
247.133,-128
247.158,-39
247.183,46
247.208,113
247.233,167
247.258,219
247.283,277
247.308,339
247.333,392
247.358,429
247.383,450
247.408,467
247.433,488
247.458,508
247.483,513
247.508,489
247.533,437
247.558,368
247.583,297
247.608,232
247.633,179
247.658,143
247.683,131
247.708,137
247.733,147
247.758,142
247.783,112
247.808,62
247.833,10
247.858,-22
247.883,-23
247.908,10
247.933,76
247.958,159
247.983,240
248.008,300
248.033,336
248.058,355
248.083,368
248.108,379
248.133,385
248.158,384
248.183,384
248.208,396
248.233,422
248.258,446
248.283,440
248.308,388
248.333,297
248.358,193
248.383,106
248.408,55
248.433,38
248.458,44
248.483,65
248.508,91
248.533,116
248.558,128
248.583,119
248.608,91
248.633,62
248.658,58
248.683,92
248.708,161
248.733,244
248.758,317
248.783,368
248.808,396
248.833,409
248.858,411
248.883,407
248.908,399
248.933,394
248.958,400
248.983,420
249.008,448
249.033,468
249.058,465
249.083,430
249.108,363
249.133,275
249.158,175
249.183,76
249.208,-12
249.233,-81
249.258,-127
249.283,-151
249.308,-167
249.333,-182
249.358,-190
249.383,-177
249.408,-126
249.433,-41
249.458,55
249.483,137
249.508,190
249.533,219
249.558,238
249.583,253
249.608,263
249.633,263
249.658,260
249.683,262
249.708,273
249.733,289
249.758,297
249.783,295
249.808,288
249.833,287
249.858,292
249.883,294
249.908,283
249.933,258
249.958,230
249.983,208
250.008,194
250.033,181
250.058,162
250.083,144
250.108,141
250.133,167
250.158,217
250.183,273
250.208,316
250.233,337
250.258,339
250.283,334
250.308,325
250.333,311
250.358,293
250.383,280
250.408,280
250.433,294
250.458,312
250.483,318
250.508,308
250.533,289
250.558,268
250.583,250
250.608,230
250.633,204
250.658,177
250.683,154
250.708,133
250.733,105
250.758,66
250.783,26
250.808,8
250.833,28
250.858,81
250.883,143
250.908,189
250.933,213
250.958,222
250.983,223
251.008,218
251.033,207
251.058,195
251.083,192
251.108,204
251.133,229
251.158,254
251.183,268
251.208,269
251.233,258
251.258,240
251.283,220
251.308,203
251.333,190
251.358,179
251.383,160
251.408,132
251.433,108
251.458,107
251.483,142
251.508,208
251.533,281
251.558,337
251.583,362
251.608,360
251.633,340
251.658,315
251.683,292
251.708,278
251.733,275
251.758,281
251.783,289
251.808,293
251.833,287
251.858,273
251.883,254
251.908,235
251.933,216
251.958,194
251.983,165
252.008,127
252.033,87
252.058,63
252.083,72
252.108,116
252.133,182
252.158,243
252.183,282
252.208,297
252.233,294
252.258,281
252.283,261
252.308,237
252.333,219
252.358,217
252.383,233
252.408,259
252.433,276
252.458,273
252.483,253
252.508,227
252.533,206
252.558,190
252.583,167
252.608,131
252.633,86
252.658,53
252.683,51
252.708,88
252.733,150
252.758,211
252.783,252
252.808,267
252.833,263
252.858,249
252.883,231
252.908,214
252.933,204
252.958,206
252.983,219
253.008,235
253.033,240
253.058,230
253.083,208
253.108,184
253.133,164
253.158,144
253.183,117
253.208,77
253.233,29
253.258,-10
253.283,-18
253.308,16
253.333,90
253.358,177
253.383,250
253.408,293
253.433,313
253.458,325
253.483,335
253.508,339
253.533,333
253.558,323
253.583,324
253.608,340
253.633,360
253.658,366
253.683,353
253.708,330
253.733,309
253.758,290
253.783,262
253.808,222
253.833,180
253.858,148
253.883,123
253.908,89
253.933,39
253.958,-4
253.983,-10
254.008,37
254.033,119
254.058,195
254.083,241
254.108,266
254.133,288
254.158,317
254.183,343
254.208,353
254.233,354
254.258,359
254.283,376
254.308,395
254.333,402
254.358,392
254.383,372
254.408,348
254.433,320
254.458,287
254.483,255
254.508,230
254.533,216
254.558,202
254.583,180
254.608,146
254.633,107
254.658,64
254.683,17
254.708,-29
254.733,-54
254.758,-35
254.783,29
254.808,109
254.833,169
254.858,196
254.883,209
254.908,230
254.933,262
254.958,287
254.983,290
255.008,280
255.033,278
255.058,295
255.083,317
255.108,327
255.133,318
255.158,300
255.183,282
255.208,263
255.233,234
255.258,197
255.283,162
255.308,134
255.333,113
255.358,90
255.383,62
255.408,35
255.433,9
255.458,-18
255.483,-50
255.508,-74
255.533,-69
255.558,-25
255.583,43
255.608,114
255.633,171
255.658,215
255.683,259
255.708,302
255.733,335
255.758,353
255.783,360
255.808,370
255.833,389
255.858,412
255.883,428
255.908,431
255.933,426
255.958,416
255.983,403
256.008,386
256.033,366
256.058,345
256.083,322
256.108,296
256.133,268
256.158,241
256.183,216
256.208,190
256.233,160
256.258,124
256.283,88
256.308,53
256.333,14
256.358,-34
256.383,-82
256.408,-106
256.433,-84
256.458,-20
256.483,57
256.508,121
256.533,160
256.558,190
256.583,225
256.608,263
256.633,293
256.658,306
256.683,309
256.708,319
256.733,340
256.758,364
256.783,380
256.808,380
256.833,371
256.858,359
256.883,345
256.908,331
256.933,316
256.958,302
256.983,289
257.008,275
257.033,257
257.058,235
257.083,210
257.108,183
257.133,155
257.158,130
257.183,109
257.208,89
257.233,62
257.258,24
257.283,-14
257.308,-32
257.333,-11
257.358,46
257.383,116
257.408,171
257.433,203
257.458,223
257.483,243
257.508,263
257.533,274
257.558,273
257.583,269
257.608,277
257.633,299
257.658,323
257.683,335
257.708,332
257.733,324
257.758,317
257.783,310
257.808,297
257.833,280
257.858,264
257.883,254
257.908,248
257.933,239
257.958,224
257.983,207
258.008,191
258.033,174
258.058,157
258.083,139
258.108,123
258.133,107
258.158,83
258.183,50
258.208,21
258.233,20
258.258,57
258.283,121
258.308,185
258.333,229
258.358,251
258.383,262
258.408,266
258.433,262
258.458,248
258.483,236
258.508,238
258.533,258
258.558,282
258.583,296
258.608,296
258.633,288
258.658,279
258.683,269
258.708,257
258.733,244
258.758,234
258.783,225
258.808,214
258.833,196
258.858,177
258.883,162
258.908,157
258.933,156
258.958,152
258.983,143
259.008,132
259.033,117
259.058,99
259.083,78
259.108,68
259.133,80
259.158,117
259.183,167
259.208,212
259.233,241
259.258,254
259.283,253
259.308,244
259.333,229
259.358,216
259.383,215
259.408,229
259.433,250
259.458,268
259.483,277
259.508,279
259.533,280
259.558,281
259.583,280
259.608,275
259.633,267
259.658,257
259.683,248
259.708,240
259.733,233
259.758,227
259.783,217
259.808,202
259.833,188
259.858,182
259.883,187
259.908,192
259.933,179
259.958,148
259.983,118
260.008,117
260.033,155
260.058,212
260.083,262
260.108,286
260.133,286
260.158,274
260.183,259
260.208,245
260.233,236
260.258,241
260.283,261
260.308,286
260.333,304
260.358,307
260.383,302
260.408,296
260.433,290
260.458,281
260.483,266
260.508,250
260.533,236
260.558,224
260.583,212
260.608,203
260.633,199
260.658,203
260.683,210
260.708,214
260.733,212
260.758,210
260.783,208
260.808,207
260.833,207
260.858,214
260.883,237
260.908,276
260.933,316
260.958,345
260.983,352
261.008,342
261.033,320
261.058,293
261.083,266
261.108,248
261.133,245
261.158,251
261.183,253
261.208,244
261.233,223
261.258,198
261.283,170
261.308,135
261.333,95
261.358,59
261.383,34
261.408,14
261.433,-14
261.458,-54
261.483,-91
261.508,-112
261.533,-124
261.558,-146
261.583,-181
261.608,-204
261.633,-185
261.658,-129
261.683,-74
261.708,-49
261.733,-45
261.758,-32
261.783,-13
261.808,-22
261.833,-70
261.858,-87
261.883,46
261.908,392
261.933,864
261.958,1273
261.983,1464
262.008,1420
262.033,1240
262.058,1035
262.083,843
262.108,653
262.133,462
262.158,305
262.183,213
262.208,175
262.233,149
262.258,103
262.283,48
262.308,6
262.333,-19
262.358,-48
262.383,-89
262.408,-120
262.433,-110
262.458,-51
262.483,28
262.508,95
262.533,135
262.558,156
262.583,170
262.608,181
262.633,187
262.658,194
262.683,206
262.708,224
262.733,241
262.758,254
262.783,265
262.808,281
262.833,297
262.858,307
262.883,303
262.908,294
262.933,284
262.958,272
262.983,246
263.008,203
263.033,150
263.058,99
263.083,53
263.108,6
263.133,-43
263.158,-75
263.183,-64
263.208,1
263.233,100
263.258,196
263.283,265
263.308,307
263.333,332
263.358,347
263.383,347
263.408,330
263.433,309
263.458,306
263.483,332
263.508,374
263.533,407
263.558,411
263.583,386
263.608,349
263.633,308
263.658,262
263.683,204
263.708,140
263.733,92
263.758,83
263.783,114
263.808,160
263.833,183
