df_hash,22ZHK4.KE15WD
device,HZ2X61
project_hash,29R7
project_name,istanbul_aydin_university
person_hash,29R7.1X32
person_label,V155
date_time_start,2026-06-08_19-32-32.863000_+03
date_time_start_unix,1780929152.863
date_time_end,2026-06-08_19-45-47.480000_+03
length_difference_noticed,no

time,ppg_med
5.902,668
5.927,767
5.952,925
5.977,1011
6.002,979
6.027,945
6.052,1037
6.077,1205
6.102,1270
6.127,1169
6.152,1061
6.177,1119
6.202,1276
6.227,1287
6.252,1068
6.277,836
6.302,824
6.327,940
6.352,858
6.377,466
6.402,56
6.427,-59
6.452,-6
6.477,-214
6.502,-826
6.527,-1456
6.552,-1696
6.577,-1707
6.602,-2048
6.627,-2902
6.652,-3766
6.677,-4112
6.702,-4149
6.727,-4591
6.752,-5669
6.777,-6737
6.802,-7122
6.827,-7090
6.852,-7546
6.877,-8777
6.902,-9966
6.927,-10264
6.952,-10005
6.977,-10328
7.002,-11589
7.027,-12764
7.052,-12789
7.077,-12086
7.102,-12076
7.127,-13205
7.152,-14194
7.177,-13718
7.202,-12304
7.227,-11729
7.252,-12549
7.277,-13172
7.302,-11947
7.327,-9532
7.352,-8153
7.377,-8514
7.402,-8626
7.427,-6414
7.452,-2706
7.477,-313
7.502,-144
7.527,313
7.552,3709
7.577,8995
7.602,12554
7.627,13178
7.652,14111
7.677,18836
7.702,26012
7.727,30820
7.752,31573
7.777,32621
7.802,32767
7.827,32767
7.852,32767
7.877,32767
7.902,32767
7.927,32767
7.952,32767
7.977,32767
8.002,32767
8.027,32767
8.052,32767
8.077,32767
8.102,32767
8.127,32767
8.152,18331
8.177,-32768
8.202,-32768
8.227,-32768
8.252,-32768
8.277,-32768
8.302,-32768
8.327,-32768
8.352,-32768
8.377,-32768
8.402,-32768
8.427,-32768
8.452,-32768
8.477,-32768
8.502,-32768
8.527,-32768
8.552,-31073
8.577,-31301
8.602,-28717
8.627,-22363
8.652,-16504
8.677,-14478
8.702,-14479
8.727,-12505
8.752,-7807
8.777,-3465
8.802,-1888
8.827,-1676
8.852,140
8.877,3961
8.902,7252
8.927,8123
8.952,7776
8.977,8650
9.002,11090
9.027,13073
9.052,13111
9.077,12219
9.102,12379
9.127,13813
9.152,14795
9.177,14098
9.202,12639
9.227,12179
9.252,12963
9.277,13493
9.302,12581
9.327,10863
9.352,9851
9.377,9962
9.402,10142
9.427,9386
9.452,8007
9.477,7049
9.502,6840
9.527,6686
9.552,5949
9.577,4924
9.602,4355
9.627,4369
9.652,4331
9.677,3746
9.702,2908
9.727,2457
9.752,2509
9.777,2541
9.802,2117
9.827,1424
9.852,945
9.877,810
9.902,701
9.927,359
9.952,-60
9.977,-255
10.002,-223
10.027,-254
10.052,-517
10.077,-835
10.102,-961
10.127,-920
10.152,-959
10.177,-1179
10.202,-1386
10.227,-1365
10.252,-1184
10.277,-1120
10.302,-1294
10.327,-1505
10.352,-1468
10.377,-1143
10.402,-752
10.427,-502
10.452,-378
10.477,-234
10.502,-10
10.527,209
10.552,344
10.577,417
10.602,499
10.627,588
10.652,626
10.677,606
10.702,614
10.727,676
10.752,669
10.777,547
10.802,360
10.827,221
10.852,170
10.877,114
10.902,-53
10.927,-304
10.952,-468
10.977,-426
11.002,-272
11.027,-237
11.052,-439
11.077,-734
11.102,-856
11.127,-683
11.152,-342
11.177,-50
11.202,117
11.227,267
11.252,521
11.277,853
11.302,1116
11.327,1210
11.352,1172
11.377,1110
11.402,1083
11.427,1068
11.452,1025
11.477,964
11.502,911
11.527,865
11.552,795
11.577,688
11.602,576
11.627,489
11.652,416
11.677,318
11.702,197
11.727,116
11.752,137
11.777,231
11.802,281
11.827,174
11.852,-96
11.877,-414
11.902,-620
11.927,-615
11.952,-414
11.977,-125
12.002,119
12.027,243
12.052,259
12.077,248
12.102,282
12.127,367
12.152,447
12.177,473
12.202,457
12.227,458
12.252,513
12.277,590
12.302,633
12.327,625
12.352,613
12.377,641
12.402,694
12.427,706
12.452,632
12.477,496
12.502,356
12.527,244
12.552,146
12.577,52
12.602,-8
12.627,-2
12.652,38
12.677,9
12.702,-157
12.727,-393
12.752,-508
12.777,-350
12.802,48
12.827,481
12.852,738
12.877,774
12.902,717
12.927,722
12.952,831
12.977,960
13.002,1010
13.027,956
13.052,845
13.077,731
13.102,626
13.127,525
13.152,437
13.177,371
13.202,315
13.227,232
13.252,97
13.277,-71
13.302,-228
13.327,-350
13.352,-443
13.377,-519
13.402,-563
13.427,-554
13.452,-505
13.477,-476
13.502,-527
13.527,-657
13.552,-797
13.577,-852
13.602,-768
13.627,-564
13.652,-318
13.677,-121
13.702,-18
13.727,30
13.752,122
13.777,317
13.802,552
13.827,671
13.852,561
13.877,291
13.902,68
13.927,51
13.952,199
13.977,339
14.002,368
14.027,368
14.052,482
14.077,712
14.102,885
14.127,846
14.152,648
14.177,494
14.202,491
14.227,514
14.252,362
14.277,27
14.302,-250
14.327,-222
14.352,89
14.377,403
14.402,467
14.427,311
14.452,186
14.477,296
14.502,608
14.527,931
14.552,1127
14.577,1209
14.602,1259
14.627,1309
14.652,1327
14.677,1289
14.702,1223
14.727,1170
14.752,1135
14.777,1093
14.802,1029
14.827,952
14.852,860
14.877,724
14.902,524
14.927,298
14.952,127
14.977,61
15.002,75
15.027,91
15.052,45
15.077,-71
15.102,-223
15.127,-373
15.152,-495
15.177,-583
15.202,-647
15.227,-702
15.252,-743
15.277,-730
15.302,-614
15.327,-390
15.352,-123
15.377,100
15.402,247
15.427,347
15.452,435
15.477,498
15.502,485
15.527,387
15.552,258
15.577,167
15.602,129
15.627,107
15.652,69
15.677,28
15.702,9
15.727,0
15.752,-42
15.777,-122
15.802,-199
15.827,-232
15.852,-238
15.877,-267
15.902,-327
15.927,-366
15.952,-340
15.977,-289
16.002,-297
16.027,-376
16.052,-409
16.077,-256
16.102,100
16.127,522
16.152,849
16.177,1041
16.202,1186
16.227,1363
16.252,1548
16.277,1653
16.302,1629
16.327,1518
16.352,1389
16.377,1272
16.402,1150
16.427,1012
16.452,870
16.477,729
16.502,569
16.527,373
16.552,170
16.577,4
16.602,-116
16.627,-238
16.652,-410
16.677,-615
16.702,-789
16.727,-904
16.752,-1001
16.777,-1141
16.802,-1305
16.827,-1386
16.852,-1283
16.877,-994
16.902,-624
16.927,-300
16.952,-88
16.977,26
17.002,95
17.027,173
17.052,293
17.077,448
17.102,589
17.127,665
17.152,667
17.177,647
17.202,666
17.227,736
17.252,811
17.277,849
17.302,863
17.327,900
17.352,984
17.377,1105
17.402,1243
17.427,1396
17.452,1555
17.477,1682
17.502,1758
17.527,1844
17.552,2057
17.577,2444
17.602,2893
17.627,3228
17.652,3395
17.677,3512
17.702,3695
17.727,3873
17.752,3833
17.777,3472
17.802,2906
17.827,2250
17.852,1331
17.877,-218
17.902,-2436
17.927,-4670
17.952,-5924
17.977,-5752
18.002,-4802
18.027,-4340
18.052,-5117
18.077,-6687
18.102,-7852
18.127,-7755
18.152,-6503
18.177,-4780
18.202,-3048
18.227,-1265
18.252,643
18.277,2290
18.302,3006
18.327,2559
18.352,1544
18.377,948
18.402,1301
18.427,2289
18.452,3173
18.477,3496
18.502,3355
18.527,3085
18.552,2836
18.577,2528
18.602,2104
18.627,1678
18.652,1401
18.677,1260
18.702,1098
18.727,826
18.752,529
18.777,338
18.802,242
18.827,99
18.852,-156
18.877,-399
18.902,-435
18.927,-219
18.952,87
18.977,296
19.002,376
19.027,444
19.052,597
19.077,802
19.102,950
19.127,996
19.152,982
19.177,966
19.202,947
19.227,896
19.252,814
19.277,736
19.302,677
19.327,598
19.352,461
19.377,284
19.402,129
19.427,34
19.452,-16
19.477,-59
19.502,-101
19.527,-139
19.552,-192
19.577,-294
19.602,-434
19.627,-534
19.652,-539
19.677,-505
19.702,-565
19.727,-764
19.752,-956
19.777,-904
19.802,-521
19.827,11
19.852,394
19.877,479
19.902,390
19.927,368
19.952,532
19.977,788
20.002,965
20.027,987
20.052,911
20.077,835
20.102,798
20.127,784
20.152,773
20.177,760
20.202,736
20.227,679
20.252,586
20.277,489
20.302,419
20.327,360
20.352,269
20.377,149
20.402,74
20.427,111
20.452,226
20.477,286
20.502,185
20.527,-37
20.552,-245
20.577,-351
20.602,-409
20.627,-532
20.652,-730
20.677,-866
20.702,-781
20.727,-465
20.752,-75
20.777,214
20.802,369
20.827,486
20.852,656
20.877,860
20.902,997
20.927,1006
20.952,933
20.977,875
21.002,878
21.027,906
21.052,898
21.077,839
21.102,771
21.127,726
21.152,686
21.177,600
21.202,441
21.227,251
21.252,106
21.277,56
21.302,78
21.327,90
21.352,25
21.377,-108
21.402,-236
21.427,-291
21.452,-283
21.477,-296
21.502,-408
21.527,-603
21.552,-765
21.577,-770
21.602,-583
21.627,-279
21.652,23
21.677,253
21.702,409
21.727,528
21.752,637
21.777,734
21.802,807
21.827,844
21.852,843
21.877,810
21.902,762
21.927,723
21.952,702
21.977,686
22.002,657
22.027,614
22.052,579
22.077,566
22.102,557
22.127,508
22.152,392
22.177,225
22.202,50
22.227,-93
22.252,-181
22.277,-208
22.302,-191
22.327,-190
22.352,-281
22.377,-479
22.402,-680
22.427,-710
22.452,-469
22.477,-40
22.502,355
22.527,547
22.552,546
22.577,508
22.602,563
22.627,699
22.652,813
22.677,840
22.702,810
22.727,792
22.752,802
22.777,800
22.802,750
22.827,668
22.852,588
22.877,520
22.902,449
22.927,370
22.952,294
22.977,221
23.002,114
23.027,-57
23.052,-257
23.077,-396
23.102,-418
23.127,-372
23.152,-377
23.177,-493
23.202,-644
23.227,-670
23.252,-474
23.277,-107
23.302,270
23.327,522
23.352,628
23.377,663
23.402,708
23.427,782
23.452,845
23.477,858
23.502,824
23.527,783
23.552,764
23.577,761
23.602,741
23.627,690
23.652,622
23.677,559
23.702,499
23.727,424
23.752,333
23.777,256
23.802,212
23.827,165
23.852,48
23.877,-150
23.902,-347
23.927,-429
23.952,-382
23.977,-326
24.002,-395
24.027,-583
24.052,-720
24.077,-640
24.102,-343
24.127,3
24.152,239
24.177,349
24.202,438
24.227,584
24.252,750
24.277,847
24.302,840
24.327,785
24.352,752
24.377,756
24.402,769
24.427,769
24.452,754
24.477,723
24.502,662
24.527,571
24.552,481
24.577,425
24.602,392
24.627,339
24.652,249
24.677,156
24.702,92
24.727,33
24.752,-83
24.777,-255
24.802,-384
24.827,-374
24.852,-259
24.877,-202
24.902,-319
24.927,-536
24.952,-639
24.977,-487
25.002,-147
25.027,182
25.052,371
25.077,456
25.102,549
25.127,688
25.152,814
25.177,862
25.202,842
25.227,817
25.252,816
25.277,818
25.302,802
25.327,784
25.352,781
25.377,764
25.402,678
25.427,519
25.452,365
25.477,298
25.502,318
25.527,341
25.552,289
25.577,173
25.602,58
25.627,-12
25.652,-63
25.677,-130
25.702,-214
25.727,-294
25.752,-374
25.777,-479
25.802,-593
25.827,-627
25.852,-485
25.877,-178
25.902,161
25.927,392
25.952,486
25.977,539
26.002,650
26.027,806
26.052,902
26.077,865
26.102,735
26.127,623
26.152,602
26.177,647
26.202,680
26.227,650
26.252,573
26.277,492
26.302,430
26.327,368
26.352,277
26.377,147
26.402,-2
26.427,-134
26.452,-212
26.477,-230
26.502,-219
26.527,-233
26.552,-313
26.577,-451
26.602,-582
26.627,-621
26.652,-516
26.677,-285
26.702,-5
26.727,239
26.752,406
26.777,515
26.802,626
26.827,776
26.852,939
26.877,1040
26.902,1019
26.927,897
26.952,763
26.977,696
27.002,704
27.027,728
27.052,708
27.077,636
27.102,548
27.127,473
27.152,402
27.177,310
27.202,185
27.227,40
27.252,-107
27.277,-232
27.302,-303
27.327,-304
27.352,-270
27.377,-291
27.402,-437
27.427,-655
27.452,-773
27.477,-628
27.502,-227
27.527,234
27.552,533
27.577,605
27.602,574
27.627,609
27.652,757
27.677,920
27.702,981
27.727,920
27.752,820
27.777,766
27.802,771
27.827,788
27.852,768
27.877,703
27.902,616
27.927,533
27.952,472
27.977,427
28.002,375
28.027,285
28.052,145
28.077,-19
28.102,-161
28.127,-248
28.152,-277
28.177,-271
28.202,-254
28.227,-257
28.252,-323
28.277,-470
28.302,-653
28.327,-754
28.352,-666
28.377,-385
28.402,-32
28.427,248
28.452,410
28.477,514
28.502,641
28.527,796
28.552,915
28.577,945
28.602,902
28.627,851
28.652,833
28.677,840
28.702,841
28.727,815
28.752,766
28.777,704
28.802,640
28.827,578
28.852,518
28.877,447
28.902,354
28.927,253
28.952,175
28.977,132
29.002,81
29.027,-42
29.052,-243
29.077,-437
29.102,-521
29.127,-492
29.152,-460
29.177,-533
29.202,-681
29.227,-742
29.252,-575
29.277,-212
29.302,167
29.327,400
29.352,482
29.377,531
29.402,645
29.427,798
29.452,894
29.477,881
29.502,809
29.527,765
29.552,780
29.577,809
29.602,793
29.627,730
29.652,663
29.677,621
29.702,582
29.727,504
29.752,386
29.777,277
29.802,218
29.827,186
29.852,109
29.877,-53
29.902,-250
29.927,-382
29.952,-406
29.977,-389
30.002,-432
30.027,-553
30.052,-642
30.077,-564
30.102,-293
30.127,57
30.152,345
30.177,522
30.202,640
30.227,757
30.252,857
30.277,886
30.302,835
30.327,767
30.352,746
30.377,769
30.402,783
30.427,752
30.452,694
30.477,639
30.502,583
30.527,502
30.552,395
30.577,301
30.602,240
30.627,183
30.652,82
30.677,-52
30.702,-154
30.727,-191
30.752,-218
30.777,-323
30.802,-505
30.827,-641
30.852,-602
30.877,-392
30.902,-151
30.927,-12
30.952,23
30.977,70
31.002,211
31.027,422
31.052,614
31.077,734
31.102,799
31.127,837
31.152,842
31.177,804
31.202,747
31.227,720
31.252,735
31.277,745
31.302,701
31.327,617
31.352,546
31.377,503
31.402,435
31.427,292
31.452,102
31.477,-32
31.502,-56
31.527,-22
31.552,-36
31.577,-141
31.602,-271
31.627,-348
31.652,-384
31.677,-460
31.702,-608
31.727,-730
31.752,-675
31.777,-395
31.802,-7
31.827,305
31.852,457
31.877,518
31.902,609
31.927,770
31.952,927
31.977,987
32.002,942
32.027,872
32.052,855
32.077,887
32.102,899
32.127,845
32.152,758
32.177,703
32.202,696
32.227,666
32.252,539
32.277,330
32.302,151
32.327,101
32.352,152
32.377,167
32.402,42
32.427,-175
32.452,-333
32.477,-339
32.502,-265
32.527,-266
32.552,-399
32.577,-537
32.602,-493
32.627,-214
32.652,156
32.677,431
32.702,555
32.727,629
32.752,765
32.777,951
32.802,1072
32.827,1063
32.852,982
32.877,941
32.902,967
32.927,977
32.952,890
32.977,731
33.002,611
33.027,597
33.052,634
33.077,608
33.102,471
33.127,287
33.152,153
33.177,87
33.202,20
33.227,-115
33.252,-307
33.277,-477
33.302,-571
33.327,-617
33.352,-686
33.377,-817
33.402,-968
33.427,-1054
33.452,-1006
33.477,-813
33.502,-521
33.527,-208
33.552,48
33.577,199
33.602,240
33.627,207
33.652,149
33.677,100
33.702,74
33.727,78
33.752,118
33.777,187
33.802,252
33.827,273
33.852,246
33.877,224
33.902,277
33.927,433
33.952,642
33.977,822
34.002,924
34.027,962
34.052,969
34.077,952
34.102,887
34.127,766
34.152,626
34.177,517
34.202,441
34.227,339
34.252,160
34.277,-58
34.302,-182
34.327,-85
34.352,229
34.377,608
34.402,856
34.427,888
34.452,785
34.477,704
34.502,727
34.527,806
34.552,830
34.577,752
34.602,629
34.627,551
34.652,542
34.677,540
34.702,479
34.727,361
34.752,249
34.777,185
34.802,140
34.827,60
34.852,-61
34.877,-177
34.902,-241
34.927,-276
34.952,-340
34.977,-440
35.002,-494
35.027,-408
35.052,-190
35.077,23
35.102,83
35.127,-38
35.152,-211
35.177,-259
35.202,-109
35.227,160
35.252,405
35.277,535
35.302,573
35.327,600
35.352,665
35.377,743
35.402,779
35.427,754
35.452,703
35.477,673
35.502,669
35.527,651
35.552,591
35.577,508
35.602,449
35.627,424
35.652,384
35.677,283
35.702,137
35.727,15
35.752,-38
35.777,-64
35.802,-134
35.827,-253
35.852,-325
35.877,-254
35.902,-69
35.927,74
35.952,36
35.977,-162
36.002,-348
36.027,-345
36.052,-126
36.077,178
36.102,414
36.127,523
36.152,560
36.177,611
36.202,707
36.227,807
36.252,845
36.277,798
36.302,703
36.327,631
36.352,621
36.377,646
36.402,638
36.427,554
36.452,423
36.477,304
36.502,225
36.527,156
36.552,69
36.577,-17
36.602,-74
36.627,-119
36.652,-218
36.677,-399
36.702,-581
36.727,-650
36.752,-618
36.777,-648
36.802,-876
36.827,-1200
36.852,-1314
36.877,-1007
36.902,-419
36.927,43
36.952,93
36.977,-149
37.002,-278
37.027,-8
37.052,566
37.077,1092
37.102,1315
37.127,1275
37.152,1186
37.177,1191
37.202,1263
37.227,1316
37.252,1320
37.277,1297
37.302,1241
37.327,1099
37.352,861
37.377,603
37.402,425
37.427,339
37.452,264
37.477,129
37.502,-40
37.527,-160
37.552,-195
37.577,-200
37.602,-250
37.627,-352
37.652,-450
37.677,-503
37.702,-513
37.727,-481
37.752,-366
37.777,-131
37.802,176
37.827,433
37.852,559
37.877,611
37.902,711
37.927,893
37.952,1042
37.977,1017
38.002,829
38.027,638
38.052,582
38.077,640
38.102,690
38.127,688
38.152,719
38.177,861
38.202,1053
38.227,1143
38.252,1066
38.277,892
38.302,689
38.327,390
38.352,-106
38.377,-700
38.402,-1059
38.427,-907
38.452,-357
38.477,133
38.502,194
38.527,-113
38.552,-407
38.577,-405
38.602,-179
38.627,20
38.652,104
38.677,209
38.702,455
38.727,755
38.752,915
38.777,891
38.802,834
38.827,884
38.852,994
38.877,1004
38.902,843
38.927,563
38.952,202
38.977,-282
39.002,-882
39.027,-1406
39.052,-1601
39.077,-1407
39.102,-1022
39.127,-663
39.152,-360
39.177,-87
39.202,-29
39.227,-517
39.252,-1552
39.277,-2519
39.302,-2618
39.327,-1709
39.352,-621
39.377,-424
39.402,-1331
39.427,-2409
39.452,-2447
39.477,-1094
39.502,885
39.527,2403
39.552,2957
39.577,2809
39.602,2487
39.627,2330
39.652,2442
39.677,2815
39.702,3293
39.727,3505
39.752,3112
39.777,2211
39.802,1411
39.827,1310
39.852,1897
39.877,2579
39.902,2835
39.927,2736
39.952,2707
39.977,2856
40.002,2733
40.027,1839
40.052,279
40.077,-1246
40.102,-2123
40.127,-2356
40.152,-2397
40.177,-2527
40.202,-2575
40.227,-2239
40.252,-1549
40.277,-878
40.302,-537
40.327,-483
40.352,-464
40.377,-356
40.402,-252
40.427,-252
40.452,-290
40.477,-231
40.502,-78
40.527,16
40.552,-52
40.577,-203
40.602,-278
40.627,-239
40.652,-209
40.677,-297
40.702,-460
40.727,-563
40.752,-548
40.777,-496
40.802,-509
40.827,-584
40.852,-628
40.877,-589
40.902,-515
40.927,-493
40.952,-541
40.977,-591
41.002,-553
41.027,-378
41.052,-71
41.077,318
41.102,713
41.127,1025
41.152,1202
41.177,1263
41.202,1287
41.227,1343
41.252,1442
41.277,1549
41.302,1616
41.327,1610
41.352,1515
41.377,1353
41.402,1198
41.427,1145
41.452,1227
41.477,1367
41.502,1440
41.527,1394
41.552,1303
41.577,1273
41.602,1307
41.627,1308
41.652,1204
41.677,1052
41.702,961
41.727,937
41.752,847
41.777,594
41.802,284
41.827,162
41.852,339
41.877,625
41.902,682
41.927,373
41.952,-73
41.977,-287
42.002,-133
42.027,158
42.052,246
42.077,27
42.102,-290
42.127,-444
42.152,-400
42.177,-345
42.202,-438
42.227,-618
42.252,-693
42.277,-579
42.302,-406
42.327,-363
42.352,-485
42.377,-623
42.402,-635
42.427,-555
42.452,-538
42.477,-660
42.502,-805
42.527,-794
42.552,-607
42.577,-443
42.602,-526
42.627,-867
42.652,-1232
42.677,-1347
42.702,-1133
42.727,-736
42.752,-360
42.777,-100
42.802,85
42.827,271
42.852,487
42.877,728
42.902,978
42.927,1210
42.952,1360
42.977,1368
43.002,1257
43.027,1141
43.052,1124
43.077,1185
43.102,1198
43.127,1079
43.152,885
43.177,747
43.202,701
43.227,644
43.252,476
43.277,245
43.302,106
43.327,123
43.352,163
43.377,40
43.402,-247
43.427,-489
43.452,-492
43.477,-325
43.502,-268
43.527,-514
43.552,-943
43.577,-1225
43.602,-1121
43.627,-661
43.652,-52
43.677,530
43.702,1038
43.727,1471
43.752,1804
43.777,2004
43.802,2094
43.827,2132
43.852,2141
43.877,2100
43.902,2009
43.927,1932
43.952,1912
43.977,1875
44.002,1667
44.027,1244
44.052,782
44.077,543
44.102,619
44.127,819
44.152,857
44.177,637
44.202,314
44.227,99
44.252,22
44.277,-69
44.302,-319
44.327,-695
44.352,-1041
44.377,-1230
44.402,-1254
44.427,-1164
44.452,-991
44.477,-749
44.502,-490
44.527,-304
44.552,-244
44.577,-260
44.602,-247
44.627,-146
44.652,2
44.677,115
44.702,158
44.727,179
44.752,247
44.777,380
44.802,517
44.827,587
44.852,572
44.877,526
44.902,509
44.927,522
44.952,486
44.977,333
45.002,96
45.027,-87
45.052,-101
45.077,30
45.102,151
45.127,126
45.152,-18
45.177,-141
45.202,-155
45.227,-134
45.252,-219
45.277,-427
45.302,-598
45.327,-552
45.352,-284
45.377,24
45.402,196
45.427,226
45.452,255
45.477,396
45.502,614
45.527,791
45.552,862
45.577,862
45.602,850
45.627,833
45.652,782
45.677,701
45.702,646
45.727,654
45.752,689
45.777,676
45.802,580
45.827,450
45.852,370
45.877,380
45.902,451
45.927,521
45.952,545
45.977,520
46.002,473
46.027,437
46.052,411
46.077,353
46.102,190
46.127,-111
46.152,-496
46.177,-838
46.202,-1032
46.227,-1079
46.252,-1064
46.277,-1062
46.302,-1045
46.327,-900
46.352,-540
46.377,-2
46.402,546
46.427,906
46.452,974
46.477,818
46.502,641
46.527,643
46.552,873
46.577,1192
46.602,1399
46.627,1407
46.652,1301
46.677,1223
46.702,1195
46.727,1102
46.752,852
46.777,516
46.802,275
46.827,211
46.852,195
46.877,19
46.902,-345
46.927,-681
46.952,-722
46.977,-428
47.002,-28
47.027,214
47.052,244
47.077,227
47.102,339
47.127,589
47.152,845
47.177,990
47.202,1021
47.227,998
47.252,950
47.277,862
47.302,730
47.327,585
47.352,461
47.377,356
47.402,252
47.427,158
47.452,111
47.477,116
47.502,126
47.527,88
47.552,6
47.577,-66
47.602,-104
47.627,-160
47.652,-297
47.677,-491
47.702,-626
47.727,-615
47.752,-509
47.777,-467
47.802,-589
47.827,-796
47.852,-879
47.877,-688
47.902,-268
47.927,186
47.952,508
47.977,674
48.002,776
48.027,896
48.052,1019
48.077,1076
48.102,1039
48.127,966
48.152,939
48.177,973
48.202,999
48.227,948
48.252,831
48.277,732
48.302,710
48.327,729
48.352,698
48.377,585
48.402,458
48.427,405
48.452,404
48.477,329
48.502,91
48.527,-237
48.552,-468
48.577,-498
48.602,-425
48.627,-451
48.652,-648
48.677,-861
48.702,-854
48.727,-558
48.752,-145
48.777,154
48.802,263
48.827,298
48.852,402
48.877,592
48.902,769
48.927,859
48.952,881
48.977,891
49.002,892
49.027,832
49.052,690
49.077,529
49.102,437
49.127,439
49.152,470
49.177,445
49.202,334
49.227,173
49.252,27
49.277,-50
49.302,-43
49.327,14
49.352,38
49.377,-55
49.402,-264
49.427,-466
49.452,-513
49.477,-377
49.502,-199
49.527,-154
49.552,-270
49.577,-386
49.602,-306
49.627,3
49.652,392
49.677,674
49.702,792
49.727,828
49.752,880
49.777,955
49.802,996
49.827,965
49.852,890
49.877,820
49.902,772
49.927,735
49.952,695
49.977,650
50.002,586
50.027,479
50.052,324
50.077,163
50.102,61
50.127,42
50.152,59
50.177,46
50.202,-19
50.227,-102
50.252,-154
50.277,-163
50.302,-154
50.327,-156
50.352,-193
50.377,-287
50.402,-443
50.427,-609
50.452,-670
50.477,-518
50.502,-165
50.527,234
50.552,504
50.577,597
50.602,629
50.627,742
50.652,948
50.677,1124
50.702,1159
50.727,1083
50.752,1032
50.777,1086
50.802,1187
50.827,1220
50.852,1157
50.877,1076
50.902,1048
50.927,1025
50.952,889
50.977,606
51.002,278
51.027,32
51.052,-125
51.077,-308
51.102,-581
51.127,-857
51.152,-991
51.177,-978
51.202,-1007
51.227,-1255
51.252,-1645
51.277,-1846
51.302,-1571
51.327,-871
51.352,-118
51.377,318
51.402,381
51.427,326
51.452,442
51.477,784
51.502,1168
51.527,1386
51.552,1386
51.577,1279
51.602,1186
51.627,1139
51.652,1093
51.677,1009
51.702,908
51.727,830
51.752,791
51.777,774
51.802,761
51.827,743
51.852,712
51.877,636
51.902,480
51.927,252
51.952,18
51.977,-138
52.002,-203
52.027,-247
52.052,-368
52.077,-583
52.102,-793
52.127,-863
52.152,-737
52.177,-488
52.202,-253
52.227,-114
52.252,-49
52.277,17
52.302,137
52.327,302
52.352,473
52.377,620
52.402,727
52.427,781
52.452,787
52.477,774
52.502,785
52.527,827
52.552,860
52.577,833
52.602,743
52.627,645
52.652,580
52.677,526
52.702,420
52.727,253
52.752,97
52.777,38
52.802,72
52.827,100
52.852,33
52.877,-112
52.902,-236
52.927,-274
52.952,-275
52.977,-342
53.002,-498
53.027,-631
53.052,-598
53.077,-357
53.102,-13
53.127,281
53.152,454
53.177,547
53.202,645
53.227,779
53.252,905
53.277,965
53.302,943
53.327,879
53.352,820
53.377,782
53.402,746
53.427,696
53.452,637
53.477,591
53.502,565
53.527,538
53.552,482
53.577,394
53.602,300
53.627,222
53.652,141
53.677,16
53.702,-161
53.727,-326
53.752,-392
53.777,-346
53.802,-287
53.827,-343
53.852,-525
53.877,-688
53.902,-646
53.927,-354
53.952,38
53.977,327
54.002,442
54.027,487
54.052,596
54.077,775
54.102,910
54.127,911
54.152,828
54.177,785
54.202,823
54.227,841
54.252,720
54.277,478
54.302,275
54.327,247
54.352,362
54.377,461
54.402,428
54.427,300
54.452,187
54.477,129
54.502,60
54.527,-82
54.552,-256
54.577,-359
54.602,-367
54.627,-369
54.652,-455
54.677,-575
54.702,-566
54.727,-326
54.752,58
54.777,383
54.802,532
54.827,572
54.852,654
54.877,820
54.902,971
54.927,991
54.952,893
54.977,804
55.002,813
55.027,870
55.052,853
55.077,709
55.102,516
55.127,394
55.152,383
55.177,417
55.202,408
55.227,331
55.252,227
55.277,136
55.302,56
55.327,-44
55.352,-182
55.377,-341
55.402,-489
55.427,-599
55.452,-644
55.477,-610
55.502,-497
55.527,-341
55.552,-187
55.577,-66
55.602,28
55.627,129
55.652,257
55.677,411
55.702,571
55.727,718
55.752,837
55.777,914
55.802,940
55.827,920
55.852,878
55.877,839
55.902,818
55.927,804
55.952,776
55.977,721
56.002,644
56.027,565
56.052,501
56.077,450
56.102,391
56.127,303
56.152,192
56.177,93
56.202,30
56.227,-14
56.252,-88
56.277,-211
56.302,-336
56.327,-387
56.352,-346
56.377,-299
56.402,-363
56.427,-556
56.452,-749
56.477,-763
56.502,-533
56.527,-165
56.552,159
56.577,343
56.602,433
56.627,539
56.652,707
56.677,880
56.702,973
56.727,965
56.752,912
56.777,878
56.802,881
56.827,890
56.852,875
56.877,830
56.902,771
56.927,711
56.952,650
56.977,584
57.002,510
57.027,430
57.052,345
57.077,266
57.102,203
57.127,156
57.152,92
57.177,-27
57.202,-206
57.227,-381
57.252,-467
57.277,-437
57.302,-368
57.327,-389
57.352,-556
57.377,-771
57.402,-841
57.427,-632
57.452,-188
57.477,295
57.502,622
57.527,738
57.552,735
57.577,743
57.602,808
57.627,888
57.652,922
57.677,899
57.702,857
57.727,831
57.752,822
57.777,804
57.802,761
57.827,700
57.852,636
57.877,580
57.902,531
57.927,481
57.952,418
57.977,331
58.002,226
58.027,124
58.052,38
58.077,-42
58.102,-139
58.127,-251
58.152,-345
58.177,-390
58.202,-415
58.227,-496
58.252,-677
58.277,-884
58.302,-964
58.327,-808
58.352,-462
58.377,-90
58.402,161
58.427,275
58.452,341
58.477,432
58.502,540
58.527,605
58.552,596
58.577,540
58.602,483
58.627,450
58.652,457
58.677,531
58.702,701
58.727,947
58.752,1188
58.777,1331
58.802,1339
58.827,1251
58.852,1134
58.877,1019
58.902,900
58.927,764
58.952,609
58.977,434
59.002,238
59.027,34
59.052,-137
59.077,-242
59.102,-299
59.127,-384
59.152,-545
59.177,-723
59.202,-773
59.227,-590
59.252,-223
59.277,152
59.302,382
59.327,460
59.352,492
59.377,571
59.402,675
59.427,720
59.452,671
59.477,583
59.502,532
59.527,519
59.552,478
59.577,365
59.602,226
59.627,152
59.652,166
59.677,197
59.702,153
59.727,33
59.752,-71
59.777,-86
59.802,-36
59.827,-15
59.852,-73
59.877,-158
59.902,-186
59.927,-152
59.952,-146
59.977,-239
60.002,-374
60.027,-391
60.052,-182
60.077,186
60.102,527
60.127,698
60.152,720
60.177,726
60.202,812
60.227,943
60.252,1013
60.277,972
60.302,884
60.327,854
60.352,911
60.377,989
60.402,994
60.427,910
60.452,795
60.477,704
60.502,620
60.527,474
60.552,244
60.577,4
60.602,-136
60.627,-142
60.652,-99
60.677,-128
60.702,-263
60.727,-423
60.752,-508
60.777,-520
60.802,-562
60.827,-714
60.852,-914
60.877,-993
60.902,-830
60.927,-462
60.952,-54
60.977,247
61.002,416
61.027,518
61.052,621
61.077,728
61.102,809
61.127,844
61.152,842
61.177,822
61.202,800
61.227,786
61.252,779
61.277,764
61.302,715
61.327,629
61.352,537
61.377,472
61.402,423
61.427,342
61.452,208
61.477,73
61.502,8
61.527,13
61.552,-1
61.577,-114
61.602,-278
61.627,-359
61.652,-286
61.677,-150
61.702,-110
61.727,-207
61.752,-305
61.777,-232
61.802,29
61.827,336
61.852,541
61.877,638
61.902,720
61.927,840
61.952,949
61.977,981
62.002,952
62.027,930
62.052,933
62.077,902
62.102,794
62.127,670
62.152,636
62.177,703
62.202,758
62.227,690
62.252,533
62.277,424
62.302,423
62.327,417
62.352,245
62.377,-96
62.402,-422
62.427,-547
62.452,-492
62.477,-451
62.502,-569
62.527,-775
62.552,-856
62.577,-681
62.602,-325
62.627,25
62.652,256
62.677,389
62.702,503
62.727,624
62.752,716
62.777,750
62.802,744
62.827,739
62.852,741
62.877,728
62.902,684
62.927,621
62.952,561
62.977,501
63.002,425
63.027,332
63.052,245
63.077,180
63.102,122
63.127,37
63.152,-75
63.177,-176
63.202,-222
63.227,-222
63.252,-241
63.277,-342
63.302,-510
63.327,-650
63.352,-651
63.377,-480
63.402,-200
63.427,78
63.452,286
63.477,430
63.502,558
63.527,698
63.552,820
63.577,873
63.602,837
63.627,755
63.652,701
63.677,719
63.702,780
63.727,806
63.752,737
63.777,584
63.802,426
63.827,340
63.852,335
63.877,343
63.902,290
63.927,166
63.952,34
63.977,-46
64.002,-89
64.027,-165
64.052,-312
64.077,-464
64.102,-489
64.127,-312
64.152,6
64.177,321
64.202,526
64.227,627
64.252,700
64.277,783
64.302,846
64.327,845
64.352,796
64.377,756
64.402,752
64.427,744
64.452,670
64.477,537
64.502,423
64.527,395
64.552,434
64.577,450
64.602,380
64.627,249
64.652,126
64.677,48
64.702,-17
64.727,-106
64.752,-211
64.777,-292
64.802,-347
64.827,-426
64.852,-560
64.877,-684
64.902,-668
64.927,-443
64.952,-89
64.977,222
65.002,387
65.027,446
65.052,519
65.077,662
65.102,813
65.127,875
65.152,835
65.177,774
65.202,766
65.227,794
65.252,777
65.277,673
65.302,519
65.327,385
65.352,304
65.377,256
65.402,222
65.427,202
65.452,186
65.477,130
65.502,1
65.527,-158
65.552,-245
65.577,-202
65.602,-110
65.627,-128
65.652,-323
65.677,-575
65.702,-665
65.727,-481
65.752,-120
65.777,213
65.802,400
65.827,486
65.852,585
65.877,742
65.902,893
65.927,959
65.952,932
65.977,871
66.002,835
66.027,827
66.052,820
66.077,792
66.102,743
66.127,676
66.152,596
66.177,517
66.202,453
66.227,397
66.252,311
66.277,166
66.302,-15
66.327,-160
66.352,-215
66.377,-198
66.402,-183
66.427,-226
66.452,-327
66.477,-453
66.502,-576
66.527,-681
66.552,-721
66.577,-625
66.602,-367
66.627,-22
66.652,272
66.677,433
66.702,503
66.727,595
66.752,757
66.777,923
66.802,988
66.827,935
66.852,850
66.877,827
66.902,865
66.927,886
66.952,837
66.977,744
67.002,670
67.027,638
67.052,603
67.077,516
67.102,376
67.127,219
67.152,79
67.177,-31
67.202,-95
67.227,-102
67.252,-74
67.277,-86
67.302,-203
67.327,-394
67.352,-536
67.377,-526
67.402,-394
67.427,-281
67.452,-287
67.477,-361
67.502,-354
67.527,-178
67.552,107
67.577,369
67.602,535
67.627,638
67.652,739
67.677,836
67.702,882
67.727,862
67.752,826
67.777,829
67.802,865
67.827,882
67.852,848
67.877,786
67.902,735
67.927,690
67.952,622
67.977,524
68.002,435
68.027,384
68.052,343
68.077,249
68.102,82
68.127,-104
68.152,-232
68.177,-269
68.202,-244
68.227,-216
68.252,-231
68.277,-321
68.302,-498
68.327,-710
68.352,-830
68.377,-721
68.402,-368
68.427,71
68.452,381
68.477,464
68.502,422
68.527,439
68.552,597
68.577,808
68.602,927
68.627,899
68.652,793
68.677,709
68.702,689
68.727,708
68.752,730
68.777,739
68.802,729
68.827,684
68.852,601
68.877,506
68.902,432
68.927,382
68.952,325
68.977,238
69.002,137
69.027,56
69.052,-4
69.077,-74
69.102,-171
69.127,-269
69.152,-337
69.177,-393
69.202,-488
69.227,-623
69.252,-699
69.277,-590
69.302,-281
69.327,91
69.352,358
69.377,469
69.402,520
69.427,625
69.452,783
69.477,888
69.502,867
69.527,770
69.552,710
69.577,745
69.602,816
69.627,835
69.652,778
69.677,705
69.702,670
69.727,655
69.752,591
69.777,442
69.802,253
69.827,108
69.852,59
69.877,84
69.902,108
69.927,69
69.952,-44
69.977,-184
70.002,-285
70.027,-325
70.052,-353
70.077,-447
70.102,-621
70.127,-775
70.152,-751
70.177,-466
70.202,-4
70.227,432
70.252,681
70.277,736
70.302,713
70.327,726
70.352,793
70.377,859
70.402,875
70.427,846
70.452,798
70.477,744
70.502,678
70.527,614
70.552,583
70.577,594
70.602,607
70.627,569
70.652,469
70.677,355
70.702,280
70.727,230
70.752,147
70.777,-5
70.802,-177
70.827,-276
70.852,-260
70.877,-195
70.902,-201
70.927,-332
70.952,-512
70.977,-589
71.002,-466
71.027,-178
71.052,142
71.077,380
71.102,515
71.127,602
71.152,692
71.177,778
71.202,823
71.227,819
71.252,794
71.277,775
71.302,749
71.327,687
71.352,594
71.377,523
71.402,516
71.427,542
71.452,524
71.477,426
71.502,296
71.527,209
71.552,167
71.577,89
71.602,-82
71.627,-291
71.652,-410
71.677,-393
71.702,-345
71.727,-412
71.752,-602
71.777,-739
71.802,-632
71.827,-279
71.852,124
71.877,376
71.902,454
71.927,499
71.952,627
71.977,805
72.002,906
72.027,876
72.052,795
72.077,771
72.102,817
72.127,838
72.152,759
72.177,614
72.202,509
72.227,498
72.252,530
72.277,504
72.302,377
72.327,197
72.352,56
72.377,4
72.402,22
72.427,46
72.452,12
72.477,-108
72.502,-291
72.527,-461
72.552,-532
72.577,-469
72.602,-311
72.627,-148
72.652,-41
72.677,21
72.702,102
72.727,245
72.752,433
72.777,605
72.802,720
72.827,782
72.852,820
72.877,851
72.902,865
72.927,850
72.952,811
72.977,773
73.002,751
73.027,735
73.052,703
73.077,644
73.102,555
73.127,442
73.152,304
73.177,156
73.202,32
73.227,-23
73.252,-9
73.277,17
73.302,-27
73.327,-173
73.352,-355
73.377,-457
73.402,-418
73.427,-300
73.452,-233
73.477,-291
73.502,-412
73.527,-448
73.552,-298
73.577,-1
73.602,302
73.627,495
73.652,572
73.677,613
73.702,685
73.727,774
73.752,818
73.777,787
73.802,728
73.827,706
73.852,736
73.877,761
73.902,721
73.927,619
73.952,521
73.977,474
74.002,453
74.027,391
74.052,267
74.077,141
74.102,84
74.127,82
74.152,42
74.177,-96
74.202,-273
74.227,-351
74.252,-272
74.277,-144
74.302,-138
74.327,-294
74.352,-452
74.377,-394
74.402,-67
74.427,354
74.452,637
74.477,694
74.502,641
74.527,639
74.552,731
74.577,827
74.602,837
74.627,767
74.652,692
74.677,653
74.702,624
74.727,567
74.752,497
74.777,462
74.802,472
74.827,477
74.852,417
74.877,298
74.902,178
74.927,98
74.952,39
74.977,-46
75.002,-166
75.027,-274
75.052,-333
75.077,-371
75.102,-455
75.127,-605
75.152,-740
75.177,-726
75.202,-493
75.227,-103
75.252,287
75.277,549
75.302,659
75.327,688
75.352,722
75.377,788
75.402,855
75.427,888
75.452,880
75.477,850
75.502,806
75.527,740
75.552,655
75.577,583
75.602,557
75.627,570
75.652,567
75.677,500
75.702,385
75.727,287
75.752,234
75.777,179
75.802,46
75.827,-162
75.852,-341
75.877,-383
75.902,-306
75.927,-255
75.952,-356
75.977,-571
76.002,-715
76.027,-635
76.052,-355
76.077,-37
76.102,182
76.127,308
76.152,430
76.177,598
76.202,764
76.227,859
76.252,880
76.277,886
76.302,905
76.327,899
76.352,821
76.377,695
76.402,605
76.427,605
76.452,645
76.477,626
76.502,500
76.527,324
76.552,192
76.577,148
76.602,160
76.627,168
76.652,130
76.677,40
76.702,-88
76.727,-213
76.752,-276
76.777,-248
76.802,-179
76.827,-181
76.852,-318
76.877,-515
76.902,-599
76.927,-454
76.952,-137
76.977,177
77.002,365
77.027,451
77.052,547
77.077,708
77.102,875
77.127,960
77.152,942
77.177,883
77.202,848
77.227,855
77.252,880
77.277,899
77.302,888
77.327,812
77.352,654
77.377,462
77.402,338
77.427,342
77.452,416
77.477,426
77.502,310
77.527,151
77.552,78
77.577,98
77.602,69
77.627,-129
77.652,-437
77.677,-647
77.702,-632
77.727,-490
77.752,-437
77.777,-564
77.802,-725
77.827,-696
77.852,-415
77.877,-39
77.902,227
77.927,338
77.952,403
77.977,534
78.002,710
78.027,830
78.052,844
78.077,804
78.102,793
78.127,821
78.152,827
78.177,765
78.202,658
78.227,573
78.252,546
78.277,555
78.302,557
78.327,527
78.352,469
78.377,391
78.402,302
78.427,201
78.452,81
78.477,-62
78.502,-215
78.527,-329
78.552,-350
78.577,-270
78.602,-161
78.627,-123
78.652,-189
78.677,-281
78.702,-279
78.727,-134
78.752,95
78.777,309
78.802,459
78.827,569
78.852,671
78.877,757
78.902,795
78.927,782
78.952,757
78.977,755
79.002,768
79.027,769
79.052,745
79.077,709
79.102,669
79.127,602
79.152,486
79.177,334
79.202,198
79.227,122
79.252,109
79.277,119
79.302,107
79.327,44
79.352,-71
79.377,-212
79.402,-317
79.427,-332
79.452,-275
79.477,-248
79.502,-353
79.527,-570
79.552,-738
79.577,-685
79.602,-395
79.627,-31
79.652,222
79.677,326
79.702,392
79.727,527
79.752,713
79.777,845
79.802,868
79.827,834
79.852,827
79.877,860
79.902,879
79.927,844
79.952,782
79.977,741
80.002,718
80.027,671
80.052,586
80.077,503
80.102,454
80.127,420
80.152,355
80.177,258
80.202,184
80.227,158
80.252,122
80.277,0
80.302,-190
80.327,-330
80.352,-339
80.377,-287
80.402,-318
80.427,-461
80.452,-555
80.477,-409
80.502,-32
80.527,351
80.552,522
80.577,489
80.602,459
80.627,586
80.652,803
80.677,910
80.702,807
80.727,586
80.752,414
80.777,360
80.802,365
80.827,365
80.852,373
80.877,431
80.902,521
80.927,566
80.952,532
80.977,462
81.002,421
81.027,404
81.052,358
81.077,262
81.102,170
81.127,122
81.152,78
81.177,-43
81.202,-232
81.227,-359
81.252,-308
81.277,-141
81.302,-62
81.327,-214
81.352,-496
81.377,-638
81.402,-450
81.427,0
81.452,461
81.477,723
81.502,773
81.527,740
81.552,747
81.577,820
81.602,914
81.627,976
81.652,978
81.677,902
81.702,751
81.727,558
81.752,378
81.777,254
81.802,183
81.827,136
81.852,97
81.877,75
81.902,77
81.927,93
81.952,101
81.977,98
82.002,96
82.027,92
82.052,64
82.077,-6
82.102,-100
82.127,-185
82.152,-257
82.177,-355
82.202,-509
82.227,-668
82.252,-717
82.277,-572
82.302,-267
82.327,72
82.352,335
82.377,505
82.402,649
82.427,816
82.452,981
82.477,1066
82.502,1035
82.527,937
82.552,865
82.577,872
82.602,927
82.627,941
82.652,856
82.677,697
82.702,553
82.727,495
82.752,508
82.777,498
82.802,393
82.827,215
82.852,71
82.877,41
82.902,90
82.927,101
82.952,1
82.977,-162
83.002,-275
83.027,-301
83.052,-324
83.077,-445
83.102,-637
83.127,-732
83.152,-585
83.177,-232
83.202,131
83.227,344
83.252,424
83.277,512
83.302,686
83.327,869
83.352,927
83.377,838
83.402,721
83.427,698
83.452,764
83.477,811
83.502,766
83.527,673
83.552,621
83.577,620
83.602,586
83.627,447
83.652,235
83.677,56
83.702,-19
83.727,-11
83.752,15
83.777,9
83.802,-58
83.827,-206
83.852,-420
83.877,-607
83.902,-619
83.927,-367
83.952,63
83.977,461
84.002,665
84.027,688
84.052,674
84.077,725
84.102,802
84.127,797
84.152,669
84.177,487
84.202,349
84.227,287
84.252,264
84.277,244
84.302,227
84.327,224
84.352,233
84.377,247
84.402,268
84.427,284
84.452,250
84.477,126
84.502,-53
84.527,-173
84.552,-152
84.577,-55
84.602,-39
84.627,-179
84.652,-346
84.677,-325
84.702,-44
84.727,328
84.752,555
84.777,576
84.802,548
84.827,641
84.852,836
84.877,950
84.902,850
84.927,601
84.952,381
84.977,293
85.002,291
85.027,282
85.052,242
85.077,221
85.102,250
85.127,294
85.152,304
85.177,276
85.202,233
85.227,171
85.252,58
85.277,-101
85.302,-241
85.327,-305
85.352,-327
85.377,-404
85.402,-563
85.427,-684
85.452,-586
85.477,-225
85.502,235
85.527,554
85.552,624
85.577,559
85.602,555
85.627,704
85.652,920
85.677,1045
85.702,1011
85.727,881
85.752,770
85.777,734
85.802,743
85.827,739
85.852,704
85.877,660
85.902,628
85.927,586
85.952,505
85.977,384
86.002,267
86.027,195
86.052,158
86.077,102
86.102,-6
86.127,-138
86.152,-235
86.177,-290
86.202,-362
86.227,-508
86.252,-691
86.277,-783
86.302,-673
86.327,-380
86.352,-49
86.377,168
86.402,237
86.427,243
86.452,305
86.477,470
86.502,690
86.527,872
86.552,951
86.577,930
86.602,865
86.627,828
86.652,847
86.677,892
86.702,902
86.727,854
86.752,780
86.777,730
86.802,704
86.827,647
86.852,515
86.877,331
86.902,178
86.927,116
86.952,125
86.977,135
87.002,95
87.027,4
87.052,-108
87.077,-225
87.102,-333
87.127,-411
87.152,-455
87.177,-506
87.202,-625
87.227,-807
87.252,-929
87.277,-831
87.302,-475
87.327,-24
87.352,285
87.377,348
87.402,280
87.427,290
87.452,467
87.477,712
87.502,860
87.527,850
87.552,760
87.577,701
87.602,707
87.627,734
87.652,739
87.677,726
87.702,716
87.727,703
87.752,664
87.777,597
87.802,535
87.827,504
87.852,478
87.877,404
87.902,260
87.927,90
87.952,-40
87.977,-112
88.002,-162
88.027,-233
88.052,-316
88.077,-362
88.102,-348
88.127,-315
88.152,-335
88.177,-429
88.202,-528
88.227,-510
88.252,-290
88.277,107
88.302,562
88.327,932
88.352,1132
88.377,1175
88.402,1150
88.427,1167
88.452,1295
88.477,1522
88.502,1760
88.527,1895
88.552,1847
88.577,1609
88.602,1237
88.627,818
88.652,423
88.677,102
88.702,-121
88.727,-238
88.752,-254
88.777,-196
88.802,-100
88.827,-12
88.852,26
88.877,-13
88.902,-137
88.927,-306
88.952,-464
88.977,-579
89.002,-671
89.027,-802
89.052,-1002
89.077,-1202
89.102,-1261
89.127,-1067
89.152,-635
89.177,-120
89.202,298
89.227,541
89.252,663
89.277,768
89.302,898
89.327,1004
89.352,1017
89.377,936
89.402,833
89.427,780
89.452,779
89.477,780
89.502,752
89.527,719
89.552,713
89.577,717
89.602,662
89.627,506
89.652,288
89.677,87
89.702,-53
89.727,-161
89.752,-269
89.777,-361
89.802,-407
89.827,-449
89.852,-594
89.877,-880
89.902,-1155
89.927,-1166
89.952,-800
89.977,-248
90.002,139
90.027,175
90.052,11
90.077,-34
90.102,184
90.127,515
90.152,696
90.177,657
90.202,570
90.227,623
90.252,811
90.277,966
90.302,979
90.327,917
90.352,915
90.377,989
90.402,1028
90.427,943
90.452,786
90.477,683
90.502,671
90.527,668
90.552,589
90.577,471
90.602,425
90.627,496
90.652,596
90.677,614
90.702,547
90.727,505
90.752,575
90.777,727
90.802,850
90.827,875
90.852,835
90.877,800
90.902,794
90.927,778
90.952,707
90.977,582
91.002,440
91.027,313
91.052,210
91.077,111
91.102,-15
91.127,-194
91.152,-418
91.177,-639
91.202,-803
91.227,-904
91.252,-988
91.277,-1089
91.302,-1169
91.327,-1154
91.352,-1036
91.377,-917
91.402,-907
91.427,-969
91.452,-906
91.477,-542
91.502,69
91.527,655
91.552,956
91.577,956
91.602,876
91.627,939
91.652,1163
91.677,1382
91.702,1439
91.727,1324
91.752,1143
91.777,994
91.802,893
91.827,819
91.852,764
91.877,725
91.902,674
91.927,566
91.952,395
91.977,217
92.002,93
92.027,10
92.052,-101
92.077,-280
92.102,-462
92.127,-520
92.152,-388
92.177,-127
92.202,122
92.227,268
92.252,329
92.277,385
92.302,487
92.327,599
92.352,645
92.377,586
92.402,471
92.427,395
92.452,415
92.477,492
92.502,516
92.527,407
92.552,202
92.577,26
92.602,-34
92.627,-30
92.652,-111
92.677,-363
92.702,-684
92.727,-854
92.752,-728
92.777,-383
92.802,-39
92.827,152
92.852,237
92.877,364
92.902,590
92.927,812
92.952,892
92.977,819
93.002,718
93.027,704
93.052,758
93.077,772
93.102,692
93.127,575
93.152,495
93.177,436
93.202,312
93.227,96
93.252,-111
93.277,-183
93.302,-112
93.327,-28
93.352,-53
93.377,-162
93.402,-216
93.427,-113
93.452,105
93.477,320
93.502,466
93.527,572
93.552,686
93.577,790
93.602,830
93.627,798
93.652,759
93.677,766
93.702,797
93.727,787
93.752,712
93.777,628
93.802,580
93.827,531
93.852,399
93.877,169
93.902,-58
93.927,-162
93.952,-135
93.977,-92
94.002,-141
94.027,-280
94.052,-424
94.077,-524
94.102,-611
94.127,-713
94.152,-760
94.177,-627
94.202,-289
94.227,112
94.252,389
94.277,490
94.302,545
94.327,707
94.352,967
94.377,1157
94.402,1139
94.427,957
94.452,791
94.477,774
94.502,872
94.527,950
94.552,918
94.577,799
94.602,662
94.627,539
94.652,413
94.677,263
94.702,101
94.727,-47
94.752,-162
94.777,-229
94.802,-237
94.827,-200
94.852,-187
94.877,-274
94.902,-453
94.927,-606
94.952,-604
94.977,-452
95.002,-306
95.027,-325
95.052,-491
95.077,-612
95.102,-504
95.127,-170
95.152,209
95.177,457
95.202,554
95.227,609
95.252,720
95.277,878
95.302,1005
95.327,1047
95.352,1015
95.377,952
95.402,882
95.427,814
95.452,765
95.477,755
95.502,777
95.527,792
95.552,760
95.577,672
95.602,561
95.627,463
95.652,388
95.677,323
95.702,247
95.727,144
95.752,20
95.777,-101
95.802,-191
95.827,-243
95.852,-290
95.877,-388
95.902,-547
95.927,-696
95.952,-726
95.977,-580
96.002,-314
96.027,-57
96.052,95
96.077,157
96.102,222
96.127,362
96.152,561
96.177,742
96.202,839
96.227,854
96.252,840
96.277,840
96.302,853
96.327,848
96.352,810
96.377,757
96.402,721
96.427,706
96.452,683
96.477,614
96.502,490
96.527,337
96.552,194
96.577,88
96.602,36
96.627,37
96.652,65
96.677,58
96.702,-40
96.727,-224
96.752,-391
96.777,-423
96.802,-312
96.827,-201
96.852,-260
96.877,-511
96.902,-768
96.927,-787
96.952,-488
96.977,-23
97.002,359
97.027,535
97.052,572
97.077,622
97.102,753
97.127,908
97.152,990
97.177,971
97.202,904
97.227,861
97.252,866
97.277,893
97.302,897
97.327,841
97.352,717
97.377,559
97.402,427
97.427,370
97.452,380
97.477,380
97.502,292
97.527,112
97.552,-74
97.577,-168
97.602,-147
97.627,-91
97.652,-111
97.677,-249
97.702,-443
97.727,-586
97.752,-607
97.777,-517
97.802,-390
97.827,-291
97.852,-230
97.877,-162
97.902,-35
97.927,166
97.952,398
97.977,592
98.002,711
98.027,767
98.052,806
98.077,852
98.102,890
98.127,888
98.152,842
98.177,791
98.202,775
98.227,793
98.252,799
98.277,755
98.302,669
98.327,584
98.352,522
98.377,458
98.402,357
98.427,227
98.452,125
98.477,83
98.502,59
98.527,-31
98.552,-205
98.577,-369
98.602,-399
98.627,-292
98.652,-195
98.677,-281
98.702,-556
98.727,-821
98.752,-832
98.777,-524
98.802,-65
98.827,301
98.852,467
98.877,511
98.902,581
98.927,729
98.952,878
98.977,929
99.002,874
99.027,798
99.052,784
99.077,826
99.102,850
99.127,800
99.152,702
99.177,625
99.202,604
99.227,599
99.252,546
99.277,433
99.302,315
99.327,241
99.352,192
99.377,97
99.402,-65
99.427,-214
99.452,-247
99.477,-173
99.502,-145
99.527,-307
99.552,-611
99.577,-812
99.602,-683
99.627,-243
99.652,244
99.677,507
99.702,502
99.727,419
99.752,455
99.777,625
99.802,787
99.827,816
99.852,728
99.877,632
99.902,600
99.927,611
99.952,612
99.977,588
100.002,559
100.027,531
100.052,486
100.077,404
100.102,298
100.127,197
100.152,111
100.177,32
100.202,-47
100.227,-130
100.252,-225
100.277,-347
100.302,-483
100.327,-557
100.352,-476
100.377,-223
100.402,104
100.427,368
100.452,505
100.477,570
100.502,649
100.527,748
100.552,800
100.577,753
100.602,654
100.627,599
100.652,624
100.677,662
100.702,615
100.727,465
100.752,288
100.777,172
100.802,130
100.827,109
100.852,56
100.877,-30
100.902,-134
100.927,-253
100.952,-390
100.977,-506
101.002,-520
101.027,-372
101.052,-104
101.077,163
101.102,332
101.127,410
101.152,482
101.177,606
101.202,745
101.227,815
101.252,782
101.277,698
101.302,642
101.327,635
101.352,632
101.377,586
101.402,502
101.427,421
101.452,361
101.477,299
101.502,204
101.527,80
101.552,-51
101.577,-181
101.602,-320
101.627,-455
101.652,-530
101.677,-490
101.702,-352
101.727,-203
101.752,-124
101.777,-116
101.802,-101
101.827,-9
101.852,163
101.877,369
101.902,570
101.927,752
101.952,903
101.977,992
102.002,1000
102.027,958
102.052,929
102.077,944
102.102,974
102.127,968
102.152,915
102.177,854
102.202,812
102.227,775
102.252,706
102.277,609
102.302,523
102.327,470
102.352,425
102.377,348
102.402,241
102.427,151
102.452,106
102.477,72
102.502,-12
102.527,-166
102.552,-349
102.577,-506
102.602,-609
102.627,-658
102.652,-657
102.677,-627
102.702,-640
102.727,-772
102.752,-998
102.777,-1151
102.802,-1024
102.827,-576
102.852,-7
102.877,392
102.902,497
102.927,437
102.952,445
102.977,625
103.002,879
103.027,1046
103.052,1070
103.077,1031
103.102,1021
103.127,1054
103.152,1076
103.177,1051
103.202,991
103.227,927
103.252,869
103.277,815
103.302,764
103.327,713
103.352,637
103.377,510
103.402,342
103.427,199
103.452,145
103.477,173
103.502,205
103.527,165
103.552,50
103.577,-81
103.602,-180
103.627,-247
103.652,-314
103.677,-397
103.702,-488
103.727,-588
103.752,-700
103.777,-801
103.802,-812
103.827,-657
103.852,-340
103.877,21
103.902,288
103.927,414
103.952,477
103.977,589
104.002,774
104.027,943
104.052,992
104.077,912
104.102,802
104.127,765
104.152,816
104.177,879
104.202,877
104.227,813
104.252,747
104.277,719
104.302,700
104.327,628
104.352,482
104.377,309
104.402,180
104.427,127
104.452,126
104.477,134
104.502,116
104.527,55
104.552,-55
104.577,-196
104.602,-311
104.627,-339
104.652,-284
104.677,-245
104.702,-331
104.727,-544
104.752,-738
104.777,-731
104.802,-469
104.827,-82
104.852,234
104.877,393
104.902,457
104.927,547
104.952,702
104.977,855
105.002,926
105.027,906
105.052,858
105.077,841
105.102,855
105.127,860
105.152,833
105.177,783
105.202,733
105.227,691
105.252,644
105.277,582
105.302,507
105.327,429
105.352,352
105.377,282
105.402,221
105.427,162
105.452,80
105.477,-49
105.502,-223
105.527,-387
105.552,-474
105.577,-460
105.602,-404
105.627,-413
105.652,-552
105.677,-761
105.702,-877
105.727,-745
105.752,-355
105.777,135
105.802,508
105.827,648
105.852,619
105.877,586
105.902,657
105.927,801
105.952,909
105.977,915
106.002,858
106.027,825
106.052,847
106.077,880
106.102,865
106.127,799
106.152,728
106.177,684
106.202,648
106.227,584
106.252,489
106.277,397
106.302,331
106.327,277
106.352,202
106.377,103
106.402,9
106.427,-63
106.452,-131
106.477,-224
106.502,-335
106.527,-428
106.552,-489
106.577,-560
106.602,-685
106.627,-824
106.652,-854
106.677,-664
106.702,-274
106.727,160
106.752,481
106.777,643
106.802,715
106.827,778
106.852,845
106.877,881
106.902,876
106.927,869
106.952,890
106.977,910
107.002,878
107.027,786
107.052,690
107.077,647
107.102,651
107.127,651
107.152,608
107.177,535
107.202,463
107.227,393
107.252,307
107.277,209
107.302,129
107.327,77
107.352,16
107.377,-90
107.402,-221
107.427,-306
107.452,-327
107.477,-368
107.502,-525
107.527,-755
107.552,-859
107.577,-649
107.602,-166
107.627,322
107.652,554
107.677,507
107.702,400
107.727,458
107.752,698
107.777,941
107.802,1012
107.827,906
107.852,750
107.877,662
107.902,659
107.927,685
107.952,687
107.977,644
108.002,553
108.027,427
108.052,303
108.077,233
108.102,236
108.127,257
108.152,216
108.177,91
108.202,-50
108.227,-127
108.252,-144
108.277,-192
108.302,-341
108.327,-539
108.352,-634
108.377,-516
108.402,-227
108.427,83
108.452,293
108.477,402
108.502,492
108.527,614
108.552,732
108.577,780
108.602,746
108.627,688
108.652,667
108.677,682
108.702,681
108.727,634
108.752,564
108.777,510
108.802,465
108.827,375
108.852,208
108.877,13
108.902,-111
108.927,-121
108.952,-79
108.977,-101
109.002,-242
109.027,-435
109.052,-551
109.077,-501
109.102,-307
109.127,-62
109.152,149
109.177,306
109.202,436
109.227,574
109.252,717
109.277,829
109.302,867
109.327,824
109.352,733
109.377,643
109.402,574
109.427,509
109.452,429
109.477,349
109.502,307
109.527,309
109.552,295
109.577,197
109.602,18
109.627,-141
109.652,-186
109.677,-124
109.702,-74
109.727,-137
109.752,-286
109.777,-385
109.802,-325
109.827,-122
109.852,117
109.877,311
109.902,461
109.927,601
109.952,738
109.977,841
110.002,893
110.027,913
110.052,918
110.077,892
110.102,811
110.127,692
110.152,600
110.177,582
110.202,611
110.227,608
110.252,528
110.277,403
110.302,295
110.327,222
110.352,137
110.377,-11
110.402,-215
110.427,-405
110.452,-508
110.477,-508
110.502,-458
110.527,-459
110.552,-582
110.577,-806
110.602,-990
110.627,-955
110.652,-622
110.677,-109
110.702,340
110.727,545
110.752,530
110.777,485
110.802,581
110.827,818
110.852,1055
110.877,1158
110.902,1113
110.927,1005
110.952,919
110.977,886
111.002,894
111.027,925
111.052,956
111.077,951
111.102,884
111.127,764
111.152,640
111.177,552
111.202,496
111.227,438
111.252,359
111.277,273
111.302,199
111.327,130
111.352,46
111.377,-52
111.402,-144
111.427,-220
111.452,-300
111.477,-407
111.502,-525
111.527,-613
111.552,-660
111.577,-714
111.602,-824
111.627,-956
111.652,-990
111.677,-821
111.702,-475
111.727,-96
111.752,173
111.777,318
111.802,435
111.827,614
111.852,845
111.877,1033
111.902,1103
111.927,1074
111.952,1032
111.977,1039
112.002,1076
112.027,1074
112.052,990
112.077,851
112.102,735
112.127,693
112.152,710
112.177,724
112.202,688
112.227,608
112.252,530
112.277,482
112.302,438
112.327,353
112.352,220
112.377,89
112.402,15
112.427,-14
112.452,-83
112.477,-254
112.502,-489
112.527,-666
112.552,-700
112.577,-631
112.602,-596
112.627,-688
112.652,-851
112.677,-917
112.702,-758
112.727,-395
112.752,24
112.777,357
112.802,558
112.827,670
112.852,751
112.877,821
112.902,881
112.927,934
112.952,984
112.977,1016
113.002,1000
113.027,930
113.052,838
113.077,772
113.102,749
113.127,746
113.152,733
113.177,702
113.202,665
113.227,618
113.252,551
113.277,461
113.302,371
113.327,297
113.352,225
113.377,131
113.402,15
113.427,-84
113.452,-141
113.477,-188
113.502,-286
113.527,-444
113.552,-580
113.577,-602
113.602,-510
113.627,-411
113.652,-405
113.677,-470
113.702,-477
113.727,-327
113.752,-50
113.777,225
113.802,408
113.827,513
113.852,612
113.877,735
113.902,842
113.927,885
113.952,868
113.977,844
114.002,853
114.027,880
114.052,887
114.077,855
114.102,796
114.127,735
114.152,681
114.177,625
114.202,555
114.227,470
114.252,384
114.277,318
114.302,282
114.327,255
114.352,197
114.377,89
114.402,-43
114.427,-151
114.452,-218
114.477,-288
114.502,-413
114.527,-570
114.552,-663
114.577,-612
114.602,-444
114.627,-274
114.652,-187
114.677,-152
114.702,-68
114.727,114
114.752,339
114.777,515
114.802,620
114.827,702
114.852,793
114.877,863
114.902,866
114.927,816
114.952,787
114.977,815
115.002,851
115.027,824
115.052,738
115.077,668
115.102,652
115.127,618
115.152,458
115.177,180
115.202,-63
115.227,-121
115.252,-7
115.277,107
115.302,72
115.327,-90
115.352,-238
115.377,-286
115.402,-301
115.427,-405
115.452,-597
115.477,-725
115.502,-637
115.527,-338
115.552,15
115.577,272
115.602,413
115.627,517
115.652,651
115.677,792
115.702,877
115.727,889
115.752,875
115.777,881
115.802,901
115.827,893
115.852,840
115.877,770
115.902,722
115.927,690
115.952,626
115.977,494
116.002,316
116.027,162
116.052,93
116.077,97
116.102,107
116.127,53
116.152,-73
116.177,-213
116.202,-304
116.227,-345
116.252,-402
116.277,-532
116.302,-712
116.327,-827
116.352,-762
116.377,-507
116.402,-164
116.427,131
116.452,323
116.477,451
116.502,584
116.527,740
116.552,881
116.577,963
116.602,983
116.627,971
116.652,944
116.677,898
116.702,827
116.727,757
116.752,719
116.777,719
116.802,719
116.827,676
116.852,585
116.877,478
116.902,391
116.927,325
116.952,257
116.977,174
117.002,82
117.027,-1
117.052,-79
117.077,-159
117.102,-243
117.127,-320
117.152,-399
117.177,-501
117.202,-634
117.227,-744
117.252,-731
117.277,-531
117.302,-191
117.327,144
117.352,354
117.377,440
117.402,513
117.427,662
117.452,857
117.477,984
117.502,967
117.527,856
117.552,770
117.577,780
117.602,848
117.627,883
117.652,839
117.677,746
117.702,653
117.727,571
117.752,478
117.777,358
117.802,222
117.827,93
117.852,-15
117.877,-93
117.902,-122
117.927,-110
117.952,-112
117.977,-197
118.002,-370
118.027,-532
118.052,-564
118.077,-459
118.102,-346
118.127,-367
118.152,-520
118.177,-640
118.202,-563
118.227,-285
118.252,42
118.277,271
118.302,390
118.327,494
118.352,650
118.377,826
118.402,950
118.427,997
118.452,999
118.477,982
118.502,932
118.527,835
118.552,731
118.577,688
118.602,717
118.627,748
118.652,701
118.677,579
118.702,463
118.727,408
118.752,369
118.777,255
118.802,50
118.827,-140
118.852,-187
118.877,-79
118.902,45
118.927,31
118.952,-152
118.977,-372
119.002,-448
119.027,-301
119.052,4
119.077,325
119.102,553
119.127,662
119.152,700
119.177,730
119.202,787
119.227,864
119.252,921
119.277,919
119.302,854
119.327,763
119.352,690
119.377,644
119.402,597
119.427,521
119.452,425
119.477,349
119.502,308
119.527,267
119.552,177
119.577,36
119.602,-100
119.627,-182
119.652,-225
119.677,-293
119.702,-413
119.727,-530
119.752,-569
119.777,-541
119.802,-556
119.827,-699
119.852,-904
119.877,-974
119.902,-765
119.927,-335
119.952,85
119.977,296
120.002,296
120.027,260
120.052,349
120.077,572
120.102,796
120.127,903
120.152,885
120.177,827
120.202,806
120.227,828
120.252,849
120.277,839
120.302,805
120.327,774
120.352,758
120.377,739
120.402,687
120.427,580
120.452,414
120.477,216
120.502,29
120.527,-99
120.552,-147
120.577,-129
120.602,-97
120.627,-116
120.652,-228
120.677,-417
120.702,-600
120.727,-666
120.752,-553
120.777,-293
120.802,-2
120.827,213
120.852,334
120.877,433
120.902,587
120.927,798
120.952,989
120.977,1074
121.002,1046
121.027,978
121.052,951
121.077,986
121.102,1029
121.127,1005
121.152,887
121.177,717
121.202,576
121.227,526
121.252,558
121.277,600
121.302,571
121.327,450
121.352,289
121.377,159
121.402,87
121.427,32
121.452,-56
121.477,-181
121.502,-305
121.527,-408
121.552,-522
121.577,-683
121.602,-856
121.627,-931
121.652,-818
121.677,-536
121.702,-204
121.727,65
121.752,251
121.777,400
121.802,543
121.827,652
121.852,694
121.877,691
121.902,706
121.927,764
121.952,817
121.977,796
122.002,700
122.027,596
122.052,545
122.077,541
122.102,529
122.127,476
122.152,400
122.177,326
122.202,251
122.227,162
122.252,74
122.277,21
122.302,4
122.327,-27
122.352,-114
122.377,-220
122.402,-271
122.427,-269
122.452,-322
122.477,-518
122.502,-777
122.527,-860
122.552,-593
122.577,-71
122.602,399
122.627,570
122.652,482
122.677,394
122.702,508
122.727,786
122.752,1023
122.777,1076
122.802,990
122.827,909
122.852,911
122.877,960
122.902,976
122.927,928
122.952,830
122.977,708
123.002,579
123.027,474
123.052,430
123.077,444
123.102,454
123.127,392
123.152,252
123.177,99
123.202,-6
123.227,-68
123.252,-132
123.277,-219
123.302,-310
123.327,-397
123.352,-504
123.377,-640
123.402,-733
123.427,-656
123.452,-366
123.477,22
123.502,319
123.527,434
123.552,452
123.577,520
123.602,673
123.627,804
123.652,803
123.677,695
123.702,614
123.727,645
123.752,734
123.777,759
123.802,666
123.827,518
123.852,410
123.877,367
123.902,352
123.927,327
123.952,290
123.977,240
124.002,143
124.027,-17
124.052,-182
124.077,-252
124.102,-194
124.127,-106
124.152,-139
124.177,-334
124.202,-559
124.227,-623
124.252,-449
124.277,-136
124.302,147
124.327,311
124.352,393
124.377,477
124.402,604
124.427,748
124.452,859
124.477,911
124.502,911
124.527,895
124.552,902
124.577,948
124.602,994
124.627,961
124.652,805
124.677,580
124.702,415
124.727,396
124.752,466
124.777,470
124.802,302
124.827,16
124.852,-218
124.877,-283
124.902,-214
124.927,-161
124.952,-240
124.977,-451
125.002,-696
125.027,-867
125.052,-896
125.077,-765
125.102,-497
125.127,-160
125.152,149
125.177,363
125.202,487
125.227,589
125.252,724
125.277,871
125.302,957
125.327,944
125.352,875
125.377,833
125.402,854
125.427,896
125.452,890
125.477,818
125.502,724
125.527,661
125.552,629
125.577,582
125.602,473
125.627,306
125.652,123
125.677,-28
125.702,-128
125.727,-179
125.752,-192
125.777,-195
125.802,-229
125.827,-335
125.852,-512
125.877,-685
125.902,-741
125.927,-605
125.952,-314
125.977,0
126.002,203
126.027,260
126.052,257
126.077,319
126.102,494
126.127,710
126.152,852
126.177,862
126.202,786
126.227,715
126.252,700
126.277,717
126.302,716
126.327,684
126.352,642
126.377,609
126.402,566
126.427,492
126.452,399
126.477,328
126.502,293
126.527,255
126.552,162
126.577,24
126.602,-91
126.627,-133
126.652,-146
126.677,-233
126.702,-431
126.727,-628
126.752,-642
126.777,-400
126.802,-20
126.827,278
126.852,379
126.877,354
126.902,370
126.927,514
126.952,717
126.977,846
127.002,841
127.027,759
127.052,697
127.077,697
127.102,726
127.127,725
127.152,662
127.177,545
127.202,402
127.227,276
127.252,207
127.277,203
127.302,216
127.327,179
127.352,62
127.377,-82
127.402,-180
127.427,-214
127.452,-258
127.477,-386
127.502,-574
127.527,-688
127.552,-602
127.577,-323
127.602,14
127.627,269
127.652,408
127.677,504
127.702,632
127.727,784
127.752,895
127.777,923
127.802,892
127.827,858
127.852,841
127.877,821
127.902,779
127.927,730
127.952,699
127.977,668
128.002,583
128.027,411
128.052,202
128.077,57
128.102,30
128.127,71
128.152,67
128.177,-38
128.202,-195
128.227,-306
128.252,-344
128.277,-389
128.302,-521
128.327,-709
128.352,-807
128.377,-686
128.402,-367
128.427,-9
128.452,240
128.477,371
128.502,482
128.527,649
128.552,838
128.577,952
128.602,951
128.627,896
128.652,877
128.677,911
128.702,939
128.727,907
128.752,835
128.777,782
128.802,765
128.827,723
128.852,589
128.877,381
128.902,202
128.927,141
128.952,178
128.977,191
129.002,76
129.027,-149
129.052,-355
129.077,-421
129.102,-356
129.127,-292
129.152,-361
129.177,-566
129.202,-771
129.227,-817
129.252,-647
129.277,-343
129.302,-36
129.327,198
129.352,370
129.377,522
129.402,671
129.427,802
129.452,900
129.477,964
129.502,992
129.527,971
129.552,894
129.577,793
129.602,728
129.627,728
129.652,759
129.677,756
129.702,691
129.727,596
129.752,520
129.777,471
129.802,402
129.827,274
129.852,102
129.877,-56
129.902,-154
129.927,-187
129.952,-189
129.977,-196
130.002,-244
130.027,-358
130.052,-533
130.077,-706
130.102,-765
130.127,-627
130.152,-324
130.177,0
130.202,197
130.227,238
130.252,232
130.277,315
130.302,521
130.327,756
130.352,895
130.377,905
130.402,856
130.427,836
130.452,866
130.477,893
130.502,865
130.527,797
130.552,740
130.577,721
130.602,705
130.627,641
130.652,517
130.677,367
130.702,230
130.727,118
130.752,34
130.777,-4
130.802,10
130.827,35
130.852,-17
130.877,-190
130.902,-398
130.927,-490
130.952,-403
130.977,-260
131.002,-265
131.027,-476
131.052,-706
131.077,-681
131.102,-309
131.127,209
131.152,573
131.177,651
131.202,575
131.227,566
131.252,701
131.277,870
131.302,932
131.327,871
131.352,788
131.377,771
131.402,809
131.427,828
131.452,787
131.477,713
131.502,646
131.527,598
131.552,549
131.577,488
131.602,415
131.627,327
131.652,206
131.677,50
131.702,-109
131.727,-218
131.752,-243
131.777,-210
131.802,-190
131.827,-253
131.852,-422
131.877,-639
131.902,-776
131.927,-701
131.952,-384
131.977,51
132.002,401
132.027,533
132.052,494
132.077,459
132.102,555
132.127,742
132.152,874
132.177,853
132.202,729
132.227,626
132.252,612
132.277,644
132.302,648
132.327,610
132.352,569
132.377,543
132.402,499
132.427,403
132.452,280
132.477,191
132.502,152
132.527,108
132.552,4
132.577,-136
132.602,-236
132.627,-267
132.652,-307
132.677,-447
132.702,-657
132.727,-763
132.752,-595
132.777,-170
132.802,304
132.827,605
132.852,674
132.877,635
132.902,645
132.927,744
132.952,863
132.977,921
133.002,906
133.027,851
133.052,781
133.077,700
133.102,626
133.127,596
133.152,612
133.177,611
133.202,515
133.227,325
133.252,142
133.277,73
133.302,116
133.327,154
133.352,82
133.377,-84
133.402,-232
133.427,-288
133.452,-303
133.477,-391
133.502,-580
133.527,-756
133.552,-763
133.577,-550
133.602,-218
133.627,82
133.652,278
133.677,407
133.702,540
133.727,698
133.752,836
133.777,907
133.802,911
133.827,892
133.852,885
133.877,889
133.902,878
133.927,840
133.952,792
133.977,751
134.002,708
134.027,622
134.052,465
134.077,266
134.102,109
134.127,59
134.152,94
134.177,119
134.202,52
134.227,-91
134.252,-222
134.277,-277
134.302,-301
134.327,-393
134.352,-580
134.377,-757
134.402,-773
134.427,-572
134.452,-251
134.477,42
134.502,237
134.527,373
134.552,516
134.577,676
134.602,804
134.627,866
134.652,880
134.677,883
134.702,887
134.727,876
134.752,846
134.777,819
134.802,809
134.827,788
134.852,713
134.877,571
134.902,406
134.927,280
134.952,220
134.977,207
135.002,204
135.027,176
135.052,97
135.077,-36
135.102,-187
135.127,-284
135.152,-278
135.177,-215
135.202,-217
135.227,-371
135.252,-616
135.277,-770
135.302,-680
135.327,-367
135.352,-2
135.377,249
135.402,367
135.427,449
135.452,586
135.477,766
135.502,898
135.527,923
135.552,871
135.577,818
135.602,809
135.627,827
135.652,826
135.677,780
135.702,704
135.727,630
135.752,577
135.777,535
135.802,479
135.827,384
135.852,246
135.877,89
135.902,-45
135.927,-126
135.952,-146
135.977,-135
136.002,-139
136.027,-197
136.052,-324
136.077,-487
136.102,-613
136.127,-621
136.152,-477
136.177,-232
136.202,2
136.227,140
136.252,183
136.277,221
136.302,339
136.327,539
136.352,739
136.377,852
136.402,864
136.427,835
136.452,826
136.477,847
136.502,857
136.527,827
136.552,774
136.577,732
136.602,712
136.627,685
136.652,617
136.677,501
136.702,361
136.727,225
136.752,115
136.777,49
136.802,39
136.827,69
136.852,74
136.877,-11
136.902,-184
136.927,-344
136.952,-378
136.977,-284
137.002,-193
137.027,-242
137.052,-423
137.077,-568
137.102,-502
137.127,-216
137.152,131
137.177,377
137.202,489
137.227,554
137.252,647
137.277,745
137.302,784
137.327,757
137.352,728
137.377,744
137.402,778
137.427,768
137.452,702
137.477,631
137.502,592
137.527,559
137.552,487
137.577,382
137.602,300
137.627,260
137.652,205
137.677,63
137.702,-143
137.727,-298
137.752,-317
137.777,-255
137.802,-257
137.827,-386
137.852,-538
137.877,-536
137.902,-313
137.927,25
137.952,312
137.977,473
138.002,558
138.027,645
138.052,742
138.077,796
138.102,776
138.127,715
138.152,669
138.177,662
138.202,664
138.227,639
138.252,579
138.277,505
138.302,436
138.327,373
138.352,305
138.377,225
138.402,132
138.427,38
138.452,-40
138.477,-103
138.502,-176
138.527,-290
138.552,-433
138.577,-529
138.602,-486
138.627,-282
138.652,1
138.677,242
138.702,384
138.727,473
138.752,580
138.777,707
138.802,779
138.827,745
138.852,645
138.877,575
138.902,581
138.927,612
138.952,595
138.977,525
139.002,465
139.027,450
139.052,419
139.077,285
139.102,54
139.127,-146
139.152,-201
139.177,-138
139.202,-110
139.227,-233
139.252,-445
139.277,-558
139.302,-446
139.327,-162
139.352,128
139.377,314
139.402,424
139.427,549
139.452,717
139.477,866
139.502,925
139.527,896
139.552,838
139.577,798
139.602,767
139.627,717
139.652,649
139.677,590
139.702,547
139.727,489
139.752,376
139.777,203
139.802,4
139.827,-170
139.852,-281
139.877,-310
139.902,-283
139.927,-279
139.952,-388
139.977,-622
140.002,-848
140.027,-862
140.052,-555
140.077,-43
140.102,407
140.127,601
140.152,573
140.177,528
140.202,629
140.227,849
140.252,1029
140.277,1058
140.302,973
140.327,894
140.352,883
140.377,900
140.402,877
140.427,797
140.452,698
140.477,617
140.502,549
140.527,474
140.552,385
140.577,285
140.602,161
140.627,-6
140.652,-203
140.677,-361
140.702,-416
140.727,-379
140.752,-343
140.777,-407
140.802,-582
140.827,-785
140.852,-900
140.877,-860
140.902,-669
140.927,-381
140.952,-68
140.977,203
141.002,400
141.027,543
141.052,688
141.077,872
141.102,1062
141.127,1169
141.152,1139
141.177,1014
141.202,896
141.227,861
141.252,894
141.277,925
141.302,911
141.327,857
141.352,790
141.377,712
141.402,609
141.427,492
141.452,393
141.477,325
141.502,260
141.527,162
141.552,41
141.577,-55
141.602,-111
141.627,-170
141.652,-282
141.677,-434
141.702,-548
141.727,-583
141.752,-604
141.777,-725
141.802,-949
141.827,-1112
141.852,-1002
141.877,-568
141.902,2
141.927,433
141.952,583
141.977,544
142.002,526
142.027,658
142.052,897
142.077,1099
142.102,1163
142.127,1102
142.152,1001
142.177,935
142.202,917
142.227,921
142.252,924
142.277,919
142.302,903
142.327,856
142.352,759
142.377,625
142.402,498
142.427,418
142.452,370
142.477,297
142.502,162
142.527,2
142.552,-110
142.577,-156
142.602,-207
142.627,-348
142.652,-558
142.677,-705
142.702,-682
142.727,-542
142.752,-466
142.777,-571
142.802,-771
142.827,-842
142.852,-643
142.877,-247
142.902,136
142.927,366
142.952,476
142.977,584
143.002,749
143.027,920
143.052,1019
143.077,1030
143.102,1001
143.127,980
143.152,979
143.177,981
143.202,976
143.227,950
143.252,878
143.277,740
143.302,561
143.327,405
143.352,330
143.377,333
143.402,355
143.427,327
143.452,228
143.477,91
143.502,-36
143.527,-125
143.552,-183
143.577,-250
143.602,-366
143.627,-532
143.652,-687
143.677,-744
143.702,-659
143.727,-478
143.752,-296
143.777,-177
143.802,-98
143.827,8
143.852,183
143.877,400
143.902,603
143.927,757
143.952,863
143.977,924
144.002,944
144.027,933
144.052,918
144.077,921
144.102,933
144.127,926
144.152,889
144.177,840
144.202,793
144.227,725
144.252,595
144.277,405
144.302,224
144.327,131
144.352,137
144.377,173
144.402,152
144.427,45
144.452,-105
144.477,-238
144.502,-320
144.527,-372
144.552,-440
144.577,-561
144.602,-734
144.627,-893
144.652,-929
144.677,-764
144.702,-417
144.727,-14
144.752,303
144.777,484
144.802,586
144.827,700
144.852,854
144.877,996
144.902,1063
144.927,1047
144.952,993
144.977,956
145.002,956
145.027,973
145.052,962
145.077,880
145.102,719
145.127,529
145.152,388
145.177,346
145.202,373
145.227,378
145.252,302
145.277,168
145.302,48
145.327,-26
145.352,-94
145.377,-201
145.402,-331
145.427,-426
145.452,-477
145.477,-549
145.502,-704
145.527,-888
145.552,-945
145.577,-756
145.602,-366
145.627,52
145.652,357
145.677,534
145.702,664
145.727,800
145.752,915
145.777,957
145.802,926
145.827,876
145.852,857
145.877,871
145.902,890
145.927,894
145.952,875
145.977,828
146.002,752
146.027,662
146.052,582
146.077,515
146.102,440
146.127,334
146.152,214
146.177,121
146.202,61
146.227,-6
146.252,-121
146.277,-258
146.302,-353
146.327,-391
146.352,-449
146.377,-603
146.402,-812
146.427,-914
146.452,-771
146.477,-408
146.502,0
146.527,296
146.552,454
146.577,561
146.602,684
146.627,803
146.652,862
146.677,855
146.702,829
146.727,827
146.752,841
146.777,840
146.802,818
146.827,791
146.852,762
146.877,706
146.902,597
146.927,446
146.952,293
146.977,177
147.002,118
147.027,115
147.052,138
147.077,121
147.102,5
147.127,-191
147.152,-356
147.177,-369
147.202,-245
147.227,-146
147.252,-233
147.277,-478
147.302,-659
147.327,-564
147.352,-199
147.377,224
147.402,499
147.427,595
147.452,636
147.477,729
147.502,856
147.527,933
147.552,925
147.577,875
147.602,840
147.627,829
147.652,826
147.677,821
147.702,811
147.727,760
147.752,627
147.777,425
147.802,243
147.827,174
147.852,204
147.877,218
147.902,108
147.927,-108
147.952,-309
147.977,-383
148.002,-335
148.027,-272
148.052,-304
148.077,-470
148.102,-703
148.127,-869
148.152,-820
148.177,-498
148.202,-1
148.227,451
148.252,675
148.277,666
148.302,595
148.327,633
148.352,782
148.377,903
148.402,884
148.427,772
148.452,702
148.477,733
148.502,789
148.527,767
148.552,662
148.577,560
148.602,519
148.627,494
148.652,413
148.677,278
148.702,164
148.727,113
148.752,80
148.777,-1
148.802,-124
148.827,-213
148.852,-244
148.877,-293
148.902,-440
148.927,-636
148.952,-700
148.977,-494
149.002,-77
149.027,340
149.052,587
149.077,670
149.102,704
149.127,764
149.152,820
149.177,816
149.202,767
149.227,740
149.252,756
149.277,756
149.302,673
149.327,528
149.352,416
149.377,400
149.402,438
149.427,436
149.452,349
149.477,216
149.502,98
149.527,10
149.552,-78
149.577,-182
149.602,-281
149.627,-360
149.652,-445
149.677,-575
149.702,-722
149.727,-776
149.752,-626
149.777,-281
149.802,121
149.827,421
149.852,569
149.877,644
149.902,752
149.927,910
149.952,1031
149.977,1024
150.002,903
150.027,772
150.052,731
150.077,780
150.102,831
150.127,806
150.152,712
150.177,619
150.202,571
150.227,534
150.252,435
150.277,252
150.302,43
150.327,-102
150.352,-153
150.377,-151
150.402,-161
150.427,-211
150.452,-293
150.477,-400
150.502,-539
150.527,-689
150.552,-770
150.577,-682
150.602,-393
150.627,1
150.652,344
150.677,535
150.702,605
150.727,664
150.752,787
150.777,937
150.802,1015
150.827,964
150.852,834
150.877,733
150.902,734
150.927,806
150.952,853
150.977,811
151.002,703
151.027,610
151.052,571
151.077,541
151.102,434
151.127,229
151.152,8
151.177,-117
151.202,-122
151.227,-85
151.252,-111
151.277,-216
151.302,-337
151.327,-422
151.352,-503
151.377,-637
151.402,-794
151.427,-829
151.452,-617
151.477,-197
151.502,231
151.527,486
151.552,563
151.577,604
151.602,724
151.627,887
151.652,964
151.677,896
151.702,769
151.727,711
151.752,759
151.777,826
151.802,818
151.827,733
151.852,646
151.877,605
151.902,576
151.927,493
151.952,339
151.977,161
152.002,18
152.027,-73
152.052,-120
152.077,-124
152.102,-88
152.127,-56
152.152,-115
152.177,-309
152.202,-562
152.227,-700
152.252,-585
152.277,-240
152.302,160
152.327,438
152.352,543
152.377,568
152.402,623
152.427,728
152.452,810
152.477,801
152.502,720
152.527,651
152.552,654
152.577,700
152.602,708
152.627,624
152.652,470
152.677,313
152.702,198
152.727,125
152.752,75
152.777,39
152.802,12
152.827,-31
152.852,-139
152.877,-316
152.902,-484
152.927,-521
152.952,-362
152.977,-75
153.002,188
153.027,316
153.052,324
153.077,326
153.102,415
153.127,583
153.152,737
153.177,795
153.202,747
153.227,654
153.252,583
153.277,562
153.302,572
153.327,577
153.352,549
153.377,483
153.402,395
153.427,307
153.452,226
153.477,137
153.502,31
153.527,-80
153.552,-174
153.577,-244
153.602,-321
153.627,-440
153.652,-584
153.677,-669
153.702,-606
153.727,-371
153.752,-40
153.777,278
153.802,514
153.827,666
153.852,765
153.877,831
153.902,866
153.927,871
153.952,856
153.977,833
154.002,804
154.027,766
154.052,725
154.077,686
154.102,638
154.127,565
154.152,467
154.177,363
154.202,277
154.227,201
154.252,109
154.277,-7
154.302,-120
154.327,-196
154.352,-246
154.377,-325
154.402,-468
154.427,-633
154.452,-717
154.477,-636
154.502,-397
154.527,-89
154.552,184
154.577,376
154.602,508
154.627,629
154.652,772
154.677,922
154.702,1024
154.727,1029
154.752,936
154.777,806
154.802,725
154.827,731
154.852,780
154.877,790
154.902,722
154.927,612
154.952,527
154.977,485
155.002,435
155.027,307
155.052,93
155.077,-146
155.102,-325
155.127,-401
155.152,-388
155.177,-346
155.202,-343
155.227,-422
155.252,-572
155.277,-715
155.302,-743
155.327,-593
155.352,-310
155.377,-23
155.402,150
155.427,200
155.452,223
155.477,330
155.502,544
155.527,788
155.552,954
155.577,1001
155.602,971
155.627,943
155.652,949
155.677,965
155.702,943
155.727,876
155.752,802
155.777,758
155.802,738
155.827,693
155.852,585
155.877,424
155.902,264
155.927,148
155.952,85
155.977,61
156.002,58
156.027,52
156.052,3
156.077,-124
156.102,-301
156.127,-430
156.152,-429
156.177,-341
156.202,-324
156.227,-501
156.252,-792
156.277,-942
156.302,-743
156.327,-252
156.352,239
156.377,468
156.402,431
156.427,357
156.452,455
156.477,714
156.502,942
156.527,991
156.552,899
156.577,817
156.602,834
156.627,895
156.652,898
156.677,819
156.702,732
156.727,701
156.752,701
156.777,656
156.802,541
156.827,416
156.852,348
156.877,329
156.902,287
156.927,178
156.952,45
156.977,-33
157.002,-50
157.027,-85
157.052,-212
157.077,-392
157.102,-497
157.127,-450
157.152,-324
157.177,-284
157.202,-406
157.227,-581
157.252,-607
157.277,-387
157.302,-22
157.327,293
157.352,462
157.377,539
157.402,630
157.427,758
157.452,857
157.477,869
157.502,829
157.527,816
157.552,855
157.577,892
157.602,867
157.627,793
157.652,726
157.677,695
157.702,664
157.727,590
157.752,487
157.777,403
157.802,355
157.827,304
157.852,213
157.877,104
157.902,31
157.927,-3
157.952,-68
157.977,-220
158.002,-413
158.027,-541
158.052,-558
158.077,-547
158.102,-617
158.127,-755
158.152,-799
158.177,-603
158.202,-200
158.227,209
158.252,459
158.277,559
158.302,647
158.327,807
158.352,971
158.377,1020
158.402,931
158.427,809
158.452,768
158.477,811
158.502,853
158.527,835
158.552,779
158.577,733
158.602,699
158.627,635
158.652,530
158.677,431
158.702,376
158.727,339
158.752,260
158.777,135
158.802,30
158.827,-5
158.852,-24
158.877,-121
158.902,-303
158.927,-444
158.952,-420
158.977,-279
159.002,-224
159.027,-397
159.052,-695
159.077,-841
159.102,-648
159.127,-210
159.152,207
159.177,422
159.202,482
159.227,550
159.252,703
159.277,863
159.302,925
159.327,888
159.352,844
159.377,854
159.402,890
159.427,889
159.452,842
159.477,790
159.502,761
159.527,724
159.552,646
159.577,542
159.602,457
159.627,402
159.652,338
159.677,237
159.702,128
159.727,61
159.752,24
159.777,-59
159.802,-235
159.827,-440
159.852,-560
159.877,-567
159.902,-565
159.927,-660
159.952,-808
159.977,-830
160.002,-595
160.027,-172
160.052,226
160.077,456
160.102,555
160.127,657
160.152,812
160.177,941
160.202,952
160.227,872
160.252,819
160.277,858
160.302,927
160.327,918
160.352,802
160.377,657
160.402,566
160.427,539
160.452,526
160.477,493
160.502,446
160.527,391
160.552,308
160.577,189
160.602,75
160.627,18
160.652,2
160.677,-55
160.702,-205
160.727,-375
160.752,-432
160.777,-336
160.802,-213
160.827,-225
160.852,-378
160.877,-491
160.902,-376
160.927,-46
160.952,307
160.977,506
161.002,557
161.027,591
161.052,687
161.077,791
161.102,810
161.127,746
161.152,695
161.177,718
161.202,769
161.227,765
161.252,695
161.277,623
161.302,586
161.327,530
161.352,386
161.377,185
161.402,45
161.427,40
161.452,99
161.477,83
161.502,-53
161.527,-214
161.552,-293
161.577,-311
161.602,-392
161.627,-580
161.652,-745
161.677,-691
161.702,-374
161.727,42
161.752,344
161.777,469
161.802,533
161.827,659
161.852,833
161.877,941
161.902,919
161.927,829
161.952,780
161.977,805
162.002,841
162.027,822
162.052,755
162.077,694
162.102,658
162.127,607
162.152,495
162.177,326
162.202,150
162.227,10
162.252,-76
162.277,-113
162.302,-115
162.327,-124
162.352,-196
162.377,-357
162.402,-550
162.427,-660
162.452,-614
162.477,-448
162.502,-274
162.527,-168
162.552,-110
162.577,-23
162.602,133
162.627,337
162.652,535
162.677,700
162.702,830
162.727,922
162.752,965
162.777,970
162.802,966
162.827,969
162.852,952
162.877,876
162.902,748
162.927,632
162.952,591
162.977,612
163.002,621
163.027,560
163.052,448
163.077,343
163.102,273
163.127,201
163.152,70
163.177,-125
163.202,-325
163.227,-451
163.252,-469
163.277,-418
163.302,-396
163.327,-492
163.352,-716
163.377,-954
163.402,-1015
163.427,-771
163.452,-275
163.477,246
163.502,561
163.527,612
163.552,544
163.577,557
163.602,719
163.627,927
163.652,1035
163.677,1002
163.702,912
163.727,866
163.752,887
163.777,913
163.802,884
163.827,801
163.852,709
163.877,646
163.902,603
163.927,551
163.952,463
163.977,337
164.002,188
164.027,36
164.052,-93
164.077,-177
164.102,-206
164.127,-201
164.152,-215
164.177,-302
164.202,-467
164.227,-649
164.252,-744
164.277,-678
164.302,-469
164.327,-216
164.352,-30
164.377,56
164.402,103
164.427,197
164.452,373
164.477,587
164.502,762
164.527,856
164.552,884
164.577,885
164.602,887
164.627,888
164.652,876
164.677,851
164.702,822
164.727,794
164.752,760
164.777,708
164.802,634
164.827,549
164.852,471
164.877,409
164.902,358
164.927,294
164.952,198
164.977,62
165.002,-99
165.027,-249
165.052,-343
165.077,-358
165.102,-318
165.127,-304
165.152,-399
165.177,-611
165.202,-824
165.227,-859
165.252,-609
165.277,-150
165.302,298
165.327,541
165.352,561
165.377,509
165.402,549
165.427,700
165.452,852
165.477,892
165.502,826
165.527,751
165.552,745
165.577,788
165.602,806
165.627,758
165.652,671
165.677,596
165.702,549
165.727,506
165.752,444
165.777,360
165.802,256
165.827,128
165.852,-20
165.877,-152
165.902,-210
165.927,-179
165.952,-128
165.977,-163
166.002,-337
166.027,-573
166.052,-702
166.077,-591
166.102,-250
166.127,169
166.152,482
166.177,601
166.202,584
166.227,564
166.252,626
166.277,748
166.302,835
166.327,821
166.352,724
166.377,617
166.402,552
166.427,524
166.452,501
166.477,471
166.502,446
166.527,426
166.552,379
166.577,276
166.602,139
166.627,29
166.652,-18
166.677,-46
166.702,-126
166.727,-276
166.752,-419
166.777,-455
166.802,-364
166.827,-233
166.852,-166
166.877,-172
166.902,-161
166.927,-43
166.952,177
166.977,416
167.002,591
167.027,700
167.052,788
167.077,877
167.102,932
167.127,920
167.152,861
167.177,819
167.202,831
167.227,860
167.252,840
167.277,748
167.302,630
167.327,539
167.352,477
167.377,398
167.402,277
167.427,142
167.452,40
167.477,-30
167.502,-115
167.527,-244
167.552,-382
167.577,-473
167.602,-521
167.627,-596
167.652,-747
167.677,-909
167.702,-935
167.727,-733
167.752,-372
167.777,-21
167.802,204
167.827,332
167.852,467
167.877,654
167.902,834
167.927,925
167.952,919
167.977,887
168.002,887
168.027,912
168.052,913
168.077,876
168.102,832
168.127,807
168.152,772
168.177,679
168.202,523
168.227,359
168.252,250
168.277,211
168.302,208
168.327,198
168.352,160
168.377,87
168.402,-20
168.427,-139
168.452,-214
168.477,-200
168.502,-129
168.527,-112
168.552,-243
168.577,-482
168.602,-653
168.627,-578
168.652,-234
168.677,221
168.702,579
168.727,745
168.752,783
168.777,821
168.802,917
168.827,1021
168.852,1039
168.877,935
168.902,768
168.927,640
168.952,611
168.977,660
169.002,709
169.027,695
169.052,617
169.077,524
169.102,459
169.127,413
169.152,329
169.177,172
169.202,-30
169.227,-195
169.252,-251
169.277,-204
169.302,-135
169.327,-142
169.352,-265
169.377,-462
169.402,-639
169.427,-712
169.452,-659
169.477,-521
169.502,-371
169.527,-259
169.552,-181
169.577,-86
169.602,67
169.627,278
169.652,493
169.677,656
169.702,752
169.727,806
169.752,848
169.777,879
169.802,876
169.827,834
169.852,780
169.877,747
169.902,735
169.927,704
169.952,620
169.977,498
170.002,393
170.027,338
170.052,307
170.077,246
170.102,140
170.127,42
170.152,6
170.177,7
170.202,-59
170.227,-263
170.252,-525
170.277,-649
170.302,-488
170.327,-97
170.352,299
170.377,493
170.402,473
170.427,407
170.452,456
170.477,619
170.502,755
170.527,751
170.552,639
170.577,546
170.602,550
170.627,604
170.652,605
170.677,516
170.702,399
170.727,330
170.752,310
170.777,269
170.802,162
170.827,26
170.852,-61
170.877,-88
170.902,-128
170.927,-258
170.952,-448
170.977,-560
171.002,-462
171.027,-166
171.052,171
171.077,380
171.102,417
171.127,387
171.152,427
171.177,579
171.202,759
171.227,849
171.252,808
171.277,691
171.302,590
171.327,553
171.352,564
171.377,579
171.402,567
171.427,519
171.452,443
171.477,351
171.502,256
171.527,162
171.552,67
171.577,-31
171.602,-129
171.627,-214
171.652,-290
171.677,-380
171.702,-508
171.727,-640
171.752,-683
171.777,-548
171.802,-239
171.827,134
171.852,438
171.877,616
171.902,712
171.927,797
171.952,884
171.977,934
172.002,925
172.027,891
172.052,881
172.077,887
172.102,846
172.127,716
172.152,546
172.177,438
172.202,438
172.227,481
172.252,460
172.277,340
172.302,192
172.327,98
172.352,54
172.377,-23
172.402,-184
172.427,-373
172.452,-489
172.477,-511
172.502,-527
172.527,-625
172.552,-755
172.577,-756
172.602,-520
172.627,-125
172.652,224
172.677,399
172.702,458
172.727,559
172.752,766
172.777,977
172.802,1052
172.827,980
172.852,889
172.877,893
172.902,962
172.927,964
172.952,830
172.977,635
173.002,515
173.027,518
173.052,561
173.077,527
173.102,383
173.127,194
173.152,48
173.177,-13
173.202,-9
173.227,13
173.252,-4
173.277,-113
173.302,-299
173.327,-471
173.352,-518
173.377,-426
173.402,-321
173.427,-350
173.452,-517
173.477,-651
173.502,-565
173.527,-250
173.552,118
173.577,362
173.602,468
173.627,559
173.652,719
173.677,900
173.702,995
173.727,975
173.752,919
173.777,902
173.802,918
173.827,915
173.852,881
173.877,853
173.902,836
173.927,770
173.952,610
173.977,410
174.002,296
174.027,324
174.052,403
174.077,396
174.102,272
174.127,133
174.152,76
174.177,62
174.202,-31
174.227,-245
174.252,-471
174.277,-574
174.302,-558
174.327,-561
174.352,-676
174.377,-818
174.402,-796
174.427,-521
174.452,-111
174.477,233
174.502,419
174.527,514
174.552,632
174.577,790
174.602,910
174.627,929
174.652,876
174.677,833
174.702,839
174.727,861
174.752,850
174.777,802
174.802,750
174.827,717
174.852,684
174.877,623
174.902,530
174.927,432
174.952,359
174.977,312
175.002,267
175.027,189
175.052,55
175.077,-125
175.102,-303
175.127,-408
175.152,-405
175.177,-339
175.202,-320
175.227,-432
175.252,-643
175.277,-807
175.302,-776
175.327,-519
175.352,-149
175.377,179
175.402,389
175.427,512
175.452,617
175.477,728
175.502,817
175.527,852
175.552,849
175.577,845
175.602,862
175.627,880
175.652,874
175.677,845
175.702,810
175.727,773
175.752,722
175.777,648
175.802,566
175.827,496
175.852,436
175.877,365
175.902,275
175.927,185
175.952,121
175.977,68
176.002,-15
176.027,-144
176.052,-272
176.077,-348
176.102,-391
176.127,-478
176.152,-644
176.177,-797
176.202,-772
176.227,-500
176.252,-94
176.277,243
176.302,406
176.327,462
176.352,540
176.377,676
176.402,783
176.427,778
176.452,695
176.477,640
176.502,669
176.527,723
176.552,719
176.577,651
176.602,584
176.627,555
176.652,522
176.677,430
176.702,303
176.727,215
176.752,194
176.777,164
176.802,45
176.827,-121
176.852,-203
176.877,-128
176.902,-3
176.927,-20
176.952,-239
176.977,-494
177.002,-539
177.027,-288
177.052,106
177.077,417
177.102,547
177.127,579
177.152,639
177.177,750
177.202,840
177.227,848
177.252,795
177.277,742
177.302,708
177.327,664
177.352,596
177.377,537
177.402,526
177.427,541
177.452,514
177.477,408
177.502,264
177.527,156
177.552,106
177.577,55
177.602,-51
177.627,-195
177.652,-301
177.677,-339
177.702,-377
177.727,-505
177.752,-712
177.777,-856
177.802,-786
177.827,-485
177.852,-97
177.877,208
177.902,376
177.927,483
177.952,619
177.977,787
178.002,920
178.027,975
178.052,979
178.077,981
178.102,982
178.127,938
178.152,834
178.177,724
178.202,675
178.227,695
178.252,713
178.277,662
178.302,547
178.327,433
178.352,364
178.377,308
178.402,201
178.427,21
178.452,-180
178.477,-323
178.502,-365
178.527,-341
178.552,-329
178.577,-399
178.602,-565
178.627,-764
178.652,-879
178.677,-808
178.702,-539
178.727,-168
178.752,168
178.777,392
178.802,525
178.827,637
178.852,772
178.877,911
178.902,1009
178.927,1041
178.952,1011
178.977,937
179.002,850
179.027,791
179.052,791
179.077,834
179.102,854
179.127,793
179.152,673
179.177,575
179.202,542
179.227,511
179.252,382
179.277,148
179.302,-59
179.327,-111
179.352,-34
179.377,-3
179.402,-156
179.427,-428
179.452,-620
179.477,-620
179.502,-533
179.527,-556
179.552,-732
179.577,-878
179.602,-767
179.627,-378
179.652,75
179.677,365
179.702,461
179.727,515
179.752,660
179.777,865
179.802,992
179.827,977
179.852,903
179.877,889
179.902,949
179.927,982
179.952,900
179.977,733
180.002,599
180.027,572
180.052,613
180.077,626
180.102,558
180.127,444
180.152,352
180.177,299
180.202,242
180.227,126
180.252,-53
180.277,-239
180.302,-354
180.327,-368
180.352,-320
180.377,-307
180.402,-405
180.427,-600
180.452,-779
180.477,-799
180.502,-600
180.527,-252
180.552,98
180.577,345
180.602,486
180.627,587
180.652,702
180.677,823
180.702,908
180.727,933
180.752,913
180.777,882
180.802,859
180.827,848
180.852,844
180.877,833
180.902,795
180.927,721
180.952,629
180.977,552
181.002,503
181.027,453
181.052,354
181.077,195
181.102,20
181.127,-108
181.152,-169
181.177,-183
181.202,-186
181.227,-205
181.252,-269
181.277,-408
181.302,-607
181.327,-760
181.352,-713
181.377,-405
181.402,39
181.427,386
181.452,493
181.477,434
181.502,413
181.527,540
181.552,729
181.577,814
181.602,743
181.627,631
181.652,613
181.677,686
181.702,732
181.727,675
181.752,567
181.777,509
181.802,511
181.827,488
181.852,376
181.877,229
181.902,147
181.927,141
181.952,112
181.977,-22
182.002,-203
182.027,-284
182.052,-207
182.077,-86
182.102,-93
182.127,-260
182.152,-433
182.177,-421
182.202,-184
182.227,138
182.252,379
182.277,490
182.302,542
182.327,615
182.352,710
182.377,767
182.402,752
182.427,696
182.452,661
182.477,668
182.502,687
182.527,668
182.552,593
182.577,495
182.602,417
182.627,370
182.652,322
182.677,231
182.702,103
182.727,-12
182.752,-72
182.777,-96
182.802,-158
182.827,-300
182.852,-465
182.877,-541
182.902,-463
182.927,-290
182.952,-145
182.977,-92
183.002,-80
183.027,-11
183.052,153
183.077,361
183.102,545
183.127,683
183.152,795
183.177,886
183.202,929
183.227,911
183.252,865
183.277,838
183.302,832
183.327,808
183.352,744
183.377,671
183.402,629
183.427,591
183.452,487
183.477,296
183.502,104
183.527,26
183.552,66
183.577,91
183.602,-31
183.627,-276
183.652,-475
183.677,-499
183.702,-409
183.727,-390
183.752,-537
183.777,-736
183.802,-768
183.827,-540
183.852,-171
183.877,133
183.902,287
183.927,376
183.952,527
183.977,752
184.002,947
184.027,1017
184.052,987
184.077,959
184.102,985
184.127,1012
184.152,954
184.177,812
184.202,681
184.227,649
184.252,698
184.277,723
184.302,654
184.327,526
184.352,432
184.377,406
184.402,378
184.427,262
184.452,56
184.477,-137
184.502,-222
184.527,-204
184.552,-181
184.577,-230
184.602,-338
184.627,-441
184.652,-512
184.677,-592
184.702,-716
184.727,-831
184.752,-818
184.777,-608
184.802,-262
184.827,66
184.852,273
184.877,384
184.902,506
184.927,701
184.952,912
184.977,1029
185.002,1004
185.027,907
185.052,854
185.077,891
185.102,960
185.127,971
185.152,902
185.177,812
185.202,769
185.227,764
185.252,719
185.277,580
185.302,388
185.327,248
185.352,223
185.377,269
185.402,283
185.427,211
185.452,90
185.477,-4
185.502,-55
185.527,-116
185.552,-235
185.577,-387
185.602,-500
185.627,-544
185.652,-571
185.677,-650
185.702,-758
185.727,-777
185.752,-604
185.777,-273
185.802,67
185.827,285
185.852,383
185.877,472
185.902,635
185.927,836
185.952,965
185.977,968
186.002,902
186.027,868
186.052,899
186.077,939
186.102,918
186.127,839
186.152,767
186.177,746
186.202,741
186.227,680
186.252,535
186.277,358
186.302,228
186.327,180
186.352,184
186.377,187
186.402,160
186.427,93
186.452,-10
186.477,-137
186.502,-249
186.527,-297
186.552,-279
186.577,-267
186.602,-354
186.627,-552
186.652,-746
186.677,-775
186.702,-570
186.727,-220
186.752,106
186.777,305
186.802,403
186.827,501
186.852,653
186.877,821
186.902,930
186.927,947
186.952,906
186.977,872
187.002,878
187.027,911
187.052,924
187.077,875
187.102,755
187.127,605
187.152,494
187.177,466
187.202,495
187.227,506
187.252,438
187.277,315
187.302,213
187.327,170
187.352,134
187.377,14
187.402,-199
187.427,-404
187.452,-472
187.477,-401
187.502,-330
187.527,-401
187.552,-612
187.577,-797
187.602,-783
187.627,-543
187.652,-204
187.677,81
187.702,261
187.727,382
187.752,510
187.777,652
187.802,773
187.827,842
187.852,863
187.877,860
187.902,848
187.927,832
187.952,818
187.977,808
188.002,791
188.027,749
188.052,668
188.077,554
188.102,426
188.127,306
188.152,217
188.177,178
188.202,185
188.227,189
188.252,129
188.277,-14
188.302,-176
188.327,-251
188.352,-200
188.377,-110
188.402,-123
188.427,-285
188.452,-480
188.477,-521
188.502,-322
188.527,20
188.552,320
188.577,471
188.602,520
188.627,584
188.652,709
188.677,828
188.702,851
188.727,775
188.752,689
188.777,673
188.802,712
188.827,722
188.852,650
188.877,532
188.902,448
188.927,422
188.952,394
188.977,299
189.002,151
189.027,34
189.052,4
189.077,11
189.102,-48
189.127,-202
189.152,-354
189.177,-380
189.202,-277
189.227,-193
189.252,-278
189.277,-514
189.302,-710
189.327,-669
189.352,-373
189.377,10
189.402,291
189.427,420
189.452,494
189.477,623
189.502,810
189.527,967
189.552,1019
189.577,982
189.602,930
189.627,912
189.652,915
189.677,894
189.702,832
189.727,753
189.752,689
189.777,641
189.802,582
189.827,493
189.852,384
189.877,287
189.902,220
189.927,164
189.952,81
189.977,-41
190.002,-170
190.027,-260
190.052,-305
190.077,-362
190.102,-496
190.127,-693
190.152,-837
190.177,-789
190.202,-521
190.227,-160
190.252,104
190.277,184
190.302,157
190.327,187
190.352,368
190.377,639
190.402,854
190.427,926
190.452,886
190.477,830
190.502,820
190.527,840
190.552,847
190.577,829
190.602,807
190.627,787
190.652,741
190.677,650
190.702,539
190.727,458
190.752,419
190.777,375
190.802,275
190.827,137
190.852,32
190.877,-1
190.902,-23
190.927,-124
190.952,-306
190.977,-454
191.002,-455
191.027,-341
191.052,-278
191.077,-398
191.102,-632
191.127,-763
191.152,-625
191.177,-265
191.202,113
191.227,347
191.252,446
191.277,529
191.302,675
191.327,847
191.352,955
191.377,963
191.402,914
191.427,872
191.452,864
191.477,874
191.502,875
191.527,847
191.552,771
191.577,644
191.602,490
191.627,365
191.652,310
191.677,316
191.702,328
191.727,295
191.752,208
191.777,95
191.802,-9
191.827,-88
191.852,-145
191.877,-202
191.902,-288
191.927,-420
191.952,-566
191.977,-650
192.002,-601
192.027,-424
192.052,-207
192.077,-49
192.102,27
192.127,85
192.152,198
192.177,378
192.202,572
192.227,716
192.252,788
192.277,800
192.302,779
192.327,751
192.352,742
192.377,762
192.402,786
192.427,773
192.452,713
192.477,641
192.502,596
192.527,561
192.552,469
192.577,293
192.602,105
192.627,14
192.652,46
192.677,104
192.702,70
192.727,-62
192.752,-194
192.777,-251
192.802,-283
192.827,-390
192.852,-563
192.877,-651
192.902,-505
192.927,-161
192.952,186
192.977,376
193.002,435
193.027,514
193.052,689
193.077,876
193.102,937
193.127,853
193.152,745
193.177,734
193.202,807
193.227,854
193.252,806
193.277,701
193.302,619
193.327,580
193.352,534
193.377,430
193.402,274
193.427,117
193.452,-1
193.477,-64
193.502,-70
193.527,-45
193.552,-51
193.577,-152
193.602,-340
193.627,-502
193.652,-517
193.677,-390
193.702,-265
193.727,-287
193.752,-432
193.777,-520
193.802,-398
193.827,-93
193.852,228
193.877,434
193.902,542
193.927,651
193.952,803
193.977,948
194.002,1019
194.027,1020
194.052,997
194.077,970
194.102,914
194.127,822
194.152,742
194.177,724
194.202,751
194.227,743
194.252,653
194.277,524
194.302,433
194.327,390
194.352,323
194.377,164
194.402,-63
194.427,-261
194.452,-352
194.477,-345
194.502,-309
194.527,-314
194.552,-392
194.577,-547
194.602,-744
194.627,-890
194.652,-863
194.677,-605
194.702,-203
194.727,146
194.752,300
194.777,286
194.802,273
194.827,398
194.852,645
194.877,874
194.902,969
194.927,944
194.952,899
194.977,906
195.002,946
195.027,955
195.052,908
195.077,839
195.102,795
195.127,776
195.152,742
195.177,656
195.202,526
195.227,385
195.252,260
195.277,160
195.302,95
195.327,78
195.352,98
195.377,94
195.402,-4
195.427,-199
195.452,-392
195.477,-460
195.502,-384
195.527,-294
195.552,-355
195.577,-593
195.602,-841
195.627,-876
195.652,-620
195.677,-207
195.702,148
195.727,341
195.752,432
195.777,542
195.802,717
195.827,897
195.852,1001
195.877,1008
195.902,966
195.927,933
195.952,934
195.977,960
196.002,979
196.027,950
196.052,845
196.077,684
196.102,544
196.127,500
196.152,545
196.177,575
196.202,484
196.227,276
196.252,75
196.277,6
196.302,65
196.327,121
196.352,56
196.377,-117
196.402,-280
196.427,-347
196.452,-364
196.477,-456
196.502,-674
196.527,-915
196.552,-999
196.577,-829
196.602,-478
196.627,-120
196.652,116
196.677,238
196.702,338
196.727,486
196.752,659
196.777,790
196.802,845
196.827,856
196.852,874
196.877,911
196.902,939
196.927,938
196.952,921
196.977,904
197.002,863
197.027,754
197.052,571
197.077,384
197.102,281
197.127,283
197.152,318
197.177,298
197.202,205
197.227,95
197.252,22
197.277,-15
197.302,-63
197.327,-135
197.352,-204
197.377,-256
197.402,-327
197.427,-447
197.452,-568
197.477,-563
197.502,-343
197.527,31
197.552,386
197.577,584
197.602,641
197.627,680
197.652,783
197.677,906
197.702,954
197.727,897
197.752,806
197.777,756
197.802,745
197.827,709
197.852,616
197.877,505
197.902,430
197.927,389
197.952,330
197.977,233
198.002,140
198.027,93
198.052,64
198.077,-35
198.102,-239
198.127,-468
198.152,-601
198.177,-611
198.202,-604
198.227,-698
198.252,-867
198.277,-938
198.302,-754
198.327,-337
198.352,108
198.377,377
198.402,433
198.427,410
198.452,466
198.477,639
198.502,844
198.527,980
198.552,1021
198.577,1008
198.602,989
198.627,970
198.652,942
198.677,905
198.702,878
198.727,864
198.752,841
198.777,790
198.802,715
198.827,637
198.852,565
198.877,480
198.902,363
198.927,232
198.952,124
198.977,52
199.002,-14
199.027,-117
199.052,-248
199.077,-355
199.102,-409
199.127,-456
199.152,-574
199.177,-768
199.202,-924
199.227,-889
199.252,-617
199.277,-221
199.302,126
199.327,340
199.352,469
199.377,600
199.402,753
199.427,873
199.452,918
199.477,912
199.502,911
199.527,932
199.552,944
199.577,921
199.602,886
199.627,870
199.652,855
199.677,777
199.702,613
199.727,426
199.752,312
199.777,303
199.802,333
199.827,311
199.852,214
199.877,91
199.902,-8
199.927,-87
199.952,-174
199.977,-269
200.002,-355
200.027,-436
200.052,-556
200.077,-730
200.102,-879
200.127,-867
200.152,-625
200.177,-231
200.202,137
200.227,360
200.252,461
200.277,550
200.302,698
200.327,863
200.352,946
200.377,903
200.402,787
200.427,700
200.452,696
200.477,749
200.502,783
200.527,752
200.552,668
200.577,582
200.602,526
200.627,479
200.652,391
200.677,237
200.702,52
200.727,-96
200.752,-168
200.777,-183
200.802,-198
200.827,-249
200.852,-337
200.877,-449
200.902,-583
200.927,-727
200.952,-821
200.977,-769
201.002,-518
201.027,-129
201.052,244
201.077,475
201.102,568
201.127,637
201.152,778
201.177,967
201.202,1092
201.227,1076
201.252,966
201.277,885
201.302,910
201.327,1000
201.352,1050
201.377,1006
201.402,911
201.427,850
201.452,844
201.477,824
201.502,702
201.527,480
201.552,262
201.577,154
201.602,164
201.627,188
201.652,118
201.677,-46
201.702,-211
201.727,-301
201.752,-355
201.777,-480
201.802,-704
201.827,-907
201.852,-901
201.877,-620
201.902,-193
201.927,159
201.952,329
201.977,386
202.002,472
202.027,632
202.052,777
202.077,802
202.102,717
202.127,635
202.152,647
202.177,726
202.202,770
202.227,722
202.252,629
202.277,571
202.302,562
202.327,531
202.352,411
202.377,227
202.402,84
202.427,60
202.452,120
202.477,144
202.502,37
202.527,-174
202.552,-368
202.577,-433
202.602,-372
202.627,-307
202.652,-363
202.677,-559
202.702,-771
202.727,-836
202.752,-673
202.777,-339
202.802,28
202.827,321
202.852,515
202.877,650
202.902,762
202.927,865
202.952,951
202.977,1013
203.002,1038
203.027,1010
203.052,930
203.077,831
203.102,765
203.127,751
203.152,761
203.177,740
203.202,670
203.227,576
203.252,495
203.277,425
203.302,337
203.327,210
203.352,61
203.377,-75
203.402,-176
203.427,-231
203.452,-237
203.477,-214
203.502,-226
203.527,-349
203.552,-579
203.577,-779
203.602,-752
203.627,-419
203.652,78
203.677,475
203.702,609
203.727,553
203.752,514
203.777,619
203.802,806
203.827,919
203.852,890
203.877,796
203.902,752
203.927,781
203.952,815
203.977,786
204.002,699
204.027,610
204.052,551
204.077,509
204.102,460
204.127,390
204.152,290
204.177,139
204.202,-60
204.227,-254
204.252,-358
204.277,-340
204.302,-278
204.327,-298
204.352,-458
204.377,-682
204.402,-819
204.427,-765
204.452,-532
204.477,-216
204.502,83
204.527,313
204.552,471
204.577,583
204.602,685
204.627,791
204.652,885
204.677,929
204.702,907
204.727,853
204.752,822
204.777,830
204.802,835
204.827,790
204.852,699
204.877,612
204.902,559
204.927,507
204.952,412
204.977,282
205.002,181
205.027,142
205.052,111
205.077,6
205.102,-166
205.127,-297
205.152,-291
205.177,-196
205.202,-180
205.227,-352
205.252,-620
205.277,-758
205.302,-615
205.327,-253
205.352,117
205.377,344
205.402,440
205.427,516
205.452,643
205.477,792
205.502,894
205.527,920
205.552,897
205.577,865
205.602,844
205.627,838
205.652,841
205.677,828
205.702,757
205.727,607
205.752,422
205.777,296
205.802,280
205.827,329
205.852,339
205.877,254
205.902,115
205.927,6
205.952,-47
205.977,-98
206.002,-195
206.027,-321
206.052,-416
206.077,-468
206.102,-542
206.127,-686
206.152,-843
206.177,-865
206.202,-651
206.227,-257
206.252,144
206.277,414
206.302,552
206.327,654
206.352,787
206.377,917
206.402,971
206.427,933
206.452,877
206.477,878
206.502,930
206.527,944
206.552,852
206.577,686
206.602,556
206.627,542
206.652,606
206.677,622
206.702,501
206.727,277
206.752,86
206.777,33
206.802,94
206.827,143
206.852,76
206.877,-83
206.902,-226
206.927,-276
206.952,-279
206.977,-345
207.002,-522
207.027,-710
207.052,-747
207.077,-547
207.102,-184
207.127,176
207.152,420
207.177,551
207.202,644
207.227,747
207.252,839
207.277,873
207.302,848
207.327,810
207.352,805
207.377,830
207.402,846
207.427,822
207.452,769
207.477,715
207.502,658
207.527,559
207.552,394
207.577,200
207.602,62
207.627,36
207.652,82
207.677,92
207.702,-8
207.727,-179
207.752,-312
207.777,-351
207.802,-364
207.827,-468
207.852,-679
207.877,-859
207.902,-832
207.927,-551
207.952,-146
207.977,200
208.002,406
208.027,524
208.052,637
208.077,761
208.102,854
208.127,888
208.152,890
208.177,896
208.202,905
208.227,892
208.252,859
208.277,837
208.302,836
208.327,810
208.352,708
208.377,535
208.402,358
208.427,236
208.452,170
208.477,131
208.502,103
208.527,86
208.552,43
208.577,-81
208.602,-277
208.627,-426
208.652,-408
208.677,-266
208.702,-219
208.727,-434
208.752,-803
208.777,-984
208.802,-723
208.827,-128
208.852,417
208.877,620
208.902,541
208.927,473
208.952,612
208.977,873
209.002,1035
209.027,1009
209.052,904
209.077,866
209.102,912
209.127,948
209.152,912
209.177,839
209.202,785
209.227,747
209.252,683
209.277,591
209.302,509
209.327,446
209.352,343
209.377,157
209.402,-51
209.427,-161
209.452,-131
209.477,-67
209.502,-109
209.527,-271
209.552,-433
209.577,-499
209.602,-524
209.627,-635
209.652,-834
209.677,-948
209.702,-791
209.727,-380
209.752,65
209.777,341
209.802,440
209.827,511
209.852,663
209.877,849
209.902,954
209.927,941
209.952,887
209.977,875
210.002,900
210.027,900
210.052,846
210.077,782
210.102,749
210.127,728
210.152,660
210.177,522
210.202,353
210.227,207
210.252,111
210.277,60
210.302,49
210.327,62
210.352,49
210.377,-52
210.402,-245
210.427,-428
210.452,-477
210.477,-377
210.502,-259
210.527,-273
210.552,-416
210.577,-519
210.602,-410
210.627,-89
210.652,272
210.677,507
210.702,595
210.727,643
210.752,739
210.777,857
210.802,913
210.827,881
210.852,821
210.877,804
210.902,836
210.927,861
210.952,836
210.977,771
211.002,701
211.027,634
211.052,549
211.077,439
211.102,338
211.127,274
211.152,224
211.177,119
211.202,-83
211.227,-329
211.252,-495
211.277,-502
211.302,-398
211.327,-339
211.352,-447
211.377,-688
211.402,-872
211.427,-800
211.452,-430
211.477,78
211.502,486
211.527,659
211.552,646
211.577,607
211.602,660
211.627,794
211.652,910
211.677,932
211.702,867
211.727,776
211.752,708
211.777,668
211.802,643
211.827,625
211.852,615
211.877,598
211.902,548
211.927,457
211.952,348
211.977,259
212.002,205
212.027,157
212.052,81
212.077,-24
212.102,-123
212.127,-182
212.152,-218
212.177,-290
212.202,-432
212.227,-600
212.252,-678
212.277,-570
212.302,-279
212.327,86
212.352,393
212.377,573
212.402,654
212.427,700
212.452,752
212.477,798
212.502,815
212.527,796
212.552,754
212.577,698
212.602,632
212.627,571
212.652,540
212.677,545
212.702,554
212.727,513
212.752,408
212.777,279
212.802,179
212.827,114
212.852,42
212.877,-63
212.902,-178
212.927,-256
212.952,-307
212.977,-397
213.002,-561
213.027,-716
213.052,-713
213.077,-479
213.102,-111
213.127,204
213.152,366
213.177,435
213.202,538
213.227,715
213.252,877
213.277,920
213.302,852
213.327,775
213.352,769
213.377,810
213.402,817
213.427,757
213.452,675
213.477,622
213.502,586
213.527,504
213.552,347
213.577,156
213.602,3
213.627,-75
213.652,-102
213.677,-117
213.702,-148
213.727,-215
213.752,-337
213.777,-509
213.802,-664
213.827,-699
213.852,-556
213.877,-290
213.902,-38
213.927,92
213.952,118
213.977,148
214.002,273
214.027,483
214.052,684
214.077,796
214.102,817
214.127,808
214.152,818
214.177,848
214.202,862
214.227,836
214.252,785
214.277,735
214.302,698
214.327,660
214.352,599
214.377,499
214.402,366
214.427,221
214.452,103
214.477,51
214.502,74
214.527,127
214.552,129
214.577,31
214.602,-129
214.627,-252
214.652,-260
214.677,-183
214.702,-128
214.727,-170
214.752,-263
214.777,-279
214.802,-130
214.827,145
214.852,422
214.877,608
214.902,706
214.927,778
214.952,856
214.977,917
215.002,924
215.027,882
215.052,830
215.077,799
215.102,782
215.127,759
215.152,721
215.177,668
215.202,597
215.227,502
215.252,392
215.277,291
215.302,214
215.327,140
215.352,30
215.377,-128
215.402,-299
215.427,-429
215.452,-492
215.477,-496
215.502,-470
215.527,-452
215.552,-490
215.577,-624
215.602,-826
215.627,-976
215.652,-914
215.677,-586
215.702,-119
215.727,259
215.752,408
215.777,387
215.802,387
215.827,532
215.852,773
215.877,956
215.902,990
215.927,924
215.952,879
215.977,910
216.002,971
216.027,980
216.052,918
216.077,833
216.102,782
216.127,767
216.152,747
216.177,681
216.202,561
216.227,401
216.252,228
216.277,77
216.302,-6
216.327,-10
216.352,19
216.377,-2
216.402,-132
216.427,-326
216.452,-465
216.477,-468
216.502,-365
216.527,-269
216.552,-256
216.577,-285
216.602,-244
216.627,-71
216.652,181
216.677,409
216.702,556
216.727,650
216.752,744
216.777,838
216.802,888
216.827,874
216.852,835
216.877,827
216.902,853
216.927,866
216.952,826
216.977,751
217.002,685
217.027,635
217.052,571
217.077,471
217.102,367
217.127,298
217.152,250
217.177,156
217.202,-20
217.227,-224
217.252,-356
217.277,-385
217.302,-389
217.327,-470
217.352,-618
217.377,-704
217.402,-602
217.427,-314
217.452,34
217.477,322
217.502,517
217.527,660
217.552,772
217.577,824
217.602,795
217.627,718
217.652,664
217.677,668
217.702,693
217.727,685
217.752,630
217.777,560
217.802,500
217.827,440
217.852,362
217.877,277
217.902,218
217.927,189
217.952,144
217.977,38
218.002,-119
218.027,-273
218.052,-387
218.077,-480
218.102,-598
218.127,-744
218.152,-878
218.177,-974
218.202,-1049
218.227,-1111
218.252,-1089
218.277,-856
218.302,-364
218.327,255
218.352,755
218.377,964
218.402,928
218.427,843
218.452,869
218.477,1005
218.502,1143
218.527,1211
218.552,1227
218.577,1246
218.602,1270
218.627,1265
218.652,1217
218.677,1158
218.702,1114
218.727,1056
218.752,940
218.777,779
218.802,638
218.827,547
218.852,448
218.877,260
218.902,-8
218.927,-239
218.952,-330
218.977,-323
219.002,-363
219.027,-531
219.052,-728
219.077,-769
219.102,-580
219.127,-276
219.152,-41
219.177,54
219.202,92
219.227,178
219.252,319
219.277,439
219.302,491
219.327,518
219.352,583
219.377,687
219.402,768
219.427,774
219.452,719
219.477,647
219.502,574
219.527,475
219.552,342
219.577,212
219.602,137
219.627,132
219.652,161
219.677,177
219.702,155
219.727,90
219.752,-25
219.777,-191
219.802,-368
219.827,-486
219.852,-485
219.877,-374
219.902,-224
219.927,-108
219.952,-41
219.977,23
220.002,140
220.027,317
220.052,514
220.077,678
220.102,785
220.127,845
220.152,876
220.177,884
220.202,861
220.227,813
220.252,759
220.277,718
220.302,677
220.327,602
220.352,478
220.377,342
220.402,247
220.427,201
220.452,150
220.477,40
220.502,-104
220.527,-202
220.552,-210
220.577,-194
220.602,-264
220.627,-434
220.652,-588
220.677,-600
220.702,-486
220.727,-397
220.752,-448
220.777,-571
220.802,-581
220.827,-377
220.852,-46
220.877,238
220.902,405
220.927,531
220.952,707
220.977,919
221.002,1069
221.027,1108
221.052,1092
221.077,1097
221.102,1127
221.127,1131
221.152,1093
221.177,1053
221.202,1029
221.227,964
221.252,785
221.277,521
221.302,316
221.327,283
221.352,375
221.377,417
221.402,285
221.427,30
221.452,-177
221.477,-217
221.502,-117
221.527,-1
221.552,19
221.577,-77
221.602,-235
221.627,-352
221.652,-322
221.677,-94
221.702,275
221.727,647
221.752,890
221.777,985
221.802,1022
221.827,1098
221.852,1215
221.877,1286
221.902,1228
221.927,1030
221.952,746
221.977,442
222.002,151
222.027,-120
222.052,-370
222.077,-584
222.102,-729
222.127,-778
222.152,-731
222.177,-640
222.202,-587
222.227,-615
222.252,-691
222.277,-740
222.302,-727
222.327,-691
222.352,-704
222.377,-802
222.402,-992
222.427,-1268
222.452,-1602
222.477,-1876
222.502,-1881
222.527,-1461
222.552,-684
222.577,147
222.602,703
222.627,843
222.652,665
222.677,367
222.702,107
222.727,-22
222.752,28
222.777,251
222.802,553
222.827,846
222.852,1166
222.877,1635
222.902,2231
222.927,2643
222.952,2502
222.977,1837
223.002,1203
223.027,1220
223.052,1938
223.077,2755
223.102,3026
223.127,2708
223.152,2297
223.177,2174
223.202,2179
223.227,1916
223.252,1366
223.277,959
223.302,1006
223.327,1232
223.352,1096
223.377,530
223.402,138
223.427,486
223.452,1319
223.477,1681
223.502,884
223.527,-769
223.552,-2336
223.577,-3204
223.602,-3549
223.627,-3814
223.652,-3976
223.677,-3564
223.702,-2374
223.727,-947
223.752,-150
223.777,-314
223.802,-938
223.827,-1260
223.852,-1028
223.877,-620
223.902,-497
223.927,-694
223.952,-888
223.977,-845
224.002,-667
224.027,-600
224.052,-707
224.077,-794
224.102,-635
224.127,-199
224.152,351
224.177,817
224.202,1115
224.227,1306
224.252,1510
224.277,1780
224.302,2042
224.327,2155
224.352,2071
224.377,1936
224.402,1967
224.427,2215
224.452,2469
224.477,2482
224.502,2276
224.527,2169
224.552,2403
224.577,2812
224.602,2946
224.627,2569
224.652,1982
224.677,1742
224.702,2063
224.727,2559
224.752,2633
224.777,2078
224.802,1226
224.827,520
224.852,35
224.877,-511
224.902,-1312
224.927,-2162
224.952,-2652
224.977,-2610
225.002,-2278
225.027,-2030
225.052,-1998
225.077,-2021
225.102,-1912
225.127,-1693
225.152,-1514
225.177,-1425
225.202,-1301
225.227,-1014
225.252,-608
225.277,-236
225.302,41
225.327,331
225.352,752
225.377,1226
225.402,1512
225.427,1431
225.452,1050
225.477,594
225.502,235
225.527,-15
225.552,-223
225.577,-410
225.602,-575
225.627,-776
225.652,-1087
225.677,-1458
225.702,-1699
225.727,-1695
225.752,-1636
225.777,-1914
225.802,-2676
225.827,-3502
225.852,-3653
225.877,-2728
225.902,-1086
225.927,450
225.952,1315
225.977,1624
226.002,1893
226.027,2428
226.052,3034
226.077,3335
226.102,3232
226.127,2991
226.152,2909
226.177,2999
226.202,3042
226.227,2887
226.252,2609
226.277,2378
226.302,2244
226.327,2118
226.352,1920
226.377,1675
226.402,1442
226.427,1202
226.452,882
226.477,485
226.502,144
226.527,-1
226.552,32
226.577,55
226.602,-129
226.627,-545
226.652,-1011
226.677,-1278
226.702,-1210
226.727,-865
226.752,-445
226.777,-154
226.802,-62
226.827,-87
226.852,-80
226.877,35
226.902,210
226.927,333
226.952,350
226.977,312
227.002,305
227.027,358
227.052,421
227.077,439
227.102,405
227.127,355
227.152,316
227.177,282
227.202,231
227.227,143
227.252,3
227.277,-183
227.302,-376
227.327,-498
227.352,-497
227.377,-416
227.402,-379
227.427,-469
227.452,-626
227.477,-680
227.502,-507
227.527,-157
227.552,192
227.577,402
227.602,479
227.627,522
227.652,595
227.677,667
227.702,675
227.727,618
227.752,560
227.777,557
227.802,592
227.827,599
227.852,545
227.877,454
227.902,378
227.927,332
227.952,286
227.977,210
228.002,112
228.027,34
228.052,-12
228.077,-70
228.102,-196
228.127,-373
228.152,-489
228.177,-419
228.202,-148
228.227,199
228.252,462
228.277,584
228.302,651
228.327,763
228.352,910
228.377,981
228.402,912
228.427,773
228.452,708
228.477,766
228.502,847
228.527,810
228.552,628
228.577,410
228.602,271
228.627,222
228.652,191
228.677,117
228.702,-7
228.727,-182
228.752,-408
228.777,-634
228.802,-724
228.827,-551
228.852,-158
228.877,222
228.902,365
228.927,279
228.952,193
228.977,307
229.002,574
229.027,767
229.052,743
229.077,591
229.102,500
229.127,526
229.152,553
229.177,470
229.202,323
229.227,242
229.252,250
229.277,223
229.302,60
229.327,-158
229.352,-248
229.377,-144
229.402,-10
229.427,-58
229.452,-305
229.477,-535
229.502,-517
229.527,-227
229.552,156
229.577,454
229.602,633
229.627,767
229.652,910
229.677,1037
229.702,1110
229.727,1128
229.752,1112
229.777,1058
229.802,952
229.827,816
229.852,716
229.877,697
229.902,724
229.927,715
229.952,623
229.977,473
230.002,324
230.027,205
230.052,106
230.077,9
230.102,-88
230.127,-187
230.152,-296
230.177,-409
230.202,-498
230.227,-553
230.252,-616
230.277,-751
230.302,-953
230.327,-1104
230.352,-1058
230.377,-786
230.402,-426
230.427,-161
230.452,-56
230.477,-14
230.502,106
230.527,352
230.552,653
230.577,911
230.602,1079
230.627,1166
230.652,1192
230.677,1170
230.702,1127
230.727,1104
230.752,1124
230.777,1154
230.802,1142
230.827,1061
230.852,943
230.877,831
230.902,738
230.927,645
230.952,533
230.977,411
231.002,300
231.027,210
231.052,127
231.077,35
231.102,-70
231.127,-190
231.152,-315
231.177,-433
231.202,-530
231.227,-613
231.252,-718
231.277,-876
231.302,-1052
231.327,-1141
231.352,-1033
231.377,-713
231.402,-290
231.427,82
231.452,326
231.477,482
231.502,645
231.527,856
231.552,1063
231.577,1171
231.602,1148
231.627,1059
231.652,1009
231.677,1046
231.702,1112
231.727,1100
231.752,958
231.777,745
231.802,587
231.827,561
231.852,616
231.877,624
231.902,496
231.927,269
231.952,70
231.977,0
232.002,38
232.027,79
232.052,21
232.077,-135
232.102,-311
232.127,-422
232.152,-463
232.177,-504
232.202,-621
232.227,-818
232.252,-1006
232.277,-1054
232.302,-882
232.327,-523
232.352,-103
232.377,249
232.402,479
232.427,622
232.452,751
232.477,902
232.502,1056
232.527,1164
232.552,1196
232.577,1165
232.602,1113
232.627,1084
232.652,1091
232.677,1105
232.702,1070
232.727,944
232.752,746
232.777,550
232.802,439
232.827,430
232.852,465
232.877,455
232.902,357
232.927,204
232.952,63
232.977,-33
233.002,-112
233.027,-217
233.052,-359
233.077,-501
233.102,-602
233.127,-669
233.152,-759
233.177,-913
233.202,-1081
233.227,-1125
233.252,-917
233.277,-460
233.302,82
233.327,501
233.352,694
233.377,728
233.402,748
233.427,838
233.452,962
233.477,1036
233.502,1030
233.527,990
233.552,973
233.577,979
233.602,972
233.627,933
233.652,878
233.677,820
233.702,747
233.727,642
233.752,527
233.777,446
233.802,400
233.827,330
233.852,173
233.877,-44
233.902,-225
233.927,-293
233.952,-279
233.977,-282
234.002,-353
234.027,-457
234.052,-538
234.077,-611
234.102,-735
234.127,-900
234.152,-971
234.177,-794
234.202,-363
234.227,138
234.252,499
234.277,651
234.302,712
234.327,829
234.352,1026
234.377,1195
234.402,1234
234.427,1153
234.452,1049
234.477,997
234.502,981
234.527,931
234.552,818
234.577,684
234.602,598
234.627,591
234.652,625
234.677,636
234.702,589
234.727,506
234.752,440
234.777,407
234.802,350
234.827,175
234.852,-143
234.877,-503
234.902,-730
234.927,-731
234.952,-606
234.977,-570
235.002,-742
235.027,-1009
235.052,-1113
235.077,-890
235.102,-419
235.127,61
235.152,378
235.177,544
235.202,680
235.227,850
235.252,1007
235.277,1088
235.302,1103
235.327,1113
235.352,1129
235.377,1090
235.402,943
235.427,733
235.452,570
235.477,512
235.502,510
235.527,478
235.552,397
235.577,324
235.602,303
235.627,296
235.652,226
235.677,72
235.702,-106
235.727,-235
235.752,-286
235.777,-287
235.802,-273
235.827,-283
235.852,-372
235.877,-580
235.902,-851
235.927,-1001
235.952,-839
235.977,-351
236.002,236
236.027,627
236.052,710
236.077,636
236.102,642
236.127,811
236.152,1014
236.177,1076
236.202,970
236.227,824
236.252,770
236.277,810
236.302,844
236.327,802
236.352,708
236.377,639
236.402,620
236.427,603
236.452,525
236.477,372
236.502,190
236.527,32
236.552,-83
236.577,-172
236.602,-248
236.627,-300
236.652,-306
236.677,-276
236.702,-268
236.727,-355
236.752,-552
236.777,-762
236.802,-827
236.827,-650
236.852,-285
236.877,100
236.902,368
236.927,508
236.952,614
236.977,757
237.002,906
237.027,979
237.052,955
237.077,907
237.102,922
237.127,996
237.152,1044
237.177,996
237.202,878
237.227,778
237.252,742
237.277,728
237.302,656
237.327,499
237.352,305
237.377,132
237.402,-6
237.427,-141
237.452,-284
237.477,-401
237.502,-444
237.527,-425
237.552,-425
237.577,-527
237.602,-719
237.627,-870
237.652,-813
237.677,-482
237.702,17
237.727,480
237.752,751
237.777,836
237.802,864
237.827,949
237.852,1085
237.877,1178
237.902,1167
237.927,1088
237.952,1021
237.977,989
238.002,941
238.027,827
238.052,673
238.077,554
238.102,499
238.127,449
238.152,336
238.177,167
238.202,20
238.227,-64
238.252,-138
238.277,-275
238.302,-459
238.327,-584
238.352,-594
238.377,-572
238.402,-664
238.427,-883
238.452,-1033
238.477,-879
238.502,-393
238.527,185
238.552,563
238.577,648
238.602,597
238.627,615
238.652,753
238.677,896
238.702,926
238.727,842
238.752,738
238.777,684
238.802,680
238.827,694
238.852,712
238.877,722
238.902,690
238.927,587
238.952,435
238.977,302
239.002,223
239.027,156
239.052,33
239.077,-139
239.102,-276
239.127,-327
239.152,-359
239.177,-485
239.202,-704
239.227,-842
239.252,-708
239.277,-295
239.302,193
239.327,537
239.352,685
239.377,751
239.402,844
239.427,950
239.452,984
239.477,932
239.502,876
239.527,888
239.552,932
239.577,912
239.602,787
239.627,623
239.652,514
239.677,488
239.702,491
239.727,466
239.752,392
239.777,275
239.802,125
239.827,-27
239.852,-116
239.877,-94
239.902,-20
239.927,-46
239.952,-270
239.977,-598
240.002,-784
240.027,-648
240.052,-249
240.077,165
240.102,390
240.127,430
240.152,441
240.177,534
240.202,669
240.227,740
240.252,705
240.277,627
240.302,588
240.327,592
240.352,585
240.377,531
240.402,446
240.427,365
240.452,296
240.477,218
240.502,127
240.527,43
240.552,-25
240.577,-104
240.602,-219
240.627,-344
240.652,-417
240.677,-413
240.702,-398
240.727,-475
240.752,-665
240.777,-840
240.802,-805
240.827,-464
240.852,78
240.877,590
240.902,885
240.927,951
240.952,921
240.977,927
241.002,994
241.027,1058
241.052,1067
241.077,1033
241.102,1007
241.127,1004
241.152,997
241.177,963
241.202,922
241.227,898
241.252,870
241.277,776
241.302,587
241.327,346
241.352,131
241.377,-31
241.402,-180
241.427,-342
241.452,-476
241.477,-514
241.502,-471
241.527,-460
241.552,-570
241.577,-732
241.602,-748
241.627,-488
241.652,-37
241.677,367
241.702,565
241.727,602
241.752,644
241.777,771
241.802,903
241.827,920
241.852,809
241.877,681
241.902,630
241.927,640
241.952,622
241.977,527
242.002,398
242.027,311
242.052,293
242.077,312
242.102,314
242.127,265
242.152,154
242.177,0
242.202,-149
242.227,-240
242.252,-284
242.277,-370
242.302,-579
242.327,-853
242.352,-976
242.377,-748
242.402,-192
242.427,425
242.452,818
242.477,909
242.502,857
242.527,866
242.552,986
242.577,1123
242.602,1176
242.627,1135
242.652,1043
242.677,917
242.702,755
242.727,596
242.752,514
242.777,526
242.802,541
242.827,449
242.852,249
242.877,67
242.902,-2
242.927,-21
242.952,-136
242.977,-385
243.002,-624
243.027,-684
243.052,-583
243.077,-523
243.102,-657
243.127,-887
243.152,-948
243.177,-681
243.202,-205
243.227,218
243.252,442
243.277,539
243.302,656
243.327,827
243.352,956
243.377,966
243.402,902
243.427,867
243.452,895
243.477,916
243.502,849
243.527,702
243.552,554
243.577,469
243.602,444
243.627,439
243.652,416
243.677,344
243.702,199
243.727,0
243.752,-164
243.777,-198
243.802,-102
243.827,-22
243.852,-121
243.877,-401
243.902,-656
243.927,-651
243.952,-339
243.977,93
244.002,413
244.027,543
244.052,584
244.077,659
244.102,778
244.127,859
244.152,852
244.177,800
244.202,775
244.227,787
244.252,789
244.277,744
244.302,674
244.327,621
244.352,588
244.377,540
244.402,460
244.427,370
244.452,290
244.477,190
244.502,16
244.527,-227
244.552,-443
244.577,-526
244.602,-474
244.627,-418
244.652,-502
244.677,-730
244.702,-936
244.727,-914
244.752,-592
244.777,-96
244.802,352
244.827,605
244.852,670
244.877,665
244.902,692
244.927,766
244.952,836
244.977,859
245.002,837
245.027,796
245.052,745
245.077,675
245.102,591
245.127,531
245.152,527
245.177,562
245.202,568
245.227,485
245.252,327
245.277,169
245.302,69
245.327,11
245.352,-61
245.377,-177
245.402,-300
245.427,-382
245.452,-437
245.477,-529
245.502,-687
245.527,-826
245.552,-797
245.577,-521
245.602,-74
245.627,361
245.652,645
245.677,773
245.702,837
245.727,912
245.752,994
245.777,1042
245.802,1048
245.827,1050
245.852,1066
245.877,1060
245.902,976
245.927,830
245.952,710
245.977,699
246.002,777
246.027,830
246.052,769
246.077,617
246.102,473
246.127,394
246.152,338
246.177,224
246.202,50
246.227,-102
246.252,-173
246.277,-213
246.302,-337
246.327,-575
246.352,-803
246.377,-840
246.402,-621
246.427,-265
246.452,44
246.477,222
246.502,323
246.527,435
246.552,563
246.577,631
246.602,589
246.627,480
246.652,398
246.677,392
246.702,430
246.727,450
246.752,422
246.777,365
246.802,309
246.827,262
246.852,214
246.877,153
246.902,73
246.927,-26
246.952,-130
246.977,-210
247.002,-255
247.027,-299
247.052,-400
247.077,-567
247.102,-719
247.127,-721
247.152,-508
247.177,-149
247.202,207
247.227,455
247.252,597
247.277,698
247.302,798
247.327,887
247.352,945
247.377,978
247.402,999
247.427,991
247.452,928
247.477,826
247.502,747
247.527,733
247.552,750
247.577,712
247.602,580
247.627,407
247.652,272
247.677,183
247.702,71
247.727,-105
247.752,-292
247.777,-400
247.802,-420
247.827,-446
247.852,-557
247.877,-686
247.902,-669
247.927,-410
247.952,4
247.977,381
248.002,601
248.027,705
248.052,797
248.077,910
248.102,983
248.127,968
248.152,903
248.177,864
248.202,869
248.227,862
248.252,798
248.277,706
248.302,645
248.327,614
248.352,552
248.377,423
248.402,274
248.427,181
248.452,138
248.477,56
248.502,-113
248.527,-292
248.552,-349
248.577,-274
248.602,-233
248.627,-399
248.652,-723
248.677,-934
248.702,-784
248.727,-309
248.752,190
248.777,429
248.802,394
248.827,307
248.852,374
248.877,582
248.902,755
248.927,768
248.952,662
248.977,568
249.002,552
249.027,570
249.052,559
249.077,521
249.102,503
249.127,517
249.152,513
249.177,445
249.202,335
249.227,244
249.252,196
249.277,149
249.302,60
249.327,-52
249.352,-135
249.377,-177
249.402,-240
249.427,-380
249.452,-551
249.477,-618
249.502,-473
249.527,-150
249.552,200
249.577,451
249.602,595
249.627,707
249.652,831
249.677,931
249.702,948
249.727,891
249.752,831
249.777,818
249.802,819
249.827,771
249.852,670
249.877,595
249.902,613
249.927,686
249.952,696
249.977,580
250.002,404
250.027,286
250.052,249
250.077,182
250.102,-24
250.127,-328
250.152,-549
250.177,-565
250.202,-460
250.227,-441
250.252,-606
250.277,-809
250.302,-800
250.327,-487
250.352,-37
250.377,294
250.402,419
250.427,464
250.452,588
250.477,791
250.502,930
250.527,915
250.552,818
250.577,783
250.602,845
250.627,889
250.652,796
250.677,598
250.702,445
250.727,434
250.752,500
250.777,487
250.802,325
250.827,94
250.852,-73
250.877,-125
250.902,-113
250.927,-113
250.952,-159
250.977,-251
251.002,-388
251.027,-555
251.052,-675
251.077,-628
251.102,-359
251.127,39
251.152,372
251.177,504
251.202,473
251.227,443
251.252,535
251.277,720
251.302,866
251.327,889
251.352,827
251.377,782
251.402,800
251.427,832
251.452,808
251.477,719
251.502,626
251.527,577
251.552,556
251.577,501
251.602,379
251.627,217
251.652,66
251.677,-57
251.702,-163
251.727,-243
251.752,-269
251.777,-246
251.802,-258
251.827,-403
251.852,-667
251.877,-875
251.902,-814
251.927,-434
251.952,79
251.977,455
252.002,569
252.027,525
252.052,520
252.077,638
252.102,792
252.127,855
252.152,805
252.177,727
252.202,705
252.227,739
252.252,768
252.277,747
252.302,681
252.327,596
252.352,505
252.377,419
252.402,351
252.427,298
252.452,217
252.477,68
252.502,-128
252.527,-291
252.552,-364
252.577,-390
252.602,-464
252.627,-597
252.652,-669
252.677,-535
252.702,-193
252.727,197
252.752,464
252.777,580
252.802,650
252.827,761
252.852,874
252.877,894
252.902,805
252.927,696
252.952,660
252.977,691
253.002,712
253.027,676
253.052,607
253.077,544
253.102,479
253.127,382
253.152,262
253.177,165
253.202,109
253.227,46
253.252,-71
253.277,-216
253.302,-313
253.327,-348
253.352,-417
253.377,-602
253.402,-825
253.427,-863
253.452,-563
253.477,-24
253.502,458
253.527,660
253.552,618
253.577,553
253.602,632
253.627,820
253.652,964
253.677,974
253.702,895
253.727,814
253.752,762
253.777,714
253.802,663
253.827,637
253.852,645
253.877,640
253.902,566
253.927,441
253.952,337
253.977,285
254.002,216
254.027,40
254.052,-221
254.077,-421
254.102,-439
254.127,-324
254.152,-272
254.177,-420
254.202,-693
254.227,-869
254.252,-782
254.277,-470
254.302,-105
254.327,174
254.352,361
254.377,517
254.402,675
254.427,809
254.452,897
254.477,950
254.502,988
254.527,996
254.552,941
254.577,826
254.602,712
254.627,655
254.652,655
254.677,660
254.702,629
254.727,568
254.752,496
254.777,411
254.802,301
254.827,183
254.852,99
254.877,51
254.902,-15
254.927,-153
254.952,-317
254.977,-394
255.002,-328
255.027,-228
255.052,-276
255.077,-530
255.102,-820
255.127,-885
255.152,-616
255.177,-160
255.202,231
255.227,433
255.252,513
255.277,609
255.302,764
255.327,908
255.352,966
255.377,944
255.402,900
255.427,879
255.452,880
255.477,886
255.502,880
255.527,838
255.552,727
255.577,551
255.602,377
255.627,294
255.652,314
255.677,353
255.702,315
255.727,192
255.752,63
255.777,-13
255.802,-63
255.827,-148
255.852,-273
255.877,-378
255.902,-434
255.927,-495
255.952,-620
255.977,-759
256.002,-755
256.027,-504
256.052,-89
256.077,278
256.102,464
256.127,522
256.152,594
256.177,734
256.202,858
256.227,866
256.252,782
256.277,718
256.302,737
256.327,785
256.352,772
256.377,692
256.402,616
256.427,588
256.452,561
256.477,471
256.502,335
256.527,235
256.552,202
256.577,163
256.602,33
256.627,-153
256.652,-258
