df_hash,22ZHK4.QT9BDF
device,HZ2X61
project_hash,29R7
project_name,istanbul_aydin_university
person_hash,29R7.SU53
person_label,V49
date_time_start,2025-10-30_17-54-05.050000_+03
date_time_start_unix,1761832445.05
date_time_end,2025-10-30_18-02-50.778000_+03
length_difference_noticed,no

time,ppg_ir,ppg_ambient,ppg_red
5.536,167865,454,149421
5.541,167841,457,149414
5.546,167838,456,149414
5.551,167838,454,149403
5.556,167822,454,149404
5.561,167834,459,149401
5.566,167801,459,149404
5.571,167803,459,149393
5.576,167788,458,149376
5.581,167782,460,149366
5.586,167772,459,149370
5.591,167773,460,149373
5.596,167759,457,149351
5.601,167752,458,149355
5.606,167742,457,149353
5.611,167748,460,149352
5.616,167736,458,149345
5.621,167730,458,149348
5.626,167725,458,149337
5.631,167723,456,149341
5.636,167714,455,149330
5.641,167698,456,149325
5.646,167698,455,149326
5.651,167686,455,149305
5.656,167676,453,149311
5.661,167682,457,149316
5.666,167663,456,149303
5.671,167665,456,149301
5.676,167674,456,149303
5.681,167658,455,149306
5.686,167663,456,149292
5.690,167658,455,149299
5.695,167665,455,149306
5.700,167649,453,149282
5.705,167651,455,149293
5.710,167643,457,149283
5.715,167645,456,149296
5.720,167638,455,149281
5.725,167622,455,149277
5.730,167649,454,149276
5.735,167633,454,149261
5.740,167623,454,149259
5.745,167641,453,149257
5.750,167634,452,149250
5.755,167633,454,149248
5.760,167625,450,149254
5.765,167631,449,149256
5.770,167629,449,149271
5.775,167604,448,149246
5.780,167607,447,149247
5.785,167614,447,149254
5.790,167614,456,149247
5.795,167608,447,149236
5.800,167606,455,149232
5.805,167617,449,149226
5.810,167597,449,149235
5.815,167614,448,149233
5.820,167589,449,149235
5.825,167598,449,149227
5.830,167588,450,149232
5.835,167594,448,149232
5.840,167598,450,149233
5.845,167567,450,149237
5.849,167584,449,149230
5.854,167592,452,149219
5.859,167585,451,149227
5.864,167575,451,149232
5.869,167595,450,149240
5.874,167586,448,149227
5.879,167574,449,149233
5.884,167586,448,149234
5.889,167580,448,149231
5.894,167584,447,149237
5.899,167588,448,149240
5.904,167570,451,149250
5.909,167599,451,149246
5.914,167615,451,149235
5.919,167595,451,149234
5.924,167603,451,149224
5.929,167578,450,149231
5.934,167598,452,149236
5.939,167611,451,149231
5.944,167597,443,149236
5.949,167603,443,149242
5.954,167584,446,149241
5.959,167600,445,149236
5.964,167598,445,149219
5.969,167614,443,149242
5.974,167601,444,149238
5.979,167603,443,149243
5.984,167608,443,149236
5.989,167609,442,149239
5.994,167601,451,149233
5.999,167600,451,149247
6.003,167598,449,149226
6.008,167614,448,149238
6.013,167613,449,149233
6.018,167605,448,149229
6.023,167600,450,149223
6.028,167602,448,149216
6.033,167595,448,149220
6.038,167603,449,149213
6.043,167613,449,149230
6.048,167608,441,149220
6.053,167597,442,149212
6.058,167616,441,149216
6.063,167624,451,149218
6.068,167622,449,149211
6.073,167626,449,149202
6.078,167638,447,149222
6.083,167631,448,149222
6.088,167643,445,149225
6.093,167632,445,149218
6.098,167634,448,149207
6.103,167632,449,149191
6.108,167634,447,149205
6.113,167638,447,149203
6.118,167623,446,149196
6.123,167624,448,149204
6.128,167635,446,149197
6.133,167625,447,149219
6.138,167633,444,149196
6.143,167627,445,149207
6.148,167644,445,149212
6.153,167638,446,149213
6.157,167655,443,149232
6.162,167659,445,149230
6.167,167666,442,149246
6.172,167669,443,149229
6.177,167657,439,149240
6.182,167684,441,149238
6.187,167689,447,149241
6.192,167677,452,149237
6.197,167679,439,149247
6.202,167691,440,149243
6.207,167685,447,149228
6.212,167695,447,149246
6.217,167689,444,149245
6.222,167685,445,149246
6.227,167676,444,149241
6.232,167702,444,149253
6.237,167684,442,149256
6.242,167711,445,149250
6.247,167712,446,149252
6.252,167710,445,149261
6.257,167709,443,149263
6.262,167733,444,149271
6.267,167736,443,149271
6.272,167743,444,149280
6.277,167732,441,149272
6.282,167742,442,149276
6.287,167750,440,149294
6.292,167753,437,149287
6.297,167748,444,149282
6.302,167761,438,149275
6.307,167776,445,149292
6.312,167768,444,149279
6.316,167773,444,149303
6.321,167793,444,149297
6.326,167776,442,149302
6.331,167794,442,149305
6.336,167805,441,149325
6.341,167808,437,149321
6.346,167803,436,149326
6.351,167799,436,149332
6.356,167807,435,149321
6.361,167779,436,149323
6.366,167777,435,149310
6.371,167755,436,149318
6.376,167741,435,149306
6.381,167748,435,149282
6.386,167747,435,149289
6.391,167751,442,149344
6.396,167762,437,149298
6.401,167765,438,149301
6.406,167769,437,149309
6.411,167806,439,149318
6.416,167814,438,149322
6.421,167828,439,149317
6.426,167839,438,149327
6.431,167862,439,149325
6.436,167874,438,149311
6.441,167889,442,149331
6.446,167907,440,149312
6.451,167907,440,149332
6.456,167926,442,149335
6.461,167932,441,149340
6.466,167945,439,149332
6.470,167958,439,149342
6.475,167969,439,149331
6.480,167977,440,149341
6.485,167985,441,149336
6.490,167987,436,149328
6.495,167977,436,149328
6.500,167988,437,149319
6.505,167968,434,149305
6.510,167992,436,149316
6.515,167994,435,149309
6.520,167982,435,149282
6.525,167975,433,149292
6.530,167980,434,149281
6.535,167982,440,149351
6.540,167984,437,149282
6.545,167978,437,149286
6.550,167973,437,149279
6.555,167971,436,149272
6.560,167964,435,149256
6.565,167956,436,149265
6.570,167951,434,149268
6.575,167949,435,149245
6.580,167944,435,149262
6.585,167943,434,149251
6.590,167929,436,149242
6.595,167925,436,149241
6.600,167930,436,149248
6.605,167912,435,149237
6.610,167902,435,149231
6.615,167915,435,149241
6.620,167904,434,149241
6.625,167908,434,149255
6.629,167907,432,149261
6.634,167900,437,149256
6.639,167900,436,149263
6.644,167897,436,149260
6.649,167883,435,149252
6.654,167877,434,149248
6.659,167877,434,149246
6.664,167853,434,149261
6.669,167840,432,149249
6.674,167820,433,149250
6.679,167836,432,149250
6.684,167819,439,149252
6.689,167816,438,149247
6.694,167823,439,149253
6.699,167801,438,149249
6.704,167805,439,149263
6.709,167799,437,149251
6.714,167801,436,149272
6.719,167804,436,149266
6.724,167796,437,149284
6.729,167789,433,149272
6.734,167793,437,149296
6.739,167804,437,149289
6.744,167785,438,149291
6.749,167789,434,149289
6.754,167778,435,149294
6.759,167779,434,149297
6.764,167781,435,149291
6.769,167756,431,149296
6.774,167770,431,149303
6.779,167761,431,149296
6.783,167753,435,149314
6.788,167759,434,149304
6.793,167775,433,149309
6.798,167765,431,149299
6.803,167759,433,149311
6.808,167754,431,149324
6.813,167764,430,149335
6.818,167780,437,149331
6.823,167774,439,149341
6.828,167776,425,149337
6.833,167783,429,149346
6.838,167770,428,149343
6.843,167767,438,149374
6.848,167775,436,149355
6.853,167771,436,149361
6.858,167769,433,149375
6.863,167784,434,149369
6.868,167775,433,149373
6.873,167776,434,149376
6.878,167786,435,149373
6.883,167777,435,149373
6.888,167772,433,149387
6.893,167780,433,149390
6.898,167796,430,149414
6.903,167818,432,149409
6.908,167806,429,149421
6.913,167824,437,149432
6.918,167836,434,149439
6.923,167844,437,149449
6.928,167858,429,149451
6.933,167862,437,149446
6.938,167875,434,149479
6.942,167872,434,149471
6.947,167890,430,149474
6.952,167870,431,149474
6.957,167908,437,149481
6.962,167893,437,149477
6.967,167894,434,149490
6.972,167898,434,149489
6.977,167918,437,149507
6.982,167912,436,149501
6.987,167921,433,149512
6.992,167921,435,149524
6.997,167941,432,149524
7.002,167943,433,149531
7.007,167972,431,149546
7.012,167961,432,149537
7.017,167977,431,149554
7.022,167967,432,149552
7.027,167976,433,149568
7.032,167993,432,149582
7.037,168003,431,149584
7.042,168015,432,149587
7.047,168020,431,149588
7.052,168042,431,149599
7.057,168052,428,149611
7.062,168046,430,149627
7.067,168058,428,149610
7.072,168059,441,149605
7.077,168062,433,149621
7.082,168070,433,149622
7.087,168081,431,149627
7.092,168079,431,149642
7.096,168093,429,149660
7.101,168117,430,149650
7.106,168115,428,149658
7.111,168123,428,149662
7.116,168139,426,149667
7.121,168150,432,149691
7.126,168145,433,149675
7.131,168170,434,149692
7.136,168167,431,149683
7.141,168177,430,149701
7.146,168193,430,149707
7.151,168186,430,149712
7.156,168190,429,149703
7.161,168183,428,149696
7.166,168182,428,149710
7.171,168191,430,149689
7.176,168184,430,149707
7.181,168203,428,149705
7.186,168204,427,149722
7.191,168220,427,149736
7.196,168222,427,149732
7.201,168224,425,149757
7.206,168212,426,149757
7.211,168223,425,149759
7.216,168216,434,149734
7.221,168210,428,149753
7.226,168189,427,149756
7.231,168170,427,149744
7.236,168165,427,149726
7.241,168137,428,149732
7.246,168139,426,149730
7.250,168121,426,149734
7.255,168135,424,149724
7.260,168118,426,149737
7.265,168119,434,149727
7.270,168127,431,149729
7.275,168109,429,149743
7.280,168114,429,149744
7.285,168103,428,149726
7.290,168095,427,149718
7.295,168083,424,149708
7.300,168089,424,149712
7.305,168079,432,149715
7.310,168067,432,149711
7.315,168075,431,149740
7.320,168081,424,149705
7.325,168064,433,149711
7.330,168067,432,149719
7.335,168072,431,149716
7.340,168068,431,149712
7.345,168055,432,149700
7.350,168054,429,149703
7.355,168047,428,149689
7.360,168044,427,149678
7.365,167988,426,149687
7.370,168025,431,149686
7.375,168027,429,149672
7.380,168023,428,149681
7.385,168012,430,149672
7.390,168012,429,149678
7.395,168029,428,149668
7.400,168012,428,149669
7.405,167992,429,149671
7.409,167998,429,149669
7.414,167997,423,149675
7.419,168000,423,149663
7.424,167994,424,149657
7.429,167994,423,149678
7.434,168002,422,149676
7.439,168009,421,149679
7.444,167997,432,149673
7.449,167995,429,149678
7.454,168001,428,149665
7.459,168004,428,149666
7.464,167993,423,149675
7.469,168023,430,149689
7.474,168022,430,149699
7.479,168003,429,149687
7.484,168048,429,149701
7.489,168018,429,149724
7.494,168024,430,149727
7.499,168024,428,149724
7.504,168041,429,149726
7.509,168030,432,149723
7.514,168014,427,149736
7.519,168019,426,149720
7.524,168013,426,149719
7.529,168017,425,149715
7.534,168033,425,149730
7.539,168018,423,149698
7.544,168014,424,149714
7.549,168004,421,149714
7.554,167994,423,149709
7.559,168002,430,149712
7.563,168009,425,149712
7.568,167999,422,149701
7.573,167981,429,149702
7.578,167991,422,149709
7.583,167991,424,149704
7.588,168002,429,149684
7.593,167983,429,149686
7.598,167984,426,149673
7.603,167961,427,149676
7.608,167959,420,149627
7.613,167974,429,149662
7.618,167966,426,149648
7.623,167957,428,149655
7.628,167951,425,149624
7.633,167961,426,149612
7.638,167942,423,149631
7.643,167948,424,149616
7.648,167952,422,149634
7.653,167954,423,149618
7.658,167945,423,149611
7.663,167956,425,149612
7.668,167947,423,149600
7.673,167945,423,149601
7.678,167942,421,149603
7.683,167942,423,149603
7.688,167948,421,149599
7.693,167952,422,149601
7.698,167949,421,149591
7.703,167949,431,149595
7.708,167947,423,149593
7.713,167947,423,149593
7.718,167951,422,149605
7.722,167961,422,149580
7.727,167959,421,149597
7.732,167942,430,149586
7.737,167952,428,149578
7.742,167945,429,149588
7.747,167948,427,149579
7.752,167941,426,149589
7.757,167970,428,149577
7.762,167949,430,149557
7.767,167956,428,149566
7.772,167956,427,149550
7.777,167961,425,149554
7.782,167960,426,149556
7.787,167969,424,149560
7.792,167952,423,149543
7.797,167964,422,149548
7.802,167956,423,149556
7.807,167966,429,149559
7.812,167958,428,149540
7.817,167964,426,149550
7.822,167967,427,149549
7.827,167949,424,149537
7.832,167984,423,149538
7.837,167956,421,149535
7.842,167976,430,149528
7.847,167968,428,149523
7.852,167979,428,149502
7.857,167976,424,149537
7.862,167986,422,149532
7.867,167975,422,149531
7.872,167978,419,149547
7.876,167986,428,149542
7.881,167976,427,149542
7.886,167992,426,149530
7.891,167982,426,149539
7.896,167996,425,149546
7.901,168051,425,149558
7.906,168005,426,149541
7.911,168018,426,149529
7.916,168018,424,149543
7.921,168016,422,149548
7.926,168026,422,149559
7.931,168042,420,149555
7.936,168047,426,149552
7.941,168050,425,149572
7.946,168053,423,149571
7.951,168070,427,149568
7.956,168050,424,149566
7.961,168052,422,149570
7.966,168066,421,149559
7.971,168062,419,149571
7.976,168069,427,149571
7.981,168065,425,149576
7.986,168068,425,149573
7.991,168073,423,149581
7.996,168072,422,149594
8.001,168096,424,149594
8.006,168104,423,149591
8.011,168083,423,149602
8.016,168078,422,149608
8.021,168070,421,149609
8.026,168061,420,149586
8.031,168045,420,149578
8.035,168030,420,149582
8.040,168007,419,149569
8.045,167995,431,149545
8.050,167999,419,149558
8.055,167978,418,149548
8.060,167969,427,149550
8.065,167960,427,149543
8.070,167974,425,149544
8.075,167961,424,149546
8.080,167938,424,149532
8.085,167932,424,149523
8.090,167940,422,149541
8.095,167927,420,149514
8.100,167924,424,149519
8.105,167930,423,149528
8.110,167913,420,149519
8.115,167904,420,149504
8.120,167897,419,149502
8.125,167885,420,149515
8.130,167894,417,149519
8.135,167897,418,149514
8.140,167877,418,149496
8.145,167881,414,149495
8.150,167882,422,149495
8.155,167876,421,149496
8.160,167862,419,149484
8.165,167860,419,149478
8.170,167843,418,149473
8.175,167854,417,149462
8.180,167846,425,149467
8.185,167847,424,149457
8.189,167835,422,149474
8.194,167833,427,149463
8.199,167837,424,149456
8.204,167824,426,149448
8.209,167836,423,149463
8.214,167807,423,149448
8.219,167814,420,149451
8.224,167826,421,149451
8.229,167834,418,149450
8.234,167826,418,149455
8.239,167816,416,149443
8.244,167838,417,149451
8.249,167821,424,149438
8.254,167810,423,149431
8.259,167820,422,149435
8.264,167801,422,149436
8.269,167826,419,149434
8.274,167810,420,149424
8.279,167808,417,149435
8.284,167806,418,149437
8.289,167817,424,149457
8.294,167818,419,149437
8.299,167821,417,149423
8.304,167814,419,149435
8.309,167807,417,149425
8.314,167822,417,149436
8.319,167810,415,149416
8.324,167809,426,149417
8.329,167793,424,149417
8.334,167790,424,149416
8.339,167788,421,149417
8.343,167799,418,149405
8.348,167802,415,149418
8.353,167795,424,149399
8.358,167775,423,149396
8.363,167795,424,149387
8.368,167779,423,149390
8.373,167781,421,149388
8.378,167778,418,149388
8.383,167778,420,149368
8.388,167784,419,149351
8.393,167788,422,149384
8.398,167787,420,149372
8.403,167779,420,149375
8.408,167796,419,149363
8.413,167785,418,149390
8.418,167788,416,149375
8.423,167800,426,149372
8.428,167793,423,149379
8.433,167796,423,149375
8.438,167808,413,149352
8.443,167789,417,149359
8.448,167779,424,149360
8.453,167787,424,149370
8.458,167786,423,149357
8.463,167784,423,149360
8.468,167781,422,149349
8.473,167773,422,149205
8.478,167795,420,149330
8.483,167809,420,149346
8.488,167799,424,149341
8.493,167790,423,149346
8.498,167790,421,149343
8.502,167803,420,149350
8.507,167782,421,149344
8.512,167802,420,149341
8.517,167796,420,149325
8.522,167785,418,149327
8.527,167792,419,149335
8.532,167794,418,149326
8.537,167790,420,149311
8.542,167799,419,149331
8.547,167789,420,149330
8.552,167801,419,149322
8.557,167818,418,149330
8.562,167830,418,149324
8.567,167828,417,149336
8.572,167841,416,149319
8.577,167826,416,149322
8.582,167823,420,149323
8.587,167838,418,149350
8.592,167836,419,149331
8.597,167838,416,149337
8.602,167847,415,149340
8.607,167868,422,149355
8.612,167857,423,149353
8.617,167858,423,149340
8.622,167867,424,149336
8.627,167881,424,149327
8.632,167874,424,149328
8.637,167873,421,149343
8.642,167879,421,149353
8.647,167874,420,149353
8.652,167874,419,149338
8.656,167880,419,149340
8.661,167884,419,149346
8.666,167880,417,149361
8.671,167892,417,149352
8.676,167897,417,149360
8.681,167915,426,149365
8.686,167919,419,149359
8.691,167900,417,149374
8.696,167915,416,149362
8.701,167922,416,149370
8.706,167911,417,149364
8.711,167937,415,149369
8.716,167930,415,149366
8.721,167925,414,149357
8.726,167936,415,149374
8.731,167945,419,149358
8.736,167945,421,149372
8.741,167973,421,149369
8.746,167955,419,149386
8.751,167964,420,149380
8.756,167991,420,149400
8.761,168000,420,149392
8.766,168015,420,149398
8.771,168014,419,149413
8.776,168011,417,149409
8.781,168005,421,149404
8.786,168005,420,149409
8.791,168015,421,149410
8.796,168027,419,149419
8.801,168030,419,149419
8.806,168034,421,149428
8.811,168033,421,149429
8.815,168045,421,149435
8.820,168048,421,149447
8.825,168046,421,149430
8.830,168072,415,149459
8.835,168036,414,149448
8.840,168039,413,149461
8.845,168029,423,149458
8.850,168005,423,149471
8.855,168017,421,149451
8.860,167998,422,149458
8.865,167980,422,149442
8.870,167984,421,149448
8.875,167975,420,149446
8.880,167973,414,149452
8.885,167965,414,149464
8.890,167963,414,149452
8.895,167968,415,149438
8.900,167956,413,149438
8.905,167953,414,149438
8.910,167942,422,149448
8.915,167949,421,149422
8.920,167935,420,149430
8.925,167922,428,149459
8.930,167938,420,149421
8.935,167922,421,149416
8.940,167915,419,149424
8.945,167904,421,149417
8.950,167921,420,149411
8.955,167906,420,149409
8.960,167905,417,149420
8.965,167891,419,149408
8.969,167886,416,149407
8.974,167863,421,149397
8.979,167889,419,149407
8.984,167892,420,149402
8.989,167897,418,149403
8.994,167898,418,149395
8.999,167888,415,149394
9.004,167880,417,149396
9.009,167887,415,149396
9.014,167886,415,149396
9.019,167872,423,149386
9.024,167870,419,149390
9.029,167874,414,149395
9.034,167873,414,149395
9.039,167881,421,149391
9.044,167878,422,149381
9.049,167864,420,149372
9.054,167860,419,149385
9.059,167870,416,149385
9.064,167865,417,149369
9.069,167867,414,149392
9.074,167864,418,149383
9.079,167878,417,149382
9.084,167876,417,149381
9.089,167878,416,149395
9.094,167878,416,149387
9.099,167881,412,149391
9.104,167892,414,149404
9.109,167888,421,149404
9.114,167915,420,149414
9.119,167902,417,149418
9.124,167902,422,149416
9.128,167904,421,149417
9.133,167884,420,149403
9.138,167902,418,149402
9.143,167898,417,149410
9.148,167898,416,149412
9.153,167896,417,149405
9.158,167903,413,149412
9.163,167901,413,149418
9.168,167913,421,149402
9.173,167904,415,149414
9.178,167893,413,149408
9.183,167895,412,149401
9.188,167897,421,149416
9.193,167904,420,149409
9.198,167911,418,149404
9.203,167905,418,149401
9.208,167895,417,149410
9.213,167909,415,149399
9.218,167912,420,149395
9.223,167900,417,149398
9.228,167902,416,149404
9.233,167917,414,149390
9.238,167912,414,149388
9.243,167915,422,149400
9.248,167907,421,149401
9.253,167915,420,149392
9.258,167930,419,149381
9.263,167918,418,149381
9.268,167905,420,149393
9.273,167928,420,149386
9.278,167919,419,149394
9.282,167916,417,149384
9.287,167931,416,149390
9.292,167922,416,149378
9.297,167913,414,149397
9.302,167919,413,149391
9.307,167935,412,149379
9.312,167924,422,149379
9.317,167934,418,149381
9.322,167944,418,149390
9.327,167919,416,149376
9.332,167934,414,149381
9.337,167934,412,149382
9.342,167936,411,149384
9.347,167938,420,149379
9.352,167939,418,149367
9.357,167936,417,149381
9.362,167951,416,149358
9.367,167950,413,149386
9.372,167950,413,149373
9.377,167952,411,149387
9.382,167955,419,149376
9.387,167952,417,149386
9.392,167973,415,149385
9.397,167966,413,149379
9.402,167991,412,149398
9.407,167969,413,149399
9.412,167993,412,149396
9.417,167991,413,149404
9.422,167990,413,149391
9.427,168006,412,149405
9.432,168015,411,149406
9.436,168029,419,149399
9.441,168020,416,149427
9.446,168028,416,149383
9.451,168051,415,149423
9.456,168052,415,149416
9.461,168079,421,149489
9.466,168083,419,149419
9.471,168102,416,149429
9.476,168107,416,149446
9.481,168120,414,149440
9.486,168127,414,149445
9.491,168149,414,149456
9.496,168147,412,149460
9.501,168180,413,149477
9.506,168201,412,149473
9.511,168161,417,149480
9.516,168215,414,149486
9.521,168215,412,149494
9.526,168231,413,149486
9.531,168244,411,149497
9.536,168248,412,149487
9.541,168261,411,149497
9.546,168284,421,149496
9.551,168288,418,149491
9.556,168291,418,149495
9.561,168292,411,149510
9.566,168310,412,149507
9.571,168320,410,149514
9.576,168324,420,149498
9.581,168329,416,149502
9.586,168328,416,149510
9.591,168342,415,149501
9.595,168354,415,149508
9.600,168359,412,149509
9.605,168378,412,149516
9.610,168386,418,149514
9.615,168377,411,149509
9.620,168380,419,149524
9.625,168388,419,149498
9.630,168385,416,149513
9.635,168401,417,149483
9.640,168381,416,149494
9.645,168394,417,149489
9.650,168382,414,149505
9.655,168387,414,149500
9.660,168398,417,149513
9.665,168399,417,149501
9.670,168401,416,149528
9.675,168399,415,149517
9.680,168391,414,149513
9.685,168405,416,149528
9.690,168381,415,149510
9.695,168372,417,149513
9.700,168354,416,149508
9.705,168325,418,149512
9.710,168310,410,149488
9.715,168309,411,149486
9.720,168289,409,149493
9.725,168287,411,149447
9.730,168289,418,149485
9.735,168255,418,149471
9.740,168247,415,149469
9.745,168240,415,149465
9.749,168235,412,149469
9.754,168219,393,149459
9.759,168216,414,149454
9.764,168199,416,149464
9.769,168194,414,149456
9.774,168193,414,149450
9.779,168171,412,149448
9.784,168168,413,149450
9.789,168170,411,149446
9.794,168148,412,149449
9.799,168160,408,149438
9.804,168150,412,149435
9.809,168141,410,149437
9.814,168113,410,149429
9.819,168126,417,149435
9.824,168110,416,149430
9.829,168112,414,149418
9.834,168077,413,149408
9.839,168082,410,149422
9.844,168091,411,149411
9.849,168088,410,149416
9.854,168073,413,149413
9.859,168085,410,149430
9.864,168067,412,149408
9.869,168061,412,149412
9.874,168057,410,149422
9.879,168041,409,149410
9.884,168065,409,149415
9.889,168031,418,149412
9.894,168035,416,149400
9.899,168003,414,149401
9.904,168020,418,149408
9.908,168027,416,149395
9.913,168015,416,149398
9.918,168015,415,149401
9.923,168023,414,149422
9.928,168021,413,149408
9.933,168016,411,149399
9.938,168006,411,149408
9.943,168030,408,149421
9.948,168025,417,149425
9.953,168038,410,149411
9.958,168048,408,149440
9.963,168033,418,149430
9.968,168049,415,149442
9.973,168057,415,149443
9.978,168045,413,149442
9.983,168038,413,149425
9.988,168049,412,149446
9.993,168039,412,149441
9.998,168049,414,149409
10.003,168067,414,149462
10.008,168052,413,149454
10.013,168043,411,149440
10.018,168039,410,149448
10.023,168043,411,149446
10.028,168047,411,149454
10.033,168052,412,149444
10.038,168035,409,149451
10.043,168050,410,149455
10.048,168046,414,149457
10.053,168059,416,149450
10.058,168061,415,149451
10.062,168047,416,149446
10.067,168049,415,149438
10.072,168048,415,149445
10.077,168034,415,149434
10.082,168038,415,149439
10.087,168030,414,149432
10.092,168055,414,149424
10.097,168039,408,149425
10.102,168034,408,149436
10.107,168032,416,149431
10.112,168020,416,149432
10.117,168025,415,149420
10.122,168032,414,149423
10.127,168046,413,149412
10.132,168040,413,149415
10.137,168041,412,149423
10.142,168033,412,149420
10.147,168023,407,149419
10.152,168043,416,149418
10.157,168041,414,149427
10.162,168046,413,149425
10.167,168050,413,149423
10.172,168047,411,149426
10.177,168042,410,149424
10.182,168057,410,149434
10.187,168076,410,149428
10.192,168064,409,149432
10.197,168073,413,149459
10.202,168088,411,149450
10.207,168090,412,149456
10.212,168100,410,149460
10.217,168083,410,149468
10.221,168098,410,149466
10.226,168112,411,149473
10.231,168111,410,149477
10.236,168119,410,149473
10.241,168114,408,149499
10.246,168110,416,149490
10.251,168130,415,149492
10.256,168127,415,149481
10.261,168136,414,149492
10.266,168138,414,149495
10.271,168140,412,149504
10.276,168143,410,149512
10.281,168155,410,149488
10.286,168157,411,149504
10.291,168166,408,149508
10.296,168168,413,149515
10.301,168171,412,149529
10.306,168167,412,149517
10.311,168175,409,149527
10.316,168186,409,149527
10.321,168197,408,149544
10.326,168193,408,149527
10.331,168184,405,149526
10.336,168183,416,149535
10.341,168193,408,149533
10.346,168205,408,149528
10.351,168191,406,149541
10.356,168204,416,149540
10.361,168203,414,149547
10.366,168221,414,149540
10.371,168214,412,149538
10.375,168220,411,149545
10.380,168201,409,149549
10.385,168217,410,149558
10.390,168228,411,149557
10.395,168238,411,149564
10.400,168242,410,149558
10.405,168249,411,149562
10.410,168240,410,149565
10.415,168253,408,149586
10.420,168264,406,149571
10.425,168256,409,149577
10.430,168269,408,149584
10.435,168267,408,149588
10.440,168290,415,149583
10.445,168288,407,149580
10.450,168272,414,149583
10.455,168286,414,149591
10.460,168293,413,149597
10.465,168277,413,149589
10.470,168307,410,149592
10.475,168281,411,149600
10.480,168284,410,149574
10.485,168299,413,149591
10.490,168284,415,149581
10.495,168290,414,149579
10.500,168303,412,149585
10.505,168300,413,149600
10.510,168314,412,149602
10.515,168327,411,149605
10.520,168325,409,149616
10.525,168334,411,149631
10.529,168320,409,149619
10.534,168308,412,149639
10.539,168290,407,149630
10.544,168277,408,149625
10.549,168273,408,149612
10.554,168267,409,149590
10.559,168255,408,149600
10.564,168227,408,149602
10.569,168227,408,149603
10.574,168216,416,149588
10.579,168229,409,149593
10.584,168192,426,149641
10.589,168194,407,149606
10.594,168208,408,149590
10.599,168199,405,149597
10.604,168190,407,149596
10.609,168199,406,149596
10.614,168192,405,149597
10.619,168162,415,149608
10.624,168193,415,149586
10.629,168180,414,149600
10.634,168171,409,149588
10.639,168168,407,149583
10.644,168164,407,149581
10.649,168176,406,149593
10.654,168149,415,149599
10.659,168153,414,149587
10.664,168152,415,149581
10.669,168153,413,149569
10.674,168142,413,149588
10.679,168134,413,149567
10.684,168131,407,149573
10.688,168118,405,149578
10.693,168124,405,149562
10.698,168113,407,149549
10.703,168116,414,149557
10.708,168106,412,149548
10.713,168097,413,149552
10.718,168098,412,149552
10.723,168097,412,149559
10.728,168098,410,149552
10.733,168107,409,149543
10.738,168096,407,149549
10.743,168102,407,149545
10.748,168090,406,149537
10.753,168115,405,149550
10.758,168102,404,149544
10.763,168114,414,149533
10.768,168122,411,149534
10.773,168117,411,149530
10.778,168094,411,149498
10.783,168116,413,149532
10.788,168118,412,149520
10.793,168128,411,149519
10.798,168140,410,149532
10.803,168144,409,149515
10.808,168154,408,149516
10.813,168164,408,149537
10.818,168156,407,149534
10.823,168160,406,149526
10.828,168160,411,149523
10.833,168153,405,149521
10.838,168159,405,149516
10.842,168149,415,149521
10.847,168159,413,149516
10.852,168168,412,149529
10.857,168164,409,149520
10.862,168167,408,149516
10.867,168161,408,149506
10.872,168168,406,149520
10.877,168173,410,149507
10.882,168168,411,149508
10.887,168159,411,149510
10.892,168173,410,149521
10.897,168135,409,149512
10.902,168153,410,149512
10.907,168153,411,149502
10.912,168161,409,149498
10.917,168143,408,149495
10.922,168149,408,149506
10.927,168159,412,149501
10.932,168157,409,149498
10.937,168150,410,149494
10.942,168139,409,149495
10.947,168130,411,149485
10.952,168138,408,149497
10.957,168140,409,149506
10.962,168126,409,149490
10.967,168131,410,149499
10.972,168137,410,149505
10.977,168145,411,149505
10.982,168140,411,149501
10.987,168134,412,149493
10.992,168131,410,149491
10.997,168136,408,149498
11.001,168121,408,149514
11.006,168136,408,149509
11.011,168136,406,149497
11.016,168134,407,149498
11.021,168138,405,149504
11.026,168129,409,149504
11.031,168124,408,149499
11.036,168122,408,149491
11.041,168131,406,149485
11.046,168130,407,149492
11.051,168123,405,149488
11.056,168120,406,149480
11.061,168117,405,149501
11.066,168106,407,149482
11.071,168131,418,149493
11.076,168124,409,149487
11.081,168120,407,149479
11.086,168118,409,149469
11.091,168125,407,149473
11.096,168124,407,149468
11.101,168104,405,149486
11.106,168119,407,149471
11.111,168141,404,149488
11.116,168133,407,149480
11.121,168145,411,149484
11.126,168126,405,149472
11.131,168125,404,149466
11.136,168108,404,149471
11.141,168091,411,149468
11.146,168120,412,149466
11.151,168127,409,149458
11.155,168116,410,149458
11.160,168116,409,149472
11.165,168104,410,149467
11.170,168120,404,149459
11.175,168106,404,149459
11.180,168105,403,149470
11.185,168117,404,149470
11.190,168138,412,149459
11.195,168131,413,149462
11.200,168131,411,149473
11.205,168127,413,149470
11.210,168126,409,149464
11.215,168136,411,149440
11.220,168134,403,149475
11.225,168129,404,149470
11.230,168141,403,149461
11.235,168122,405,149464
11.240,168139,412,149467
11.245,168129,412,149453
11.250,168164,408,149476
11.255,168155,409,149450
11.260,168161,408,149482
11.265,168166,409,149482
11.270,168169,412,149474
11.275,168160,412,149482
11.280,168173,410,149480
11.285,168171,410,149476
11.290,168173,407,149480
11.295,168178,408,149476
11.300,168171,406,149471
11.305,168173,408,149466
11.310,168191,405,149478
11.314,168194,410,149541
11.319,168196,406,149486
11.324,168207,407,149491
11.329,168208,407,149506
11.334,168206,406,149502
11.339,168197,406,149507
11.344,168198,406,149510
11.349,168188,405,149515
11.354,168163,404,149518
11.359,168164,412,149503
11.364,168112,407,149512
11.369,168138,405,149498
11.374,168124,404,149494
11.379,168129,403,149487
11.384,168124,411,149494
11.389,168113,408,149489
11.394,168108,409,149481
11.399,168095,407,149490
11.404,168100,406,149469
11.409,168099,404,149476
11.414,168074,408,149464
11.419,168076,407,149471
11.424,168070,407,149459
11.429,168064,406,149450
11.434,168059,406,149450
11.439,168060,404,149441
11.444,168056,405,149448
11.449,168052,404,149446
11.454,168038,402,149437
11.459,168030,410,149441
11.464,168018,405,149435
11.468,167877,379,149442
11.473,168026,403,149426
11.478,168011,401,149432
11.483,167989,402,149416
11.488,168005,402,149432
11.493,168003,402,149419
11.498,167983,401,149410
11.503,167987,409,149405
11.508,167996,409,149402
11.513,167993,404,149418
11.518,167986,402,149405
11.523,167975,401,149402
11.528,167973,411,149406
11.533,167980,412,149391
11.538,167955,410,149393
11.543,167946,410,149379
11.548,167945,409,149387
11.553,167942,408,149375
11.558,167943,408,149373
11.563,167952,405,149378
11.568,167938,405,149362
11.573,167946,405,149328
11.578,167940,406,149373
11.583,167931,404,149355
11.588,167929,406,149366
11.593,167938,405,149355
11.598,167932,404,149351
11.603,167928,403,149359
11.608,167938,403,149342
11.613,167932,407,149364
11.618,167929,407,149357
11.622,167942,406,149352
11.627,167921,406,149348
11.632,167928,404,149352
11.637,167931,405,149356
11.642,167908,404,149362
11.647,167902,404,149358
11.652,167911,403,149343
11.657,167905,406,149354
11.662,167921,405,149353
11.667,167919,403,149361
11.672,167902,403,149335
11.677,167911,403,149354
11.682,167894,402,149350
11.687,167909,403,149359
11.692,167897,402,149351
11.697,167899,412,149350
11.702,167921,410,149357
11.707,167923,405,149362
11.712,167927,401,149358
11.717,167911,411,149348
11.722,167903,409,149353
11.727,167906,411,149353
11.732,167918,408,149346
11.737,167917,408,149352
11.742,167917,406,149350
11.747,167913,407,149350
11.752,167914,404,149343
11.757,167919,404,149357
11.762,167921,403,149343
11.767,167910,404,149339
11.772,167897,402,149349
11.777,167910,401,149340
11.781,167908,401,149336
11.786,167914,411,149340
11.791,167912,410,149336
11.796,167906,408,149343
11.801,167914,407,149340
11.806,167916,402,149342
11.811,167924,409,149343
11.816,167910,410,149331
11.821,167926,409,149346
11.826,167914,411,149332
11.831,167933,408,149335
11.836,167924,406,149329
11.841,167935,405,149325
11.846,167919,406,149331
11.851,167947,406,149326
11.856,167938,403,149332
11.861,167932,402,149337
11.866,167948,402,149329
11.871,167947,409,149320
11.876,167956,407,149338
11.881,167946,405,149328
11.886,167944,407,149329
11.891,167932,403,149327
11.896,167942,403,149324
11.901,167979,405,149318
11.906,167945,405,149317
11.911,167961,404,149326
11.916,167949,403,149330
11.921,167954,402,149314
11.926,167957,402,149321
11.931,167961,402,149317
11.935,167964,402,149323
11.940,167968,400,149321
11.945,167974,409,149320
11.950,167985,404,149348
11.955,167958,404,149333
11.960,167960,401,149345
11.965,167976,402,149340
11.970,167979,401,149351
11.975,167994,401,149346
11.980,167993,400,149352
11.985,167985,402,149335
11.990,168015,401,149343
11.995,168005,410,149358
12.000,168014,404,149349
12.005,168032,405,149350
12.010,168021,406,149342
12.015,168036,406,149357
12.020,168011,406,149354
12.025,168041,406,149344
12.030,168037,406,149354
12.035,168033,406,149348
12.040,168033,404,149357
12.045,168022,405,149339
12.050,168029,408,149333
12.055,168015,408,149345
12.060,168032,406,149340
12.065,168039,405,149344
12.070,168044,405,149341
12.075,168045,404,149327
12.080,168042,403,149342
12.085,168044,401,149347
12.090,168049,401,149336
12.094,168056,402,149339
12.099,168049,405,149345
12.104,168061,404,149348
12.109,168068,403,149347
12.114,168082,402,149340
12.119,168087,402,149357
12.124,168088,402,149350
12.129,168095,402,149366
12.134,168098,401,149358
12.139,168094,401,149371
12.144,168115,399,149371
12.149,168108,404,149375
12.154,168124,403,149374
12.159,168132,403,149412
12.164,168117,402,149409
12.169,168116,402,149411
12.174,168142,400,149432
12.179,168126,401,149416
12.184,168119,411,149414
12.189,168104,409,149425
12.194,168107,403,149437
12.199,168089,402,149431
12.204,168089,401,149437
12.209,168082,408,149422
12.214,168066,406,149438
12.219,168085,406,149440
12.224,168065,403,149444
12.229,168061,404,149444
12.234,168063,402,149434
12.239,168062,401,149450
12.244,168074,396,149446
12.248,168064,401,149446
12.253,168050,400,149446
12.258,168055,407,149451
12.263,168040,409,149441
12.268,168040,409,149442
12.273,168037,408,149447
12.278,168036,407,149441
12.283,168022,406,149438
12.288,168013,406,149432
12.293,168016,409,149438
12.298,168010,409,149429
12.303,167997,409,149436
12.308,168001,408,149428
12.313,168008,406,149420
12.318,167985,405,149411
12.323,167986,405,149406
12.328,167979,404,149402
12.333,167973,402,149412
12.338,167982,401,149392
12.343,167957,399,149390
12.348,167966,409,149409
12.353,167956,406,149409
12.358,167958,405,149397
12.363,167939,403,149404
12.368,167957,405,149393
12.373,167944,404,149398
12.378,167963,403,149389
12.383,167938,401,149394
12.388,167934,403,149402
12.393,167960,405,149384
12.398,167945,404,149387
12.403,167944,402,149381
12.407,167933,404,149374
12.412,167922,402,149385
12.417,167946,402,149374
12.422,167931,400,149386
12.427,167942,409,149372
12.432,167940,407,149377
12.437,167940,402,149387
12.442,167928,400,149383
12.447,167947,400,149388
12.452,167941,407,149395
12.457,167944,408,149393
12.462,167953,405,149400
12.467,167957,406,149394
12.472,167965,402,149391
12.477,167941,401,149394
12.482,167944,399,149380
12.487,167937,404,149381
12.492,167946,403,149387
12.497,167936,403,149387
12.502,167924,399,149401
12.507,167940,402,149369
12.512,167951,398,149388
12.517,167937,408,149392
12.522,167930,406,149377
12.527,167944,406,149378
12.532,167934,404,149374
12.537,167964,408,149392
12.542,167957,406,149386
12.547,167951,406,149404
12.552,167945,404,149389
12.557,167933,403,149395
12.561,167960,401,149390
12.566,167956,402,149390
12.571,167961,400,149392
12.576,167955,401,149404
12.581,167984,399,149400
12.586,167971,405,149393
12.591,167977,402,149392
12.596,167978,401,149384
12.601,167959,398,149373
12.606,167964,408,149393
12.611,167981,406,149394
12.616,167979,405,149390
12.621,167986,403,149398
12.626,167984,404,149386
12.631,167986,402,149407
12.636,168001,404,149389
12.641,168005,401,149389
12.646,167993,403,149383
12.651,167992,401,149379
12.656,168005,401,149391
12.661,167996,407,149390
12.666,168007,408,149392
12.671,168016,406,149384
12.676,168026,404,149389
12.681,168006,406,149420
12.686,168018,403,149389
12.691,168020,401,149400
12.696,168027,399,149375
12.701,168043,407,149378
12.706,168031,407,149365
12.711,168030,404,149376
12.715,168037,404,149361
12.720,168057,401,149368
12.725,168055,402,149384
12.730,168054,405,149396
12.735,168060,404,149380
12.740,168068,402,149395
12.745,168094,402,149387
12.750,168083,401,149400
12.755,168083,401,149406
12.760,168083,400,149395
12.765,168085,401,149400
12.770,168083,400,149395
12.775,168090,400,149406
12.780,168107,401,149409
12.785,168102,402,149404
12.790,168103,402,149396
12.795,168094,402,149407
12.800,168106,400,149398
12.805,168121,401,149399
12.810,168117,400,149405
12.815,168113,401,149414
12.820,168111,399,149418
12.825,168122,400,149409
12.830,168126,403,149411
12.835,168119,402,149417
12.840,168125,401,149413
12.845,168126,402,149402
12.850,168136,401,149413
12.855,168131,400,149412
12.860,168138,399,149427
12.865,168132,401,149429
12.870,168131,400,149403
12.874,168144,400,149419
12.879,168149,402,149424
12.884,168148,403,149410
12.889,168154,403,149417
12.894,168165,404,149412
12.899,168168,404,149417
12.904,168167,404,149431
12.909,168162,404,149425
12.914,168168,403,149430
12.919,168201,402,149435
12.924,168177,401,149452
12.929,168177,408,149444
12.934,168182,407,149440
12.939,168174,407,149444
12.944,168199,406,149452
12.949,168209,408,149465
12.954,168215,406,149472
12.959,168222,405,149462
12.964,168212,405,149477
12.969,168206,405,149469
12.974,168212,401,149468
12.979,168212,402,149464
12.984,168202,402,149465
12.989,168211,403,149465
12.994,168217,401,149456
12.999,168212,401,149471
13.004,168210,402,149468
13.009,168220,402,149470
13.014,168212,401,149484
13.019,168230,401,149493
13.024,168195,403,149473
13.028,168212,403,149495
13.033,168217,403,149495
13.038,168198,402,149501
13.043,168201,401,149492
13.048,168164,402,149497
13.053,168160,401,149480
13.058,168154,399,149492
13.063,168144,400,149485
13.068,168130,400,149485
13.073,168132,402,149478
13.078,168131,402,149476
13.083,168123,401,149463
13.088,168116,401,149475
13.093,168119,399,149474
13.098,168107,401,149485
13.103,168112,399,149464
13.108,168104,400,149471
13.113,168086,399,149467
13.118,168069,398,149468
13.123,168087,401,149471
13.128,168092,402,149462
13.133,168086,400,149466
13.138,168075,400,149468
13.143,168082,398,149459
13.148,168087,400,149472
13.153,168072,398,149468
13.158,168087,406,149477
13.163,168079,404,149470
13.168,168059,405,149427
13.173,168075,406,149479
13.178,168050,406,149460
13.183,168052,405,149468
13.187,168057,406,149458
13.192,168057,403,149461
13.197,168053,401,149456
13.202,168029,402,149446
13.207,168033,403,149448
13.212,168039,401,149437
13.217,168062,407,149440
13.222,168022,398,149434
13.227,168037,400,149450
13.232,168021,396,149438
13.237,168022,406,149425
13.242,168018,405,149426
13.247,168006,406,149430
13.252,167998,403,149435
13.257,167992,402,149423
13.262,167998,401,149420
13.267,168004,406,149423
13.272,167986,403,149408
13.277,167998,402,149423
13.282,167997,401,149413
13.287,167996,401,149414
13.292,167989,398,149392
13.297,167996,398,149416
13.302,168014,396,149428
13.307,168008,406,149418
13.312,168002,405,149438
13.317,168011,398,149421
13.322,167997,396,149430
13.327,167998,407,149433
13.332,167993,404,149431
13.337,167978,402,149442
13.341,167986,403,149433
13.346,167999,404,149437
13.351,168006,403,149429
13.356,168008,402,149431
13.361,167998,398,149420
13.366,167984,399,149427
13.371,167983,399,149419
13.376,167997,399,149435
13.381,167997,397,149441
13.386,168002,407,149429
13.391,167975,405,149425
13.396,168001,406,149435
13.401,168003,402,149424
13.406,168002,403,149423
13.411,167986,402,149432
13.416,168016,405,149450
13.421,168010,403,149440
13.426,168032,404,149447
13.431,168032,403,149458
13.436,168043,403,149467
13.441,168056,403,149466
13.446,168065,404,149470
13.451,168101,403,149494
13.456,168107,403,149516
13.461,168116,417,149525
13.466,168126,398,149531
13.471,168144,404,149539
13.476,168139,404,149531
13.481,168145,402,149522
13.486,168126,401,149518
13.491,168136,401,149521
13.496,168148,400,149537
13.500,168155,400,149535
13.505,168168,399,149533
13.510,168172,404,149537
13.515,168178,405,149554
13.520,168191,404,149542
13.525,168190,404,149548
13.530,168197,403,149560
13.535,168205,402,149552
13.540,168206,402,149555
13.545,168204,402,149564
13.550,168205,400,149563
13.555,168217,400,149554
13.560,168214,402,149561
13.565,168226,403,149569
13.570,168230,402,149575
13.575,168220,406,149562
13.580,168243,400,149579
13.585,168238,401,149569
13.590,168244,399,149579
13.595,168250,398,149559
13.600,168226,396,149557
13.605,168233,406,149531
13.610,168217,401,149538
13.615,168208,398,149527
13.620,168228,398,149523
13.625,168208,398,149519
13.630,168199,407,149516
13.635,168203,406,149515
13.640,168196,404,149511
13.645,168196,403,149501
13.650,168197,403,149491
13.654,168190,401,149478
13.659,168181,399,149467
13.664,168180,399,149478
13.669,168157,399,149466
13.674,168165,398,149461
13.679,168164,407,149450
13.684,168159,405,149441
13.689,168171,404,149446
13.694,168156,403,149436
13.699,168158,401,149434
13.704,168150,404,149506
13.709,168144,404,149441
13.714,168158,401,149427
13.719,168151,400,149418
13.724,168141,399,149406
13.729,168135,399,149435
13.734,168146,398,149417
13.739,168154,398,149414
13.744,168152,398,149420
13.749,168166,398,149423
13.754,168135,398,149425
13.759,168171,399,149424
13.764,168154,397,149423
13.769,168151,398,149407
13.774,168158,406,149425
13.779,168173,405,149428
13.784,168177,404,149436
13.789,168177,406,149438
13.794,168161,403,149440
13.799,168186,403,149439
13.804,168196,399,149455
13.808,168190,400,149441
13.813,168203,398,149448
13.818,168204,397,149456
13.823,168225,396,149459
13.828,168221,397,149461
13.833,168227,404,149476
13.838,168223,403,149471
13.843,168224,400,149473
13.848,168228,400,149468
13.853,168235,401,149464
13.858,168233,401,149466
13.863,168236,399,149483
13.868,168249,399,149494
13.873,168274,397,149503
13.878,168264,397,149508
13.883,168283,405,149520
13.888,168281,405,149535
13.893,168273,399,149524
13.898,168274,400,149527
13.903,168260,403,149515
13.908,168268,403,149514
13.913,168239,401,149522
13.918,168233,400,149514
13.923,168222,397,149488
13.928,168220,399,149495
13.933,168210,397,149498
13.938,168218,406,149499
13.943,168215,404,149502
13.948,168205,404,149492
13.953,168208,396,149509
13.958,168192,397,149508
13.963,168186,394,149507
13.967,168193,406,149502
13.972,168197,395,149498
13.977,168185,406,149493
13.982,168181,404,149496
13.987,168155,406,149496
13.992,168168,404,149501
13.997,168169,417,149500
14.002,168171,396,149503
14.007,168179,397,149492
14.012,168181,396,149506
14.017,168170,397,149507
14.022,168177,396,149513
14.027,168180,396,149527
14.032,168180,394,149519
14.037,168183,406,149517
14.042,168163,404,149525
14.047,168127,401,149524
14.052,168158,404,149510
14.057,168176,404,149513
14.062,168162,402,149515
14.067,168156,402,149511
14.072,168167,401,149508
14.077,168149,400,149498
14.082,168146,398,149507
14.087,168144,399,149505
14.092,168139,397,149489
14.097,168130,401,149494
14.102,168115,399,149483
14.107,168133,400,149461
14.112,168113,399,149476
14.117,168110,398,149460
14.121,168111,397,149459
14.126,168111,396,149460
14.131,168100,395,149448
14.136,168123,405,149443
14.141,168118,403,149445
14.146,168135,397,149450
14.151,168111,397,149458
14.156,168121,397,149448
14.161,168136,395,149466
14.166,168132,396,149462
14.171,168131,404,149463
14.176,168118,404,149461
14.181,168116,403,149449
14.186,168113,403,149447
14.191,168119,402,149449
14.196,168097,396,149454
14.201,168110,405,149449
14.206,168109,404,149441
14.211,168099,404,149453
14.216,168105,402,149433
14.221,168109,401,149432
14.226,168111,401,149449
14.231,168124,399,149454
14.236,168110,398,149451
14.241,168126,403,149487
14.246,168121,402,149428
14.251,168125,402,149449
14.256,168114,401,149449
14.261,168127,400,149442
14.266,168122,401,149436
14.271,168127,400,149432
14.276,168120,400,149428
14.280,168133,401,149426
14.285,168123,402,149414
14.290,168112,396,149414
14.295,168130,395,149402
14.300,168131,404,149402
14.305,168115,404,149414
14.310,168126,403,149409
14.315,168128,403,149397
14.320,168119,403,149398
14.325,168136,402,149394
14.330,168128,404,149407
14.335,168130,404,149394
14.340,168135,396,149419
14.345,168137,396,149412
14.350,168139,397,149401
14.355,168136,397,149395
14.360,168140,396,149388
14.365,168131,397,149379
14.370,168137,396,149380
14.375,168153,396,149392
14.380,168141,396,149396
14.385,168154,396,149395
14.390,168164,402,149393
14.395,168166,400,149418
14.400,168161,399,149399
14.405,168181,400,149393
14.410,168156,399,149408
14.415,168182,398,149407
14.420,168171,399,149389
14.425,168179,400,149386
14.430,168170,401,149394
14.434,168165,399,149397
14.439,168172,403,149392
14.444,168173,403,149379
14.449,168180,403,149403
14.454,168168,403,149383
14.459,168183,400,149399
14.464,168207,400,149403
14.469,168054,374,149396
14.474,168220,398,149401
14.479,168201,398,149414
14.484,168202,398,149416
14.489,168202,401,149411
14.494,168218,399,149412
14.499,168227,400,149419
14.504,168228,399,149432
14.509,168231,399,149424
14.514,168224,398,149423
14.519,168235,396,149423
14.524,168238,395,149435
14.529,168234,397,149443
14.534,168220,390,149443
14.539,168222,398,149437
14.544,168244,397,149437
14.549,168241,398,149440
14.554,168240,396,149451
14.559,168252,396,149451
14.564,168268,394,149434
14.569,168261,395,149449
14.574,168267,395,149388
14.579,168275,404,149462
14.584,168268,396,149464
14.589,168280,397,149453
14.593,168287,395,149457
14.598,168286,395,149457
14.603,168283,394,149451
14.608,168282,397,149444
14.613,168281,402,149456
14.618,168290,404,149450
14.623,168292,401,149446
14.628,168291,403,149453
14.633,168301,396,149445
14.638,168298,396,149445
14.643,168290,394,149434
14.648,168303,396,149452
14.653,168307,403,149458
14.658,168321,402,149462
14.663,168319,400,149492
14.668,168321,401,149486
14.673,168311,398,149484
14.678,168320,399,149467
14.683,168302,400,149468
14.688,168300,401,149450
14.693,168263,398,149441
14.698,168258,398,149430
14.703,168245,396,149425
14.708,168232,396,149427
14.713,168225,396,149422
14.718,168222,395,149403
14.723,168217,401,149413
14.728,168213,402,149400
14.733,168201,400,149403
14.738,168207,400,149397
14.743,168192,398,149391
14.747,168195,398,149381
14.752,168179,396,149390
14.757,168165,397,149390
14.762,168172,395,149375
14.767,168174,398,149373
14.772,168167,396,149376
14.777,168159,397,149362
14.782,168141,394,149357
14.787,168144,395,149361
14.792,168131,394,149345
14.797,168118,395,149346
14.802,168113,403,149362
14.807,168116,403,149336
14.812,168118,402,149342
14.817,168102,401,149348
14.822,168099,400,149349
14.827,168098,395,149340
14.832,168091,404,149324
14.837,168089,404,149315
14.842,168098,403,149320
14.847,168080,404,149321
14.852,168063,403,149313
14.857,168089,403,149333
14.862,168064,401,149316
14.867,168070,401,149331
14.872,168056,402,149317
14.877,168061,395,149336
14.882,168055,404,149326
14.887,168052,402,149319
14.892,168055,401,149320
14.897,168041,398,149327
14.901,168027,398,149307
14.906,168038,397,149305
14.911,168026,395,149302
14.916,168033,405,149299
14.921,168038,402,149290
14.926,168026,395,149302
14.931,168016,394,149296
14.936,168035,394,149288
14.941,168028,394,149307
14.946,168037,404,149304
14.951,168046,402,149312
14.956,168040,401,149306
14.961,168018,401,149308
14.966,168022,400,149289
14.971,168016,399,149289
14.976,168008,402,149288
14.981,167994,400,149274
14.986,167989,401,149271
14.991,167985,399,149264
14.996,167981,398,149269
15.001,167986,395,149265
15.006,167984,394,149276
15.011,167989,394,149251
15.016,167990,405,149254
15.021,167976,402,149247
15.026,167985,394,149245
15.031,167965,393,149240
15.036,167964,402,149249
15.041,167963,399,149247
15.046,167974,399,149238
15.051,167966,398,149232
15.056,167966,397,149243
15.060,167963,395,149237
15.065,167968,395,149223
15.070,167937,395,149218
15.075,167968,396,149215
15.080,167961,396,149213
15.085,167967,396,149206
15.090,167959,396,149203
15.095,167954,395,149208
15.100,167959,393,149200
15.105,167949,394,149207
15.110,167968,402,149191
15.115,167959,400,149189
15.120,167934,394,149188
15.125,167949,401,149185
15.130,167969,399,149192
15.135,167956,398,149198
15.140,167952,396,149196
15.145,167961,394,149189
15.150,167963,394,149190
15.155,167949,402,149197
15.160,167956,401,149194
15.165,167961,398,149186
15.170,167939,398,149187
15.175,167954,398,149183
15.180,167980,397,149192
15.185,167971,395,149178
15.190,167951,394,149178
15.195,167938,393,149190
15.200,167979,393,149169
15.205,167963,401,149180
15.210,167952,400,149174
15.214,167954,402,149190
15.219,167974,393,149181
15.224,167974,401,149178
15.229,167973,403,149168
15.234,167984,401,149181
15.239,167988,400,149191
15.244,167979,397,149177
15.249,167976,399,149175
15.254,167980,396,149189
15.259,167977,396,149182
15.264,167978,393,149188
15.269,167990,397,149184
15.274,167993,396,149194
15.279,167999,395,149195
15.284,168016,393,149188
15.289,167999,394,149199
15.294,168005,400,149186
15.299,168013,401,149196
15.304,168011,398,149209
15.309,168010,398,149207
15.314,168024,396,149209
15.319,168025,394,149204
15.324,168043,391,149223
15.329,168036,402,149198
15.334,168016,398,149210
15.339,168037,400,149214
15.344,168047,396,149217
15.349,168044,398,149223
15.354,168052,395,149223
15.359,168052,395,149221
15.364,168059,397,149227
15.369,168056,398,149241
15.373,168069,397,149231
15.378,168084,396,149243
15.383,168073,394,149243
15.388,168068,394,149231
15.393,168085,401,149246
15.398,168102,401,149250
15.403,168091,398,149247
15.408,168108,398,149266
15.413,168117,400,149261
15.418,168113,400,149253
15.423,168117,395,149262
15.428,168113,397,149240
15.433,168114,393,149263
15.438,168128,393,149251
15.443,168127,391,149255
15.448,168119,402,149276
15.453,168120,399,149279
15.458,168142,398,149281
15.463,168148,401,149298
15.468,168150,401,149304
15.473,168155,397,149300
15.478,168148,397,149309
15.483,168138,395,149315
15.488,168117,395,149317
15.493,168127,393,149320
15.498,168104,392,149305
15.503,168084,399,149300
15.508,168086,401,149298
15.513,168074,394,149288
15.518,168061,395,149279
15.523,168046,396,149294
15.527,168048,398,149296
15.532,168049,398,149293
15.537,168050,399,149284
15.542,168036,399,149286
15.547,168032,402,149288
15.552,168025,392,149295
15.557,168019,393,149266
15.562,168020,396,149282
15.567,168012,399,149293
15.572,168001,401,149274
15.577,167997,394,149276
15.582,168000,396,149271
15.587,167984,397,149265
15.592,167967,399,149264
15.597,167978,400,149276
15.602,167972,400,149266
15.607,168007,396,149274
15.612,167955,402,149261
15.617,167970,393,149265
15.622,167961,394,149268
15.627,167956,395,149245
15.632,167973,396,149243
15.637,167937,397,149250
15.642,167946,399,149241
15.647,167933,401,149242
15.652,167946,401,149251
15.657,167933,395,149255
15.662,167920,396,149255
15.667,167933,398,149231
15.672,167928,400,149253
15.677,167925,392,149235
15.682,167911,392,149238
15.686,167909,394,149235
15.691,167899,394,149229
15.696,167900,394,149229
15.701,167910,391,149238
15.706,167897,398,149232
15.711,167900,398,149221
15.716,167882,398,149211
15.721,167884,397,149217
15.726,167882,398,149216
15.731,167881,400,149209
15.736,167892,401,149209
15.741,167880,401,149210
15.746,167894,391,149220
15.751,167893,392,149217
15.756,167896,396,149223
15.761,167894,395,149216
15.766,167884,395,149227
15.771,167887,395,149217
15.776,167893,394,149214
15.781,167872,395,149208
15.786,167874,395,149213
15.791,167877,395,149212
15.796,167869,395,149219
15.801,167865,395,149213
15.806,167863,400,149201
15.811,167882,391,149207
15.816,167877,391,149215
15.821,167876,392,149215
15.826,167874,393,149215
15.831,167878,394,149211
15.836,167866,395,149224
15.840,167881,393,149224
15.845,167878,395,149222
15.850,167874,402,149168
15.855,167879,395,149221
15.860,167874,395,149217
15.865,167877,396,149218
15.870,167880,399,149206
15.875,167877,399,149229
15.880,167873,398,149212
15.885,167884,399,149210
15.890,167893,401,149213
15.895,167890,392,149206
15.900,167876,390,149213
15.905,167875,397,149207
15.910,167888,399,149214
15.915,167888,399,149215
15.920,167889,400,149215
15.925,167875,390,149205
15.930,167898,392,149203
15.935,167886,391,149209
15.940,167889,393,149208
15.945,167879,393,149208
15.950,167878,399,149211
15.955,167879,398,149206
15.960,167902,399,149215
15.965,167886,398,149221
15.970,167896,400,149216
15.975,167892,401,149226
15.980,167914,391,149228
15.985,167914,391,149220
15.990,167905,394,149215
15.994,167921,400,149230
15.999,167909,399,149210
16.004,167908,399,149208
16.009,167920,392,149211
16.014,167919,394,149201
16.019,167921,394,149204
16.024,167919,394,149207
16.029,167930,398,149211
16.034,167920,397,149210
16.039,167926,399,149205
16.044,167938,390,149205
16.049,167933,396,149211
16.054,167930,398,149214
16.059,167941,401,149198
16.064,167944,390,149205
16.069,167924,394,149207
16.074,167952,393,149213
16.079,167966,396,149239
16.084,167950,396,149210
16.089,167956,398,149218
16.094,167956,382,149222
16.099,167954,394,149218
16.104,167962,394,149223
16.109,167969,396,149226
16.114,167962,396,149222
16.119,167986,397,149226
16.124,167976,398,149237
16.129,167994,400,149234
16.134,167971,390,149227
16.139,167979,392,149233
16.144,167985,393,149234
16.149,167992,396,149234
16.153,168001,396,149237
16.158,168006,397,149249
16.163,168003,397,149234
16.168,168016,399,149241
16.173,168012,399,149245
16.178,168022,400,149249
16.183,168030,391,149247
16.188,168023,392,149247
16.193,168021,396,149244
16.198,168036,391,149253
16.203,168029,391,149257
16.208,168030,393,149255
16.213,168044,392,149248
16.218,168040,394,149252
16.223,168053,393,149248
16.228,168040,396,149257
16.233,168028,395,149242
16.238,168042,398,149250
16.243,168047,391,149246
16.248,168060,394,149243
16.253,168049,394,149245
16.258,168054,397,149246
16.263,168070,398,149261
16.268,168070,400,149254
16.273,168061,391,149264
16.278,168068,393,149274
16.283,168069,391,149257
16.288,168067,394,149256
16.293,168076,392,149271
16.298,168083,394,149271
16.303,168087,394,149272
16.307,168077,396,149283
16.312,168088,396,149260
16.317,168100,399,149276
16.322,168097,390,149262
16.327,168102,391,149270
16.332,168111,392,149293
16.337,168129,397,149292
16.342,168122,396,149301
16.347,168113,399,149309
16.352,168118,398,149312
16.357,168118,400,149316
16.362,168093,391,149330
16.367,168085,392,149303
16.372,168071,394,149312
16.377,168073,395,149304
16.382,168045,395,149294
16.387,168046,391,149286
16.392,168048,390,149285
16.397,168043,391,149283
16.402,168022,392,149270
16.407,168020,392,149271
16.412,168007,394,149283
16.417,168019,395,149274
16.422,168006,395,149281
16.427,167996,397,149267
16.432,167995,398,149267
16.437,167987,392,149252
16.442,167997,393,149260
16.447,167972,395,149237
16.452,167963,395,149236
16.457,167962,397,149248
16.462,167953,398,149229
16.466,167948,390,149235
16.471,167943,390,149239
16.476,167946,391,149233
16.481,167943,392,149234
16.486,167935,396,149211
16.491,167910,397,149233
16.496,167913,398,149216
16.501,167899,398,149202
16.506,167897,399,149197
16.511,167896,397,149190
16.516,167881,389,149191
16.521,167873,390,149188
16.526,167882,392,149193
16.531,167882,392,149183
16.536,167864,398,149177
16.541,167879,397,149181
16.546,167865,399,149169
16.551,167860,392,149175
16.556,167864,394,149170
16.561,167854,393,149147
16.566,167846,395,149166
16.571,167833,396,149155
16.576,167832,399,149151
16.581,167841,396,149173
16.586,167839,394,149137
16.591,167838,394,149150
16.596,167846,395,149142
16.601,167836,396,149145
16.606,167825,397,149151
16.611,167815,398,149128
16.616,167827,392,149135
16.620,167845,392,149135
16.625,167827,393,149148
16.630,167836,398,149141
16.635,167833,390,149145
16.640,167832,391,149144
16.645,167838,393,149153
16.650,167839,393,149152
16.655,167836,393,149150
16.660,167833,395,149142
16.665,167835,397,149139
16.670,167807,398,149134
16.675,167814,390,149141
16.680,167819,395,149124
16.685,167829,396,149148
16.690,167815,398,149130
16.695,167825,390,149134
16.700,167807,391,149147
16.705,167829,393,149138
16.710,167815,394,149147
16.715,167832,397,149136
16.720,167820,390,149138
16.725,167817,391,149128
16.730,167842,390,149150
16.735,167827,392,149138
16.740,167836,394,149144
16.745,167825,396,149143
16.750,167842,399,149153
16.755,167834,390,149146
16.760,167843,392,149143
16.765,167834,394,149152
16.770,167851,397,149128
16.775,167838,389,149157
16.779,167843,395,149135
16.784,167832,396,149143
16.789,167836,400,149134
16.794,167831,389,149142
16.799,167829,393,149129
16.804,167828,394,149137
16.809,167843,398,149145
16.814,167836,387,149143
16.819,167841,391,149137
16.824,167851,395,149099
16.829,167852,392,149134
16.834,167847,393,149133
16.839,167858,395,149130
16.844,167850,396,149121
16.849,167840,390,149124
16.854,167833,389,149122
16.859,167851,392,149129
16.864,167855,392,149128
16.869,167844,396,149125
16.874,167860,388,149115
16.879,167855,391,149129
16.884,167857,390,149123
16.889,167855,393,149123
16.894,167870,395,149136
16.899,167866,398,149121
16.904,167856,388,149126
16.909,167869,392,149118
16.914,167890,393,149125
16.919,167883,395,149124
16.924,167877,390,149140
16.929,167895,394,149133
16.933,167904,394,149132
16.938,167905,396,149146
16.943,167900,397,149133
16.948,167914,393,149140
16.953,167917,392,149156
16.958,167916,398,149162
16.963,167921,389,149145
16.968,167917,393,149167
16.973,167939,386,149167
16.978,167935,394,149168
16.983,167943,397,149171
16.988,167950,391,149182
16.993,167956,393,149177
16.998,167949,398,149177
17.003,167946,389,149196
17.008,167955,392,149179
17.013,167960,392,149181
17.018,167968,395,149177
17.023,167977,390,149179
17.028,167989,393,149200
17.033,167991,394,149210
17.038,167989,398,149200
17.043,167996,390,149220
17.048,168011,394,149217
17.053,168019,394,149220
17.058,168007,395,149229
17.063,168034,395,149236
17.068,168042,392,149181
17.073,168051,392,149260
17.078,168061,393,149265
17.083,168064,395,149273
17.087,168070,390,149264
17.092,168073,390,149284
17.097,168066,393,149279
17.102,168071,393,149281
17.107,168100,397,149271
17.112,168087,398,149289
17.117,168107,417,149284
17.122,168103,394,149292
17.127,168093,397,149294
17.132,168120,398,149305
17.137,168127,389,149307
17.142,168131,389,149316
17.147,168128,391,149301
17.152,168128,391,149332
17.157,168150,391,149331
17.162,168169,392,149325
17.167,168153,398,149332
17.172,168166,389,149342
17.177,168169,389,149336
17.182,168189,389,149344
17.187,168196,390,149350
17.192,168201,392,149362
17.197,168208,393,149355
17.202,168204,393,149372
17.207,168211,397,149375
17.212,168234,398,149375
17.217,168209,392,149378
17.222,168230,393,149388
17.227,168224,395,149384
17.232,168237,396,149407
17.237,168245,389,149397
17.242,168264,389,149417
17.246,168245,391,149416
17.251,168269,391,149419
17.256,168263,393,149428
17.261,168264,392,149446
17.266,168286,388,149451
17.271,168264,390,149449
17.276,168273,390,149458
17.281,168259,392,149446
17.286,168250,394,149448
17.291,168229,393,149446
17.296,168215,392,149428
17.301,168208,391,149433
17.306,168209,391,149421
17.311,168219,392,149424
17.316,168194,396,149442
17.321,168190,395,149430
17.326,168191,394,149419
17.331,168194,393,149427
17.336,168190,394,149426
17.341,168180,392,149434
17.346,168175,393,149422
17.351,168181,392,149424
17.356,168169,392,149431
17.361,168204,394,149431
17.366,168156,397,149438
17.371,168158,395,149434
17.376,168151,394,149427
17.381,168142,392,149455
17.386,168171,390,149425
17.391,168148,390,149429
17.396,168159,388,149427
17.400,168160,397,149430
17.405,168148,396,149431
17.410,168170,392,149425
17.415,168133,392,149440
17.420,168148,393,149431
17.425,168133,392,149425
17.430,168138,392,149430
17.435,168130,391,149415
17.440,168118,390,149422
17.445,168124,389,149426
17.450,168122,389,149427
17.455,168124,388,149419
17.460,168118,390,149424
17.465,168122,390,149416
17.470,168107,389,149400
17.475,168120,389,149413
17.480,168093,388,149411
17.485,168102,387,149404
17.490,168108,397,149407
17.495,168111,395,149406
17.500,168112,394,149409
17.505,168102,387,149410
17.510,168118,389,149392
17.515,168103,387,149419
17.520,168090,396,149397
17.525,168099,395,149393
17.530,168101,395,149400
17.535,168098,392,149393
17.540,168128,392,149409
17.545,168122,391,149414
17.550,168119,391,149405
17.555,168121,389,149412
17.559,168102,392,149404
17.564,168110,392,149411
17.569,168114,392,149402
17.574,168093,394,149397
17.579,168107,390,149405
17.584,168087,389,149404
17.589,168106,389,149400
17.594,168098,387,149395
17.599,168095,396,149385
17.604,168097,415,149398
17.609,168080,389,149377
17.614,168086,388,149390
17.619,168088,389,149378
17.624,168080,389,149377
17.629,168075,398,149371
17.634,168069,396,149349
17.639,168074,396,149338
17.644,168069,393,149356
17.649,168070,392,149349
17.654,168056,395,149341
17.659,168047,395,149333
17.664,168057,393,149329
17.669,168046,396,149330
17.674,168049,393,149316
17.679,168028,393,149324
17.684,168059,392,149318
17.689,168044,393,149314
17.694,168045,392,149317
17.699,168051,390,149330
17.704,168072,396,149324
17.709,168051,394,149321
17.713,168051,394,149324
17.718,168063,394,149323
17.723,168065,392,149339
17.728,168073,394,149328
17.733,168071,393,149319
17.738,168076,393,149332
17.743,168067,392,149322
17.748,168057,395,149304
17.753,168048,387,149305
17.758,168069,389,149289
17.763,168066,388,149307
17.768,168060,389,149304
17.773,168071,388,149295
17.778,168045,388,149300
17.783,168054,396,149295
17.788,168071,387,149309
17.793,168077,388,149291
17.798,168062,388,149297
17.803,168065,392,149294
17.808,168069,394,149288
17.813,168075,393,149284
17.818,168072,393,149282
17.823,168072,391,149270
17.828,168075,392,149263
17.833,168074,391,149270
17.838,168058,391,149263
17.843,168065,390,149271
17.848,168077,394,149214
17.853,168074,393,149255
17.858,168057,393,149257
17.863,168069,392,149252
17.868,168073,393,149231
17.872,168061,392,149235
17.877,168064,391,149249
17.882,168083,390,149239
17.887,168067,390,149242
17.892,168068,389,149243
17.897,168084,393,149244
17.902,168082,391,149247
17.907,168083,393,149241
17.912,168082,392,149233
17.917,168085,390,149235
17.922,168082,390,149237
17.927,168081,390,149242
17.932,168090,391,149248
17.937,168105,392,149235
17.942,168099,390,149232
17.947,168110,395,149242
17.952,168100,396,149237
17.957,168108,395,149232
17.962,168112,395,149232
17.967,168125,395,149233
17.972,168120,395,149243
17.977,168120,395,149251
17.982,168126,395,149242
17.987,168132,396,149238
17.992,168123,395,149236
17.997,168111,392,149242
18.002,168119,391,149231
18.007,168112,393,149249
18.012,168130,394,149230
18.017,168146,394,149227
18.022,168132,395,149239
18.026,168135,394,149226
18.031,168125,395,149239
18.036,168126,395,149233
18.041,168127,396,149242
18.046,168138,391,149223
18.051,168159,389,149226
18.056,168141,390,149228
18.061,168147,390,149244
18.066,168151,390,149239
18.071,168149,391,149239
18.076,168139,391,149248
18.081,168145,390,149242
18.086,168141,389,149251
18.091,168127,389,149279
18.096,168124,388,149250
18.101,168100,387,149232
18.106,168077,395,149226
18.111,168075,396,149217
18.116,168059,397,149218
18.121,168055,395,149208
18.126,168048,394,149206
18.131,168044,393,149206
18.136,168053,393,149203
18.141,168007,391,149190
18.146,168035,397,149200
18.151,168026,395,149180
18.156,168016,394,149169
18.161,168000,394,149169
18.166,168002,394,149147
18.171,168006,393,149148
18.176,167984,393,149139
18.180,167975,392,149124
18.185,167965,392,149109
18.190,167959,396,149104
18.195,167960,395,149114
18.200,167959,394,149105
18.205,167969,392,149102
18.210,167947,393,149079
18.215,167950,391,149082
18.220,167952,390,149077
18.225,167949,390,149083
18.230,167948,389,149072
18.235,167953,388,149064
18.240,167960,392,149058
18.245,167965,391,149073
18.250,167959,391,149038
18.255,167946,390,149045
18.260,167960,390,149036
18.265,167972,389,149035
18.270,167950,390,149031
18.275,167951,387,149028
18.280,167953,395,149028
18.285,167954,394,149017
18.290,167940,393,149010
18.295,167952,391,149008
18.300,167962,390,148995
18.305,167966,388,149002
18.310,167964,398,149004
18.315,167971,395,148994
18.320,167963,395,148988
18.325,167980,392,148993
18.330,167970,394,148987
18.335,167983,392,148981
18.339,167979,396,148992
18.344,167977,393,148982
18.349,167976,396,148978
18.354,167980,394,148981
18.359,167973,395,148981
18.364,167992,393,148976
18.369,167980,395,148973
18.374,167986,392,148983
18.379,167979,392,148975
18.384,167970,390,148972
18.389,167980,396,148959
18.394,167960,394,148955
18.399,167973,393,148968
18.404,167959,392,148959
18.409,167944,393,148954
18.414,167956,390,148960
18.419,167960,391,148970
18.424,167954,391,148966
18.429,167956,393,148958
18.434,167955,395,148943
18.439,167944,395,148952
18.444,167949,394,148939
18.449,167942,395,148936
18.454,167948,393,148944
18.459,167956,394,148935
18.464,167942,394,148936
18.469,167963,386,148929
18.474,167953,393,148956
18.479,167958,395,148932
18.484,167950,388,148947
18.489,167957,391,148938
18.493,167961,389,148954
18.498,167954,390,148955
18.503,167960,389,148961
18.508,167957,390,148959
18.513,167958,389,148958
18.518,167974,390,148954
18.523,167967,388,148964
18.528,167967,390,148971
18.533,167973,395,148952
18.538,167971,396,148965
18.543,167975,394,148954
18.548,167984,397,148963
18.553,167992,395,148971
18.558,167985,396,148947
18.563,167990,394,148960
18.568,167980,393,148959
18.573,167991,395,148934
18.578,167963,396,148955
18.583,167988,388,148961
18.588,167996,389,148965
18.593,167985,389,148971
18.598,167999,388,148966
18.603,167994,396,148965
18.608,167982,397,148965
18.613,168006,396,148949
18.618,167997,397,148960
18.623,167998,394,148951
18.628,167995,397,148906
18.633,168009,390,148956
18.638,168007,390,148957
18.643,168002,389,148952
18.648,168000,390,148954
18.652,168018,388,148954
18.657,168027,388,148963
18.662,168007,388,148963
18.667,168020,389,148952
18.672,168014,389,148962
18.677,168052,392,148954
18.682,168022,391,148958
18.687,168013,391,148967
18.692,168032,392,148954
18.697,168037,391,148968
18.702,168045,391,148977
18.707,168050,392,148977
18.712,168049,392,148973
18.717,168056,393,148986
18.722,168051,391,148978
18.727,168061,396,148975
18.732,168053,396,148978
18.737,168048,397,148986
18.742,168070,387,148985
18.747,168051,387,148980
18.752,168070,387,148993
18.757,168061,388,148997
18.762,168074,388,148999
18.767,168070,389,148989
18.772,168075,389,149003
18.777,168125,386,148995
18.782,168091,387,148989
18.787,168094,388,148996
18.792,168097,387,149001
18.797,168091,388,149012
18.802,168101,388,149019
18.806,168085,388,149016
18.811,168103,388,149011
18.816,168119,389,149012
18.821,168115,386,149018
18.826,168105,392,149016
18.831,168120,391,149018
18.836,168121,392,149021
18.841,168130,392,149017
18.846,168125,393,149016
18.851,168125,393,149010
18.856,168120,394,149000
18.861,168138,395,149018
18.866,168132,394,149010
18.871,168128,394,149025
18.876,168143,389,149026
18.881,168116,388,149025
18.886,168121,389,149025
18.891,168145,390,149031
18.896,168120,389,149034
18.901,168113,387,149051
18.906,168120,388,149025
18.911,168104,389,149043
18.916,168101,387,149041
18.921,168102,371,149038
18.926,168061,391,149020
18.931,168066,392,149030
18.936,168045,390,149015
18.941,168060,390,149025
18.946,168036,391,149003
18.951,168033,391,149008
18.956,168034,390,149007
18.961,168030,391,149005
18.965,168022,391,149003
18.970,168008,396,149003
18.975,168011,393,149006
18.980,168016,393,149001
18.985,168010,394,149005
18.990,168010,394,148998
18.995,167983,392,148995
19.000,167975,393,148985
19.005,167985,392,148980
19.010,167971,393,148974
19.015,167962,390,148983
19.020,167955,395,148971
19.025,167961,395,148985
19.030,167950,396,148977
19.035,167949,393,148978
19.040,167943,392,148977
19.045,167938,393,148960
19.050,167946,394,148962
19.055,167931,392,148967
19.060,167928,392,148952
19.065,167917,392,148954
19.070,167927,388,148951
19.075,167916,387,148954
19.080,167912,388,148950
19.085,167911,387,148954
19.090,167895,389,148953
19.095,167889,386,148954
19.100,167881,388,148963
19.105,167895,386,148945
19.110,167883,387,148944
19.115,167893,385,148943
19.119,167886,390,148939
19.124,167885,389,148946
19.129,167876,390,148949
19.134,167879,389,148944
19.139,167888,390,148959
19.144,167889,389,148954
19.149,167887,392,148943
19.154,167896,390,148958
19.159,167902,391,148937
19.164,167902,399,148939
19.169,167879,392,148951
19.174,167903,390,148953
19.179,167901,388,148963
19.184,167894,389,148959
19.189,167899,390,148941
19.194,167886,389,148953
19.199,167882,389,148954
19.204,167870,388,148962
19.209,167879,389,148962
19.214,167894,393,148947
19.219,167879,387,148945
19.224,167877,394,148939
19.229,167887,396,148962
19.234,167886,393,148953
19.239,167872,394,148956
19.244,167880,393,148955
19.249,167882,393,148948
19.254,167885,392,148954
19.259,167871,392,148941
19.264,167868,386,148946
19.269,167876,387,148949
19.273,167882,386,148961
19.278,167885,388,148950
19.283,167885,387,148938
19.288,167876,389,148944
19.293,167878,389,148936
19.298,167888,391,148948
19.303,167885,390,148945
19.308,167883,391,148957
19.313,167884,396,148941
19.318,167866,394,148949
19.323,167887,395,148950
19.328,167872,396,148932
19.333,167886,396,148935
19.338,167880,387,148935
19.343,167887,386,148927
19.348,167872,386,148932
19.353,167863,396,148925
19.358,167863,396,148921
19.363,167871,388,148910
19.368,167868,389,148906
19.373,167865,388,148916
19.378,167873,388,148905
19.383,167874,387,148913
19.388,167870,389,148914
19.393,167873,387,148923
19.398,167880,387,148905
19.403,167897,387,148914
19.408,167891,387,148870
19.413,167894,389,148915
19.418,167908,389,148918
19.423,167903,388,148908
19.428,167894,388,148927
19.432,167894,389,148909
19.437,167887,388,148924
19.442,167895,387,148897
19.447,167905,387,148910
19.452,167903,388,148924
19.457,167953,379,148927
19.462,167917,390,148921
19.467,167911,389,148980
19.472,167926,387,148921
19.477,167928,389,148928
19.482,167924,389,148924
19.487,167926,387,148929
19.492,167939,386,148947
19.497,167949,386,148923
19.502,167952,385,148947
19.507,167938,389,148943
19.512,167965,388,148944
19.517,167950,388,148930
19.522,167944,387,148941
19.527,167951,387,148947
19.532,167977,387,148934
19.537,167956,386,148945
19.542,167971,394,148947
19.547,167966,393,148947
19.552,167982,393,148957
19.557,167972,387,148954
19.562,167985,386,148958
19.567,167974,386,148948
19.572,167973,386,148952
19.577,167967,388,148955
19.582,167969,387,148954
19.586,167978,387,148948
19.591,167983,387,148955
19.596,167983,387,148962
19.601,167996,387,148965
19.606,167970,394,148959
19.611,167999,394,148961
19.616,168004,393,148971
19.621,167997,391,148974
19.626,168003,389,148982
19.631,168004,390,148979
19.636,168011,389,148978
19.641,168017,389,148984
19.646,168007,389,148981
19.651,168016,390,148987
19.656,168038,392,148980
19.661,168029,391,148990
19.666,168040,392,148997
19.671,168036,391,148989
19.676,168046,391,148998
19.681,168032,390,148995
19.686,168063,389,149003
19.691,168061,390,149004
19.696,168068,389,149001
19.701,168051,405,149021
19.706,168063,390,149014
19.711,168065,391,149017
19.716,168058,388,149017
19.721,168071,386,149038
19.726,168082,386,149046
19.731,168082,395,149044
19.736,168075,391,149065
19.741,168078,391,149054
19.745,168090,390,149073
19.750,168078,394,149063
19.755,168069,392,149069
19.760,168063,392,149057
19.765,168055,389,149062
19.770,168024,390,149044
19.775,168032,389,149035
19.780,168023,388,149042
19.785,168014,387,149047
19.790,168007,386,149044
19.795,168009,385,149055
19.800,168007,392,149030
19.805,167997,392,149041
19.810,167999,394,149026
19.815,167996,391,149031
19.820,167970,391,149026
19.825,167987,390,149025
19.830,167971,390,149030
19.835,167960,388,149023
19.840,167949,388,149013
19.845,167949,386,148994
19.850,167955,390,148998
19.855,167947,388,149014
19.860,167954,388,149012
19.865,167933,386,149000
19.870,167946,387,149010
19.875,167926,385,149013
19.880,167947,385,149001
19.885,167926,384,149009
19.890,167911,395,149004
19.895,167924,393,148990
19.899,167918,391,148985
19.904,167921,389,148989
19.909,167904,391,148991
19.914,167920,390,148980
19.919,167921,390,148979
19.924,167907,388,148978
19.929,167893,390,148988
19.934,167888,388,148988
19.939,167903,388,148970
19.944,167894,389,149045
19.949,167884,390,148977
19.954,167882,388,148967
19.959,167877,387,148968
19.964,167864,385,148961
19.969,167882,386,148957
19.974,167860,385,148969
19.979,167862,395,148954
19.984,167861,393,148957
19.989,167854,395,148962
19.994,167861,387,148948
19.999,167872,389,148952
20.004,167863,387,148956
20.009,167872,390,148958
20.014,167881,387,148973
20.019,167877,388,148974
20.024,167895,387,148979
20.029,167893,389,148967
20.034,167895,386,148966
20.039,167883,389,148971
20.044,167882,389,148967
20.049,167873,390,148956
20.054,167872,389,148955
20.058,167870,388,148960
20.063,167875,385,148951
20.068,167869,385,148969
20.073,167867,393,148959
20.078,167870,393,148964
20.083,167886,390,148973
20.088,167873,390,148974
20.093,167883,385,148964
20.098,167855,394,148956
20.103,167881,390,148953
20.108,167880,390,148968
20.113,167876,389,148947
20.118,167889,388,148966
20.123,167879,386,148962
20.128,167873,386,148968
20.133,167873,387,148968
20.138,167877,383,148962
20.143,167869,388,148969
20.148,167895,388,148960
20.153,167901,387,148977
20.158,167897,386,148970
20.163,167894,385,148961
20.168,167895,395,148972
20.173,167887,393,148966
20.178,167897,393,148965
20.183,167906,393,148980
20.188,167897,392,148977
20.193,167905,386,148978
20.198,167926,386,148983
20.203,167908,385,148985
20.208,167925,385,148973
20.212,167924,385,148982
20.217,167925,395,148978
20.222,167924,393,148990
20.227,167925,394,148983
20.232,167934,393,148990
20.237,167942,395,148989
20.242,167936,387,148995
20.247,167947,386,149007
20.252,167944,386,149001
20.257,167955,385,148997
20.262,167959,384,149000
20.267,167960,394,149011
20.272,167971,393,149022
20.277,167971,391,149009
20.282,167972,389,149019
20.287,167975,393,149015
20.292,167964,391,149018
20.297,167972,393,149008
20.302,167972,391,149012
20.307,167985,390,149018
20.312,167988,389,149022
20.317,167986,389,149019
20.322,167973,389,149014
20.327,167978,388,149027
20.332,167996,389,149027
20.337,167978,388,149034
20.342,167994,389,149015
20.347,167984,389,149030
20.352,167997,390,149030
20.357,168001,388,149021
20.362,168004,387,149028
20.366,168000,386,149031
20.371,168013,386,149043
20.376,168011,385,149039
20.381,168033,385,149050
20.386,168014,388,149042
20.391,168037,387,149048
20.396,168039,386,149035
20.401,168046,393,149040
20.406,168033,392,149044
20.411,168036,391,149038
20.416,168034,390,149033
20.421,168042,389,149057
20.426,168034,387,149064
20.431,168049,387,149061
20.436,168057,389,149068
20.441,168062,388,149064
20.446,168056,387,149061
20.451,168077,386,149068
20.456,168075,385,149076
20.461,168081,393,149072
20.466,168081,391,149085
20.471,168081,387,149082
20.476,168087,386,149073
20.481,168085,393,149158
20.486,168098,387,149084
20.491,168087,388,149083
20.496,168110,385,149089
20.501,168089,386,149088
20.506,168113,384,149102
20.511,168106,393,149091
20.516,168127,391,149097
20.521,168125,392,149102
20.525,168118,389,149117
20.530,168101,394,149113
20.535,168149,391,149113
20.540,168152,391,149104
20.545,168146,390,149120
20.550,168139,391,149112
20.555,168125,390,149110
20.560,168142,390,149119
20.565,168160,390,149105
20.570,168157,390,149124
20.575,168168,390,149118
20.580,168166,385,149129
20.585,168168,393,149142
20.590,168172,395,149154
20.595,168173,393,149169
20.600,168180,392,149159
20.605,168157,392,149165
20.610,168153,393,149161
20.615,168147,392,149162
20.620,168140,393,149152
20.625,168125,391,149149
20.630,168124,388,149141
20.635,168102,386,149145
20.640,168098,387,149124
20.645,168095,384,149127
20.650,168095,387,149141
20.655,168085,385,149131
20.660,168088,386,149137
20.665,168080,385,149129
20.670,168089,385,149125
20.675,168086,384,149130
20.679,168065,392,149125
20.684,168082,390,149127
20.689,168078,392,149110
20.694,168060,390,149124
20.699,168058,390,149126
20.704,168049,389,149125
20.709,168067,389,149125
20.714,168041,390,149131
20.719,168061,390,149107
20.724,168052,391,149108
20.729,168039,391,149101
20.734,168040,390,149095
20.739,168035,390,149082
20.744,168026,389,149102
20.749,168022,390,149083
20.754,168017,389,149077
20.759,168011,390,149072
20.764,168009,389,149064
20.769,168010,390,149069
20.774,168014,382,149074
20.779,167991,385,149063
20.784,168012,385,149067
20.789,167994,386,149060
20.794,168001,387,149051
20.799,167995,386,149045
20.804,167979,386,149049
20.809,167958,387,149038
20.814,167969,386,149035
20.819,167958,386,149019
20.824,167959,389,149030
20.829,167955,390,149017
20.834,167956,390,149014
20.838,167957,390,149026
20.843,167962,388,149006
20.848,167952,388,149020
20.853,167960,392,148996
20.858,167940,391,149013
20.863,167962,391,149022
20.868,167941,391,149025
20.873,167957,385,149022
20.878,167955,384,149020
20.883,167956,385,149020
20.888,167942,384,149029
20.893,167935,385,148997
20.898,167929,384,149001
20.903,167938,385,149015
20.908,167941,385,149007
20.913,167927,384,149003
20.918,167922,385,148986
20.923,167917,388,148982
20.928,167911,387,148992
20.933,167922,388,148981
20.938,167924,387,148979
20.943,167909,386,148969
20.948,167906,388,148966
20.953,167921,388,148958
20.958,167896,386,148955
20.963,167918,385,148954
20.968,167927,385,148957
20.973,167904,391,148962
20.978,167903,390,148945
20.983,167900,389,148950
20.988,167903,387,148946
20.992,167899,389,148933
20.997,167896,389,148935
21.002,167897,388,148938
21.007,167892,388,148932
21.012,167903,388,148925
21.017,167916,389,148917
21.022,167888,386,148937
21.027,167900,387,148917
21.032,167908,387,148911
21.037,167880,388,148914
21.042,167891,388,148891
21.047,167901,387,148895
21.052,167895,389,148898
21.057,167893,388,148900
21.062,167876,388,148898
21.067,167901,393,148894
21.072,167894,393,148889
21.077,167906,393,148894
21.082,167906,393,148892
21.087,167900,392,148884
21.092,167919,393,148885
21.097,167906,392,148894
21.102,167902,392,148880
21.107,167910,392,148884
21.112,167901,393,148869
21.117,167899,386,148886
21.122,167906,385,148880
21.127,167919,382,148887
21.132,167919,395,148883
21.137,167919,392,148884
21.142,167923,392,148882
21.147,167910,391,148873
21.151,167916,391,148870
21.156,167928,391,148883
21.161,167921,390,148880
21.166,167924,386,148879
21.171,167927,386,148865
21.176,167933,385,148874
21.181,167932,385,148872
21.186,167926,384,148875
21.191,167932,385,148855
21.196,167933,384,148873
21.201,167937,385,148873
21.206,167943,384,148873
21.211,167944,393,148856
21.216,167959,386,148863
21.221,167941,386,148861
21.226,167952,384,148850
21.231,167953,384,148860
21.236,167950,383,148867
21.241,167948,385,148859
21.246,167961,384,148848
21.251,167966,394,148861
21.256,167943,393,148853
21.261,167946,394,148833
21.266,167981,389,148859
21.271,167974,391,148874
21.276,167980,388,148869
21.281,167987,388,148861
21.286,167972,387,148868
21.291,167965,388,148859
21.296,167974,386,148868
21.301,167981,387,148875
21.305,167970,384,148869
21.310,168061,388,148879
21.315,168012,387,148892
21.320,168012,388,148871
21.325,168007,385,148885
21.330,168008,387,148875
21.335,168004,385,148875
21.340,168012,388,148880
21.345,168006,386,148890
21.350,168013,388,148884
21.355,168011,386,148890
21.360,168015,391,148894
21.365,168007,391,148892
21.370,168032,392,148907
21.375,168024,391,148918
21.380,168059,391,148923
21.385,168040,391,148927
21.390,168036,392,148938
21.395,168018,391,148916
21.400,168000,390,148916
21.405,167991,389,148921
21.410,167999,387,148900
21.415,167977,386,148897
21.420,167962,387,148899
21.425,167943,387,148899
21.430,167943,388,148894
21.435,167934,387,148894
21.440,167931,388,148886
21.445,167946,385,148885
21.450,167930,386,148890
21.455,167936,379,148911
21.459,167931,383,148890
21.464,167934,382,148888
21.469,167923,380,148882
21.474,167899,384,148888
21.479,167899,384,148895
21.484,167899,384,148878
21.489,167916,385,148867
21.494,167881,383,148865
21.499,167886,384,148874
21.504,167881,384,148865
21.509,167878,387,148856
21.514,167859,386,148858
21.519,167857,387,148859
21.524,167860,386,148849
21.529,167840,386,148850
21.534,167853,385,148844
21.539,167850,385,148837
21.544,167847,385,148841
21.549,167842,388,148818
21.554,167809,395,148819
21.559,167827,392,148820
21.564,167827,392,148811
21.569,167821,383,148805
21.574,167723,418,148806
21.579,167818,385,148806
21.584,167794,385,148812
21.589,167826,386,148814
21.594,167817,385,148811
21.599,167817,386,148814
21.604,167826,390,148813
21.609,167836,392,148806
21.614,167827,391,148815
21.618,167822,391,148798
21.623,167822,391,148804
21.628,167826,392,148798
21.633,167822,391,148805
21.638,167818,392,148803
21.643,167826,392,148813
21.648,167829,394,148814
21.653,167822,387,148813
21.658,167820,386,148812
21.663,167827,386,148809
21.668,167838,387,148810
21.673,167826,388,148812
21.678,167828,388,148793
21.683,167830,387,148815
21.688,167805,390,148783
21.693,167810,390,148798
21.698,167806,391,148811
21.703,167809,385,148797
21.708,167828,387,148799
21.713,167814,389,148805
21.718,167824,389,148782
21.723,167813,389,148811
21.728,167808,389,148781
21.733,167818,390,148801
21.738,167802,390,148792
21.743,167808,391,148788
21.748,167823,391,148796
21.753,167803,386,148782
21.758,167802,386,148785
21.763,167785,386,148781
21.768,167783,387,148777
21.772,167807,388,148792
21.777,167802,387,148787
21.782,167786,387,148796
21.787,167805,389,148768
21.792,167802,388,148770
21.797,167784,389,148788
21.802,167807,390,148780
21.807,167788,391,148766
21.812,167785,392,148759
21.817,167784,392,148753
21.822,167778,382,148763
21.827,167788,383,148761
21.832,167784,384,148747
21.837,167794,383,148750
21.842,167796,384,148758
21.847,167783,387,148752
21.852,167779,384,148734
21.857,167763,384,148739
21.862,167784,385,148760
21.867,167781,385,148750
21.872,167783,386,148744
21.877,167775,386,148749
21.882,167779,387,148738
21.887,167782,386,148745
21.892,167789,387,148745
21.897,167783,382,148747
21.902,167788,383,148741
21.907,167783,383,148738
21.912,167785,384,148749
21.917,167785,384,148745
21.922,167799,384,148747
21.927,167804,383,148742
21.931,167786,385,148746
21.936,167804,384,148730
21.941,167802,384,148761
21.946,167801,387,148736
21.951,167805,391,148753
21.956,167798,389,148745
21.961,167811,389,148759
21.966,167821,388,148743
21.971,167814,391,148756
21.976,167821,390,148747
21.981,167830,392,148745
21.986,167829,390,148750
21.991,167819,393,148745
21.996,167818,386,148745
22.001,167826,387,148732
22.006,167831,386,148747
22.011,167824,388,148750
22.016,167825,387,148744
22.021,167831,387,148746
22.026,167834,386,148742
22.031,167839,388,148743
22.036,167827,386,148740
22.041,167830,389,148789
22.046,167841,390,148741
22.051,167838,393,148746
22.056,167847,392,148760
22.061,167849,392,148745
22.066,167853,391,148757
22.071,167852,393,148753
22.076,167871,393,148765
22.081,167857,383,148748
22.085,167873,382,148760
22.090,167853,387,148755
22.095,167873,385,148766
22.100,167877,385,148773
22.105,167857,385,148765
22.110,167881,387,148762
22.115,167886,387,148767
22.120,167878,388,148757
22.125,167875,387,148753
22.130,167884,389,148764
22.135,167893,387,148765
22.140,167898,385,148760
22.145,167887,385,148765
22.150,167876,386,148754
22.155,167886,385,148769
22.160,167893,386,148769
22.165,167891,386,148776
22.170,167891,388,148769
22.175,167876,387,148772
22.180,167887,389,148779
22.185,167890,388,148785
22.190,167859,408,148797
22.195,167868,388,148784
22.200,167842,389,148780
22.205,167821,388,148771
22.210,167819,388,148759
22.215,167800,388,148749
22.220,167783,387,148736
22.225,167766,387,148751
22.230,167769,388,148737
22.235,167751,387,148725
22.240,167759,392,148742
22.244,167743,390,148745
22.249,167743,383,148728
22.254,167732,392,148722
22.259,167735,393,148729
22.264,167731,391,148717
22.269,167715,392,148722
22.274,167710,392,148711
22.279,167705,393,148706
22.284,167707,382,148716
22.289,167683,387,148691
22.294,167692,387,148698
22.299,167692,388,148698
22.304,167699,388,148691
22.309,167668,389,148702
22.314,167673,390,148695
22.319,167675,391,148697
22.324,167681,393,148692
22.329,167668,384,148696
22.334,167656,382,148682
22.339,167648,389,148696
22.344,167657,388,148688
22.349,167648,389,148681
22.354,167644,389,148679
22.359,167650,390,148686
22.364,167643,390,148674
22.369,167624,390,148673
22.374,167628,390,148680
22.379,167625,382,148668
22.384,167639,386,148678
22.389,167622,388,148677
22.394,167613,386,148671
22.398,167612,388,148676
22.403,167611,388,148661
22.408,167627,389,148659
22.413,167610,388,148659
22.418,167611,388,148656
22.423,167613,388,148659
22.428,167608,387,148662
22.433,167610,392,148652
22.438,167630,383,148656
22.443,167617,382,148658
22.448,167624,383,148661
22.453,167626,383,148673
22.458,167631,384,148662
22.463,167628,383,148670
22.468,167624,298,148692
22.473,167625,383,148684
22.478,167603,390,148666
22.483,167617,388,148669
22.488,167620,388,148658
22.493,167608,389,148658
22.498,167608,389,148663
22.503,167608,389,148650
22.508,167603,390,148663
22.513,167618,391,148640
22.518,167600,379,148663
22.523,167602,382,148657
22.528,167594,382,148648
22.533,167594,391,148643
22.538,167605,389,148653
22.543,167617,390,148646
22.548,167610,382,148650
22.552,167612,382,148656
22.557,167606,383,148654
22.562,167612,382,148654
22.567,167621,383,148679
22.572,167610,384,148651
22.577,167612,391,148646
22.582,167622,388,148649
22.587,167605,388,148659
22.592,167624,389,148645
22.597,167615,388,148648
22.602,167603,388,148640
22.607,167609,387,148637
22.612,167603,389,148653
22.617,167622,387,148642
22.622,167638,388,148659
22.627,167631,383,148666
22.632,167645,385,148657
22.637,167645,383,148668
22.642,167642,384,148676
22.647,167648,385,148675
22.652,167652,386,148683
22.657,167664,383,148684
22.662,167660,387,148702
22.667,167659,386,148685
22.672,167673,388,148686
22.677,167661,382,148692
22.682,167674,382,148702
22.687,167667,382,148705
22.692,167682,384,148713
22.697,167696,383,148711
22.702,167693,383,148725
22.707,167685,383,148716
22.711,167699,385,148746
22.716,167699,383,148726
22.721,167722,384,148725
22.726,167716,388,148730
22.731,167716,391,148746
22.736,167717,389,148745
22.741,167720,391,148747
22.746,167730,390,148733
22.751,167743,391,148738
22.756,167741,391,148746
22.761,167743,384,148743
22.766,167741,383,148748
22.771,167750,386,148754
22.776,167747,381,148751
22.781,167754,383,148754
22.786,167761,383,148749
22.791,167734,385,148738
22.796,167752,384,148754
22.801,167746,386,148742
22.806,167748,386,148746
22.811,167758,389,148758
22.816,167763,388,148752
22.821,167773,391,148711
22.826,167780,387,148752
22.831,167780,391,148760
22.836,167775,391,148763
22.841,167778,383,148774
22.846,167781,382,148773
22.851,167791,386,148765
22.856,167775,385,148774
22.861,167777,386,148759
22.865,167788,385,148771
22.870,167796,391,148777
22.875,167797,382,148783
22.880,167806,383,148777
22.885,167798,383,148766
22.890,167820,385,148789
22.895,167815,384,148787
22.900,167836,386,148791
22.905,167832,385,148789
22.910,167828,388,148806
22.915,167845,388,148799
22.920,167846,384,148804
22.925,167850,384,148819
22.930,167844,386,148790
22.935,167859,384,148828
22.940,167856,388,148800
22.945,167865,388,148798
22.950,167864,392,148797
22.955,167869,383,148802
22.960,167874,382,148792
22.965,167856,383,148809
22.970,167870,389,148791
22.975,167867,390,148792
22.980,167862,392,148799
22.985,167863,391,148787
22.990,167845,384,148786
22.995,167864,383,148788
23.000,167859,384,148784
23.005,167873,383,148801
23.010,167882,385,148784
23.015,167885,384,148801
23.020,167888,388,148802
23.024,167874,388,148815
23.029,167893,390,148824
23.034,167898,389,148822
23.039,167883,389,148829
23.044,167867,389,148822
23.049,167858,390,148803
23.054,167855,391,148805
23.059,167832,391,148801
23.064,167842,383,148754
23.069,167829,388,148785
23.074,167825,387,148790
23.079,167827,389,148771
23.084,167812,388,148781
23.089,167827,390,148765
23.094,167816,390,148780
23.099,167824,391,148774
23.104,167821,390,148769
23.109,167827,392,148770
23.114,167844,384,148751
23.119,167850,386,148767
23.124,167841,385,148773
23.129,167837,387,148770
23.134,167835,387,148763
23.139,167831,387,148766
23.144,167842,387,148769
23.149,167841,389,148760
23.154,167851,391,148764
23.159,167873,392,148759
23.164,167860,384,148760
23.169,167866,386,148762
23.174,167870,385,148767
23.178,167880,386,148763
23.183,167876,386,148758
23.188,167860,388,148764
23.193,167883,389,148766
23.198,167875,390,148754
23.203,167870,389,148755
23.208,167872,391,148756
23.213,167877,387,148746
23.218,167887,386,148766
23.223,167871,385,148752
23.228,167880,386,148746
23.233,167872,386,148766
23.238,167879,387,148765
23.243,167891,386,148764
23.248,167889,387,148767
23.253,167880,389,148769
23.258,167898,389,148768
23.263,167897,386,148770
23.268,167888,387,148769
23.273,167904,388,148767
23.278,167885,388,148783
23.283,167902,388,148770
23.288,167901,388,148788
23.293,167907,389,148787
23.298,167927,388,148814
23.303,167927,388,148810
23.308,167930,390,148816
23.313,167943,384,148837
23.318,167960,384,148838
23.323,167956,384,148850
23.328,167950,384,148842
23.333,167961,386,148834
23.337,167977,383,148862
23.342,167980,383,148841
23.347,167988,382,148852
23.352,167981,381,148853
23.357,167992,377,148858
23.362,167986,386,148854
23.367,167980,385,148859
23.372,167993,386,148851
23.377,168012,385,148853
23.382,168008,386,148871
23.387,168010,386,148871
23.392,168013,386,148882
23.397,168018,387,148871
23.402,168029,386,148873
23.407,168029,391,148874
23.412,168042,384,148886
23.417,168038,382,148885
23.422,168037,383,148891
23.427,168038,382,148880
23.432,168064,383,148873
23.437,168053,383,148889
23.442,168060,384,148900
23.447,168043,383,148886
23.452,168083,386,148879
23.457,168063,389,148886
23.462,168063,391,148889
23.467,168071,382,148880
23.472,168069,382,148882
23.477,168075,382,148884
23.482,168061,383,148894
23.487,168087,382,148898
23.491,168088,381,148910
23.496,168104,382,148914
23.501,168086,384,148903
23.506,168091,387,148900
23.511,168085,389,148907
23.516,168097,389,148901
23.521,168102,390,148912
23.526,168107,389,148922
23.531,168128,390,148921
23.536,168123,388,148934
23.541,168125,389,148953
23.546,168138,391,148944
23.551,168143,392,148936
23.556,168145,385,148942
23.561,168139,386,148947
23.566,168131,384,148945
23.571,168148,386,148953
23.576,168141,385,148945
23.581,168170,386,148965
23.586,168161,386,148957
23.591,168145,385,148974
23.596,168171,385,148975
23.601,168157,383,148960
23.606,168174,387,148973
23.611,168176,388,148958
23.616,168171,387,148978
23.621,168185,388,148985
23.626,168175,387,148996
23.631,168186,387,148996
23.636,168190,387,148985
23.641,168188,387,148990
23.645,168205,385,148991
23.650,168203,393,148989
23.655,168210,389,149004
23.660,168183,390,148990
23.665,168193,387,148997
23.670,168210,386,148997
23.675,168214,385,148999
23.680,168222,386,148999
23.685,168218,385,149006
23.690,168215,385,148992
23.695,168220,385,148999
23.700,168198,391,149004
23.705,168209,389,149011
23.710,168219,383,149004
23.715,168207,381,149006
23.720,168224,383,148999
23.725,168218,382,149015
23.730,168217,384,149013
23.735,168238,383,149017
23.740,168250,384,149019
23.745,168255,384,149032
23.750,168242,389,149036
23.755,168255,388,149025
23.760,168255,390,149029
23.765,168255,389,149047
23.770,168257,389,149039
23.775,168265,388,149027
23.780,168275,388,149044
23.785,168260,388,149039
23.790,168269,388,149041
23.795,168273,388,149042
23.800,168279,384,149041
23.804,168277,383,149041
23.809,168271,384,149051
23.814,168291,382,149051
23.819,168298,384,149054
23.824,168307,384,149066
23.829,168308,383,149072
23.834,168305,384,149068
23.839,168316,385,149051
23.844,168301,388,149124
23.849,168294,389,149052
23.854,168309,390,149053
23.859,168292,390,149045
23.864,168300,390,149049
23.869,168300,390,149052
23.874,168298,389,149050
23.879,168314,389,149043
23.884,168294,389,149047
23.889,168289,390,149056
23.894,168227,383,149029
23.899,168255,384,149024
23.904,168232,383,148996
23.909,168216,384,148989
23.914,168193,384,148962
23.919,168167,384,148939
23.924,168125,385,148906
23.929,168115,386,148889
23.934,168096,387,148877
23.939,168078,387,148859
23.944,168061,384,148854
23.949,168042,387,148838
23.954,168033,390,148824
23.958,168014,390,148804
23.963,168004,390,148789
23.968,167968,391,148772
23.973,167962,392,148753
23.978,167954,391,148733
23.983,167920,383,148714
23.988,167899,383,148702
23.993,167885,388,148675
23.998,167870,387,148636
24.003,167823,387,148602
24.008,167804,389,148586
24.013,167780,389,148567
24.018,167770,390,148547
24.023,167750,389,148526
24.028,167730,389,148509
24.033,167700,390,148481
24.038,167682,389,148470
24.043,167657,383,148439
24.048,167641,384,148437
24.053,167618,386,148399
24.058,167588,386,148376
24.063,167580,386,148355
24.068,167559,388,148332
24.073,167542,389,148319
24.078,167537,390,148297
24.083,167490,390,148285
24.088,167492,392,148273
24.093,167461,390,148249
24.098,167463,390,148230
24.103,167439,392,148217
24.108,167416,395,148189
24.113,167400,388,148178
24.117,167401,388,148148
24.122,167382,390,148141
24.127,167366,390,148126
24.132,167347,391,148112
24.137,167337,390,148101
24.142,167342,387,148085
24.147,167323,388,148077
24.152,167318,389,148056
24.157,167298,390,148042
24.162,167287,390,148039
24.167,167286,391,148018
24.172,167271,394,148019
24.177,167256,393,147998
24.182,167240,394,147975
24.187,167253,388,147953
24.192,167201,391,147937
24.197,167208,391,147930
24.202,167184,393,147900
24.207,167170,393,147887
24.212,167161,394,147867
24.217,167128,394,147849
24.222,167131,396,147826
24.227,167123,395,147822
24.232,167097,397,147795
24.237,167080,390,147778
24.242,167060,392,147762
24.247,167055,390,147748
24.252,167049,391,147719
24.257,167026,390,147709
24.262,167010,392,147700
24.267,167012,390,147684
24.271,166998,394,147668
24.276,166972,391,147650
24.281,166978,387,147635
24.286,166970,389,147603
24.291,166949,392,147597
24.296,166939,391,147581
24.301,166932,392,147565
24.306,166904,390,147543
24.311,166892,392,147528
24.316,166885,391,147520
24.321,166886,393,147490
24.326,166881,389,147490
24.331,166860,394,147466
24.336,166861,391,147460
24.341,166834,394,147453
24.346,166819,391,147447
24.351,166823,396,147422
24.356,166810,394,147401
24.361,166796,395,147393
24.366,166808,393,147369
24.371,166800,395,147356
24.376,166792,393,147364
24.381,166777,409,147347
24.386,166770,396,147334
24.391,166752,397,147313
24.396,166743,396,147302
24.401,166742,397,147304
24.406,166729,395,147287
24.411,166731,397,147269
24.416,166695,394,147263
24.421,166705,396,147223
24.426,166697,393,147235
24.430,166692,399,147211
24.435,166680,397,147190
24.440,166647,398,147167
24.445,166630,397,147145
24.450,166628,398,147129
24.455,166597,397,147108
24.460,166593,399,147079
24.465,166575,397,147070
24.470,166550,400,146995
24.475,166528,398,146999
24.480,166532,393,146993
24.485,166484,392,146981
24.490,166490,392,146949
24.495,166457,392,146918
24.500,166455,392,146892
24.505,166430,400,146883
24.510,166410,400,146858
24.515,166408,399,146834
24.520,166396,399,146815
24.525,166373,398,146792
24.530,166351,393,146774
24.535,166340,392,146754
24.540,166307,393,146714
24.545,166297,393,146684
24.550,166270,402,146673
24.555,166253,400,146653
24.560,166233,401,146631
24.565,166225,400,146601
24.570,166198,400,146576
24.575,166201,392,146576
24.580,166180,398,146539
24.584,166168,397,146526
24.589,166135,397,146503
24.594,166142,395,146487
24.599,166135,397,146476
24.604,166098,396,146452
24.609,166109,397,146451
24.614,166091,395,146413
24.619,166082,395,146401
24.624,166070,396,146363
24.629,166042,400,146359
24.634,166048,400,146348
24.639,166043,401,146336
24.644,166030,402,146327
24.649,166031,404,146314
24.654,166001,402,146287
24.659,165982,403,146288
24.664,165986,394,146259
24.669,165973,395,146251
24.674,165988,397,146236
24.679,165925,399,146228
24.684,165927,401,146212
24.689,165913,402,146202
24.694,165906,401,146197
24.699,165876,401,146180
24.704,165874,402,146180
24.709,165853,401,146156
24.714,165846,400,146156
24.719,165827,400,146145
24.724,165796,395,146129
24.729,165789,395,146123
24.734,165782,394,146105
24.738,165774,395,146097
24.743,165760,394,146088
24.748,165739,395,146068
24.753,165721,395,146063
24.758,165722,394,146048
24.763,165719,394,146045
24.768,165716,394,146034
24.773,165688,401,146042
24.778,165707,400,146033
24.783,165690,402,146037
24.788,165694,402,146016
24.793,165693,402,146025
24.798,165674,401,146018
24.803,165687,394,146025
24.808,165663,394,146030
24.813,165673,395,146022
24.818,165677,394,146019
24.823,165676,399,146018
24.828,165656,399,146017
24.833,165673,401,146002
24.838,165660,399,146013
24.843,165640,402,146004
24.848,165649,402,146000
24.853,165636,404,146004
24.858,165648,402,146019
24.863,165627,402,145989
24.868,165623,402,146002
24.873,165618,398,145968
24.878,165628,396,145965
24.883,165619,395,145977
24.888,165612,395,145987
24.893,165611,398,145971
24.897,165610,396,145969
24.902,165622,398,145981
24.907,165615,397,145973
24.912,165607,400,145967
24.917,165640,398,145962
24.922,165601,394,145956
24.927,165604,393,145963
24.932,165600,396,145963
24.937,165611,394,145961
24.942,165605,398,145956
24.947,165614,396,145974
24.952,165617,400,145954
24.957,165614,400,145953
24.962,165610,402,145934
24.967,165598,394,145955
24.972,165597,396,145924
24.977,165579,395,145920
24.982,165562,395,145916
24.987,165564,394,145897
24.992,165528,397,145874
24.997,165536,395,145861
25.002,165528,394,145846
25.007,165519,393,145832
25.012,165491,396,145809
25.017,165493,395,145822
25.022,165487,396,145820
25.027,165487,397,145804
25.032,165484,398,145795
25.037,165485,396,145794
25.042,165483,399,145799
25.047,165484,396,145798
25.051,165480,399,145777
25.056,165492,398,145770
25.061,165479,393,145791
25.066,165469,395,145786
25.071,165477,399,145788
25.076,165484,397,145778
25.081,165484,399,145781
25.086,165479,396,145777
25.091,165488,400,145780
25.096,165492,398,145793
25.101,165479,400,145767
25.106,165491,399,145778
25.111,165501,401,145785
25.116,165501,395,145767
25.121,165507,397,145786
25.126,165500,396,145803
25.131,165506,400,145799
25.136,165511,400,145801
25.141,165521,404,145798
25.146,165528,392,145809
25.151,165530,396,145805
25.156,165530,396,145801
25.161,165551,405,145806
25.166,165542,394,145816
25.171,165541,398,145809
25.176,165558,397,145824
25.181,165554,400,145834
25.186,165573,398,145839
25.191,165569,401,145846
25.196,165576,400,145850
25.201,165572,403,145854
25.206,165594,393,145843
25.210,165589,400,145857
25.215,165583,400,145850
25.220,165596,402,145854
25.225,165596,399,145855
25.230,165591,402,145846
25.235,165608,401,145867
25.240,165604,401,145854
25.245,165592,400,145869
25.250,165593,403,145860
25.255,165603,394,145850
25.260,165604,397,145863
25.265,165597,396,145856
25.270,165594,397,145860
25.275,165607,398,145852
25.280,165600,399,145846
25.285,165607,398,145854
25.290,165600,399,145853
25.295,165588,400,145852
25.300,165588,400,145850
25.305,165589,401,145833
25.310,165592,394,145819
25.315,165587,396,145839
25.320,165573,397,145814
25.325,165579,397,145835
25.330,165583,398,145823
25.335,165578,398,145795
25.340,165570,399,145818
25.345,165569,399,145792
25.350,165564,400,145804
25.355,165575,398,145798
25.360,165581,393,145809
25.364,165586,393,145819
25.369,165583,393,145817
25.374,165570,394,145822
25.379,165592,394,145830
25.384,165592,394,145837
25.389,165594,395,145823
25.394,165605,396,145833
25.399,165617,399,145826
25.404,165603,398,145837
25.409,165614,394,145835
25.414,165614,393,145844
25.419,165629,395,145844
25.424,165629,393,145847
25.429,165624,393,145850
25.434,165626,393,145846
25.439,165644,393,145863
25.444,165635,394,145845
25.449,165650,396,145856
25.454,165655,401,145855
25.459,165640,395,145862
25.464,165641,397,145862
25.469,165646,395,145860
25.474,165648,397,145847
25.479,165662,397,145855
25.484,165656,398,145856
25.489,165655,399,145865
25.494,165652,400,145851
25.499,165667,392,145868
25.504,165643,397,145862
25.509,165646,398,145874
25.514,165632,399,145867
25.519,165630,400,145875
25.523,165624,393,145872
25.528,165590,393,145867
25.533,165611,394,145867
25.538,165572,395,145858
25.543,165577,395,145857
25.548,165574,396,145830
25.553,165570,400,145824
25.558,165552,399,145836
25.563,165534,401,145826
25.568,165526,401,145836
25.573,165510,408,145820
25.578,165519,401,145850
25.583,165499,392,145824
25.588,165488,394,145820
25.593,165492,395,145816
25.598,165479,395,145813
25.603,165474,401,145810
25.608,165478,393,145808
25.613,165470,394,145817
25.618,165479,395,145811
25.623,165469,396,145807
25.628,165454,396,145818
25.633,165460,398,145811
25.638,165444,399,145820
25.643,165446,401,145806
25.648,165436,393,145759
25.653,165433,397,145807
25.658,165438,396,145812
25.663,165432,399,145805
25.668,165431,398,145804
25.673,165425,401,145809
25.677,165405,401,145794
25.682,165405,393,145812
25.687,165412,393,145802
25.692,165410,396,145796
25.697,165426,398,145810
25.702,165409,401,145810
25.707,165409,401,145813
25.712,165409,394,145814
25.717,165397,392,145810
25.722,165390,396,145797
25.727,165402,395,145808
25.732,165388,398,145792
25.737,165401,396,145800
25.742,165388,400,145795
25.747,165380,393,145808
25.752,165402,396,145805
25.757,165405,394,145810
25.762,165394,398,145795
25.767,165404,397,145809
25.772,165397,401,145813
25.777,165392,390,145807
25.782,165397,394,145809
25.787,165402,394,145812
25.792,165403,397,145799
25.797,165407,392,145806
25.802,165411,395,145792
25.807,165390,396,145789
25.812,165398,399,145785
25.817,165386,397,145786
25.822,165372,401,145795
25.827,165375,400,145786
25.831,165392,394,145802
25.836,165378,391,145791
25.841,165383,394,145775
25.846,165392,397,145786
25.851,165383,400,145790
25.856,165384,397,145793
25.861,165371,401,145787
25.866,165378,400,145782
25.871,165387,401,145787
25.876,165388,399,145782
25.881,165393,402,145805
25.886,165397,390,145795
25.891,165388,395,145757
25.896,165396,398,145798
25.901,165392,400,145791
25.906,165400,399,145803
25.911,165414,401,145795
25.916,165395,400,145804
25.921,165401,392,145812
25.926,165405,391,145804
25.931,165413,394,145815
25.936,165404,393,145812
25.941,165415,398,145793
25.946,165418,399,145792
25.951,165410,401,145789
25.956,165408,400,145790
25.961,165411,400,145806
25.966,165416,400,145802
25.971,165405,402,145793
25.976,165420,390,145786
25.981,165409,391,145791
25.986,165414,391,145794
25.990,165410,396,145803
25.995,165417,396,145800
26.000,165418,397,145804
26.005,165402,394,145779
26.010,165412,399,145789
26.015,165419,398,145776
26.020,165417,399,145800
26.025,165434,398,145778
26.030,165403,402,145783
26.035,165422,401,145784
26.040,165424,398,145780
26.045,165414,398,145779
26.050,165411,400,145781
26.055,165407,401,145769
26.060,165398,392,145777
26.065,165411,391,145778
26.070,165418,393,145779
26.075,165398,393,145770
26.080,165415,394,145773
26.085,165414,393,145770
26.090,165425,400,145763
26.095,165427,400,145764
26.100,165433,400,145770
26.105,165418,400,145768
26.110,165444,402,145769
26.115,165435,401,145762
26.120,165456,391,145761
26.125,165436,391,145776
26.130,165445,394,145777
26.135,165464,393,145789
26.140,165462,397,145767
26.144,165457,398,145770
26.149,165455,399,145775
26.154,165469,400,145782
26.159,165454,392,145774
26.164,165461,392,145767
26.169,165475,393,145788
26.174,165474,394,145777
26.179,165470,394,145769
26.184,165484,399,145781
26.189,165473,395,145787
26.194,165484,395,145782
26.199,165489,394,145772
26.204,165494,394,145782
26.209,165497,396,145780
26.214,165513,397,145779
26.219,165488,398,145791
26.224,165519,397,145786
26.229,165507,399,145788
26.234,165520,393,145805
26.239,165531,393,145809
26.244,165532,393,145795
26.249,165532,395,145779
26.254,165537,396,145803
26.259,165542,397,145796
26.264,165548,397,145790
26.269,165562,398,145803
26.274,165561,399,145798
26.279,165570,400,145813
26.284,165556,394,145796
26.289,165556,394,145794
26.294,165565,395,145801
26.299,165566,396,145792
26.303,165566,396,145783
26.308,165584,396,145792
26.313,165596,399,145795
26.318,165580,397,145790
26.323,165591,398,145804
26.328,165598,401,145804
26.333,165599,393,145810
26.338,165606,392,145810
26.343,165612,392,145825
26.348,165593,400,145822
26.353,165597,401,145818
26.358,165582,399,145812
26.363,165575,400,145823
26.368,165562,399,145812
26.373,165563,400,145806
26.378,165551,398,145800
26.383,165551,393,145795
26.388,165550,392,145804
26.393,165541,394,145802
26.398,165557,392,145801
26.403,165549,394,145797
26.408,165557,391,145811
26.413,165558,394,145813
26.418,165534,394,145778
26.423,165550,396,145800
26.428,165548,390,145806
26.433,165540,401,145807
26.438,165552,400,145803
26.443,165556,392,145804
26.448,165550,392,145791
26.453,165548,395,145802
26.457,165561,393,145809
26.462,165552,396,145798
26.467,165574,387,145792
26.472,165566,395,145804
26.477,165561,399,145797
26.482,165565,392,145798
26.487,165557,391,145804
26.492,165571,395,145803
26.497,165555,394,145794
26.502,165563,396,145791
26.507,165570,396,145805
26.512,165563,398,145798
26.517,165566,395,145793
26.522,165568,398,145784
26.527,165562,390,145777
26.532,165574,392,145794
26.537,165565,391,145787
26.542,165569,393,145782
26.547,165577,392,145799
26.552,165583,392,145800
26.557,165589,392,145814
26.562,165582,396,145796
26.567,165592,393,145808
26.572,165593,550,145765
26.577,165619,384,145801
26.582,165596,396,145792
26.587,165580,395,145793
26.592,165592,398,145804
26.597,165612,397,145799
26.602,165613,398,145792
26.607,165601,397,145792
26.612,165606,399,145799
26.616,165611,398,145805
26.621,165614,401,145798
26.626,165610,397,145798
26.631,165596,399,145805
26.636,165620,399,145789
26.641,165607,401,145801
26.646,165608,400,145800
26.651,165609,393,145782
26.656,165610,391,145795
26.661,165606,393,145795
26.666,165596,393,145785
26.671,165597,397,145722
26.676,165590,398,145778
26.681,165593,400,145773
26.686,165583,399,145773
26.691,165589,400,145788
26.696,165581,390,145769
26.701,165587,392,145783
26.706,165585,392,145760
26.711,165590,393,145767
26.716,165574,392,145773
26.721,165597,397,145766
26.726,165582,396,145772
26.731,165595,398,145774
26.736,165590,397,145768
26.741,165585,399,145767
26.746,165588,397,145777
26.751,165582,400,145781
26.756,165586,398,145777
26.761,165584,400,145769
26.766,165588,399,145787
26.770,165613,394,145777
26.775,165607,393,145788
26.780,165615,395,145785
26.785,165589,394,145783
26.790,165590,395,145798
26.795,165609,394,145782
26.800,165614,396,145800
26.805,165606,395,145806
26.810,165625,396,145802
26.815,165630,395,145796
26.820,165623,392,145794
26.825,165629,392,145801
26.830,165646,391,145814
26.835,165629,391,145811
26.840,165640,393,145806
26.845,165667,392,145813
26.850,165644,393,145819
26.855,165659,390,145819
26.860,165657,392,145809
26.865,165655,391,145810
26.870,165646,400,145807
26.875,165652,399,145809
26.880,165663,399,145801
26.885,165648,399,145802
26.890,165647,400,145801
26.895,165676,398,145802
26.900,165669,399,145803
26.905,165657,392,145806
26.910,165659,393,145799
26.915,165658,394,145771
26.920,165667,399,145795
26.924,165657,399,145783
26.929,165655,400,145789
26.934,165646,398,145776
26.939,165654,398,145773
26.944,165644,399,145771
26.949,165650,398,145755
26.954,165630,398,145769
26.959,165639,396,145762
26.964,165675,399,145771
26.969,165638,390,145753
26.974,165643,390,145738
26.979,165638,390,145746
26.984,165648,391,145742
26.989,165674,391,145743
26.994,165651,401,145749
26.999,165681,399,145740
27.004,165680,400,145741
27.009,165673,401,145738
27.014,165665,393,145748
27.019,165680,391,145742
27.024,165680,393,145747
27.029,165680,392,145741
27.034,165685,392,145739
27.039,165697,390,145739
27.044,165683,393,145742
27.049,165710,393,145730
27.054,165702,393,145752
27.059,165724,392,145761
27.064,165718,398,145753
27.069,165710,395,145749
27.074,165712,396,145743
27.079,165711,393,145737
27.083,165698,395,145744
27.088,165711,394,145737
27.093,165718,394,145741
27.098,165717,393,145740
27.103,165715,393,145742
27.108,165730,395,145742
27.113,165734,397,145747
27.118,165707,398,145748
27.123,165724,396,145744
27.128,165719,395,145751
27.133,165698,398,145741
27.138,165708,397,145742
27.143,165682,397,145741
27.148,165681,396,145743
27.153,165681,398,145738
27.158,165671,397,145733
27.163,165651,391,145726
27.168,165633,390,145722
27.173,165654,395,145711
27.178,165631,390,145725
27.183,165653,391,145725
27.188,165625,391,145703
27.193,165623,393,145713
27.198,165622,391,145708
27.203,165612,392,145704
27.208,165636,419,145712
27.213,165617,399,145701
27.218,165598,398,145700
27.223,165618,391,145698
27.228,165603,394,145697
27.233,165625,394,145698
27.237,165595,393,145687
27.242,165598,394,145681
27.247,165607,393,145706
27.252,165598,397,145700
27.257,165611,400,145699
27.262,165593,398,145707
27.267,165598,397,145689
27.272,165597,401,145699
27.277,165599,397,145696
27.282,165582,402,145699
27.287,165582,399,145686
27.292,165596,392,145708
27.297,165587,390,145695
27.302,165597,392,145700
27.307,165577,395,145695
27.312,165582,397,145699
27.317,165575,396,145699
27.322,165585,397,145701
27.327,165575,397,145700
27.332,165587,401,145684
27.337,165580,392,145691
27.342,165579,392,145701
27.347,165585,391,145699
27.352,165582,394,145685
27.357,165578,396,145690
27.362,165578,399,145696
27.367,165579,397,145690
27.372,165574,401,145693
27.377,165584,390,145695
27.382,165590,392,145693
27.387,165596,389,145712
27.392,165585,396,145692
27.396,165600,393,145701
27.401,165604,393,145709
27.406,165602,394,145719
27.411,165598,397,145707
27.416,165608,395,145700
27.421,165590,395,145697
27.426,165596,391,145700
27.431,165598,394,145688
27.436,165601,393,145701
27.441,165598,394,145707
27.446,165597,394,145703
27.451,165606,403,145690
27.456,165598,398,145718
27.461,165602,398,145713
27.466,165601,397,145737
27.471,165594,398,145701
27.476,165599,398,145697
27.481,165607,401,145705
27.486,165612,398,145708
27.491,165611,391,145695
27.496,165618,390,145694
27.501,165595,396,145704
27.506,165602,393,145704
27.511,165611,396,145704
27.516,165617,397,145704
27.521,165608,397,145687
27.526,165606,396,145696
27.531,165627,398,145712
27.536,165623,398,145692
27.541,165623,399,145704
27.546,165614,398,145707
27.550,165624,393,145713
27.555,165627,395,145706
27.560,165619,393,145691
27.565,165622,391,145711
27.570,165629,393,145703
27.575,165624,394,145698
27.580,165638,393,145700
27.585,165639,395,145694
27.590,165638,395,145710
27.595,165638,395,145709
27.600,165639,400,145691
27.605,165637,391,145697
27.610,165645,393,145713
27.615,165636,391,145687
27.620,165637,390,145691
27.625,165646,390,145691
27.630,165635,391,145687
27.635,165652,391,145682
27.640,165658,391,145695
27.645,165656,390,145708
27.650,165657,394,145691
27.655,165668,394,145697
27.660,165662,394,145688
27.665,165659,396,145687
27.670,165690,393,145678
27.675,165670,394,145698
27.680,165657,395,145695
27.685,165677,393,145693
27.690,165689,393,145692
27.695,165686,394,145654
27.700,165671,394,145688
27.705,165672,394,145692
27.709,165684,393,145694
27.714,165683,394,145692
27.719,165682,396,145698
27.724,165691,393,145690
27.729,165689,392,145687
27.734,165698,393,145680
27.739,165702,393,145709
27.744,165730,396,145699
27.749,165702,397,145697
27.754,165718,397,145694
27.759,165731,397,145712
27.764,165721,398,145698
27.769,165718,398,145699
27.774,165720,401,145703
27.779,165720,397,145696
27.784,165719,397,145696
27.789,165726,397,145704
27.794,165733,391,145700
27.799,165741,390,145694
27.804,165726,391,145707
27.809,165718,391,145698
27.814,165731,393,145702
27.819,165740,392,145716
27.824,165723,392,145694
27.829,165735,393,145709
27.834,165738,392,145710
27.839,165757,391,145721
27.844,165747,398,145716
27.849,165765,397,145723
27.854,165757,398,145711
27.859,165750,395,145720
27.863,165761,396,145729
27.868,165768,395,145709
27.873,165772,395,145726
27.878,165788,394,145731
27.883,165781,398,145727
27.888,165779,392,145737
27.893,165796,398,145744
27.898,165784,397,145728
27.903,165786,398,145737
27.908,165785,396,145741
27.913,165798,397,145741
27.918,165792,395,145737
27.923,165802,397,145732
27.928,165801,395,145742
27.933,165808,398,145748
27.938,165810,398,145741
27.943,165816,392,145735
27.948,165805,392,145752
27.953,165794,395,145764
27.958,165794,394,145752
27.963,165807,399,145757
27.968,165814,390,145756
27.973,165811,393,145770
27.978,165792,392,145764
27.983,165789,396,145769
27.988,165782,400,145757
27.993,165770,399,145739
27.998,165753,394,145733
28.003,165751,400,145737
28.008,165735,390,145738
28.013,165732,394,145736
28.017,165718,393,145747
28.022,165719,397,145736
28.027,165713,397,145724
28.032,165710,392,145738
28.037,165699,396,145730
28.042,165698,392,145725
28.047,165688,395,145723
28.052,165697,395,145718
28.057,165674,394,145735
28.062,165672,399,145727
28.067,165664,389,145712
28.072,165679,394,145708
28.077,165666,394,145705
28.082,165657,397,145713
28.087,165654,390,145718
28.092,165663,395,145716
28.097,165649,395,145709
28.102,165646,403,145708
28.107,165646,389,145710
28.112,165633,393,145698
28.117,165626,392,145700
28.122,165641,397,145698
28.127,165615,398,145707
28.132,165609,391,145705
28.137,165622,388,145714
28.142,165623,392,145709
28.147,165621,391,145705
28.152,165609,395,145704
28.157,165608,398,145693
28.162,165599,398,145698
28.167,165583,388,145681
28.172,165587,392,145688
28.176,165573,391,145675
28.181,165584,394,145670
28.186,165555,389,145652
28.191,165556,392,145665
28.196,165524,392,145642
28.201,165547,395,145640
28.206,165561,395,145655
28.211,165555,401,145657
28.216,165564,390,145659
28.221,165566,389,145668
28.226,165567,391,145652
28.231,165582,375,145672
28.236,165572,398,145678
28.241,165568,390,145689
28.246,165571,392,145685
28.251,165572,395,145676
28.256,165582,396,145678
28.261,165579,397,145670
28.266,165559,402,145683
28.271,165581,393,145684
28.276,165574,392,145670
28.281,165577,397,145669
28.286,165577,399,145671
28.291,165581,391,145689
28.296,165589,391,145682
28.301,165582,392,145672
28.306,165591,393,145666
28.311,165590,394,145675
28.316,165599,395,145676
28.321,165601,399,145684
28.326,165607,389,145688
28.330,165591,395,145693
28.335,165595,395,145697
28.340,165601,397,145682
28.345,165610,389,145676
28.350,165599,392,145667
28.355,165602,393,145673
28.360,165603,393,145679
28.365,165601,398,145674
28.370,165611,399,145687
28.375,165608,399,145682
28.380,165618,398,145688
28.385,165610,391,145679
28.390,165613,393,145694
28.395,165615,395,145697
28.400,165635,395,145695
28.405,165629,397,145709
28.410,165616,390,145702
28.415,165626,393,145702
28.420,165627,395,145701
28.425,165628,395,145700
28.430,165626,393,145687
28.435,165637,393,145686
28.440,165643,394,145703
28.445,165616,397,145699
28.450,165647,400,145701
28.455,165644,391,145703
28.460,165665,392,145695
28.465,165641,392,145703
28.470,165672,395,145701
28.475,165677,406,145711
28.480,165656,392,145699
28.485,165666,395,145701
28.489,165668,396,145701
28.494,165665,388,145704
28.499,165676,390,145725
28.504,165682,391,145719
28.509,165695,393,145717
28.514,165678,396,145736
28.519,165701,396,145721
28.524,165701,375,145710
28.529,165697,394,145731
28.534,165700,396,145734
28.539,165729,397,145737
28.544,165712,388,145738
28.549,165719,390,145735
28.554,165730,391,145735
28.559,165744,392,145755
28.564,165736,393,145746
28.569,165729,394,145750
28.574,165759,392,145761
28.579,165773,392,145743
28.584,165762,392,145757
28.589,165769,393,145762
28.594,165800,398,145774
28.599,165782,397,145774
28.604,165803,389,145781
28.609,165799,390,145784
28.614,165808,394,145774
28.619,165817,395,145777
28.624,165819,390,145793
28.629,165835,392,145789
28.634,165852,394,145813
28.639,165857,393,145817
28.643,165856,398,145799
28.648,165866,389,145811
28.653,165886,393,145824
28.658,165877,393,145832
28.663,165895,396,145828
28.668,165887,397,145824
28.673,165896,395,145822
28.678,165915,394,145844
28.683,165902,397,145842
28.688,165897,397,145842
28.693,165914,391,145840
28.698,165936,392,145846
28.703,165936,394,145853
28.708,165938,395,145853
28.713,165955,399,145852
28.718,165963,393,145845
28.723,165949,399,145859
28.728,165958,389,145851
28.733,165968,393,145865
28.738,165976,392,145866
28.743,165998,395,145873
28.748,166002,394,145878
28.753,166012,400,145887
28.758,166017,390,145876
28.763,166006,393,145872
28.768,166003,395,145873
28.773,166002,400,145870
28.778,166023,388,145871
28.783,166014,393,145879
28.788,166020,392,145876
28.793,166031,397,145881
28.798,166042,396,145877
28.802,166048,398,145877
28.807,166054,389,145894
28.812,166057,393,145903
28.817,166060,399,145922
28.822,166043,394,145903
28.827,166047,392,145906
28.832,166041,396,145915
28.837,166045,396,145904
28.842,166038,400,145905
28.847,166019,388,145906
28.852,166024,393,145901
28.857,166012,393,145893
28.862,166025,396,145899
28.867,166016,388,145899
28.872,166021,393,145888
28.877,166010,393,145903
28.882,166021,395,145889
28.887,166023,394,145906
28.892,166003,397,145894
28.897,166016,398,145908
28.902,166016,391,145905
28.907,166026,390,145907
28.912,166007,393,145908
28.917,166024,400,145892
28.922,166021,391,145924
28.927,166017,390,145906
28.932,166025,393,145915
28.937,166023,394,145916
28.942,166023,398,145915
28.947,166011,397,145908
28.952,166018,390,145931
28.956,166025,390,145916
28.961,166022,390,145904
28.966,166031,397,145928
28.971,166020,391,145921
28.976,166021,391,145920
28.981,166026,394,145916
28.986,166017,393,145929
28.991,166021,396,145928
28.996,166038,396,145920
29.001,166024,399,145939
29.006,166019,389,145918
29.011,166074,398,145925
29.016,166031,397,145916
29.021,166024,390,145913
29.026,166014,389,145918
29.031,166014,392,145904
29.036,166014,391,145909
29.041,166009,395,145915
29.046,166014,395,145908
29.051,166019,397,145902
29.056,166014,396,145911
29.061,166013,393,145911
29.066,166029,394,145897
29.071,166015,397,145917
29.076,166033,397,145899
29.081,166030,391,145913
29.086,166036,390,145922
29.091,166034,392,145913
29.096,166042,392,145914
29.101,166025,394,145912
29.106,166028,394,145900
29.110,166024,393,145897
29.115,166032,393,145889
29.120,166012,394,145900
29.125,166026,394,145887
29.130,166019,396,145902
29.135,166016,396,145880
29.140,166013,398,145889
29.145,166017,399,145895
29.150,166005,391,145890
29.155,165994,392,145867
29.160,166011,397,145887
29.165,166000,399,145878
29.170,166001,390,145879
29.175,166019,391,145878
29.180,166010,392,145884
29.185,166015,394,145873
29.190,166013,395,145891
29.195,166011,395,145891
29.200,166021,390,145875
29.205,166017,400,145866
29.210,166029,395,145885
29.215,166016,397,145885
29.220,166013,398,145888
29.225,166016,390,145871
29.230,166018,391,145869
29.235,166022,393,145865
29.240,166014,395,145876
29.245,166013,398,145876
29.250,166016,390,145866
29.255,166022,394,145875
29.260,166027,395,145872
29.265,166025,396,145890
29.269,166020,397,145877
29.274,166024,396,145876
29.279,166022,396,145872
29.284,166023,397,145878
29.289,166026,396,145878
29.294,166039,396,145885
29.299,166031,396,145886
29.304,166050,390,145883
29.309,166056,391,145891
29.314,166057,391,145900
29.319,166053,389,145908
29.324,166076,390,145927
29.329,166083,390,145952
29.334,166124,389,145964
29.339,166123,390,145974
29.344,166136,390,145993
29.349,166167,389,146027
29.354,166180,395,146023
29.359,166184,395,146057
29.364,166217,396,146072
29.369,166245,397,146093
29.374,166252,397,146097
29.379,166265,396,146117
29.384,166291,396,146119
29.389,166295,396,146132
29.394,166312,397,146150
29.399,166311,396,146158
29.404,166328,389,146165
29.409,166333,390,146179
29.414,166350,391,146182
29.419,166344,390,146201
29.423,166363,390,146192
29.428,166376,388,146221
29.433,166391,390,146217
29.438,166403,389,146231
29.443,166399,389,146238
29.448,166421,388,146203
29.453,166426,393,146254
29.458,166429,391,146258
29.463,166438,393,146259
29.468,166451,392,146277
29.473,166456,392,146270
29.478,166469,393,146290
29.483,166472,395,146275
29.488,166474,393,146288
29.493,166497,397,146292
