df_hash,22ZHK4.SJ97MY
device,HZ2X61
project_hash,29R7
project_name,istanbul_aydin_university
person_hash,29R7.H7NN
person_label,V153
date_time_start,2026-06-08_18-52-11.533000_+03
date_time_start_unix,1780926731.533
date_time_end,2026-06-08_19-10-04.103000_+03
length_difference_noticed,no

time,ppg_med
5.771,560
5.796,643
5.821,776
5.846,847
5.871,819
5.896,790
5.921,867
5.946,1008
5.971,1062
5.996,976
6.021,884
6.046,932
6.071,1062
6.096,1070
6.121,884
6.146,688
6.171,677
6.196,774
6.221,703
6.246,373
6.271,27
6.296,-71
6.321,-26
6.346,-201
6.371,-716
6.396,-1246
6.421,-1447
6.446,-1455
6.471,-1741
6.496,-2458
6.521,-3183
6.546,-3471
6.571,-3499
6.596,-3868
6.621,-4771
6.646,-5665
6.671,-5984
6.696,-5950
6.721,-6328
6.746,-7358
6.771,-8351
6.796,-8592
6.821,-8365
6.846,-8628
6.871,-9681
6.896,-10659
6.921,-10668
6.946,-10065
6.971,-10046
6.996,-10985
7.021,-11805
7.046,-11391
7.071,-10189
7.096,-9694
7.121,-10373
7.146,-10885
7.171,-9841
7.196,-7798
7.221,-6629
7.246,-6925
7.271,-7011
7.296,-5141
7.321,-2016
7.346,-1
7.371,141
7.396,527
7.421,3384
7.446,7828
7.471,10812
7.496,11326
7.521,12100
7.546,16062
7.571,22080
7.596,26099
7.621,26705
7.646,27560
7.671,32733
7.696,32767
7.721,32767
7.746,32767
7.771,32767
7.796,32767
7.821,32767
7.846,32767
7.871,32767
7.896,32767
7.921,32767
7.946,32767
7.971,32767
7.996,32767
8.021,14884
8.046,-32768
8.071,-32768
8.096,-32768
8.121,-32768
8.146,-32768
8.171,-32768
8.196,-32768
8.221,-32768
8.246,-32768
8.271,-32768
8.296,-32768
8.321,-32768
8.346,-32768
8.371,-32768
8.396,-29146
8.421,-26882
8.446,-26869
8.471,-24411
8.496,-18736
8.521,-13490
8.546,-11479
8.571,-11135
8.596,-9068
8.621,-4720
8.646,-827
8.671,483
8.696,425
8.721,1641
8.746,4597
8.771,7184
8.796,7743
8.821,7229
8.846,7738
8.871,9648
8.896,11279
8.921,11291
8.946,10430
8.971,10371
8.996,11430
9.021,12274
9.046,11835
9.071,10712
9.096,10250
9.121,10701
9.146,10996
9.171,10278
9.196,9033
9.221,8345
9.246,8422
9.271,8398
9.296,7581
9.321,6370
9.346,5665
9.371,5668
9.396,5699
9.421,5171
9.446,4328
9.471,3819
9.496,3780
9.521,3704
9.546,3173
9.571,2411
9.596,1935
9.621,1849
9.646,1761
9.671,1353
9.696,802
9.721,495
9.746,491
9.771,470
9.796,188
9.821,-212
9.846,-428
9.871,-411
9.896,-405
9.921,-594
9.946,-872
9.971,-1009
9.996,-961
10.021,-909
10.046,-998
10.071,-1165
10.096,-1247
10.121,-1195
10.146,-1100
10.171,-1028
10.196,-930
10.221,-734
10.246,-478
10.271,-283
10.296,-203
10.321,-164
10.346,-67
10.371,83
10.396,197
10.421,222
10.446,221
10.471,285
10.496,420
10.521,539
10.546,573
10.571,552
10.596,536
10.621,503
10.646,463
10.671,406
10.696,333
10.721,252
10.746,167
10.771,78
10.796,-17
10.821,-110
10.846,-190
10.871,-262
10.896,-340
10.921,-428
10.946,-500
10.971,-508
10.996,-427
11.021,-278
11.046,-123
11.071,-11
11.096,56
11.121,111
11.146,174
11.171,232
11.196,255
11.221,239
11.246,214
11.271,219
11.296,264
11.321,324
11.346,364
11.371,374
11.396,366
11.421,356
11.446,351
11.471,346
11.496,338
11.521,330
11.546,325
11.571,323
11.596,319
11.621,308
11.646,286
11.671,247
11.696,196
11.721,151
11.746,146
11.771,201
11.796,308
11.821,433
11.846,540
11.871,617
11.896,672
11.921,711
11.946,727
11.971,708
11.996,658
12.021,601
12.046,561
12.071,542
12.096,531
12.121,512
12.146,486
12.171,456
12.196,421
12.221,371
12.246,304
12.271,233
12.296,169
12.321,112
12.346,46
12.371,-34
12.396,-119
12.421,-186
12.446,-236
12.471,-290
12.496,-366
12.521,-443
12.546,-469
12.571,-407
12.596,-270
12.621,-113
12.646,13
12.671,98
12.696,160
12.721,217
12.746,265
12.771,294
12.796,307
12.821,323
12.846,357
12.871,405
12.896,451
12.921,483
12.946,502
12.971,507
12.996,497
13.021,474
13.046,446
13.071,423
13.096,400
13.121,362
13.146,302
13.171,234
13.196,177
13.221,137
13.246,95
13.271,36
13.296,-34
13.321,-98
13.346,-154
13.371,-219
13.396,-306
13.421,-391
13.446,-417
13.471,-345
13.496,-199
13.521,-45
13.546,60
13.571,116
13.596,158
13.621,211
13.646,266
13.671,299
13.696,307
13.721,314
13.746,345
13.771,400
13.796,455
13.821,492
13.846,510
13.871,524
13.896,548
13.921,581
13.946,611
13.971,627
13.996,624
14.021,605
14.046,581
14.071,559
14.096,538
14.121,505
14.146,450
14.171,371
14.196,276
14.221,172
14.246,64
14.271,-42
14.296,-125
14.321,-151
14.346,-105
14.371,-4
14.396,104
14.421,185
14.446,232
14.471,261
14.496,286
14.521,298
14.546,283
14.571,243
14.596,203
14.621,189
14.646,206
14.671,236
14.696,258
14.721,265
14.746,262
14.771,258
14.796,248
14.821,230
14.846,201
14.871,168
14.896,132
14.921,92
14.946,48
14.971,6
14.996,-28
15.021,-58
15.046,-98
15.071,-159
15.096,-233
15.121,-285
15.146,-277
15.171,-191
15.196,-48
15.221,106
15.246,234
15.271,321
15.296,379
15.321,423
15.346,457
15.371,475
15.396,474
15.421,465
15.446,468
15.471,488
15.496,518
15.521,539
15.546,542
15.571,532
15.596,516
15.621,496
15.646,467
15.671,426
15.696,375
15.721,323
15.746,271
15.771,213
15.796,148
15.821,81
15.846,25
15.871,-21
15.896,-72
15.921,-141
15.946,-215
15.971,-256
15.996,-224
16.021,-111
16.046,44
16.071,191
16.096,291
16.121,347
16.146,380
16.171,407
16.196,424
16.221,423
16.246,405
16.271,387
16.296,387
16.321,403
16.346,420
16.371,426
16.396,417
16.421,399
16.446,378
16.471,348
16.496,307
16.521,260
16.546,214
16.571,170
16.596,122
16.621,67
16.646,9
16.671,-39
16.696,-79
16.721,-126
16.746,-189
16.771,-258
16.796,-290
16.821,-248
16.846,-125
16.871,38
16.896,189
16.921,296
16.946,361
16.971,404
16.996,439
17.021,461
17.046,462
17.071,448
17.096,438
17.121,446
17.146,467
17.171,484
17.196,486
17.221,474
17.246,459
17.271,442
17.296,419
17.321,382
17.346,335
17.371,287
17.396,241
17.421,193
17.446,137
17.471,77
17.496,25
17.521,-16
17.546,-58
17.571,-116
17.596,-184
17.621,-229
17.646,-210
17.671,-112
17.696,32
17.721,173
17.746,270
17.771,322
17.796,351
17.821,373
17.846,389
17.871,389
17.896,378
17.921,371
17.946,378
17.971,398
17.996,414
18.021,416
18.046,407
18.071,392
18.096,373
18.121,344
18.146,307
18.171,266
18.196,225
18.221,182
18.246,130
18.271,73
18.296,20
18.321,-23
18.346,-69
18.371,-132
18.396,-205
18.421,-248
18.446,-217
18.471,-103
18.496,53
18.521,192
18.546,280
18.571,327
18.596,364
18.621,408
18.646,444
18.671,455
18.696,445
18.721,436
18.746,446
18.771,473
18.796,496
18.821,505
18.846,500
18.871,490
18.896,476
18.921,454
18.946,421
18.971,383
18.996,345
19.021,305
19.046,258
19.071,206
19.096,153
19.121,103
19.146,52
19.171,-2
19.196,-56
19.221,-100
19.246,-137
19.271,-184
19.296,-254
19.321,-331
19.346,-366
19.371,-315
19.396,-180
19.421,-10
19.446,133
19.471,225
19.496,284
19.521,338
19.546,392
19.571,431
19.596,443
19.621,440
19.646,442
19.671,461
19.696,488
19.721,509
19.746,518
19.771,516
19.796,506
19.821,486
19.846,457
19.871,422
19.896,388
19.921,353
19.946,312
19.971,262
19.996,211
20.021,164
20.046,121
20.071,73
20.096,20
20.121,-30
20.146,-76
20.171,-127
20.196,-192
20.221,-262
20.246,-297
20.271,-257
20.296,-136
20.321,23
20.346,166
20.371,262
20.396,321
20.421,371
20.446,421
20.471,460
20.496,473
20.521,467
20.546,460
20.571,468
20.596,489
20.621,510
20.646,519
20.671,515
20.696,502
20.721,484
20.746,461
20.771,431
20.796,394
20.821,349
20.846,298
20.871,245
20.896,193
20.921,144
20.946,91
20.971,36
20.996,-17
21.021,-63
21.046,-109
21.071,-164
21.096,-231
21.121,-282
21.146,-276
21.171,-189
21.196,-42
21.221,112
21.246,227
21.271,294
21.296,334
21.321,368
21.346,393
21.371,396
21.396,379
21.421,364
21.446,370
21.471,398
21.496,427
21.521,439
21.546,436
21.571,430
21.596,425
21.621,410
21.646,378
21.671,332
21.696,286
21.721,245
21.746,201
21.771,147
21.796,88
21.821,34
21.846,-14
21.871,-71
21.896,-140
21.921,-197
21.946,-201
21.971,-125
21.996,10
22.021,153
22.046,258
22.071,317
22.096,353
22.121,384
22.146,407
22.171,408
22.196,387
22.221,364
22.246,361
22.271,379
22.296,400
22.321,409
22.346,399
22.371,378
22.396,350
22.421,316
22.446,278
22.471,238
22.496,197
22.521,153
22.546,104
22.571,55
22.596,13
22.621,-25
22.646,-75
22.671,-141
22.696,-201
22.721,-213
22.746,-145
22.771,-12
22.796,133
22.821,239
22.846,296
22.871,330
22.896,370
22.921,413
22.946,436
22.971,428
22.996,407
23.021,402
23.046,423
23.071,452
23.096,466
23.121,458
23.146,439
23.171,418
23.196,395
23.221,361
23.246,316
23.271,270
23.296,227
23.321,184
23.346,133
23.371,77
23.396,27
23.421,-15
23.446,-64
23.471,-129
23.496,-196
23.521,-225
23.546,-180
23.571,-64
23.596,83
23.621,211
23.646,296
23.671,347
23.696,383
23.721,409
23.746,417
23.771,402
23.796,373
23.821,348
23.846,342
23.871,354
23.896,372
23.921,384
23.946,386
23.971,377
23.996,364
24.021,351
24.046,336
24.071,316
24.096,287
24.121,253
24.146,221
24.171,195
24.196,171
24.221,141
24.246,105
24.271,65
24.296,21
24.321,-34
24.346,-102
24.371,-164
24.396,-183
24.421,-137
24.446,-34
24.471,80
24.496,168
24.521,219
24.546,256
24.571,298
24.596,343
24.621,370
24.646,372
24.671,362
24.696,361
24.721,381
24.746,410
24.771,431
24.796,437
24.821,432
24.846,423
24.871,408
24.896,385
24.921,353
24.946,315
24.971,278
24.996,245
25.021,212
25.046,176
25.071,135
25.096,91
25.121,48
25.146,9
25.171,-29
25.196,-75
25.221,-129
25.246,-176
25.271,-186
25.296,-137
25.321,-36
25.346,85
25.371,190
25.396,259
25.421,306
25.446,349
25.471,395
25.496,433
25.521,450
25.546,448
25.571,443
25.596,451
25.621,472
25.646,495
25.671,504
25.696,497
25.721,481
25.746,461
25.771,440
25.796,412
25.821,378
25.846,342
25.871,307
25.896,271
25.921,229
25.946,180
25.971,133
25.996,93
26.021,58
26.046,19
26.071,-29
26.096,-81
26.121,-122
26.146,-154
26.171,-195
26.196,-261
26.221,-336
26.246,-377
26.271,-340
26.296,-228
26.321,-86
26.346,33
26.371,112
26.396,174
26.421,248
26.446,333
26.471,408
26.496,454
26.521,475
26.546,496
26.571,533
26.596,580
26.621,623
26.646,652
26.671,667
26.696,675
26.721,675
26.746,662
26.771,633
26.796,594
26.821,549
26.846,500
26.871,447
26.896,389
26.921,327
26.946,263
26.971,203
26.996,149
27.021,98
27.046,45
27.071,-16
27.096,-83
27.121,-148
27.146,-206
27.171,-267
27.196,-343
27.221,-425
27.246,-477
27.271,-458
27.296,-355
27.321,-201
27.346,-53
27.371,56
27.396,133
27.421,204
27.446,280
27.471,345
27.496,382
27.521,393
27.546,404
27.571,434
27.596,482
27.621,526
27.646,551
27.671,560
27.696,565
27.721,566
27.746,557
27.771,533
27.796,500
27.821,468
27.846,440
27.871,409
27.896,370
27.921,327
27.946,290
27.971,259
27.996,224
28.021,175
28.046,113
28.071,49
28.096,-13
28.121,-89
28.146,-183
28.171,-273
28.196,-313
28.221,-269
28.246,-147
28.271,5
28.296,135
28.321,223
28.346,285
28.371,342
28.396,396
28.421,432
28.446,441
28.471,433
28.496,432
28.521,449
28.546,475
28.571,495
28.596,502
28.621,497
28.646,485
28.671,465
28.696,436
28.721,400
28.746,361
28.771,320
28.796,273
28.821,219
28.846,162
28.871,108
28.896,57
28.921,5
28.946,-49
28.971,-104
28.996,-156
29.021,-214
29.046,-287
29.071,-361
29.096,-399
29.121,-362
29.146,-241
29.171,-77
29.196,75
29.221,182
29.246,252
29.271,315
29.296,384
29.321,448
29.346,486
29.371,496
29.396,495
29.421,502
29.446,523
29.471,547
29.496,562
29.521,563
29.546,555
29.571,541
29.596,521
29.621,491
29.646,451
29.671,401
29.696,346
29.721,290
29.746,236
29.771,183
29.796,128
29.821,69
29.846,13
29.871,-37
29.896,-88
29.921,-153
29.946,-233
29.971,-305
29.996,-326
30.021,-265
30.046,-129
30.071,31
30.096,165
30.121,249
30.146,300
30.171,346
30.196,399
30.221,442
30.246,459
30.271,450
30.296,438
30.321,442
30.346,462
30.371,483
30.396,492
30.421,486
30.446,471
30.471,448
30.496,415
30.521,367
30.546,311
30.571,256
30.596,207
30.621,157
30.646,100
30.671,41
30.696,-9
30.721,-50
30.746,-90
30.771,-149
30.796,-221
30.821,-274
30.846,-264
30.871,-173
30.896,-28
30.921,114
30.946,217
30.971,280
30.996,326
31.021,373
31.046,412
31.071,427
31.096,418
31.121,403
31.146,403
31.171,421
31.196,441
31.221,451
31.246,446
31.271,432
31.296,410
31.321,381
31.346,342
31.371,298
31.396,253
31.421,207
31.446,156
31.471,106
31.496,61
31.521,17
31.546,-36
31.571,-103
31.596,-158
31.621,-162
31.646,-89
31.671,41
31.696,178
31.721,277
31.746,331
31.771,364
31.796,395
31.821,421
31.846,425
31.871,406
31.896,382
31.921,373
31.946,382
31.971,396
31.996,402
32.021,397
32.046,384
32.071,360
32.096,320
32.121,268
32.146,214
32.171,164
32.196,116
32.221,65
32.246,13
32.271,-28
32.296,-63
32.321,-105
32.346,-170
32.371,-239
32.396,-266
32.421,-211
32.446,-80
32.471,74
32.496,199
32.521,278
32.546,332
32.571,387
32.596,438
32.621,465
32.646,456
32.671,432
32.696,424
32.721,443
32.746,473
32.771,489
32.796,483
32.821,466
32.846,444
32.871,415
32.896,374
32.921,324
32.946,277
32.971,238
32.996,198
33.021,150
33.046,97
33.071,52
33.096,18
33.121,-20
33.146,-82
33.171,-155
33.196,-198
33.221,-166
33.246,-58
33.271,81
33.296,198
33.321,272
33.346,320
33.371,366
33.396,412
33.421,437
33.446,432
33.471,407
33.496,388
33.521,389
33.546,401
33.571,408
33.596,404
33.621,393
33.646,379
33.671,358
33.696,323
33.721,281
33.746,238
33.771,196
33.796,150
33.821,97
33.846,44
33.871,1
33.896,-38
33.921,-90
33.946,-161
33.971,-223
33.996,-231
34.021,-159
34.046,-24
34.071,120
34.096,234
34.121,310
34.146,365
34.171,413
34.196,447
34.221,455
34.246,438
34.271,413
34.296,403
34.321,412
34.346,429
34.371,439
34.396,434
34.421,413
34.446,383
34.471,346
34.496,305
34.521,261
34.546,213
34.571,162
34.596,112
34.621,69
34.646,34
34.671,3
34.696,-27
34.721,-58
34.746,-88
34.771,-124
34.796,-173
34.821,-230
34.846,-267
34.871,-244
34.896,-140
34.921,21
34.946,186
34.971,304
34.996,364
35.021,394
35.046,428
35.071,475
35.096,517
35.121,534
35.146,527
35.171,515
35.196,515
35.221,528
35.246,538
35.271,533
35.296,515
35.321,492
35.346,468
35.371,440
35.396,401
35.421,353
35.446,301
35.471,252
35.496,201
35.521,141
35.546,76
35.571,16
35.596,-29
35.621,-75
35.646,-137
35.671,-217
35.696,-279
35.721,-275
35.746,-182
35.771,-28
35.796,125
35.821,230
35.846,286
35.871,325
35.896,369
35.921,415
35.946,438
35.971,431
35.996,410
36.021,400
36.046,408
36.071,424
36.096,430
36.121,423
36.146,409
36.171,392
36.196,373
36.221,348
36.246,320
36.271,290
36.296,257
36.321,218
36.346,175
36.371,131
36.396,89
36.421,49
36.446,7
36.471,-34
36.496,-74
36.521,-118
36.546,-178
36.571,-254
36.596,-319
36.621,-325
36.646,-241
36.671,-83
36.696,88
36.721,220
36.746,299
36.771,351
36.796,404
36.821,456
36.846,486
36.871,486
36.896,474
36.921,476
36.946,501
36.971,533
36.996,552
37.021,554
37.046,545
37.071,528
37.096,496
37.121,444
37.146,380
37.171,318
37.196,263
37.221,207
37.246,145
37.271,82
37.296,28
37.321,-19
37.346,-77
37.371,-153
37.396,-221
37.421,-239
37.446,-178
37.471,-52
37.496,85
37.521,188
37.546,245
37.571,274
37.596,295
37.621,310
37.646,311
37.671,300
37.696,293
37.721,306
37.746,342
37.771,381
37.796,403
37.821,399
37.846,380
37.871,359
37.896,338
37.921,310
37.946,265
37.971,208
37.996,153
38.021,107
38.046,65
38.071,10
38.096,-59
38.121,-119
38.146,-131
38.171,-72
38.196,43
38.221,174
38.246,281
38.271,349
38.296,389
38.321,417
38.346,432
38.371,431
38.396,415
38.421,397
38.446,388
38.471,389
38.496,393
38.521,390
38.546,379
38.571,362
38.596,338
38.621,304
38.646,261
38.671,210
38.696,157
38.721,103
38.746,50
38.771,-2
38.796,-55
38.821,-116
38.846,-186
38.871,-250
38.896,-273
38.921,-225
38.946,-103
38.971,52
38.996,190
39.021,281
39.046,334
39.071,376
39.096,418
39.121,447
39.146,450
39.171,434
39.196,422
39.221,431
39.246,453
39.271,468
39.296,462
39.321,442
39.346,419
39.371,396
39.396,364
39.421,318
39.446,263
39.471,210
39.496,159
39.521,106
39.546,48
39.571,-6
39.596,-51
39.621,-97
39.646,-157
39.671,-231
39.696,-287
39.721,-279
39.746,-187
39.771,-38
39.796,113
39.821,226
39.846,302
39.871,363
39.896,424
39.921,475
39.946,498
39.971,496
39.996,487
40.021,491
40.046,509
40.071,529
40.096,538
40.121,535
40.146,526
40.171,510
40.196,482
40.221,442
40.246,395
40.271,348
40.296,300
40.321,251
40.346,200
40.371,152
40.396,107
40.421,60
40.446,7
40.471,-46
40.496,-92
40.521,-133
40.546,-185
40.571,-255
40.596,-326
40.621,-352
40.646,-296
40.671,-162
40.696,3
40.721,148
40.746,248
40.771,315
40.796,370
40.821,421
40.846,456
40.871,466
40.896,456
40.921,445
40.946,451
40.971,474
40.996,502
41.021,516
41.046,510
41.071,490
41.096,468
41.121,448
41.146,424
41.171,390
41.196,346
41.221,300
41.246,258
41.271,221
41.296,180
41.321,134
41.346,89
41.371,48
41.396,6
41.421,-50
41.446,-119
41.471,-173
41.496,-171
41.521,-93
41.546,40
41.571,181
41.596,287
41.621,350
41.646,390
41.671,425
41.696,455
41.721,467
41.746,453
41.771,429
41.796,416
41.821,427
41.846,451
41.871,464
41.896,454
41.921,424
41.946,390
41.971,357
41.996,319
42.021,268
42.046,204
42.071,140
42.096,83
42.121,27
42.146,-42
42.171,-126
42.196,-211
42.221,-286
42.246,-360
42.271,-450
42.296,-554
42.321,-633
42.346,-632
42.371,-533
42.396,-370
42.421,-203
42.446,-65
42.471,56
42.496,193
42.521,346
42.546,478
42.571,547
42.596,545
42.621,504
42.646,470
42.671,464
42.696,486
42.721,526
42.746,573
42.771,619
42.796,652
42.821,662
42.846,648
42.871,617
42.896,577
42.921,527
42.946,465
42.971,396
42.996,333
43.021,282
43.046,230
43.071,153
43.096,42
43.121,-73
43.146,-137
43.171,-93
43.196,62
43.221,272
43.246,447
43.271,529
43.296,519
43.321,472
43.346,439
43.371,433
43.396,433
43.421,424
43.446,414
43.471,422
43.496,449
43.521,473
43.546,467
43.571,431
43.596,381
43.621,334
43.646,288
43.671,237
43.696,186
43.721,142
43.746,97
43.771,30
43.796,-80
43.821,-226
43.846,-377
43.871,-506
43.896,-600
43.921,-655
43.946,-648
43.971,-553
43.996,-374
44.021,-158
44.046,28
44.071,155
44.096,238
44.121,310
44.146,381
44.171,429
44.196,438
44.221,426
44.246,425
44.271,453
44.296,488
44.321,502
44.346,487
44.371,463
44.396,447
44.421,441
44.446,428
44.471,400
44.496,362
44.521,317
44.546,262
44.571,191
44.596,108
44.621,29
44.646,-40
44.671,-107
44.696,-177
44.721,-236
44.746,-249
44.771,-192
44.796,-72
44.821,71
44.846,197
44.871,291
44.896,363
44.921,424
44.946,477
44.971,512
44.996,528
45.021,533
45.046,542
45.071,563
45.096,594
45.121,626
45.146,650
45.171,660
45.196,653
45.221,632
45.246,597
45.271,546
45.296,478
45.321,400
45.346,321
45.371,242
45.396,154
45.421,43
45.446,-82
45.471,-186
45.496,-229
45.521,-199
45.546,-130
45.571,-70
45.596,-47
45.621,-51
45.646,-62
45.671,-73
45.696,-96
45.721,-136
45.746,-175
45.771,-184
45.796,-148
45.821,-84
45.846,-19
45.871,31
45.896,69
45.921,103
45.946,132
45.971,153
45.996,167
46.021,180
46.046,194
46.071,197
46.096,183
46.121,166
46.146,179
46.171,249
46.196,372
46.221,515
46.246,637
46.271,722
46.296,778
46.321,819
46.346,849
46.371,855
46.396,827
46.421,770
46.446,706
46.471,657
46.496,623
46.521,586
46.546,523
46.571,432
46.596,329
46.621,231
46.646,140
46.671,44
46.696,-61
46.721,-164
46.746,-251
46.771,-327
46.796,-412
46.821,-514
46.846,-599
46.871,-614
46.896,-534
46.921,-392
46.946,-255
46.971,-165
46.996,-104
47.021,-26
47.046,89
47.071,217
47.096,318
47.121,392
47.146,476
47.171,600
47.196,748
47.221,862
47.246,891
47.271,829
47.296,709
47.321,576
47.346,462
47.371,383
47.396,345
47.421,340
47.446,345
47.471,331
47.496,275
47.521,172
47.546,30
47.571,-140
47.596,-316
47.621,-462
47.646,-539
47.671,-529
47.696,-454
47.721,-357
47.746,-269
47.771,-183
47.796,-79
47.821,53
47.846,193
47.871,312
47.896,397
47.921,461
47.946,525
47.971,595
47.996,662
48.021,711
48.046,735
48.071,734
48.096,712
48.121,672
48.146,625
48.171,582
48.196,545
48.221,507
48.246,461
48.271,406
48.296,350
48.321,294
48.346,233
48.371,162
48.396,82
48.421,4
48.446,-66
48.471,-143
48.496,-234
48.521,-324
48.546,-369
48.571,-333
48.596,-220
48.621,-78
48.646,37
48.671,107
48.696,153
48.721,206
48.746,270
48.771,325
48.796,355
48.821,368
48.846,384
48.871,410
48.896,432
48.921,430
48.946,403
48.971,369
48.996,343
49.021,321
49.046,291
49.071,247
49.096,195
49.121,147
49.146,105
49.171,65
49.196,32
49.221,13
49.246,9
49.271,6
49.296,-8
49.321,-30
49.346,-24
49.371,40
49.396,167
49.421,322
49.446,465
49.471,577
49.496,667
49.521,749
49.546,814
49.571,843
49.596,823
49.621,771
49.646,719
49.671,687
49.696,665
49.721,630
49.746,561
49.771,464
49.796,359
49.821,261
49.846,172
49.871,84
49.896,-3
49.921,-83
49.946,-148
49.971,-208
49.996,-278
50.021,-360
50.046,-424
50.071,-425
50.096,-342
50.121,-200
50.146,-53
50.171,53
50.196,116
50.221,159
50.246,200
50.271,232
50.296,239
50.321,220
50.346,195
50.371,187
50.396,197
50.421,208
50.446,209
50.471,199
50.496,185
50.521,163
50.546,130
50.571,87
50.596,43
50.621,2
50.646,-46
50.671,-109
50.696,-167
50.721,-176
50.746,-103
50.771,41
50.796,205
50.821,338
50.846,428
50.871,493
50.896,549
50.921,588
50.946,590
50.971,557
50.996,512
51.021,481
51.046,470
51.071,461
51.096,441
51.121,408
51.146,368
51.171,321
51.196,266
51.221,206
51.246,153
51.271,110
51.296,62
51.321,-3
51.346,-75
51.371,-111
51.396,-74
51.421,36
51.446,178
51.471,300
51.496,382
51.521,441
51.546,497
51.571,549
51.596,574
51.621,557
51.646,509
51.671,457
51.696,420
51.721,394
51.746,367
51.771,330
51.796,283
51.821,230
51.846,168
51.871,96
51.896,16
51.921,-57
51.946,-120
51.971,-181
51.996,-251
52.021,-327
52.046,-382
52.071,-380
52.096,-308
52.121,-188
52.146,-60
52.171,42
52.196,114
52.221,171
52.246,222
52.271,263
52.296,285
52.321,286
52.346,282
52.371,292
52.396,323
52.421,365
52.446,405
52.471,437
52.496,460
52.521,474
52.546,472
52.571,451
52.596,414
52.621,371
52.646,331
52.671,290
52.696,235
52.721,160
52.746,70
52.771,-8
52.796,-43
52.821,-16
52.846,61
52.871,162
52.896,247
52.921,299
52.946,321
52.971,334
52.996,351
53.021,372
53.046,391
53.071,404
53.096,411
53.121,418
53.146,420
53.171,412
53.196,392
53.221,369
53.246,353
53.271,342
53.296,324
53.321,287
53.346,233
53.371,172
53.396,116
53.421,66
53.446,17
53.471,-29
53.496,-67
53.521,-90
53.546,-102
53.571,-119
53.596,-149
53.621,-178
53.646,-175
53.671,-115
53.696,0
53.721,142
53.746,273
53.771,375
53.796,453
53.821,520
53.846,583
53.871,634
53.896,663
53.921,676
53.946,688
53.971,709
53.996,735
54.021,751
54.046,745
54.071,720
54.096,682
54.121,635
54.146,574
54.171,494
54.196,397
54.221,288
54.246,168
54.271,32
54.296,-117
54.321,-268
54.346,-395
54.371,-492
54.396,-573
54.421,-659
54.446,-750
54.471,-815
54.496,-810
54.521,-714
54.546,-550
54.571,-367
54.596,-205
54.621,-72
54.646,42
54.671,146
54.696,233
54.721,291
54.746,321
54.771,340
54.796,366
54.821,402
54.846,436
54.871,455
54.896,458
54.921,454
54.946,458
54.971,471
54.996,487
55.021,492
55.046,482
55.071,452
55.096,405
55.121,344
55.146,278
55.171,213
55.196,152
55.221,91
55.246,27
55.271,-31
55.296,-61
55.321,-36
55.346,54
55.371,190
55.396,334
55.421,453
55.446,537
55.471,596
55.496,643
55.521,676
55.546,684
55.571,669
55.596,644
55.621,629
55.646,628
55.671,625
55.696,599
55.721,545
55.746,479
55.771,415
55.796,356
55.821,291
55.846,214
55.871,132
55.896,59
55.921,0
55.946,-54
55.971,-112
55.996,-172
56.021,-221
56.046,-259
56.071,-303
56.096,-366
56.121,-433
56.146,-460
56.171,-408
56.196,-276
56.221,-103
56.246,57
56.271,180
56.296,269
56.321,337
56.346,388
56.371,416
56.396,419
56.421,410
56.446,410
56.471,426
56.496,451
56.521,471
56.546,476
56.571,465
56.596,444
56.621,415
56.646,379
56.671,339
56.696,292
56.721,237
56.746,180
56.771,126
56.796,80
56.821,33
56.846,-23
56.871,-89
56.896,-136
56.921,-125
56.946,-38
56.971,103
56.996,251
57.021,364
57.046,435
57.071,478
57.096,506
57.121,517
57.146,501
57.171,466
57.196,434
57.221,426
57.246,439
57.271,452
57.296,447
57.321,427
57.346,405
57.371,388
57.396,364
57.421,319
57.446,252
57.471,184
57.496,130
57.521,87
57.546,33
57.571,-39
57.596,-110
57.621,-136
57.646,-89
57.671,17
57.696,135
57.721,218
57.746,249
57.771,244
57.796,224
57.821,196
57.846,154
57.871,102
57.896,55
57.921,33
57.946,42
57.971,68
57.996,91
58.021,103
58.046,111
58.071,123
58.096,131
58.121,123
58.146,91
58.171,49
58.196,14
58.221,-8
58.246,-31
58.271,-71
58.296,-126
58.321,-169
58.346,-161
58.371,-83
58.396,47
58.421,192
58.446,315
58.471,402
58.496,460
58.521,497
58.546,514
58.571,504
58.596,475
58.621,444
58.646,431
58.671,442
58.696,463
58.721,473
58.746,460
58.771,432
58.796,399
58.821,366
58.846,330
58.871,285
58.896,236
58.921,189
58.946,142
58.971,86
58.996,14
59.021,-62
59.046,-118
59.071,-122
59.096,-64
59.121,44
59.146,177
59.171,306
59.196,416
59.221,501
59.246,562
59.271,598
59.296,607
59.321,589
59.346,551
59.371,506
59.396,470
59.421,453
59.446,449
59.471,443
59.496,427
59.521,402
59.546,377
59.571,352
59.596,321
59.621,275
59.646,217
59.671,154
59.696,91
59.721,23
59.746,-52
59.771,-119
59.796,-147
59.821,-113
59.846,-24
59.871,80
59.896,158
59.921,194
59.946,199
59.971,191
59.996,176
60.021,150
60.046,112
60.071,76
60.096,57
60.121,56
60.146,60
60.171,56
60.196,42
60.221,23
60.246,4
60.271,-22
60.296,-59
60.321,-99
60.346,-129
60.371,-147
60.396,-165
60.421,-202
60.446,-253
60.471,-288
60.496,-266
60.521,-170
60.546,-20
60.571,136
60.596,263
60.621,352
60.646,417
60.671,472
60.696,514
60.721,535
60.746,535
60.771,531
60.796,542
60.821,568
60.846,594
60.871,603
60.896,596
60.921,586
60.946,578
60.971,566
60.996,540
61.021,502
61.046,466
61.071,436
61.096,403
61.121,351
61.146,282
61.171,230
61.196,228
61.221,284
61.246,367
61.271,435
61.296,463
61.321,457
61.346,429
61.371,385
61.396,318
61.421,229
61.446,135
61.471,56
61.496,1
61.521,-35
61.546,-63
61.571,-90
61.596,-116
61.621,-139
61.646,-161
61.671,-182
61.696,-203
61.721,-223
61.746,-242
61.771,-254
61.796,-255
61.821,-243
61.846,-229
61.871,-222
61.896,-217
61.921,-189
61.946,-107
61.971,32
61.996,202
62.021,360
62.046,484
62.071,576
62.096,649
62.121,705
62.146,738
62.171,748
62.196,749
62.221,753
62.246,761
62.271,758
62.296,740
62.321,709
62.346,669
62.371,614
62.396,536
62.421,437
62.446,334
62.471,241
62.496,152
62.521,54
62.546,-50
62.571,-149
62.596,-230
62.621,-310
62.646,-410
62.671,-528
62.696,-617
62.721,-628
62.746,-552
62.771,-424
62.796,-291
62.821,-162
62.846,-17
62.871,149
62.896,311
62.921,424
62.946,478
62.971,507
62.996,548
63.021,602
63.046,635
63.071,617
63.096,557
63.121,495
63.146,458
63.171,443
63.196,428
63.221,400
63.246,372
63.271,357
63.296,357
63.321,354
63.346,333
63.371,295
63.396,254
63.421,223
63.446,196
63.471,157
63.496,95
63.521,24
63.546,-21
63.571,-7
63.596,74
63.621,199
63.646,320
63.671,403
63.696,444
63.721,457
63.746,455
63.771,437
63.796,396
63.821,337
63.846,282
63.871,252
63.896,247
63.921,251
63.946,243
63.971,218
63.996,188
64.021,162
64.046,140
64.071,109
64.096,64
64.121,12
64.146,-34
64.171,-71
64.196,-106
64.221,-144
64.246,-183
64.271,-209
64.296,-218
64.321,-222
64.346,-242
64.371,-280
64.396,-310
64.421,-289
64.446,-194
64.471,-38
64.496,133
64.521,283
64.546,400
64.571,492
64.596,567
64.621,619
64.646,637
64.671,627
64.696,610
64.721,606
64.746,617
64.771,630
64.796,630
64.821,614
64.846,587
64.871,552
64.896,510
64.921,459
64.946,402
64.971,344
64.996,290
65.021,235
65.046,176
65.071,111
65.096,43
65.121,-18
65.146,-71
65.171,-121
65.196,-179
65.221,-246
65.246,-299
65.271,-301
65.296,-227
65.321,-88
65.346,64
65.371,184
65.396,262
65.421,324
65.446,392
65.471,461
65.496,505
65.521,517
65.546,525
65.571,561
65.596,622
65.621,675
65.646,688
65.671,671
65.696,653
65.721,643
65.746,617
65.771,553
65.796,464
65.821,389
65.846,340
65.871,286
65.896,187
65.921,51
65.946,-73
65.971,-156
65.996,-233
66.021,-360
66.046,-529
66.071,-645
66.096,-599
66.121,-388
66.146,-131
66.171,33
66.196,70
66.221,62
66.246,112
66.271,233
66.296,349
66.321,384
66.346,339
66.371,282
66.396,273
66.421,309
66.446,347
66.471,356
66.496,344
66.521,328
66.546,311
66.571,278
66.596,222
66.621,152
66.646,87
66.671,41
66.696,18
66.721,22
66.746,51
66.771,81
66.796,75
66.821,9
66.846,-94
66.871,-170
66.896,-153
66.921,-28
66.946,157
66.971,333
66.996,454
67.021,514
67.046,534
67.071,537
67.096,536
67.121,538
67.146,543
67.171,544
67.196,529
67.221,494
67.246,450
67.271,415
67.296,401
67.321,401
67.346,397
67.371,376
67.396,340
67.421,294
67.446,244
67.471,192
67.496,142
67.521,98
67.546,56
67.571,7
67.596,-58
67.621,-136
67.646,-194
67.671,-193
67.696,-111
67.721,36
67.746,199
67.771,326
67.796,395
67.821,427
67.846,456
67.871,496
67.896,530
67.921,535
67.946,517
67.971,515
67.996,558
68.021,630
68.046,680
68.071,675
68.096,636
68.121,609
68.146,595
68.171,532
68.196,359
68.221,98
68.246,-137
68.271,-243
68.296,-222
68.321,-189
68.346,-252
68.371,-410
68.396,-559
68.421,-592
68.446,-492
68.471,-329
68.496,-181
68.521,-71
68.546,16
68.571,97
68.596,164
68.621,205
68.646,225
68.671,242
68.696,263
68.721,287
68.746,312
68.771,341
68.796,370
68.821,384
68.846,372
68.871,346
68.896,329
68.921,320
68.946,293
68.971,223
68.996,138
69.021,93
69.046,118
69.071,162
69.096,141
69.121,23
69.146,-118
69.171,-163
69.196,-58
69.221,133
69.246,299
69.271,375
69.296,397
69.321,433
69.346,500
69.371,551
69.396,539
69.421,478
69.446,431
69.471,443
69.496,489
69.521,512
69.546,485
69.571,437
69.596,412
69.621,411
69.646,395
69.671,333
69.696,244
69.721,178
69.746,150
69.771,126
69.796,61
69.821,-40
69.846,-117
69.871,-112
69.896,-30
69.921,64
69.946,117
69.971,128
69.996,148
70.021,216
70.046,324
70.071,431
70.096,503
70.121,537
70.146,540
70.171,516
70.196,467
70.221,405
70.246,346
70.271,296
70.296,241
70.321,172
70.346,100
70.371,54
70.396,49
70.421,63
70.446,55
70.471,5
70.496,-66
70.521,-122
70.546,-143
70.571,-149
70.596,-172
70.621,-223
70.646,-277
70.671,-286
70.696,-218
70.721,-78
70.746,93
70.771,247
70.796,355
70.821,420
70.846,468
70.871,512
70.896,545
70.921,552
70.946,536
70.971,520
70.996,526
71.021,548
71.046,560
71.071,546
71.096,511
71.121,477
71.146,447
71.171,411
71.196,359
71.221,297
71.246,238
71.271,185
71.296,126
71.321,57
71.346,-10
71.371,-64
71.396,-114
71.421,-181
71.446,-265
71.471,-323
71.496,-299
71.521,-178
71.546,-4
71.571,152
71.596,252
71.621,306
71.646,344
71.671,380
71.696,401
71.721,400
71.746,389
71.771,389
71.796,402
71.821,416
71.846,420
71.871,416
71.896,414
71.921,412
71.946,389
71.971,329
71.996,239
72.021,144
72.046,75
72.071,49
72.096,61
72.121,86
72.146,86
72.171,35
72.196,-59
72.221,-151
72.246,-180
72.271,-114
72.296,25
72.321,182
72.346,301
72.371,366
72.396,393
72.421,410
72.446,428
72.471,442
72.496,442
72.521,428
72.546,415
72.571,422
72.596,454
72.621,491
72.646,496
72.671,447
72.696,358
72.721,273
72.746,229
72.771,229
72.796,240
72.821,225
72.846,176
72.871,104
72.896,31
72.921,-27
72.946,-66
72.971,-84
72.996,-99
73.021,-142
73.046,-226
73.071,-322
73.096,-360
73.121,-289
73.146,-121
73.171,69
73.196,210
73.221,287
73.246,337
73.271,394
73.296,451
73.321,477
73.346,462
73.371,435
73.396,437
73.421,470
73.446,506
73.471,516
73.496,503
73.521,488
73.546,479
73.571,465
73.596,432
73.621,383
73.646,332
73.671,286
73.696,236
73.721,172
73.746,102
73.771,43
73.796,-1
73.821,-48
73.846,-116
73.871,-195
73.896,-243
73.921,-217
73.946,-111
73.971,39
73.996,182
74.021,284
74.046,343
74.071,373
74.096,390
74.121,397
74.146,399
74.171,395
74.196,389
74.221,377
74.246,363
74.271,356
74.296,367
74.321,392
74.346,413
74.371,403
74.396,358
74.421,298
74.446,247
74.471,213
74.496,175
74.521,121
74.546,56
74.571,4
74.596,-31
74.621,-72
74.646,-140
74.671,-220
74.696,-258
74.721,-207
74.746,-72
74.771,91
74.796,227
74.821,316
74.846,373
74.871,412
74.896,431
74.921,424
74.946,405
74.971,402
74.996,425
75.021,452
75.046,450
75.071,414
75.096,370
75.121,350
75.146,361
75.171,378
75.196,370
75.221,323
75.246,243
75.271,154
75.296,79
75.321,34
75.346,14
75.371,-5
75.396,-55
75.421,-140
75.446,-224
75.471,-249
75.496,-181
75.521,-38
75.546,123
75.571,252
75.596,334
75.621,389
75.646,436
75.671,475
75.696,488
75.721,470
75.746,438
75.771,425
75.796,445
75.821,486
75.846,510
75.871,481
75.896,391
75.921,262
75.946,134
75.971,44
75.996,2
76.021,-9
76.046,-26
76.071,-77
76.096,-164
76.121,-252
76.146,-291
76.171,-253
76.196,-161
76.221,-73
76.246,-34
76.271,-35
76.296,-21
76.321,52
76.346,177
76.371,301
76.396,374
76.421,393
76.446,393
76.471,403
76.496,421
76.521,424
76.546,409
76.571,394
76.596,400
76.621,422
76.646,433
76.671,413
76.696,368
76.721,323
76.746,297
76.771,295
76.796,302
76.821,301
76.846,277
76.871,225
76.896,155
76.921,91
76.946,58
76.971,63
76.996,92
77.021,124
77.046,148
77.071,175
77.096,213
77.121,250
77.146,265
77.171,254
77.196,244
77.221,278
77.246,375
77.271,501
77.296,594
77.321,609
77.346,549
77.371,450
77.396,348
77.421,252
77.446,165
77.471,94
77.496,53
77.521,38
77.546,19
77.571,-20
77.596,-48
77.621,4
77.646,169
77.671,380
77.696,513
77.721,493
77.746,379
77.771,316
77.796,387
77.821,531
77.846,602
77.871,528
77.896,387
77.921,316
77.946,358
77.971,410
77.996,346
78.021,160
78.046,-10
78.071,-31
78.096,92
78.121,221
78.146,226
78.171,115
78.196,3
78.221,-13
78.246,48
78.271,104
78.296,105
78.321,84
78.346,108
78.371,189
78.396,270
78.421,289
78.446,234
78.471,152
78.496,94
78.521,73
78.546,75
78.571,83
78.596,90
78.621,94
78.646,84
78.671,54
78.696,17
78.721,-5
78.746,-4
78.771,9
78.796,9
78.821,-11
78.846,-41
78.871,-57
78.896,-48
78.921,-15
78.946,28
78.971,69
78.996,95
79.021,99
79.046,96
79.071,109
79.096,156
79.121,220
79.146,259
79.171,247
79.196,205
79.221,191
79.246,243
79.271,339
79.296,414
79.321,421
79.346,374
79.371,328
79.396,318
79.421,339
79.446,353
79.471,335
79.496,284
79.521,214
79.546,135
79.571,66
79.596,36
79.621,70
79.646,171
79.671,305
79.696,428
79.721,518
79.746,580
79.771,631
79.796,672
79.821,695
79.846,694
79.871,675
79.896,650
79.921,626
79.946,604
79.971,580
79.996,545
80.021,488
80.046,402
80.071,296
80.096,190
80.121,99
80.146,17
80.171,-62
80.196,-128
80.221,-152
80.246,-134
80.271,-116
80.296,-160
80.321,-273
80.346,-382
80.371,-388
80.396,-261
80.421,-75
80.446,56
80.471,88
80.496,76
80.521,110
80.546,227
80.571,375
80.596,475
80.621,492
80.646,452
80.671,405
80.696,377
80.721,362
80.746,342
80.771,309
80.796,258
80.821,186
80.846,99
80.871,24
80.896,-10
80.921,1
80.946,23
80.971,7
80.996,-65
81.021,-157
81.046,-201
81.071,-164
81.096,-75
81.121,0
81.146,27
81.171,32
81.196,73
81.221,179
81.246,326
81.271,466
81.296,571
81.321,650
81.346,719
81.371,777
81.396,810
81.421,824
81.446,851
81.471,916
81.496,1001
81.521,1056
81.546,1044
81.571,977
81.596,892
81.621,816
81.646,742
81.671,657
81.696,563
81.721,459
81.746,328
81.771,142
81.796,-85
81.821,-287
81.846,-380
81.871,-350
81.896,-269
81.921,-233
81.946,-264
81.971,-299
81.996,-268
82.021,-178
82.046,-103
82.071,-100
82.096,-145
82.121,-166
82.146,-130
82.171,-75
82.196,-62
82.221,-102
82.246,-145
82.271,-142
82.296,-100
82.321,-70
82.346,-81
82.371,-109
82.396,-112
82.421,-87
82.446,-71
82.471,-97
82.496,-137
82.521,-126
82.546,-25
82.571,137
82.596,295
82.621,406
82.646,479
82.671,545
82.696,607
82.721,635
82.746,609
82.771,552
82.796,511
82.821,513
82.846,533
82.871,527
82.896,475
82.921,400
82.946,335
82.971,296
82.996,277
83.021,263
83.046,239
83.071,191
83.096,104
83.121,-8
83.146,-91
83.171,-75
83.196,61
83.221,255
83.246,405
83.271,456
83.296,443
83.321,441
83.346,482
83.371,528
83.396,521
83.421,460
83.446,401
83.471,393
83.496,424
83.521,435
83.546,397
83.571,333
83.596,288
83.621,262
83.646,214
83.671,116
83.696,0
83.721,-71
83.746,-66
83.771,-23
83.796,-4
83.821,-26
83.846,-46
83.871,-9
83.896,86
83.921,189
83.946,245
83.971,246
83.996,223
84.021,201
84.046,182
84.071,154
84.096,123
84.121,108
84.146,116
84.171,127
84.196,115
84.221,78
84.246,38
84.271,15
84.296,0
84.321,-33
84.346,-97
84.371,-161
84.396,-175
84.421,-112
84.446,16
84.471,169
84.496,313
84.521,430
84.546,516
84.571,569
84.596,593
84.621,599
84.646,603
84.671,610
84.696,611
84.721,599
84.746,574
84.771,555
84.796,556
84.821,575
84.846,587
84.871,570
84.896,511
84.921,420
84.946,313
84.971,215
84.996,150
85.021,135
85.046,177
85.071,254
85.096,328
85.121,363
85.146,349
85.171,307
85.196,262
85.221,218
85.246,161
85.271,75
85.296,-19
85.321,-85
85.346,-93
85.371,-60
85.396,-35
85.421,-52
85.446,-99
85.471,-140
85.496,-157
85.521,-175
85.546,-223
85.571,-286
85.596,-308
85.621,-241
85.646,-96
85.671,62
85.696,182
85.721,262
85.746,332
85.771,409
85.796,467
85.821,475
85.846,436
85.871,389
85.896,367
85.921,372
85.946,382
85.971,380
85.996,366
86.021,340
86.046,298
86.071,244
86.096,197
86.121,178
86.146,177
86.171,150
86.196,67
86.221,-41
86.246,-99
86.271,-50
86.296,88
86.321,242
86.346,349
86.371,402
86.396,438
86.421,477
86.446,510
86.471,514
86.496,490
86.521,464
86.546,458
86.571,473
86.596,491
86.621,497
86.646,487
86.671,461
86.696,425
86.721,388
86.746,360
86.771,338
86.796,297
86.821,215
86.846,101
86.871,2
86.896,-39
86.921,-24
86.946,-1
86.971,-26
86.996,-111
87.021,-221
87.046,-300
87.071,-313
87.096,-256
87.121,-145
87.146,-10
87.171,116
87.196,210
87.221,271
87.246,322
87.271,380
87.296,440
87.321,472
87.346,462
87.371,430
87.396,418
87.421,439
87.446,472
87.471,482
87.496,462
87.521,435
87.546,419
87.571,405
87.596,370
87.621,310
87.646,253
87.671,214
87.696,181
87.721,124
87.746,43
87.771,-28
87.796,-67
87.821,-94
87.846,-160
87.871,-273
87.896,-360
87.921,-324
87.946,-138
87.971,108
87.996,283
88.021,322
88.046,274
88.071,246
88.096,290
88.121,368
88.146,407
88.171,383
88.196,342
88.221,348
88.246,409
88.271,474
88.296,488
88.321,449
88.346,404
88.371,390
88.396,398
88.421,384
88.446,327
88.471,255
88.496,207
88.521,190
88.546,165
88.571,101
88.596,14
88.621,-43
88.646,-55
88.671,-69
88.696,-145
88.721,-269
88.746,-335
88.771,-240
88.796,7
88.821,275
88.846,421
88.871,420
88.896,371
88.921,388
88.946,486
88.971,581
88.996,596
89.021,536
89.046,472
89.071,463
89.096,501
89.121,540
89.146,547
89.171,523
89.196,481
89.221,422
89.246,348
89.271,272
89.296,216
89.321,190
89.346,175
89.371,152
89.396,112
89.421,66
89.446,21
89.471,-28
89.496,-89
89.521,-160
89.546,-233
89.571,-307
89.596,-375
89.621,-415
89.646,-385
89.671,-262
89.696,-74
89.721,109
89.746,234
89.771,302
89.796,354
89.821,418
89.846,477
89.871,497
89.896,476
89.921,455
89.946,470
89.971,515
89.996,546
90.021,532
90.046,484
90.071,438
90.096,414
90.121,404
90.146,392
90.171,373
90.196,352
90.221,322
90.246,264
90.271,178
90.296,93
90.321,43
90.346,29
90.371,9
90.396,-55
90.421,-154
90.446,-227
90.471,-212
90.496,-99
90.521,68
90.546,230
90.571,350
90.596,428
90.621,483
90.646,535
90.671,591
90.696,648
90.721,699
90.746,739
90.771,767
90.796,779
90.821,753
90.846,655
90.871,473
90.896,244
90.921,42
90.946,-69
90.971,-96
90.996,-98
91.021,-128
91.046,-190
91.071,-245
91.096,-275
91.121,-302
91.146,-353
91.171,-410
91.196,-413
91.221,-323
91.246,-163
91.271,-1
91.296,116
91.321,198
91.346,269
91.371,324
91.396,336
91.421,297
91.446,242
91.471,221
91.496,239
91.521,262
91.546,260
91.571,241
91.596,232
91.621,232
91.646,210
91.671,153
91.696,96
91.721,80
91.746,96
91.771,82
91.796,-1
91.821,-101
91.846,-106
91.871,42
91.896,279
91.921,468
91.946,530
91.971,505
91.996,495
92.021,550
92.046,628
92.071,658
92.096,621
92.121,566
92.146,546
92.171,571
92.196,609
92.221,637
92.246,656
92.271,673
92.296,676
92.321,644
92.346,581
92.371,510
92.396,448
92.421,380
92.446,272
92.471,114
92.496,-55
92.521,-178
92.546,-216
92.571,-174
92.596,-92
92.621,-11
92.646,50
92.671,88
92.696,110
92.721,124
92.746,130
92.771,124
92.796,104
92.821,78
92.846,62
92.871,69
92.896,95
92.921,114
92.946,105
92.971,66
92.996,13
93.021,-35
93.046,-73
93.071,-94
93.096,-90
93.121,-61
93.146,-31
93.171,-41
93.196,-113
93.221,-218
93.246,-281
93.271,-242
93.296,-100
93.321,84
93.346,244
93.371,352
93.396,428
93.421,497
93.446,562
93.471,602
93.496,601
93.521,570
93.546,541
93.571,534
93.596,549
93.621,565
93.646,564
93.671,543
93.696,515
93.721,490
93.746,468
93.771,442
93.796,407
93.821,366
93.846,327
93.871,294
93.896,261
93.921,216
93.946,152
93.971,71
93.996,-15
94.021,-88
94.046,-129
94.071,-133
94.096,-126
94.121,-153
94.146,-241
94.171,-358
94.196,-415
94.221,-333
94.246,-115
94.271,146
94.296,332
94.321,393
94.346,375
94.371,365
94.396,409
94.421,479
94.446,521
94.471,514
94.496,487
94.521,479
94.546,503
94.571,536
94.596,552
94.621,544
94.646,520
94.671,496
94.696,475
94.721,456
94.746,428
94.771,382
94.796,309
94.821,215
94.846,126
94.871,70
94.896,54
94.921,55
94.946,37
94.971,-20
94.996,-101
95.021,-171
95.046,-213
95.071,-248
95.096,-306
95.121,-387
95.146,-442
95.171,-406
95.196,-248
95.221,-11
95.246,219
95.271,372
95.296,435
95.321,446
95.346,452
95.371,475
95.396,504
95.421,525
95.446,532
95.471,530
95.496,526
95.521,526
95.546,534
95.571,546
95.596,553
95.621,539
95.646,506
95.671,466
95.696,436
95.721,412
95.746,370
95.771,290
95.796,181
95.821,77
95.846,11
95.871,-10
95.896,-10
95.921,-19
95.946,-60
95.971,-144
95.996,-256
96.021,-354
96.046,-375
96.071,-282
96.096,-102
96.121,77
96.146,180
96.171,202
96.196,208
96.221,261
96.246,358
96.271,436
96.296,447
96.321,407
96.346,378
96.371,397
96.396,442
96.421,468
96.446,461
96.471,447
96.496,453
96.521,467
96.546,455
96.571,406
96.596,350
96.621,319
96.646,307
96.671,276
96.696,207
96.721,126
96.746,74
96.771,53
96.796,22
96.821,-54
96.846,-153
96.871,-209
96.896,-181
96.921,-103
96.946,-48
96.971,-53
96.996,-79
97.021,-51
97.046,60
97.071,215
97.096,339
97.121,396
97.146,406
97.171,413
97.196,434
97.221,455
97.246,460
97.271,451
97.296,440
97.321,436
97.346,432
97.371,419
97.396,406
97.421,403
97.446,406
97.471,399
97.496,362
97.521,299
97.546,233
97.571,183
97.596,144
97.621,96
97.646,28
97.671,-45
97.696,-103
97.721,-140
97.746,-181
97.771,-252
97.796,-340
97.821,-384
97.846,-319
97.871,-135
97.896,103
97.921,302
97.946,409
97.971,438
97.996,441
98.021,456
98.046,477
98.071,488
98.096,483
98.121,475
98.146,474
98.171,475
98.196,472
98.221,475
98.246,495
98.271,521
98.296,525
98.321,489
98.346,433
98.371,391
98.396,368
98.421,323
98.446,217
98.471,68
98.496,-50
98.521,-80
98.546,-38
98.571,-9
98.596,-61
98.621,-181
98.646,-292
98.671,-316
98.696,-239
98.721,-98
98.746,60
98.771,206
98.796,324
98.821,401
98.846,434
98.871,439
98.896,440
98.921,445
98.946,440
98.971,410
98.996,367
99.021,337
99.046,339
99.071,359
99.096,369
99.121,358
99.146,336
99.171,313
99.196,286
99.221,244
99.246,187
99.271,124
99.296,55
99.321,-27
99.346,-115
99.371,-171
99.396,-152
99.421,-67
99.446,14
99.471,20
99.496,-47
99.521,-105
99.546,-63
99.571,83
99.596,259
99.621,377
99.646,419
99.671,426
99.696,437
99.721,447
99.746,435
99.771,403
99.796,381
99.821,388
99.846,409
99.871,415
99.896,402
99.921,385
99.946,369
99.971,325
99.996,234
100.021,122
100.046,49
100.071,45
100.096,72
100.121,56
100.146,-30
100.171,-136
100.196,-182
100.221,-127
100.246,-2
100.271,136
100.296,249
100.321,332
100.346,388
100.371,416
100.396,418
100.421,404
100.446,387
100.471,370
100.496,351
100.521,338
100.546,343
100.571,359
100.596,364
100.621,335
100.646,284
100.671,244
100.696,228
100.721,210
100.746,153
100.771,68
100.796,7
100.821,7
100.846,38
100.871,23
100.896,-75
100.921,-204
100.946,-262
100.971,-193
100.996,-27
101.021,147
101.046,271
101.071,338
101.096,381
101.121,423
101.146,462
101.171,485
101.196,484
101.221,466
101.246,447
101.271,447
101.296,475
101.321,515
101.346,528
101.371,484
101.396,399
101.421,325
101.446,306
101.471,328
101.496,334
101.521,278
101.546,170
101.571,68
101.596,20
101.621,28
101.646,52
101.671,47
101.696,-7
101.721,-96
101.746,-182
101.771,-226
101.796,-212
101.821,-162
101.846,-114
101.871,-94
101.896,-84
101.921,-44
101.946,47
101.971,169
101.996,275
102.021,341
102.046,380
102.071,418
102.096,457
102.121,483
102.146,487
102.171,482
102.196,489
102.221,511
102.246,533
102.271,545
102.296,549
102.321,544
102.346,515
102.371,449
102.396,361
102.421,296
102.446,287
102.471,315
102.496,327
102.521,286
102.546,212
102.571,150
102.596,122
102.621,103
102.646,59
102.671,-10
102.696,-74
102.721,-113
102.746,-146
102.771,-206
102.796,-287
102.821,-334
102.846,-290
102.871,-154
102.896,11
102.921,140
102.946,213
102.971,261
102.996,318
103.021,381
103.046,419
103.071,418
103.096,402
103.121,407
103.146,441
103.171,475
103.196,477
103.221,449
103.246,425
103.271,430
103.296,451
103.321,455
103.346,423
103.371,374
103.396,337
103.421,317
103.446,285
103.471,216
103.496,117
103.521,23
103.546,-30
103.571,-41
103.596,-35
103.621,-46
103.646,-92
103.671,-168
103.696,-250
103.721,-296
103.746,-273
103.771,-172
103.796,-28
103.821,108
103.846,205
103.871,272
103.896,338
103.921,412
103.946,474
103.971,496
103.996,479
104.021,452
104.046,447
104.071,475
104.096,518
104.121,551
104.146,556
104.171,531
104.196,483
104.221,433
104.246,403
104.271,398
104.296,398
104.321,371
104.346,311
104.371,244
104.396,201
104.421,172
104.446,115
104.471,2
104.496,-131
104.521,-218
104.546,-224
104.571,-197
104.596,-217
104.621,-307
104.646,-397
104.671,-385
104.696,-240
104.721,-27
104.746,154
104.771,267
104.796,347
104.821,444
104.846,554
104.871,634
104.896,659
104.921,661
104.946,687
104.971,743
104.996,779
105.021,751
105.046,669
105.071,597
105.096,579
105.121,596
105.146,586
105.171,511
105.196,393
105.221,285
105.246,212
105.271,150
105.296,64
105.321,-47
105.346,-149
105.371,-210
105.396,-236
105.421,-260
105.446,-301
105.471,-348
105.496,-382
105.521,-404
105.546,-437
105.571,-483
105.596,-501
105.621,-430
105.646,-254
105.671,-21
105.696,180
105.721,303
105.746,364
105.771,416
105.796,484
105.821,548
105.846,571
105.871,555
105.896,538
105.921,552
105.946,590
105.971,618
105.996,615
106.021,594
106.046,575
106.071,561
106.096,533
106.121,482
106.146,425
106.171,381
106.196,351
106.221,311
106.246,250
106.271,180
106.296,121
106.321,72
106.346,20
106.371,-38
106.396,-82
106.421,-100
106.446,-125
106.471,-205
106.496,-337
106.521,-438
106.546,-400
106.571,-196
106.596,75
106.621,273
106.646,326
106.671,284
106.696,249
106.721,275
106.746,332
106.771,362
106.796,349
106.821,330
106.846,349
106.871,413
106.896,487
106.921,536
106.946,548
106.971,539
106.996,528
107.021,525
107.046,523
107.071,503
107.096,446
107.121,353
107.146,247
107.171,159
107.196,107
107.221,87
107.246,80
107.271,61
107.296,14
107.321,-64
107.346,-159
107.371,-226
107.396,-217
107.421,-114
107.446,45
107.471,189
107.496,265
107.521,282
107.546,291
107.571,326
107.596,377
107.621,404
107.646,389
107.671,349
107.696,322
107.721,323
107.746,344
107.771,368
107.796,384
107.821,391
107.846,388
107.871,373
107.896,352
107.921,329
107.946,305
107.971,271
107.996,229
108.021,188
108.046,155
108.071,113
108.096,34
108.121,-83
108.146,-196
108.171,-244
108.196,-221
108.221,-183
108.246,-203
108.271,-286
108.296,-353
108.321,-313
108.346,-152
108.371,54
108.396,216
108.421,305
108.446,359
108.471,423
108.496,494
108.521,539
108.546,542
108.571,530
108.596,538
108.621,573
108.646,606
108.671,619
108.696,620
108.721,629
108.746,639
108.771,621
108.796,562
108.821,485
108.846,428
108.871,398
108.896,356
108.921,259
108.946,107
108.971,-47
108.996,-149
109.021,-180
109.046,-168
109.071,-157
109.096,-183
109.121,-262
109.146,-379
109.171,-488
109.196,-515
109.221,-412
109.246,-199
109.271,27
109.296,169
109.321,199
109.346,176
109.371,185
109.396,256
109.421,349
109.446,412
109.471,430
109.496,437
109.521,467
109.546,523
109.571,581
109.596,619
109.621,628
109.646,611
109.671,576
109.696,534
109.721,492
109.746,455
109.771,415
109.796,371
109.821,334
109.846,314
109.871,299
109.896,254
109.921,152
109.946,20
109.971,-80
109.996,-115
110.021,-114
110.046,-142
110.071,-215
110.096,-271
110.121,-227
110.146,-72
110.171,112
110.196,232
110.221,269
110.246,280
110.271,317
110.296,371
110.321,388
110.346,349
110.371,303
110.396,309
110.421,368
110.446,421
110.471,413
110.496,353
110.521,300
110.546,294
110.571,322
110.596,338
110.621,314
110.646,259
110.671,200
110.696,144
110.721,88
110.746,30
110.771,-22
110.796,-71
110.821,-129
110.846,-204
110.871,-278
110.896,-302
110.921,-236
110.946,-85
110.971,101
110.996,264
111.021,365
111.046,414
111.071,441
111.096,468
111.121,493
111.146,500
111.171,480
111.196,452
111.221,449
111.246,484
111.271,531
111.296,542
111.321,493
111.346,407
111.371,343
111.396,334
111.421,358
111.446,362
111.471,315
111.496,237
111.521,170
111.546,128
111.571,83
111.596,5
111.621,-99
111.646,-188
111.671,-233
111.696,-253
111.721,-288
111.746,-347
111.771,-377
111.796,-315
111.821,-147
111.846,68
111.871,246
111.896,347
111.921,396
111.946,435
111.971,480
111.996,509
112.021,505
112.046,485
112.071,480
112.096,504
112.121,534
112.146,541
112.171,527
112.196,518
112.221,529
112.246,539
112.271,508
112.296,422
112.321,314
112.346,230
112.371,197
112.396,197
112.421,198
112.446,177
112.471,130
112.496,61
112.521,-14
112.546,-77
112.571,-108
112.596,-111
112.621,-121
112.646,-180
112.671,-286
112.696,-380
112.721,-386
112.746,-273
112.771,-81
112.796,111
112.821,248
112.846,324
112.871,367
112.896,407
112.921,449
112.946,479
112.971,485
112.996,473
113.021,463
113.046,480
113.071,528
113.096,579
113.121,588
113.146,537
113.171,459
113.196,412
113.221,423
113.246,461
113.271,469
113.296,422
113.321,355
113.346,314
113.371,299
113.396,262
113.421,168
113.446,39
113.471,-56
113.496,-79
113.521,-53
113.546,-36
113.571,-65
113.596,-130
113.621,-203
113.646,-270
113.671,-327
113.696,-351
113.721,-304
113.746,-167
113.771,24
113.796,199
113.821,305
113.846,347
113.871,371
113.896,406
113.921,446
113.946,460
113.971,442
113.996,420
114.021,430
114.046,477
114.071,528
114.096,543
114.121,506
114.146,446
114.171,403
114.196,399
114.221,419
114.246,426
114.271,395
114.296,337
114.321,284
114.346,250
114.371,215
114.396,146
114.421,37
114.446,-72
114.471,-130
114.496,-120
114.521,-86
114.546,-97
114.571,-178
114.596,-286
114.621,-341
114.646,-294
114.671,-158
114.696,10
114.721,158
114.746,266
114.771,343
114.796,395
114.821,425
114.846,432
114.871,425
114.896,415
114.921,412
114.946,420
114.971,443
114.996,478
115.021,514
115.046,533
115.071,525
115.096,502
115.121,495
115.146,516
115.171,543
115.196,530
115.221,449
115.246,315
115.271,173
115.296,69
115.321,17
115.346,4
115.371,0
115.396,-27
115.421,-104
115.446,-228
115.471,-352
115.496,-404
115.521,-337
115.546,-174
115.571,2
115.596,117
115.621,159
115.646,180
115.671,236
115.696,330
115.721,420
115.746,461
115.771,454
115.796,431
115.821,423
115.846,429
115.871,430
115.896,416
115.921,396
115.946,389
115.971,398
115.996,410
116.021,407
116.046,381
116.071,335
116.096,281
116.121,226
116.146,178
116.171,142
116.196,120
116.221,100
116.246,59
116.271,-14
116.296,-106
116.321,-181
116.346,-218
116.371,-239
116.396,-293
116.421,-398
116.446,-496
116.471,-482
116.496,-296
116.521,10
116.546,300
116.571,457
116.596,472
116.621,434
116.646,436
116.671,492
116.696,548
116.721,556
116.746,524
116.771,502
116.796,524
116.821,578
116.846,625
116.871,643
116.896,638
116.921,626
116.946,615
116.971,598
116.996,564
117.021,506
117.046,417
117.071,302
117.096,179
117.121,84
117.146,44
117.171,50
117.196,65
117.221,42
117.246,-30
117.271,-127
117.296,-202
117.321,-223
117.346,-186
117.371,-113
117.396,-36
117.421,27
117.446,79
117.471,139
117.496,222
117.521,320
117.546,400
117.571,430
117.596,409
117.621,369
117.646,341
117.671,333
117.696,331
117.721,327
117.746,329
117.771,349
117.796,377
117.821,384
117.846,354
117.871,307
117.896,276
117.921,267
117.946,249
117.971,193
117.996,112
118.021,51
118.046,29
118.071,13
118.096,-45
118.121,-143
118.146,-215
118.171,-206
118.196,-141
118.221,-106
118.246,-157
118.271,-248
118.296,-263
118.321,-139
118.346,70
118.371,246
118.396,312
118.421,297
118.446,280
118.471,301
118.496,338
118.521,354
118.546,352
118.571,371
118.596,433
118.621,516
118.646,577
118.671,600
118.696,602
118.721,609
118.746,617
118.771,603
118.796,553
118.821,478
118.846,404
118.871,341
118.896,280
118.921,209
118.946,128
118.971,57
118.996,14
119.021,0
119.046,-5
119.071,-33
119.096,-95
119.121,-165
119.146,-196
119.171,-151
119.196,-39
119.221,82
119.246,159
119.271,179
119.296,181
119.321,209
119.346,270
119.371,331
119.396,358
119.421,350
119.446,340
119.471,353
119.496,385
119.521,413
119.546,425
119.571,427
119.596,430
119.621,430
119.646,416
119.671,381
119.696,337
119.721,302
119.746,278
119.771,251
119.796,211
119.821,164
119.846,126
119.871,104
119.896,79
119.921,35
119.946,-23
119.971,-67
119.996,-75
120.021,-64
120.046,-74
120.071,-135
120.096,-221
120.121,-269
120.146,-226
120.171,-97
120.196,58
120.221,179
120.246,245
120.271,285
120.296,334
120.321,397
120.346,445
120.371,454
120.396,433
120.421,417
120.446,432
120.471,473
120.496,511
120.521,525
120.546,518
120.571,509
120.596,505
120.621,495
120.646,465
120.671,421
120.696,382
120.721,355
120.746,327
120.771,277
120.796,212
120.821,157
120.846,126
120.871,97
120.896,37
120.921,-52
120.946,-127
120.971,-139
120.996,-101
121.021,-78
121.046,-120
121.071,-198
121.096,-225
121.121,-144
121.146,14
121.171,161
121.196,236
121.221,256
121.246,280
121.271,338
121.296,398
121.321,416
121.346,390
121.371,361
121.396,370
121.421,412
121.446,451
121.471,459
121.496,443
121.521,425
121.546,414
121.571,399
121.596,364
121.621,314
121.646,260
121.671,214
121.696,171
121.721,123
121.746,66
121.771,9
121.796,-39
121.821,-79
121.846,-117
121.871,-163
121.896,-219
121.921,-274
121.946,-301
121.971,-276
121.996,-191
122.021,-56
122.046,96
122.071,237
122.096,347
122.121,423
122.146,469
122.171,493
122.196,494
122.221,479
122.246,463
122.271,468
122.296,501
122.321,547
122.346,569
122.371,546
122.396,493
122.421,453
122.446,455
122.471,484
122.496,488
122.521,432
122.546,332
122.571,245
122.596,214
122.621,229
122.646,242
122.671,210
122.696,135
122.721,56
122.746,3
122.771,-26
122.796,-62
122.821,-127
122.846,-211
122.871,-275
122.896,-281
122.921,-214
122.946,-92
122.971,44
122.996,161
123.021,246
123.046,302
123.071,340
123.096,368
123.121,387
123.146,397
123.171,402
123.196,404
123.221,403
123.246,407
123.271,425
123.296,457
123.321,482
123.346,468
123.371,406
123.396,330
123.421,287
123.446,298
123.471,327
123.496,323
123.521,269
123.546,201
123.571,164
123.596,154
123.621,124
123.646,39
123.671,-72
123.696,-149
123.721,-161
123.746,-144
123.771,-159
123.796,-220
123.821,-270
123.846,-240
123.871,-118
123.896,40
123.921,166
123.946,237
123.971,282
123.996,331
124.021,384
124.046,417
124.071,420
124.096,410
124.121,412
124.146,434
124.171,463
124.196,482
124.221,492
124.246,499
124.271,504
124.296,497
124.321,470
124.346,430
124.371,393
124.396,366
124.421,339
124.446,293
124.471,222
124.496,138
124.521,61
124.546,11
124.571,-8
124.596,-7
124.621,-1
124.646,-11
124.671,-51
124.696,-122
124.721,-200
124.746,-245
124.771,-220
124.796,-122
124.821,17
124.846,152
124.871,248
124.896,303
124.921,336
124.946,366
124.971,394
124.996,408
125.021,402
125.046,385
125.071,383
125.096,409
125.121,449
125.146,472
125.171,457
125.196,407
125.221,355
125.246,331
125.271,336
125.296,345
125.321,330
125.346,287
125.371,236
125.396,194
125.421,158
125.446,109
125.471,42
125.496,-24
125.521,-71
125.546,-97
125.571,-123
125.596,-164
125.621,-199
125.646,-181
125.671,-83
125.696,67
125.721,209
125.746,293
125.771,327
125.796,353
125.821,397
125.846,441
125.871,453
125.896,432
125.921,415
125.946,436
125.971,485
125.996,511
126.021,481
126.046,417
126.071,370
126.096,370
126.121,394
126.146,395
126.171,353
126.196,295
126.221,255
126.246,233
126.271,195
126.296,112
126.321,0
126.346,-96
126.371,-139
126.396,-133
126.421,-121
126.446,-145
126.471,-216
126.496,-300
126.521,-335
126.546,-272
126.571,-110
126.596,91
126.621,253
126.646,327
126.671,332
126.696,329
126.721,364
126.746,428
126.771,475
126.796,477
126.821,451
126.846,438
126.871,459
126.896,496
126.921,520
126.946,517
126.971,498
126.996,477
127.021,458
127.046,433
127.071,399
127.096,358
127.121,314
127.146,267
127.171,219
127.196,173
127.221,131
127.246,85
127.271,24
127.296,-50
127.321,-123
127.346,-176
127.371,-209
127.396,-241
127.421,-279
127.446,-302
127.471,-271
127.496,-166
127.521,-13
127.546,136
127.571,244
127.596,311
127.621,357
127.646,396
127.671,420
127.696,420
127.721,407
127.746,404
127.771,428
127.796,465
127.821,493
127.846,502
127.871,500
127.896,504
127.921,509
127.946,499
127.971,467
127.996,425
128.021,395
128.046,378
128.071,351
128.096,291
128.121,199
128.146,103
128.171,34
128.196,0
128.221,-5
128.246,-2
128.271,-9
128.296,-46
128.321,-123
128.346,-222
128.371,-291
128.396,-271
128.421,-153
128.446,8
128.471,134
128.496,190
128.521,202
128.546,228
128.571,288
128.596,355
128.621,386
128.646,375
128.671,356
128.696,362
128.721,395
128.746,431
128.771,451
128.796,456
128.821,458
128.846,462
128.871,460
128.896,448
128.921,426
128.946,397
128.971,360
128.996,317
129.021,277
129.046,245
129.071,208
129.096,145
129.121,49
129.146,-46
129.171,-96
129.196,-83
129.221,-46
129.246,-53
129.271,-130
129.296,-234
129.321,-284
129.346,-226
129.371,-77
129.396,96
129.421,231
129.446,307
129.471,337
129.496,349
129.521,358
129.546,367
129.571,375
129.596,380
129.621,384
129.646,393
129.671,415
129.696,445
129.721,470
129.746,473
129.771,453
129.796,427
129.821,409
129.846,395
129.871,369
129.896,321
129.921,266
129.946,226
129.971,200
129.996,167
130.021,107
130.046,36
130.071,-13
130.096,-31
130.121,-54
130.146,-123
130.171,-230
130.196,-305
130.221,-275
130.246,-138
130.271,25
130.296,130
130.321,156
130.346,157
130.371,199
130.396,288
130.421,374
130.446,410
130.471,401
130.496,390
130.521,407
130.546,444
130.571,469
130.596,468
130.621,459
130.646,463
130.671,479
130.696,484
130.721,464
130.746,427
130.771,396
130.796,376
130.821,355
130.846,314
130.871,257
130.896,205
130.921,168
130.946,137
130.971,90
130.996,23
131.021,-38
131.046,-75
131.071,-99
131.096,-146
131.121,-234
131.146,-319
131.171,-321
131.196,-191
131.221,32
131.246,244
131.271,358
131.296,369
131.321,347
131.346,359
131.371,413
131.396,463
131.421,470
131.446,444
131.471,427
131.496,449
131.521,494
131.546,523
131.571,517
131.596,489
131.621,467
131.646,457
131.671,439
131.696,393
131.721,325
131.746,263
131.771,222
131.796,189
131.821,133
131.846,50
131.871,-27
131.896,-69
131.921,-82
131.946,-116
131.971,-207
131.996,-323
132.021,-377
132.046,-304
132.071,-133
132.096,35
132.121,115
132.146,109
132.171,92
132.196,124
132.221,193
132.246,236
132.271,220
132.296,172
132.321,147
132.346,168
132.371,214
132.396,252
132.421,279
132.446,308
132.471,341
132.496,361
132.521,355
132.546,341
132.571,345
132.596,374
132.621,396
132.646,377
132.671,322
132.696,265
132.721,239
132.746,236
132.771,224
132.796,177
132.821,107
132.846,52
132.871,44
132.896,92
132.921,180
132.946,284
132.971,378
132.996,440
133.021,467
133.046,472
133.071,475
133.096,483
133.121,486
133.146,472
133.171,445
133.196,424
133.221,424
133.246,435
133.271,426
133.296,381
133.321,310
133.346,248
133.371,215
133.396,209
133.421,203
133.446,171
133.471,102
133.496,5
133.521,-99
133.546,-185
133.571,-231
133.596,-234
133.621,-215
133.646,-204
133.671,-208
133.696,-208
133.721,-177
133.746,-112
133.771,-40
133.796,5
133.821,21
133.846,28
133.871,46
133.896,73
133.921,97
133.946,117
133.971,151
133.996,208
134.021,267
134.046,297
134.071,290
134.096,269
134.121,256
134.146,244
134.171,212
134.196,165
134.221,139
134.246,160
134.271,205
134.296,214
134.321,158
134.346,84
134.371,73
134.396,168
134.421,335
134.446,507
134.471,648
134.496,759
134.521,843
134.546,887
134.571,896
134.596,914
134.621,988
134.646,1092
134.671,1118
134.696,977
134.721,705
134.746,461
134.771,380
134.796,442
134.821,497
134.846,414
134.871,207
134.896,1
134.921,-107
134.946,-139
134.971,-177
134.996,-260
135.021,-349
135.046,-392
135.071,-396
135.096,-414
135.121,-468
135.146,-511
135.171,-475
135.196,-352
135.221,-206
135.246,-99
135.271,-35
135.296,35
135.321,146
135.346,268
135.371,342
135.396,341
135.421,305
135.446,295
135.471,336
135.496,401
135.521,442
135.546,440
135.571,414
135.596,398
135.621,396
135.646,384
135.671,336
135.696,254
135.721,172
135.746,131
135.771,140
135.796,170
135.821,177
135.846,140
135.871,78
135.896,28
135.921,6
135.946,-4
135.971,-33
135.996,-95
136.021,-165
136.046,-200
136.071,-166
136.096,-68
136.121,58
136.146,175
136.171,260
136.196,318
136.221,366
136.246,415
136.271,458
136.296,482
136.321,484
136.346,473
136.371,466
136.396,472
136.421,487
136.446,502
136.471,504
136.496,483
136.521,435
136.546,371
136.571,312
136.596,282
136.621,282
136.646,286
136.671,259
136.696,195
136.721,118
136.746,64
136.771,39
136.796,16
136.821,-36
136.846,-113
136.871,-167
136.896,-152
136.921,-65
136.946,56
136.971,166
136.996,245
137.021,302
137.046,349
137.071,387
137.096,409
137.121,413
137.146,406
137.171,398
137.196,393
137.221,395
137.246,405
137.271,425
137.296,443
137.321,440
137.346,402
137.371,338
137.396,270
137.421,224
137.446,208
137.471,211
137.496,209
137.521,181
137.546,122
137.571,51
137.596,-5
137.621,-36
137.646,-60
137.671,-106
137.696,-182
137.721,-248
137.746,-243
137.771,-134
137.796,41
137.821,204
137.846,288
137.871,293
137.896,272
137.921,275
137.946,313
137.971,357
137.996,377
138.021,375
138.046,372
138.071,389
138.096,419
138.121,445
138.146,452
138.171,441
138.196,425
138.221,410
138.246,393
138.271,366
138.296,322
138.321,260
138.346,185
138.371,104
138.396,31
138.421,-16
138.446,-29
138.471,-24
138.496,-36
138.521,-98
138.546,-203
138.571,-290
138.596,-283
138.621,-153
138.646,50
138.671,232
138.696,323
138.721,329
138.746,313
138.771,330
138.796,381
138.821,427
138.846,439
138.871,421
138.896,409
138.921,423
138.946,455
138.971,481
138.996,483
139.021,465
139.046,441
139.071,423
139.096,406
139.121,381
139.146,334
139.171,264
139.196,175
139.221,89
139.246,26
139.271,1
139.296,5
139.321,6
139.346,-32
139.371,-123
139.396,-228
139.421,-278
139.446,-219
139.471,-56
139.496,138
139.521,281
139.546,335
139.571,331
139.596,328
139.621,356
139.646,391
139.671,397
139.696,369
139.721,339
139.746,342
139.771,375
139.796,406
139.821,412
139.846,395
139.871,376
139.896,361
139.921,342
139.946,307
139.971,258
139.996,208
140.021,162
140.046,115
140.071,65
140.096,14
140.121,-38
140.146,-95
140.171,-154
140.196,-193
140.221,-175
140.246,-80
140.271,66
140.296,210
140.321,305
140.346,349
140.371,370
140.396,391
140.421,407
140.446,403
140.471,382
140.496,365
140.521,370
140.546,389
140.571,399
140.596,389
140.621,373
140.646,367
140.671,366
140.696,335
140.721,253
140.746,138
140.771,42
140.796,7
140.821,22
140.846,36
140.871,0
140.896,-89
140.921,-187
140.946,-237
140.971,-211
140.996,-120
141.021,4
141.046,135
141.071,247
141.096,328
141.121,373
141.146,391
141.171,402
141.196,416
141.221,427
141.246,421
141.271,398
141.296,372
141.321,365
141.346,376
141.371,389
141.396,388
141.421,370
141.446,345
141.471,315
141.496,273
141.521,216
141.546,149
141.571,83
141.596,18
141.621,-51
141.646,-124
141.671,-172
141.696,-160
141.721,-80
141.746,35
141.771,138
141.796,198
141.821,227
141.846,259
141.871,311
141.896,371
141.921,411
141.946,415
141.971,391
141.996,366
142.021,364
142.046,388
142.071,417
142.096,431
142.121,424
142.146,409
142.171,402
142.196,401
142.221,382
142.246,319
142.271,219
142.296,115
142.321,47
142.346,27
142.371,35
142.396,36
142.421,6
142.446,-57
142.471,-141
142.496,-217
142.521,-245
142.546,-195
142.571,-71
142.596,76
142.621,185
142.646,230
142.671,240
142.696,268
142.721,331
142.746,395
142.771,415
142.796,389
142.821,358
142.846,363
142.871,401
142.896,436
142.921,441
142.946,426
142.971,419
142.996,424
143.021,419
143.046,385
143.071,335
143.096,298
143.121,280
143.146,256
143.171,204
143.196,135
143.221,81
143.246,57
143.271,35
143.296,-24
143.321,-117
143.346,-184
143.371,-159
143.396,-34
143.421,128
143.446,249
143.471,296
143.496,299
143.521,304
143.546,332
143.571,363
143.596,370
143.621,349
143.646,318
143.671,303
143.696,312
143.721,337
143.746,358
143.771,356
143.796,324
143.821,271
143.846,218
143.871,186
143.896,177
143.921,173
143.946,149
143.971,98
143.996,34
144.021,-18
144.046,-52
144.071,-79
144.096,-117
144.121,-164
144.146,-194
144.171,-173
144.196,-86
144.221,42
144.246,168
144.271,257
144.296,304
144.321,340
144.346,389
144.371,451
144.396,500
144.421,509
144.446,481
144.471,448
144.496,440
144.521,460
144.546,486
144.571,494
144.596,477
144.621,443
144.646,402
144.671,357
144.696,314
144.721,278
144.746,254
144.771,231
144.796,196
144.821,142
144.846,82
144.871,30
144.896,-10
144.921,-56
144.946,-118
144.971,-192
144.996,-255
145.021,-278
145.046,-242
145.071,-146
145.096,-11
145.121,128
145.146,238
145.171,304
145.196,344
145.221,379
145.246,412
145.271,416
145.296,376
145.321,313
145.346,272
145.371,279
145.396,312
145.421,325
145.446,309
145.471,293
145.496,306
145.521,330
145.546,321
145.571,263
145.596,194
145.621,155
145.646,130
145.671,66
145.696,-54
145.721,-175
145.746,-214
145.771,-168
145.796,-124
145.821,-169
145.846,-283
145.871,-350
145.896,-278
145.921,-87
145.946,119
145.971,263
145.996,347
146.021,417
146.046,488
146.071,543
146.096,577
146.121,618
146.146,689
146.171,770
146.196,820
146.221,835
146.246,859
146.271,920
146.296,981
146.321,980
146.346,912
146.371,849
146.396,844
146.421,844
146.446,729
146.471,457
146.496,139
146.521,-49
146.546,-51
146.571,16
146.596,-10
146.621,-168
146.646,-338
146.671,-382
146.696,-292
146.721,-173
146.746,-117
146.771,-115
146.796,-100
146.821,-41
146.846,17
146.871,30
146.896,4
146.921,-16
146.946,-8
146.971,7
146.996,5
147.021,-4
147.046,3
147.071,31
147.096,48
147.121,40
147.146,27
147.171,40
147.196,67
147.221,69
147.246,31
147.271,2
147.296,41
147.321,142
147.346,219
147.371,193
147.396,90
147.421,18
147.446,69
147.471,222
147.496,378
147.521,456
147.546,464
147.571,462
147.596,482
147.621,497
147.646,468
147.671,396
147.696,329
147.721,306
147.746,323
147.771,349
147.796,356
147.821,344
147.846,317
147.871,277
147.896,221
147.921,160
147.946,113
147.971,87
147.996,65
148.021,22
148.046,-51
148.071,-134
148.096,-189
148.121,-191
148.146,-138
148.171,-42
148.196,73
148.221,192
148.246,298
148.271,383
148.296,444
148.321,481
148.346,493
148.371,482
148.396,459
148.421,438
148.446,430
148.471,432
148.496,433
148.521,418
148.546,384
148.571,337
148.596,284
148.621,234
148.646,195
148.671,176
148.696,166
148.721,142
148.746,83
148.771,-1
148.796,-60
148.821,-37
148.846,80
148.871,239
148.896,362
148.921,405
148.946,390
148.971,374
148.996,390
149.021,419
149.046,421
149.071,386
149.096,340
149.121,324
149.146,341
149.171,358
149.196,342
149.221,298
149.246,254
149.271,228
149.296,202
149.321,147
149.346,62
149.371,-13
149.396,-41
149.421,-30
149.446,-37
149.471,-106
149.496,-215
149.521,-290
149.546,-267
149.571,-151
149.596,-12
149.621,88
149.646,148
149.671,204
149.696,281
149.721,359
149.746,393
149.771,370
149.796,326
149.821,307
149.846,327
149.871,361
149.896,379
149.921,375
149.946,366
149.971,361
149.996,347
150.021,311
150.046,259
150.071,210
150.096,177
150.121,150
150.146,109
150.171,53
150.196,0
150.221,-39
150.246,-75
150.271,-125
150.296,-183
150.321,-206
150.346,-148
150.371,-2
150.396,183
150.421,342
150.446,430
150.471,449
150.496,434
150.521,421
150.546,425
150.571,439
150.596,447
150.621,439
150.646,417
150.671,397
150.696,389
150.721,391
150.746,392
150.771,382
150.796,363
150.821,340
150.846,313
150.871,277
150.896,229
150.921,182
150.946,144
150.971,112
150.996,68
151.021,7
151.046,-53
151.071,-91
151.096,-113
151.121,-151
151.146,-224
151.171,-300
151.196,-309
151.221,-210
151.246,-39
151.271,118
151.296,200
151.321,214
151.346,220
151.371,257
151.396,318
151.421,369
151.446,389
151.471,387
151.496,379
151.521,379
151.546,392
151.571,422
151.596,465
151.621,500
151.646,504
151.671,480
151.696,459
151.721,464
151.746,472
151.771,433
151.796,328
151.821,210
151.846,162
151.871,211
151.896,296
151.921,324
151.946,263
151.971,165
151.996,93
152.021,55
152.046,7
152.071,-65
152.096,-112
152.121,-63
152.146,78
152.171,221
152.196,271
152.221,230
152.246,190
152.271,230
152.296,332
152.321,405
152.346,390
152.371,329
152.396,314
152.421,376
152.446,444
152.471,426
152.496,311
152.521,189
152.546,160
152.571,228
152.596,307
152.621,311
152.646,239
152.671,165
152.696,143
152.721,147
152.746,100
152.771,-26
152.796,-176
152.821,-255
152.846,-226
152.871,-146
152.896,-113
152.921,-171
152.946,-272
152.971,-324
152.996,-275
153.021,-143
153.046,7
153.071,131
153.096,222
153.121,298
153.146,361
153.171,397
153.196,401
153.221,392
153.246,396
153.271,422
153.296,448
153.321,448
153.346,426
153.371,414
153.396,436
153.421,480
153.446,506
153.471,487
153.496,440
153.521,404
153.546,392
153.571,372
153.596,299
153.621,173
153.646,50
153.671,-1
153.696,28
153.721,80
153.746,79
153.771,5
153.796,-91
153.821,-137
153.846,-95
153.871,14
153.896,145
153.921,264
153.946,356
153.971,420
153.996,456
154.021,465
154.046,457
154.071,444
154.096,432
154.121,415
154.146,392
154.171,374
154.196,376
154.221,398
154.246,415
154.271,395
154.296,329
154.321,240
154.346,166
154.371,132
154.396,138
154.421,155
154.446,151
154.471,105
154.496,22
154.521,-62
154.546,-110
154.571,-105
154.596,-75
154.621,-73
154.646,-133
154.671,-224
154.696,-271
154.721,-214
154.746,-61
154.771,116
154.796,243
154.821,302
154.846,332
154.871,374
154.896,425
154.921,450
154.946,431
154.971,394
154.996,385
155.021,421
155.046,471
155.071,494
155.096,479
155.121,455
155.146,446
155.171,444
155.196,419
155.221,361
155.246,295
155.271,252
155.296,229
155.321,194
155.346,122
155.371,38
155.396,-11
155.421,-5
155.446,18
155.471,-2
155.496,-89
155.521,-193
155.546,-228
155.571,-149
155.596,9
155.621,169
155.646,271
155.671,316
155.696,342
155.721,377
155.746,409
155.771,409
155.796,373
155.821,336
155.846,335
155.871,375
155.896,417
155.921,426
155.946,402
155.971,375
155.996,369
156.021,366
156.046,334
156.071,271
156.096,211
156.121,185
156.146,178
156.171,143
156.196,58
156.221,-31
156.246,-61
156.271,-22
156.296,9
156.321,-45
156.346,-181
156.371,-286
156.396,-246
156.421,-54
156.446,178
156.471,322
156.496,343
156.521,311
156.546,313
156.571,367
156.596,421
156.621,428
156.646,393
156.671,365
156.696,377
156.721,418
156.746,449
156.771,451
156.796,437
156.821,428
156.846,426
156.871,414
156.896,377
156.921,323
156.946,273
156.971,240
156.996,210
157.021,160
157.046,90
157.071,25
157.096,-9
157.121,-23
157.146,-58
157.171,-139
157.196,-237
157.221,-277
157.246,-204
157.271,-38
157.296,136
157.321,243
157.346,274
157.371,279
157.396,307
157.421,359
157.446,397
157.471,394
157.496,362
157.521,336
157.546,337
157.571,361
157.596,388
157.621,404
157.646,407
157.671,399
157.696,389
157.721,382
157.746,372
157.771,344
157.796,280
157.821,184
157.846,91
157.871,39
157.896,39
157.921,58
157.946,53
157.971,1
157.996,-77
158.021,-147
158.046,-179
158.071,-162
158.096,-95
158.121,16
158.146,152
158.171,276
158.196,354
158.221,379
158.246,373
158.271,364
158.296,364
158.321,363
158.346,353
158.371,343
158.396,355
158.421,398
158.446,452
158.471,476
158.496,442
158.521,358
158.546,271
158.571,228
158.596,235
158.621,257
158.646,245
158.671,186
158.696,110
158.721,57
158.746,35
158.771,7
158.796,-53
158.821,-130
158.846,-164
158.871,-113
158.896,8
158.921,143
158.946,246
158.971,309
158.996,353
159.021,388
159.046,405
159.071,396
159.096,376
159.121,366
159.146,373
159.171,381
159.196,377
159.221,367
159.246,366
159.271,375
159.296,373
159.321,340
159.346,275
159.371,200
159.396,143
159.421,114
159.446,111
159.471,116
159.496,104
159.521,54
159.546,-29
159.571,-110
159.596,-140
159.621,-107
159.646,-52
159.671,-32
159.696,-64
159.721,-99
159.746,-69
159.771,40
159.796,182
159.821,287
159.846,330
159.871,344
159.896,371
159.921,416
159.946,452
159.971,452
159.996,426
160.021,408
160.046,420
160.071,454
160.096,477
160.121,470
160.146,440
160.171,411
160.196,395
160.221,380
160.246,346
160.271,287
160.296,225
160.321,184
160.346,162
160.371,128
160.396,61
160.421,-20
160.446,-67
160.471,-62
160.496,-50
160.521,-100
160.546,-222
160.571,-332
160.596,-318
160.621,-156
160.646,63
160.671,212
160.696,240
160.721,213
160.746,225
160.771,304
160.796,392
160.821,425
160.846,404
160.871,384
160.896,407
160.921,458
160.946,495
160.971,496
160.996,482
161.021,481
161.046,494
161.071,496
161.096,472
161.121,433
161.146,397
161.171,369
161.196,338
161.221,291
161.246,235
161.271,185
161.296,149
161.321,116
161.346,73
161.371,18
161.396,-34
161.421,-78
161.446,-118
161.471,-171
161.496,-244
161.521,-311
161.546,-326
161.571,-258
161.596,-118
161.621,40
161.646,166
161.671,243
161.696,294
161.721,347
161.746,405
161.771,442
161.796,443
161.821,423
161.846,411
161.871,426
161.896,458
161.921,485
161.946,496
161.971,493
161.996,481
162.021,463
162.046,438
162.071,412
162.096,386
162.121,352
162.146,303
162.171,246
162.196,203
162.221,180
162.246,156
162.271,94
162.296,-8
162.321,-109
162.346,-156
162.371,-145
162.396,-129
162.421,-162
162.446,-240
162.471,-294
162.496,-254
162.521,-118
162.546,57
162.571,203
162.596,294
162.621,344
162.646,377
162.671,400
162.696,413
162.721,418
162.746,426
162.771,437
162.796,444
162.821,448
162.846,456
162.871,474
162.896,494
162.921,494
162.946,469
162.971,431
162.996,400
163.021,377
163.046,342
163.071,288
163.096,229
163.121,185
163.146,155
163.171,114
163.196,46
163.221,-27
163.246,-66
163.271,-61
163.296,-54
163.321,-100
163.346,-205
163.371,-309
163.396,-331
163.421,-238
163.446,-74
163.471,87
163.496,198
163.521,266
163.546,319
163.571,375
163.596,419
163.621,433
163.646,417
163.671,394
163.696,392
163.721,422
163.746,471
163.771,509
163.796,512
163.821,476
163.846,423
163.871,382
163.896,370
163.921,379
163.946,380
163.971,352
163.996,296
164.021,234
164.046,186
164.071,151
164.096,113
164.121,58
164.146,-6
164.171,-62
164.196,-102
164.221,-141
164.246,-198
164.271,-266
164.296,-301
164.321,-256
164.346,-122
164.371,56
164.396,216
164.421,317
164.446,367
164.471,393
164.496,412
164.521,419
164.546,413
164.571,407
164.596,417
164.621,443
164.646,461
164.671,455
164.696,436
164.721,435
164.746,457
164.771,474
164.796,443
164.821,361
164.846,271
164.871,225
164.896,233
164.921,254
164.946,241
164.971,180
164.996,101
165.021,40
165.046,8
165.071,-16
165.096,-58
165.121,-124
165.146,-196
165.171,-247
165.196,-250
165.221,-188
165.246,-66
165.271,85
165.296,221
165.321,310
165.346,351
165.371,370
165.396,391
165.421,413
165.446,417
165.471,399
165.496,378
165.521,383
165.546,417
165.571,454
165.596,460
165.621,425
165.646,368
165.671,316
165.696,280
165.721,258
165.746,247
165.771,243
165.796,234
165.821,200
165.846,135
165.871,62
165.896,24
165.921,36
165.946,62
165.971,46
165.996,-35
166.021,-132
166.046,-163
166.071,-87
166.096,62
166.121,209
166.146,300
166.171,336
166.196,349
166.221,360
166.246,365
166.271,354
166.296,335
166.321,323
166.346,330
166.371,352
166.396,377
166.421,396
166.446,398
166.471,370
166.496,309
166.521,240
166.546,197
166.571,193
166.596,205
166.621,191
166.646,138
166.671,69
166.696,18
166.721,-14
166.746,-58
166.771,-125
166.796,-181
166.821,-170
166.846,-73
166.871,73
166.896,204
166.921,286
166.946,329
166.971,362
166.996,391
167.021,401
167.046,384
167.071,358
167.096,349
167.121,364
167.146,387
167.171,400
167.196,400
167.221,394
167.246,384
167.271,364
167.296,331
167.321,292
167.346,255
167.371,216
167.396,165
167.421,106
167.446,56
167.471,28
167.496,9
167.521,-29
167.546,-104
167.571,-190
167.596,-230
167.621,-188
167.646,-74
167.671,61
167.696,171
167.721,246
167.746,305
167.771,361
167.796,408
167.821,429
167.846,420
167.871,398
167.896,388
167.921,399
167.946,423
167.971,441
167.996,444
168.021,435
168.046,422
168.071,406
168.096,382
168.121,348
168.146,303
168.171,257
168.196,217
168.221,184
168.246,148
168.271,100
168.296,36
168.321,-31
168.346,-87
168.371,-126
168.396,-159
168.421,-197
168.446,-235
168.471,-241
168.496,-183
168.521,-60
168.546,86
168.571,210
168.596,289
168.621,343
168.646,396
168.671,446
168.696,467
168.721,449
168.746,420
168.771,423
168.796,468
168.821,517
168.846,518
168.871,466
168.896,408
168.921,396
168.946,428
168.971,450
168.996,412
169.021,316
169.046,220
169.071,178
169.096,190
169.121,211
169.146,195
169.171,137
169.196,66
169.221,16
169.246,-8
169.271,-30
169.296,-76
169.321,-148
169.346,-220
169.371,-252
169.396,-218
169.421,-123
169.446,2
169.471,119
169.496,205
169.521,265
169.546,310
169.571,348
169.596,377
169.621,392
169.646,394
169.671,391
169.696,392
169.721,404
169.746,428
169.771,457
169.796,472
169.821,452
169.846,396
169.871,326
169.896,278
169.921,268
169.946,281
169.971,283
169.996,253
170.021,201
170.046,149
170.071,111
170.096,82
170.121,53
170.146,22
170.171,-10
170.196,-50
170.221,-102
170.246,-156
170.271,-180
170.296,-140
170.321,-33
170.346,103
170.371,222
170.396,297
170.421,338
170.446,371
170.471,406
170.496,429
170.521,425
170.546,402
170.571,390
170.596,410
170.621,453
170.646,483
170.671,468
170.696,415
170.721,362
170.746,346
170.771,366
170.796,385
170.821,366
170.846,309
170.871,249
170.896,214
170.921,193
170.946,147
170.971,56
170.996,-49
171.021,-116
171.046,-118
171.071,-89
171.096,-91
171.121,-155
171.146,-244
171.171,-285
171.196,-233
171.221,-105
171.246,37
171.271,145
171.296,211
171.321,263
171.346,322
171.371,385
171.396,433
171.421,454
171.446,455
171.471,449
171.496,445
171.521,448
171.546,460
171.571,484
171.596,508
171.621,511
171.646,475
171.671,406
171.696,335
171.721,293
171.746,287
171.771,291
171.796,276
171.821,233
171.846,174
171.871,118
171.896,72
171.921,31
171.946,-10
171.971,-55
171.996,-108
172.021,-170
172.046,-234
172.071,-273
172.096,-254
172.121,-161
172.146,-21
172.171,120
172.196,224
172.221,285
172.246,325
172.271,364
172.296,402
172.321,427
172.346,427
172.371,416
172.396,418
172.421,446
172.446,488
172.471,514
172.496,499
172.521,450
172.546,403
172.571,388
172.596,402
172.621,410
172.646,380
172.671,319
172.696,262
172.721,231
172.746,204
172.771,142
172.796,38
172.821,-62
172.846,-110
172.871,-104
172.896,-97
172.921,-140
172.946,-215
172.971,-246
172.996,-176
173.021,-25
173.046,128
173.071,225
173.096,271
173.121,308
173.146,358
173.171,396
173.196,396
173.221,365
173.246,345
173.271,361
173.296,398
173.321,419
173.346,414
173.371,403
173.396,407
173.421,417
173.446,400
173.471,342
173.496,258
173.521,184
173.546,138
173.571,117
173.596,109
173.621,101
173.646,77
173.671,23
173.696,-60
173.721,-139
173.746,-166
173.771,-120
173.796,-34
173.821,35
173.846,61
173.871,72
173.896,115
173.921,204
173.946,303
173.971,366
173.996,383
174.021,382
174.046,389
174.071,406
174.096,414
174.121,410
174.146,408
174.171,423
174.196,444
174.221,448
174.246,426
174.271,391
174.296,363
174.321,341
174.346,310
174.371,263
174.396,212
174.421,171
174.446,141
174.471,104
174.496,52
174.521,-1
174.546,-43
174.571,-76
174.596,-122
174.621,-186
174.646,-237
174.671,-229
174.696,-141
174.721,-3
174.746,129
174.771,222
174.796,279
174.821,323
174.846,365
174.871,397
174.896,409
174.921,403
174.946,396
174.971,400
174.996,417
175.021,437
175.046,453
175.071,459
175.096,453
175.121,436
175.146,412
175.171,385
175.196,355
175.221,319
175.246,279
175.271,239
175.296,205
175.321,172
175.346,133
175.371,85
175.396,41
175.421,9
175.446,-17
175.471,-60
175.496,-129
175.521,-194
175.546,-207
175.571,-132
175.596,11
175.621,162
175.646,261
175.671,296
175.696,297
175.721,303
175.746,324
175.771,344
175.796,345
175.821,326
175.846,307
175.871,304
175.896,318
175.921,337
175.946,351
175.971,359
175.996,363
176.021,358
176.046,341
176.071,308
176.096,270
176.121,236
176.146,208
176.171,175
176.196,128
176.221,73
176.246,28
176.271,0
176.296,-24
176.321,-60
176.346,-104
176.371,-125
176.396,-84
176.421,19
176.446,151
176.471,261
176.496,324
176.521,348
176.546,357
176.571,363
176.596,365
176.621,365
176.646,370
176.671,384
176.696,403
176.721,412
176.746,412
176.771,411
176.796,417
176.821,424
176.846,418
176.871,396
176.896,370
176.921,346
176.946,312
176.971,248
176.996,153
177.021,56
177.046,-4
177.071,-18
177.096,-7
177.121,-10
177.146,-47
177.171,-106
177.196,-167
177.221,-206
177.246,-208
177.271,-161
177.296,-65
177.321,55
177.346,164
177.371,234
177.396,267
177.421,291
177.446,328
177.471,372
177.496,400
177.521,400
177.546,391
177.571,402
177.596,442
177.621,490
177.646,510
177.671,486
177.696,432
177.721,383
177.746,357
177.771,351
177.796,344
177.821,319
177.846,277
177.871,227
177.896,179
177.921,132
177.946,84
177.971,35
177.996,-10
178.021,-56
178.046,-112
178.071,-179
178.096,-235
178.121,-246
178.146,-184
178.171,-61
178.196,80
178.221,193
178.246,262
178.271,302
178.296,342
178.321,385
178.346,417
178.371,419
178.396,403
178.421,397
178.446,421
178.471,462
178.496,485
178.521,469
178.546,425
178.571,387
178.596,378
178.621,387
178.646,380
178.671,342
178.696,284
178.721,234
178.746,199
178.771,158
178.796,90
178.821,2
178.846,-71
178.871,-109
178.896,-126
178.921,-157
178.946,-211
178.971,-250
178.996,-222
179.021,-108
179.046,50
179.071,194
179.096,292
179.121,353
179.146,400
179.171,434
179.196,439
179.221,417
179.246,394
179.271,399
179.296,431
179.321,461
179.346,466
179.371,453
179.396,447
179.421,456
179.446,458
179.471,426
179.496,352
179.521,261
179.546,185
179.571,142
179.596,129
179.621,130
179.646,121
179.671,81
179.696,6
179.721,-78
179.746,-130
179.771,-124
179.796,-82
179.821,-55
179.846,-72
179.871,-108
179.896,-103
179.921,-21
179.946,111
179.971,233
179.996,303
180.021,329
180.046,345
180.071,369
180.096,391
180.121,395
180.146,387
180.171,390
180.196,414
180.221,447
180.246,464
180.271,457
180.296,437
180.321,419
180.346,405
180.371,385
180.396,350
180.421,302
180.446,254
180.471,216
180.496,185
180.521,149
180.546,99
180.571,41
180.596,-4
180.621,-24
180.646,-30
180.671,-54
180.696,-118
180.721,-204
180.746,-254
180.771,-217
180.796,-93
180.821,62
180.846,187
180.871,255
180.896,289
180.921,323
180.946,366
180.971,397
180.996,401
181.021,386
181.046,379
181.071,395
181.096,427
181.121,453
181.146,460
181.171,453
181.196,441
181.221,429
181.246,413
181.271,388
181.296,353
181.321,312
181.346,272
181.371,235
181.396,203
181.421,165
181.446,111
181.471,35
181.496,-49
181.521,-117
181.546,-145
181.571,-133
181.596,-96
181.621,-57
181.646,-26
181.671,0
181.696,34
181.721,84
181.746,150
181.771,224
181.796,290
181.821,332
181.846,344
181.871,336
181.896,325
181.921,327
181.946,339
181.971,353
181.996,363
182.021,375
182.046,388
182.071,393
182.096,380
182.121,351
182.146,321
182.171,302
182.196,284
182.221,249
182.246,195
182.271,146
182.296,122
182.321,112
182.346,82
182.371,14
182.396,-63
182.421,-98
182.446,-64
182.471,10
182.496,75
182.521,106
182.546,127
182.571,172
182.596,247
182.621,323
182.646,370
182.671,383
182.696,377
182.721,367
182.746,359
182.771,354
182.796,362
182.821,384
182.846,408
182.871,416
182.896,408
182.921,397
182.946,393
182.971,378
182.996,325
183.021,235
183.046,148
183.071,109
183.096,119
183.121,133
183.146,107
183.171,42
183.196,-26
183.221,-72
183.246,-106
183.271,-156
183.296,-220
183.321,-256
183.346,-219
183.371,-106
183.396,38
183.421,162
183.446,240
183.471,283
183.496,316
183.521,351
183.546,388
183.571,420
183.596,442
183.621,454
183.646,457
183.671,453
183.696,446
183.721,440
183.746,435
183.771,433
183.796,430
183.821,418
183.846,391
183.871,349
183.896,303
183.921,264
183.946,225
183.971,166
183.996,79
184.021,-16
184.046,-78
184.071,-89
184.096,-78
184.121,-98
184.146,-172
184.171,-254
184.196,-269
184.221,-184
184.246,-36
184.271,102
184.296,194
184.321,251
184.346,308
184.371,371
184.396,417
184.421,427
184.446,418
184.471,418
184.496,437
184.521,462
184.546,472
184.571,470
184.596,470
184.621,477
184.646,477
184.671,458
184.696,422
184.721,387
184.746,359
184.771,327
184.796,271
184.821,191
184.846,102
184.871,30
184.896,-11
184.921,-23
184.946,-22
184.971,-36
184.996,-91
185.021,-186
185.046,-273
185.071,-280
185.096,-170
185.121,21
185.146,205
185.171,307
185.196,322
185.221,306
185.246,314
185.271,352
185.296,385
185.321,386
185.346,365
185.371,354
185.396,372
185.421,408
185.446,436
185.471,440
185.496,426
185.521,407
185.546,391
185.571,378
185.596,358
185.621,321
185.646,262
185.671,186
185.696,106
185.721,44
185.746,15
185.771,20
185.796,39
185.821,43
185.846,7
185.871,-69
185.896,-157
185.921,-206
185.946,-177
185.971,-73
185.996,61
186.021,177
186.046,250
186.071,296
186.096,338
186.121,379
186.146,406
186.171,406
186.196,392
186.221,389
186.246,408
186.271,440
186.296,464
186.321,470
186.346,462
186.371,450
186.396,437
186.421,419
186.446,392
186.471,355
186.496,311
186.521,265
186.546,224
186.571,193
186.596,164
186.621,115
186.646,32
186.671,-67
186.696,-144
186.721,-164
186.746,-142
186.771,-131
186.796,-174
186.821,-253
186.846,-299
186.871,-249
186.896,-102
186.921,76
186.946,216
186.971,291
186.996,321
187.021,341
187.046,365
187.071,385
187.096,394
187.121,400
187.146,412
187.171,432
187.196,453
187.221,471
187.246,488
187.271,501
187.296,502
187.321,483
187.346,448
187.371,416
187.396,397
187.421,379
187.446,339
187.471,269
187.496,181
187.521,103
187.546,54
187.571,36
187.596,37
187.621,37
187.646,16
187.671,-42
187.696,-133
187.721,-217
187.746,-242
187.771,-183
187.796,-67
187.821,42
187.846,104
187.871,126
187.896,154
187.921,217
187.946,302
187.971,370
187.996,397
188.021,391
188.046,381
188.071,384
188.096,399
188.121,417
188.146,433
188.171,448
188.196,454
188.221,448
188.246,429
188.271,407
188.296,385
188.321,361
188.346,328
188.371,290
188.396,257
188.421,228
188.446,182
188.471,105
188.496,10
188.521,-60
188.546,-74
188.571,-46
188.596,-36
188.621,-87
188.646,-188
188.671,-267
188.696,-255
188.721,-138
188.746,37
188.771,200
188.796,306
188.821,353
188.846,365
188.871,368
188.896,379
188.921,394
188.946,406
188.971,409
188.996,404
189.021,405
189.046,420
189.071,441
189.096,454
189.121,447
189.146,428
189.171,412
189.196,399
189.221,375
189.246,328
189.271,265
189.296,210
189.321,170
189.346,133
189.371,78
189.396,12
189.421,-37
189.446,-57
189.471,-78
189.496,-143
189.521,-248
189.546,-324
189.571,-288
189.596,-126
189.621,82
189.646,229
189.671,272
189.696,256
189.721,259
189.746,308
189.771,371
189.796,399
189.821,386
189.846,364
189.871,371
189.896,408
189.921,452
189.946,477
189.971,472
189.996,442
190.021,396
190.046,351
190.071,322
190.096,316
190.121,317
190.146,301
190.171,254
190.196,189
190.221,130
190.246,88
190.271,55
190.296,16
190.321,-33
190.346,-91
190.371,-151
190.396,-202
190.421,-222
190.446,-183
190.471,-73
190.496,75
190.521,210
190.546,294
190.571,333
190.596,361
190.621,396
190.646,425
190.671,424
190.696,397
190.721,377
190.746,395
190.771,443
190.796,480
190.821,470
190.846,416
190.871,354
190.896,316
190.921,311
190.946,320
190.971,318
190.996,290
191.021,236
191.046,168
191.071,108
191.096,71
191.121,59
191.146,50
191.171,16
191.196,-54
191.221,-135
191.246,-176
191.271,-140
191.296,-31
191.321,105
191.346,217
191.371,280
191.396,306
191.421,321
191.446,339
191.471,350
191.496,343
191.521,322
191.546,311
191.571,327
191.596,365
191.621,397
191.646,395
191.671,352
191.696,287
191.721,226
191.746,188
191.771,176
191.796,182
191.821,184
191.846,161
191.871,102
191.896,21
191.921,-44
191.946,-62
191.971,-32
191.996,18
192.021,55
192.046,73
192.071,96
192.096,148
192.121,226
192.146,303
192.171,355
192.196,377
192.221,381
192.246,375
192.271,363
192.296,352
192.321,352
192.346,368
192.371,390
192.396,404
192.421,400
192.446,384
192.471,367
192.496,346
192.521,313
192.546,268
192.571,222
192.596,185
192.621,149
192.646,96
192.671,24
192.696,-46
192.721,-97
192.746,-126
192.771,-154
192.796,-192
192.821,-215
192.846,-186
192.871,-90
192.896,43
192.921,166
192.946,251
192.971,307
192.996,352
193.021,390
193.046,409
193.071,403
193.096,387
193.121,385
193.146,404
193.171,431
193.196,447
193.221,447
193.246,438
193.271,426
193.296,410
193.321,381
193.346,341
193.371,294
193.396,252
193.421,215
193.446,178
193.471,132
193.496,75
193.521,15
193.546,-37
193.571,-82
193.596,-125
193.621,-172
193.646,-207
193.671,-202
193.696,-133
193.721,-12
193.746,118
193.771,219
193.796,285
193.821,336
193.846,386
193.871,423
193.896,424
193.921,396
193.946,374
193.971,390
193.996,436
194.021,471
194.046,461
194.071,418
194.096,378
194.121,364
194.146,368
194.171,365
194.196,344
194.221,312
194.246,274
194.271,224
194.296,166
194.321,114
194.346,80
194.371,53
194.396,3
194.421,-77
194.446,-152
194.471,-169
194.496,-115
194.521,-37
194.546,8
194.571,14
194.596,22
194.621,78
194.646,175
194.671,266
194.696,315
194.721,331
194.746,345
194.771,373
194.796,399
194.821,408
194.846,407
194.871,410
194.896,424
194.921,436
194.946,440
194.971,440
194.996,438
195.021,415
195.046,350
195.071,255
195.096,176
195.121,154
195.146,178
195.171,189
195.196,146
195.221,64
195.246,-3
195.271,-33
195.296,-56
195.321,-113
195.346,-197
195.371,-249
195.396,-214
195.421,-99
195.446,38
195.471,146
195.496,217
195.521,271
195.546,320
195.571,359
195.596,383
195.621,400
195.646,418
195.671,432
195.696,431
195.721,419
195.746,417
195.771,436
195.796,456
195.821,450
195.846,415
195.871,377
195.896,356
195.921,340
195.946,301
195.971,234
195.996,170
196.021,138
196.046,120
196.071,77
196.096,-2
196.121,-75
196.146,-89
196.171,-50
196.196,-26
196.221,-68
196.246,-153
196.271,-195
196.296,-134
196.321,5
196.346,149
196.371,241
196.396,291
196.421,332
196.446,378
196.471,413
196.496,422
196.521,415
196.546,411
196.571,416
196.596,422
196.621,426
196.646,435
196.671,455
196.696,471
196.721,462
196.746,428
196.771,390
196.796,363
196.821,335
196.846,279
196.871,187
196.896,87
196.921,20
196.946,2
196.971,14
196.996,20
197.021,-4
197.046,-68
197.071,-155
197.096,-230
197.121,-244
197.146,-168
197.171,-20
197.196,133
197.221,227
197.246,247
197.271,238
197.296,256
197.321,312
197.346,367
197.371,379
197.396,351
197.421,325
197.446,336
197.471,378
197.496,415
197.521,423
197.546,408
197.571,394
197.596,391
197.621,390
197.646,369
197.671,322
197.696,255
197.721,182
197.746,116
197.771,66
197.796,41
197.821,41
197.846,46
197.871,21
197.896,-52
197.921,-149
197.946,-209
197.971,-172
197.996,-38
198.021,133
198.046,262
198.071,310
198.096,307
198.121,310
198.146,347
198.171,399
198.196,421
198.221,403
198.246,373
198.271,367
198.296,397
198.321,433
198.346,447
198.371,433
198.396,413
198.421,401
198.446,392
198.471,368
198.496,322
198.521,269
198.546,226
198.571,193
198.596,154
198.621,97
198.646,34
198.671,-12
198.696,-35
198.721,-53
198.746,-100
198.771,-183
198.796,-265
198.821,-291
198.846,-231
198.871,-104
198.896,36
198.921,150
198.946,233
198.971,303
198.996,371
199.021,423
199.046,440
199.071,423
199.096,398
199.121,393
199.146,418
199.171,453
199.196,476
199.221,478
199.246,467
199.271,452
199.296,437
199.321,415
199.346,381
199.371,337
199.396,291
199.421,251
199.446,215
199.471,174
199.496,116
199.521,45
199.546,-24
199.571,-77
199.596,-114
199.621,-151
199.646,-199
199.671,-240
199.696,-239
199.721,-168
199.746,-36
199.771,108
199.796,222
199.821,293
199.846,339
199.871,379
199.896,407
199.921,407
199.946,382
199.971,360
199.996,371
200.021,413
200.046,452
200.071,451
200.096,411
200.121,365
200.146,349
200.171,360
200.196,368
200.221,346
200.246,296
200.271,242
200.296,201
200.321,166
200.346,121
200.371,66
200.396,17
200.421,-15
200.446,-45
200.471,-95
200.496,-162
200.521,-209
200.546,-190
200.571,-91
200.596,50
200.621,182
200.646,273
200.671,330
200.696,373
200.721,409
200.746,430
200.771,428
200.796,415
200.821,409
200.846,417
200.871,436
200.896,454
200.921,463
200.946,461
200.971,447
200.996,422
201.021,392
201.046,361
201.071,327
201.096,287
201.121,238
201.146,187
201.171,143
201.196,104
201.221,61
201.246,11
201.271,-39
201.296,-81
201.321,-119
201.346,-170
201.371,-234
201.396,-279
201.421,-258
201.446,-157
201.471,-10
201.496,122
201.521,209
201.546,260
201.571,304
201.596,353
201.621,393
201.646,410
201.671,408
201.696,404
201.721,408
201.746,418
201.771,430
201.796,448
201.821,470
201.846,484
201.871,467
201.896,413
201.921,335
201.946,266
201.971,228
201.996,221
202.021,228
202.046,222
202.071,183
202.096,110
202.121,28
202.146,-23
202.171,-24
202.196,0
202.221,0
202.246,-61
202.271,-150
202.296,-196
202.321,-145
202.346,-11
202.371,138
202.396,242
202.421,294
202.446,322
202.471,351
202.496,380
202.521,393
202.546,389
202.571,379
202.596,377
202.621,385
202.646,400
202.671,417
202.696,431
202.721,434
202.746,419
202.771,393
202.796,367
202.821,348
202.846,320
202.871,261
202.896,171
202.921,78
202.946,19
202.971,8
202.996,24
203.021,28
203.046,-8
203.071,-87
203.096,-177
203.121,-223
203.146,-182
203.171,-48
203.196,125
203.221,262
203.246,317
203.271,309
203.296,297
203.321,318
203.346,356
203.371,370
203.396,347
203.421,317
203.446,320
203.471,355
203.496,389
203.521,395
203.546,379
203.571,366
203.596,363
203.621,351
203.646,315
203.671,264
203.696,220
203.721,188
203.746,154
203.771,104
203.796,47
203.821,-2
203.846,-45
203.871,-96
203.896,-157
203.921,-198
203.946,-172
203.971,-64
203.996,88
204.021,226
204.046,314
204.071,357
204.096,379
204.121,393
204.146,396
204.171,387
204.196,375
204.221,372
204.246,383
204.271,401
204.296,417
204.321,425
204.346,425
204.371,413
204.396,390
204.421,359
204.446,323
204.471,286
204.496,245
204.521,195
204.546,133
204.571,57
204.596,-29
204.621,-111
204.646,-163
204.671,-161
204.696,-114
204.721,-60
204.746,-41
204.771,-60
204.796,-78
204.821,-47
204.846,44
204.871,157
204.896,246
204.921,293
204.946,317
204.971,342
204.996,371
205.021,389
205.046,388
205.071,378
205.096,376
205.121,387
205.146,404
205.171,418
205.196,423
205.221,411
205.246,369
205.271,293
205.296,203
205.321,139
205.346,127
205.371,152
205.396,164
205.421,126
205.446,50
205.471,-19
205.496,-52
205.521,-66
205.546,-102
205.571,-174
205.596,-237
205.621,-230
205.646,-131
205.671,16
205.696,148
205.721,234
205.746,298
205.771,370
205.796,446
205.821,496
205.846,506
205.871,506
205.896,534
205.921,587
205.946,629
205.971,637
205.996,641
206.021,690
206.046,776
206.071,820
206.096,748
206.121,581
206.146,437
206.171,426
206.196,533
206.221,632
206.246,597
206.271,416
206.296,183
206.321,-3
206.346,-132
206.371,-252
206.396,-399
206.421,-540
206.446,-604
206.471,-559
206.496,-434
206.521,-292
206.546,-178
206.571,-95
206.596,-27
206.621,33
206.646,82
206.671,118
206.696,146
206.721,177
206.746,214
206.771,249
206.796,270
206.821,280
206.846,289
206.871,312
206.896,346
206.921,372
206.946,372
206.971,346
206.996,317
207.021,303
207.046,293
207.071,254
207.096,171
207.121,77
207.146,27
207.171,40
207.196,74
207.221,67
207.246,3
207.271,-62
207.296,-52
207.321,50
207.346,190
207.371,293
207.396,340
207.421,366
207.446,409
207.471,459
207.496,480
207.521,460
207.546,432
207.571,435
207.596,468
207.621,486
207.646,458
207.671,398
207.696,356
207.721,356
207.746,375
207.771,369
207.796,325
207.821,267
207.846,227
207.871,205
207.896,172
207.921,105
207.946,17
207.971,-53
207.996,-75
208.021,-57
208.046,-41
208.071,-64
208.096,-132
208.121,-204
208.146,-222
208.171,-149
208.196,0
208.221,165
208.246,285
208.271,335
208.296,339
208.321,342
208.346,370
208.371,409
208.396,436
208.421,441
208.446,439
208.471,450
208.496,476
208.521,501
208.546,511
208.571,505
208.596,490
208.621,471
208.646,447
208.671,415
208.696,378
208.721,336
208.746,285
208.771,216
208.796,124
208.821,24
208.846,-60
208.871,-106
208.896,-109
208.921,-91
208.946,-86
208.971,-123
208.996,-200
209.021,-281
209.046,-313
209.071,-265
209.096,-147
209.121,-8
209.146,104
209.171,177
209.196,228
209.221,277
209.246,329
209.271,369
209.296,386
209.321,388
209.346,394
209.371,417
209.396,453
209.421,484
209.446,499
209.471,498
209.496,488
209.521,478
209.546,464
209.571,441
209.596,403
209.621,357
209.646,316
209.671,289
209.696,267
209.721,223
209.746,145
209.771,51
209.796,-16
209.821,-31
209.846,-16
209.871,-23
209.896,-80
209.921,-152
209.946,-169
209.971,-93
209.996,45
210.021,180
210.046,265
210.071,308
210.096,342
210.121,376
210.146,391
210.171,377
210.196,355
210.221,357
210.246,387
210.271,417
210.296,415
210.321,386
210.346,363
210.371,367
210.396,385
210.421,389
210.446,368
210.471,332
210.496,293
210.521,253
210.546,205
210.571,158
210.596,121
210.621,94
210.646,57
210.671,2
210.696,-51
210.721,-82
210.746,-97
210.771,-137
210.796,-223
210.821,-312
210.846,-319
210.871,-196
210.896,3
210.921,170
210.946,235
210.971,224
210.996,223
211.021,281
211.046,369
211.071,423
211.096,414
211.121,375
211.146,359
211.171,384
211.196,429
211.221,463
211.246,472
211.271,456
211.296,422
211.321,382
211.346,355
211.371,354
211.396,372
211.421,374
211.446,338
211.471,276
211.496,223
211.521,201
211.546,191
211.571,161
211.596,103
211.621,43
211.646,4
211.671,-25
211.696,-73
211.721,-139
211.746,-173
211.771,-122
211.796,6
211.821,153
211.846,252
211.871,299
211.896,337
211.921,397
211.946,459
211.971,480
211.996,457
212.021,437
212.046,466
212.071,530
212.096,561
212.121,509
212.146,397
212.171,304
212.196,285
212.221,319
212.246,338
212.271,294
212.296,201
212.321,111
212.346,60
212.371,40
212.396,18
212.421,-19
212.446,-60
212.471,-89
212.496,-114
212.521,-151
212.546,-203
212.571,-237
212.596,-209
212.621,-105
212.646,41
212.671,176
212.696,264
212.721,313
212.746,350
212.771,387
212.796,406
212.821,393
212.846,366
212.871,365
212.896,407
212.921,461
212.946,475
212.971,434
212.996,376
213.021,357
213.046,383
213.071,403
213.096,362
213.121,260
213.146,153
213.171,100
213.196,103
213.221,115
213.246,90
213.271,24
213.296,-54
213.321,-120
213.346,-160
213.371,-167
213.396,-127
213.421,-35
213.446,85
213.471,193
213.496,260
213.521,290
213.546,310
213.571,333
213.596,350
213.621,350
213.646,341
213.671,344
213.696,370
213.721,401
213.746,414
213.771,402
213.796,383
213.821,376
213.846,383
213.871,381
213.896,350
213.921,287
213.946,201
213.971,113
213.996,44
214.021,10
214.046,5
214.071,0
214.096,-36
214.121,-109
214.146,-175
214.171,-170
214.196,-70
214.221,89
214.246,233
214.271,313
214.296,335
214.321,342
214.346,361
214.371,381
214.396,384
214.421,368
214.446,357
214.471,371
214.496,398
214.521,418
214.546,420
214.571,416
214.596,417
214.621,414
214.646,392
214.671,352
214.696,317
214.721,300
214.746,281
214.771,223
214.796,121
214.821,19
214.846,-28
214.871,-18
214.896,-1
214.921,-34
214.946,-109
214.971,-160
214.996,-126
215.021,-12
215.046,115
215.071,203
215.096,244
215.121,270
215.146,298
215.171,321
215.196,323
215.221,311
215.246,309
215.271,326
215.296,347
215.321,358
215.346,359
215.371,362
215.396,367
215.421,358
215.446,327
215.471,287
215.496,257
215.521,238
215.546,208
215.571,158
215.596,105
215.621,74
215.646,64
215.671,39
215.696,-23
215.721,-97
215.746,-119
215.771,-50
215.796,78
215.821,195
215.846,250
215.871,254
215.896,256
215.921,286
215.946,331
215.971,361
215.996,361
216.021,345
216.046,335
216.071,343
216.096,364
216.121,388
216.146,403
216.171,401
216.196,384
216.221,365
216.246,352
216.271,341
216.296,311
216.321,247
216.346,162
216.371,96
216.396,75
216.421,87
216.446,93
216.471,64
216.496,8
216.521,-43
216.546,-78
216.571,-111
216.596,-159
216.621,-212
216.646,-225
216.671,-165
216.696,-42
216.721,90
216.746,185
216.771,234
216.796,267
216.821,316
216.846,376
216.871,419
216.896,427
216.921,418
216.946,424
216.971,461
216.996,509
217.021,533
217.046,519
217.071,488
217.096,465
217.121,456
217.146,442
217.171,411
217.196,373
217.221,349
217.246,338
217.271,312
217.296,251
217.321,165
217.346,93
217.371,63
217.396,66
217.421,67
217.446,41
217.471,-8
217.496,-69
217.521,-134
217.546,-197
217.571,-241
217.596,-234
217.621,-158
217.646,-34
217.671,87
217.696,173
217.721,224
217.746,263
217.771,303
217.796,335
217.821,344
217.846,340
217.871,348
217.896,381
217.921,423
217.946,447
217.971,444
217.996,429
218.021,424
218.046,435
218.071,441
218.096,424
218.121,376
218.146,310
218.171,245
218.196,198
218.221,174
218.246,167
218.271,157
218.296,128
218.321,80
218.346,26
218.371,-19
218.396,-63
218.421,-121
218.446,-190
218.471,-238
218.496,-220
218.521,-125
218.546,14
218.571,141
218.596,222
218.621,268
218.646,309
218.671,359
218.696,409
218.721,439
218.746,447
218.771,448
218.796,452
218.821,457
218.846,460
218.871,464
218.896,477
218.921,492
218.946,486
218.971,439
218.996,361
219.021,287
219.046,248
219.071,243
219.096,245
219.121,226
219.146,182
219.171,126
219.196,75
219.221,34
219.246,-1
219.271,-33
219.296,-67
219.321,-113
219.346,-180
219.371,-255
219.396,-299
219.421,-268
219.446,-152
219.471,8
219.496,152
219.521,243
219.546,294
219.571,340
219.596,398
219.621,452
219.646,474
219.671,464
219.696,452
219.721,467
219.746,509
219.771,549
219.796,564
219.821,556
219.846,544
219.871,541
219.896,535
219.921,505
219.946,441
219.971,354
219.996,267
220.021,205
220.046,181
220.071,186
220.096,192
220.121,165
220.146,91
220.171,-8
220.196,-87
220.221,-115
220.246,-107
220.271,-103
220.296,-129
220.321,-171
220.346,-184
220.371,-139
220.396,-48
220.421,48
220.446,118
220.471,152
220.496,166
220.521,174
220.546,183
220.571,187
220.596,188
220.621,193
220.646,212
220.671,247
220.696,286
220.721,308
220.746,300
220.771,267
220.796,229
220.821,198
220.846,166
220.871,125
220.896,84
220.921,65
220.946,72
220.971,74
220.996,27
221.021,-65
221.046,-143
221.071,-142
221.096,-70
221.121,-1
221.146,-3
221.171,-54
221.196,-63
221.221,35
221.246,209
221.271,365
221.296,451
221.321,499
221.346,573
221.371,686
221.396,791
221.421,844
221.446,859
221.471,882
221.496,933
221.521,986
221.546,1010
221.571,1003
221.596,978
221.621,933
221.646,852
221.671,748
221.696,661
221.721,613
221.746,550
221.771,388
221.796,115
221.821,-159
221.846,-294
221.871,-259
221.896,-175
221.921,-195
221.946,-347
221.971,-510
221.996,-546
222.021,-436
222.046,-279
222.071,-183
222.096,-159
222.121,-146
222.146,-100
222.171,-41
222.196,-12
222.221,-19
222.246,-26
222.271,-3
222.296,43
222.321,86
222.346,116
222.371,144
222.396,178
222.421,203
222.446,205
222.471,188
222.496,170
222.521,158
222.546,141
222.571,105
222.596,57
222.621,18
222.646,-3
222.671,-24
222.696,-66
222.721,-121
222.746,-149
222.771,-112
222.796,-9
222.821,125
222.846,250
222.871,349
222.896,431
222.921,506
222.946,568
222.971,597
222.996,584
223.021,542
223.046,504
223.071,497
223.096,524
223.121,563
223.146,581
223.171,561
223.196,510
223.221,455
223.246,422
223.271,414
223.296,412
223.321,390
223.346,336
223.371,261
223.396,190
223.421,138
223.446,95
223.471,40
223.496,-37
223.521,-118
223.546,-160
223.571,-131
223.596,-36
223.621,82
223.646,185
223.671,255
223.696,304
223.721,342
223.746,368
223.771,375
223.796,367
223.821,358
223.846,360
223.871,366
223.896,363
223.921,351
223.946,349
223.971,368
223.996,391
224.021,389
224.046,354
224.071,310
224.096,283
224.121,266
224.146,220
224.171,122
224.196,3
224.221,-71
224.246,-69
224.271,-30
224.296,-29
224.321,-98
224.346,-189
224.371,-218
224.396,-148
224.421,-14
224.446,115
224.471,203
224.496,259
224.521,307
224.546,344
224.571,352
224.596,329
224.621,300
224.646,293
224.671,310
224.696,323
224.721,313
224.746,287
224.771,267
224.796,267
224.821,273
224.846,264
224.871,232
224.896,188
224.921,143
224.946,102
224.971,64
224.996,32
225.021,7
225.046,-15
225.071,-48
225.096,-94
225.121,-130
225.146,-123
225.171,-50
225.196,74
225.221,209
225.246,315
225.271,382
225.296,427
225.321,463
225.346,489
225.371,488
225.396,460
225.421,428
225.446,421
225.471,448
225.496,482
225.521,492
225.546,469
225.571,434
225.596,412
225.621,404
225.646,386
225.671,335
225.696,256
225.721,170
225.746,99
225.771,47
225.796,15
225.821,0
225.846,-8
225.871,-30
225.896,-94
225.921,-196
225.946,-282
225.971,-283
225.996,-175
226.021,-8
226.046,127
226.071,184
226.096,187
226.121,206
226.146,275
226.171,368
226.196,426
226.221,427
226.246,400
226.271,395
226.296,425
226.321,464
226.346,481
226.371,472
226.396,464
226.421,471
226.446,480
226.471,463
226.496,416
226.521,360
226.546,318
226.571,288
226.596,244
226.621,174
226.646,97
226.671,43
226.696,15
226.721,-22
226.746,-105
226.771,-218
226.796,-289
226.821,-251
226.846,-108
226.871,60
226.896,170
226.921,199
226.946,199
226.971,226
226.996,288
227.021,342
227.046,352
227.071,326
227.096,305
227.121,315
227.146,347
227.171,373
227.196,379
227.221,372
227.246,364
227.271,357
227.296,347
227.321,328
227.346,296
227.371,240
227.396,159
227.421,70
227.446,7
227.471,-6
227.496,8
227.521,0
227.546,-58
227.571,-148
227.596,-207
227.621,-188
227.646,-94
227.671,36
227.696,163
227.721,268
227.746,348
227.771,400
227.796,422
227.821,422
227.846,413
227.871,405
227.896,401
227.921,398
227.946,400
227.971,415
227.996,440
228.021,455
228.046,436
228.071,381
228.096,304
228.121,229
228.146,176
228.171,151
228.196,148
228.221,145
228.246,114
228.271,40
228.296,-55
228.321,-127
228.346,-139
228.371,-96
228.396,-43
228.421,-17
228.446,-13
228.471,5
228.496,69
228.521,170
228.546,271
228.571,339
228.596,369
228.621,374
228.646,373
228.671,373
228.696,378
228.721,390
228.746,406
228.771,421
228.796,433
228.821,440
228.846,443
228.871,434
228.896,399
228.921,331
228.946,245
228.971,170
228.996,135
229.021,142
229.046,163
229.071,160
229.096,111
229.121,30
229.146,-41
229.171,-69
229.196,-55
229.221,-36
229.246,-44
229.271,-73
229.296,-80
229.321,-26
229.346,78
229.371,192
229.396,276
229.421,327
229.446,364
229.471,397
229.496,414
229.521,407
229.546,392
229.571,395
229.596,418
229.621,440
229.646,443
229.671,441
229.696,452
229.721,465
229.746,436
229.771,345
229.796,237
229.821,186
229.846,221
229.871,278
229.896,263
229.921,151
229.946,17
229.971,-36
229.996,11
230.021,83
230.046,85
230.071,-1
230.096,-108
230.121,-156
230.146,-121
230.171,-34
230.196,59
230.221,142
230.246,215
230.271,275
230.296,312
230.321,323
230.346,321
230.371,320
230.396,323
230.421,326
230.446,330
230.471,343
230.496,365
230.521,385
230.546,387
230.571,369
230.596,344
230.621,326
230.646,312
230.671,294
230.696,261
230.721,211
230.746,147
230.771,77
230.796,14
230.821,-19
230.846,-15
230.871,6
230.896,4
230.921,-51
230.946,-141
230.971,-200
230.996,-169
231.021,-43
231.046,120
231.071,248
231.096,303
231.121,305
231.146,299
231.171,318
231.196,354
231.221,380
231.246,381
231.271,369
231.296,370
231.321,400
231.346,442
231.371,465
231.396,454
231.421,424
231.446,406
231.471,410
231.496,413
231.521,386
231.546,327
231.571,268
231.596,233
231.621,208
231.646,161
231.671,82
231.696,7
231.721,-26
231.746,-36
231.771,-81
231.796,-189
231.821,-303
231.846,-314
231.871,-178
231.896,29
231.921,173
231.946,187
231.971,135
231.996,138
232.021,243
232.046,380
232.071,447
232.096,415
232.121,348
232.146,327
232.171,366
232.196,416
232.221,434
232.246,422
232.271,409
232.296,406
232.321,397
232.346,369
232.371,336
232.396,313
232.421,297
232.446,266
232.471,214
232.496,159
232.521,121
232.546,98
232.571,64
232.596,7
232.621,-59
232.646,-108
232.671,-122
232.696,-95
232.721,-23
232.746,99
232.771,257
232.796,406
232.821,507
232.846,558
232.871,592
232.896,638
232.921,685
232.946,697
232.971,656
232.996,582
233.021,503
233.046,424
233.071,335
233.096,241
233.121,169
233.146,143
233.171,160
233.196,209
233.221,285
233.246,380
233.271,437
233.296,357
233.321,87
233.346,-293
233.371,-604
233.396,-711
233.421,-653
233.446,-605
233.471,-701
233.496,-898
233.521,-1023
233.546,-953
233.571,-722
233.596,-465
233.621,-280
233.646,-156
233.671,-35
233.696,99
233.721,213
233.746,283
233.771,333
233.796,408
233.821,528
233.846,673
233.871,820
233.896,957
233.921,1066
233.946,1124
233.971,1129
233.996,1128
234.021,1174
234.046,1254
234.071,1277
234.096,1159
234.121,933
234.146,744
234.171,707
234.196,790
234.221,837
234.246,723
234.271,472
234.296,213
234.321,48
234.346,-34
234.371,-98
234.396,-167
234.421,-201
234.446,-167
234.471,-95
234.496,-50
234.521,-59
234.546,-82
234.571,-72
234.596,-34
234.621,-10
234.646,-23
234.671,-42
234.696,-20
234.721,45
234.746,112
234.771,138
234.796,127
234.821,109
234.846,103
234.871,98
234.896,77
234.921,42
234.946,10
234.971,-13
234.996,-40
235.021,-70
235.046,-87
235.071,-73
235.096,-46
235.121,-47
235.146,-101
235.171,-177
235.196,-212
235.221,-165
235.246,-61
235.271,37
235.296,88
235.321,101
235.346,120
235.371,176
235.396,263
235.421,347
235.446,397
235.471,413
235.496,413
235.521,421
235.546,445
235.571,479
235.596,506
235.621,522
235.646,533
235.671,550
235.696,567
235.721,569
235.746,545
235.771,502
235.796,459
235.821,423
235.846,385
235.871,337
235.896,290
235.921,264
235.946,256
235.971,229
235.996,149
236.021,25
236.046,-84
236.071,-131
236.096,-127
236.121,-129
236.146,-171
236.171,-215
236.196,-194
236.221,-83
236.246,59
236.271,151
236.296,164
236.321,144
236.346,153
236.371,206
236.396,268
236.421,308
236.446,334
236.471,381
236.496,458
236.521,538
236.546,582
236.571,586
236.596,573
236.621,574
236.646,592
236.671,606
236.696,583
236.721,502
236.746,364
236.771,200
236.796,65
236.821,0
236.846,1
236.871,13
236.896,-19
236.921,-97
236.946,-161
236.971,-147
236.996,-45
237.021,91
237.046,199
237.071,257
237.096,287
237.121,313
237.146,334
237.171,337
237.196,322
237.221,311
237.246,319
237.271,339
237.296,347
237.321,336
237.346,315
237.371,300
237.396,292
237.421,277
237.446,250
237.471,219
237.496,192
237.521,164
237.546,121
237.571,60
237.596,-7
237.621,-66
237.646,-119
237.671,-177
237.696,-248
237.721,-317
237.746,-368
237.771,-390
237.796,-385
237.821,-342
237.846,-243
237.871,-81
237.896,108
237.921,260
237.946,325
237.971,314
237.996,287
238.021,291
238.046,326
238.071,353
238.096,352
238.121,344
238.146,367
238.171,427
238.196,487
238.221,508
238.246,484
238.271,447
238.296,429
238.321,434
238.346,441
238.371,435
238.396,413
238.421,379
238.446,337
238.471,295
238.496,261
238.521,239
238.546,216
238.571,181
238.596,150
238.621,162
238.646,249
238.671,388
238.696,511
238.721,566
238.746,561
238.771,547
238.796,551
238.821,543
238.846,475
238.871,353
238.896,243
238.921,209
238.946,247
238.971,289
238.996,280
239.021,230
239.046,189
239.071,180
239.096,173
239.121,125
239.146,29
239.171,-71
239.196,-133
239.221,-148
239.246,-139
239.271,-134
239.296,-148
239.321,-188
239.346,-256
239.371,-329
239.396,-363
239.421,-317
239.446,-196
239.471,-56
239.496,43
239.521,87
239.546,112
239.571,158
239.596,232
239.621,304
239.646,346
239.671,358
239.696,359
239.721,370
239.746,400
239.771,444
239.796,491
239.821,527
239.846,540
239.871,533
239.896,518
239.921,504
239.946,479
239.971,423
239.996,335
240.021,250
240.046,212
240.071,232
240.096,269
240.121,269
240.146,205
240.171,99
240.196,-5
240.221,-77
240.246,-105
240.271,-89
240.296,-33
240.321,47
240.346,123
240.371,169
240.396,191
240.421,214
240.446,256
240.471,304
240.496,326
240.521,311
240.546,280
240.571,265
240.596,277
240.621,303
240.646,326
240.671,344
240.696,364
240.721,384
240.746,388
240.771,368
240.796,335
240.821,305
240.846,282
240.871,253
240.896,211
240.921,162
240.946,120
240.971,83
240.996,31
241.021,-38
241.046,-97
241.071,-105
241.096,-43
241.121,60
241.146,163
241.171,239
241.196,292
241.221,333
241.246,360
241.271,363
241.296,345
241.321,326
241.346,321
241.371,326
241.396,330
241.421,332
241.446,344
241.471,366
241.496,368
241.521,324
241.546,244
241.571,175
241.596,150
241.621,157
241.646,149
241.671,101
241.696,31
241.721,-25
241.746,-65
241.771,-110
241.796,-168
241.821,-200
241.846,-159
241.871,-45
241.896,90
241.921,194
241.946,257
241.971,307
241.996,353
242.021,377
242.046,364
242.071,336
242.096,335
242.121,364
242.146,382
242.171,351
242.196,292
242.221,260
242.246,270
242.271,276
242.296,225
242.321,135
242.346,78
242.371,88
242.396,115
242.421,79
242.446,-21
242.471,-93
242.496,-51
242.521,70
242.546,144
242.571,84
242.596,-53
242.621,-126
242.646,-46
242.671,139
242.696,308
242.721,388
242.746,403
242.771,410
242.796,429
242.821,433
242.846,401
242.871,353
242.896,328
242.921,342
242.946,374
242.971,395
242.996,398
243.021,387
243.046,360
243.071,308
243.096,235
243.121,162
243.146,115
243.171,94
243.196,71
243.221,16
243.246,-76
243.271,-172
243.296,-216
243.321,-171
243.346,-44
243.371,111
243.396,231
243.421,283
243.446,287
243.471,281
243.496,289
243.521,298
243.546,291
243.571,272
243.596,265
243.621,284
243.646,317
243.671,342
243.696,352
243.721,355
243.746,357
243.771,352
243.796,335
243.821,321
243.846,322
243.871,321
243.896,278
243.921,187
243.946,99
243.971,80
243.996,131
244.021,180
244.046,157
244.071,89
244.096,79
244.121,190
244.146,362
244.171,465
244.196,445
244.221,384
244.246,404
244.271,524
244.296,636
244.321,636
244.346,542
244.371,473
244.396,496
244.421,544
244.446,492
244.471,308
244.496,100
244.521,8
244.546,59
244.571,155
244.596,181
244.621,113
244.646,17
244.671,-47
244.696,-80
244.721,-115
244.746,-166
244.771,-214
244.796,-245
244.821,-268
244.846,-293
244.871,-296
244.896,-240
244.921,-119
244.946,22
244.971,123
244.996,167
245.021,187
245.046,226
245.071,289
245.096,344
245.121,360
245.146,341
245.171,318
245.196,315
245.221,337
245.246,370
245.271,400
245.296,418
245.321,419
245.346,409
245.371,398
245.396,390
245.421,371
245.446,318
245.471,217
245.496,86
245.521,-28
245.546,-83
245.571,-68
245.596,-14
245.621,29
245.646,25
245.671,-26
245.696,-88
245.721,-112
245.746,-71
245.771,21
245.796,126
245.821,206
245.846,257
245.871,297
245.896,340
245.921,377
245.946,386
245.971,369
245.996,351
246.021,359
246.046,388
246.071,410
246.096,406
246.121,388
246.146,383
246.171,398
246.196,413
246.221,402
246.246,367
246.271,329
246.296,302
246.321,274
246.346,225
246.371,160
246.396,104
246.421,71
246.446,43
246.471,-9
246.496,-86
246.521,-137
246.546,-102
246.571,22
246.596,181
246.621,295
246.646,331
246.671,319
246.696,312
246.721,333
246.746,361
246.771,366
246.796,344
246.821,321
246.846,324
246.871,350
246.896,377
246.921,385
246.946,371
246.971,348
246.996,322
247.021,291
247.046,257
247.071,233
247.096,228
247.121,231
247.146,212
247.171,148
247.196,55
247.221,-19
247.246,-35
247.271,1
247.296,44
247.321,49
247.346,16
247.371,-6
247.396,24
247.421,113
247.446,214
247.471,277
247.496,291
247.521,288
247.546,302
247.571,335
247.596,355
247.621,335
247.646,286
247.671,249
247.696,250
247.721,275
247.746,282
247.771,249
247.796,197
247.821,163
247.846,155
247.871,142
247.896,94
247.921,24
247.946,-24
247.971,-36
247.996,-51
248.021,-123
248.046,-243
248.071,-322
248.096,-276
248.121,-117
248.146,45
248.171,105
248.196,62
248.221,20
248.246,72
248.271,213
248.296,355
248.321,427
248.346,445
248.371,475
248.396,546
248.421,618
248.446,640
248.471,607
248.496,569
248.521,568
248.546,592
248.571,601
248.596,574
248.621,528
248.646,495
248.671,475
248.696,446
248.721,391
248.746,320
248.771,255
248.796,204
248.821,154
248.846,88
248.871,7
248.896,-75
248.921,-144
248.946,-187
248.971,-189
248.996,-141
249.021,-48
249.046,61
249.071,154
249.096,218
249.121,259
249.146,291
249.171,311
249.196,310
249.221,288
249.246,271
249.271,281
249.296,315
249.321,339
249.346,322
249.371,270
249.396,221
249.421,209
249.446,232
249.471,253
249.496,242
249.521,192
249.546,125
249.571,62
249.596,5
249.621,-50
249.646,-100
249.671,-128
249.696,-116
249.721,-65
249.746,7
249.771,79
249.796,140
249.821,189
249.846,232
249.871,269
249.896,300
249.921,322
249.946,338
249.971,354
249.996,373
250.021,392
250.046,400
250.071,393
250.096,372
250.121,351
250.146,336
250.171,315
250.196,263
250.221,169
250.246,59
250.271,-17
250.296,-30
250.321,3
250.346,27
250.371,-1
250.396,-68
250.421,-112
250.446,-79
250.471,28
250.496,158
250.521,253
250.546,296
250.571,308
250.596,317
250.621,333
250.646,350
250.671,360
250.696,362
250.721,362
250.746,361
250.771,362
250.796,369
250.821,381
250.846,387
250.871,368
250.896,318
250.921,249
250.946,190
250.971,161
250.996,160
251.021,168
251.046,160
251.071,127
251.096,71
251.121,7
251.146,-41
251.171,-51
251.196,-12
251.221,59
251.246,132
251.271,178
251.296,197
251.321,213
251.346,251
251.371,305
251.396,348
251.421,357
251.446,337
251.471,315
251.496,316
251.521,336
251.546,356
251.571,361
251.596,356
251.621,351
251.646,346
251.671,333
251.696,309
251.721,279
251.746,255
251.771,235
251.796,207
251.821,165
251.846,120
251.871,87
251.896,70
251.921,46
251.946,-4
251.971,-74
251.996,-123
252.021,-117
252.046,-52
252.071,32
252.096,97
252.121,129
252.146,150
252.171,184
252.196,235
252.221,285
252.246,310
252.271,308
252.296,294
252.321,285
252.346,292
252.371,309
252.396,327
252.421,337
252.446,336
252.471,329
252.496,321
252.521,311
252.546,290
252.571,248
252.596,188
252.621,128
252.646,91
252.671,86
252.696,99
252.721,104
252.746,78
252.771,20
252.796,-46
252.821,-86
252.846,-71
252.871,5
252.896,114
252.921,214
252.946,271
252.971,285
252.996,282
253.021,291
253.046,316
253.071,339
253.096,339
253.121,321
253.146,306
253.171,312
253.196,335
253.221,353
253.246,346
253.271,310
253.296,259
253.321,212
253.346,182
253.371,175
253.396,185
253.421,193
253.446,176
253.471,128
253.496,65
253.521,23
253.546,23
253.571,50
253.596,66
253.621,45
253.646,5
253.671,-6
253.696,48
253.721,165
253.746,295
253.771,391
253.796,438
253.821,454
253.846,467
253.871,481
253.896,483
253.921,462
253.946,434
253.971,423
253.996,438
254.021,458
254.046,454
254.071,419
254.096,373
254.121,338
254.146,316
254.171,282
254.196,221
254.221,148
254.246,90
254.271,53
254.296,16
254.321,-48
254.346,-134
254.371,-197
254.396,-203
254.421,-157
254.446,-102
254.471,-69
254.496,-51
254.521,-12
254.546,69
254.571,175
254.596,266
254.621,316
254.646,329
254.671,324
254.696,318
254.721,316
254.746,320
254.771,331
254.796,346
254.821,358
254.846,363
254.871,363
254.896,359
254.921,346
254.946,306
254.971,232
254.996,140
255.021,66
255.046,40
255.071,62
255.096,97
255.121,103
255.146,55
255.171,-27
255.196,-99
255.221,-110
255.246,-41
255.271,82
255.296,212
255.321,304
255.346,349
255.371,364
255.396,368
255.421,363
255.446,343
255.471,315
255.496,298
255.521,308
255.546,336
255.571,361
255.596,366
255.621,358
255.646,351
255.671,349
255.696,339
255.721,310
255.746,269
255.771,232
255.796,202
255.821,161
255.846,94
255.871,13
255.896,-38
255.921,-20
255.946,69
255.971,192
255.996,294
256.021,346
256.046,355
256.071,346
256.096,338
256.121,326
256.146,302
256.171,271
256.196,247
256.221,241
256.246,245
256.271,239
256.296,217
256.321,191
256.346,181
256.371,181
256.396,162
256.421,103
256.446,23
256.471,-27
256.496,-17
256.521,27
256.546,38
256.571,-23
256.596,-119
256.621,-165
256.646,-104
256.671,37
256.696,178
256.721,255
256.746,270
256.771,267
256.796,273
256.821,280
256.846,265
256.871,234
256.896,216
256.921,232
256.946,265
256.971,278
256.996,256
257.021,220
257.046,202
257.071,201
257.096,189
257.121,147
257.146,92
257.171,71
257.196,106
257.221,164
257.246,184
257.271,138
257.296,60
257.321,24
257.346,74
257.371,192
257.396,317
257.421,400
257.446,438
257.471,455
257.496,471
257.521,482
257.546,481
257.571,470
257.596,461
257.621,462
257.646,466
257.671,462
257.696,449
257.721,428
257.746,400
257.771,356
257.796,300
257.821,248
257.846,214
257.871,194
257.896,166
257.921,110
257.946,38
257.971,-22
257.996,-54
258.021,-59
258.046,-51
258.071,-31
258.096,7
258.121,60
258.146,107
258.171,125
258.196,113
258.221,93
258.246,86
258.271,92
258.296,93
258.321,80
258.346,64
258.371,65
258.396,90
258.421,130
258.446,167
258.471,188
258.496,183
258.521,160
258.546,134
258.571,127
258.596,147
258.621,174
258.646,180
258.671,159
258.696,139
258.721,162
258.746,245
258.771,369
258.796,494
258.821,597
258.846,674
258.871,728
258.896,758
258.921,766
258.946,764
258.971,761
258.996,748
259.021,710
259.046,647
259.071,583
259.096,533
259.121,473
259.146,356
259.171,171
259.196,-22
259.221,-134
259.246,-129
259.271,-65
259.296,-36
259.321,-84
259.346,-177
259.371,-255
259.396,-300
259.421,-329
259.446,-347
259.471,-329
259.496,-251
259.521,-135
259.546,-36
259.571,16
259.596,47
259.621,97
259.646,163
259.671,207
259.696,204
259.721,183
259.746,191
259.771,238
259.796,282
259.821,287
259.846,265
259.871,257
259.896,276
259.921,291
259.946,267
259.971,220
259.996,191
260.021,193
260.046,188
260.071,138
260.096,65
260.121,38
260.146,88
260.171,160
260.196,162
260.221,66
260.246,-52
260.271,-83
260.296,9
260.321,163
260.346,285
260.371,343
260.396,379
260.421,442
260.446,528
260.471,587
260.496,580
260.521,528
260.546,484
260.571,484
260.596,514
260.621,531
260.646,511
260.671,465
260.696,426
260.721,407
260.746,389
260.771,348
260.796,283
260.821,220
260.846,183
260.871,159
260.896,113
260.921,33
260.946,-44
260.971,-68
260.996,-34
261.021,-7
261.046,-61
261.071,-195
261.096,-317
261.121,-324
261.146,-199
261.171,-24
261.196,102
261.221,163
261.246,214
261.271,307
261.296,416
261.321,471
261.346,440
261.371,373
261.396,351
261.421,402
261.446,476
261.471,507
261.496,479
261.521,433
261.546,413
261.571,415
261.596,407
261.621,368
261.646,315
261.671,272
261.696,244
261.721,210
261.746,154
261.771,88
261.796,36
261.821,4
261.846,-28
261.871,-87
261.896,-168
261.921,-234
261.946,-243
261.971,-177
261.996,-54
262.021,86
262.046,208
262.071,294
262.096,349
262.121,383
262.146,407
262.171,421
262.196,422
