df_hash,22ZHK4.M833G2
device,HZ2X61
project_hash,29R7
project_name,istanbul_aydin_university
person_hash,29R7.3VJX
person_label,V59
date_time_start,2025-10-31_15-29-03.527000_+03
date_time_start_unix,1761910143.527
date_time_end,2025-10-31_15-37-19.121000_+03
length_difference_noticed,no

time,ppg_ir,ppg_ambient,ppg_red
25.634,159399,605,250911
25.639,159386,602,250900
25.644,159396,603,250893
25.649,159397,603,250924
25.654,159397,603,250911
25.659,159397,602,250918
25.663,159393,604,250905
25.668,159413,597,250936
25.673,159404,597,250932
25.678,159420,595,250946
25.683,159453,600,250948
25.688,159429,595,250949
25.693,159427,595,250948
25.698,159438,592,250953
25.703,159455,593,250956
25.708,159458,593,250956
25.713,159453,593,250971
25.718,159464,591,250951
25.723,159467,593,250971
25.728,159477,593,250957
25.733,159479,588,250972
25.738,159480,587,250955
25.743,159483,588,250971
25.748,159491,587,250973
25.753,159491,587,250997
25.758,159505,587,250991
25.763,159506,586,250994
25.768,159502,587,250966
25.773,159514,586,250983
25.778,159513,586,250994
25.783,159497,583,250966
25.788,159498,582,250975
25.793,159471,583,250949
25.798,159466,582,250926
25.802,159443,582,250938
25.807,159430,583,250902
25.812,159423,584,250888
25.817,159410,583,250860
25.822,159396,584,250850
25.827,159373,582,250859
25.832,159379,580,250848
25.837,159348,576,250828
25.842,159344,578,250830
25.847,159347,577,250825
25.852,159335,578,250819
25.857,159316,576,250803
25.862,159308,575,250810
25.867,159315,578,250802
25.872,159283,577,250800
25.877,159292,579,250797
25.882,159280,574,250791
25.887,159264,574,250771
25.892,159264,575,250754
25.897,159264,573,250756
25.902,159257,574,250756
25.907,159237,576,250737
25.912,159247,576,250766
25.917,159236,575,250728
25.922,159225,577,250724
25.927,159221,576,250733
25.932,159209,575,250730
25.937,159205,573,250713
25.942,159212,575,250720
25.946,159196,576,250711
25.951,159186,577,250688
25.956,159200,567,250690
25.961,159182,567,250707
25.966,159190,567,250672
25.971,159187,569,250668
25.976,159193,571,250692
25.981,159189,570,250715
25.986,159186,570,250698
25.991,159195,572,250701
25.996,159186,569,250723
26.001,159204,569,250718
26.006,159208,570,250714
26.011,159195,569,250707
26.016,159203,568,250688
26.021,159213,567,250716
26.026,159214,563,250715
26.031,159210,564,250718
26.036,159216,564,250697
26.041,159201,564,250703
26.046,159213,565,250707
26.051,159185,566,250699
26.056,159211,565,250698
26.061,159190,565,250700
26.066,159201,566,250700
26.071,159217,575,250748
26.076,159207,559,250693
26.081,159193,560,250709
26.085,159210,562,250723
26.090,159208,562,250717
26.095,159218,562,250724
26.100,159207,561,250703
26.105,159208,561,250715
26.110,159217,563,250734
26.115,159226,561,250724
26.120,159217,565,250733
26.125,159212,561,250748
26.130,159220,559,250746
26.135,159229,562,250745
26.140,159240,561,250762
26.145,159239,562,250776
26.150,159246,555,250776
26.155,159248,555,250783
26.160,159245,555,250782
26.165,159267,555,250795
26.170,159260,559,250791
26.175,159277,560,250795
26.180,159261,559,250797
26.185,159263,561,250801
26.190,159271,562,250811
26.195,159276,553,250822
26.200,159282,552,250846
26.205,159276,553,250838
26.210,159294,554,250812
26.215,159296,554,250830
26.220,159292,559,250824
26.225,159308,560,250807
26.229,159299,550,250839
26.234,159310,550,250825
26.239,159304,551,250861
26.244,159314,551,250824
26.249,159299,551,250834
26.254,159322,553,250847
26.259,159319,553,250852
26.264,159330,555,250837
26.269,159328,550,250855
26.274,159323,551,250871
26.279,159339,549,250841
26.284,159351,549,250863
26.289,159352,550,250858
26.294,159345,550,250867
26.299,159360,548,250858
26.304,159362,550,250882
26.309,159364,549,250886
26.314,159370,221,250928
26.319,159384,316,250896
26.324,159381,341,250908
26.329,159363,354,250883
26.334,159386,364,250896
26.339,159401,369,250899
26.344,159395,376,250914
26.349,159410,382,250913
26.354,159396,387,250934
26.359,159405,390,250912
26.364,159401,385,250904
26.369,159379,391,250915
26.373,159379,395,250894
26.378,159361,397,250887
26.383,159332,404,250851
26.388,159337,396,250840
26.393,159312,400,250825
26.398,159285,402,250815
26.403,159269,404,250810
26.408,159265,407,250799
26.413,159257,414,250777
26.418,159229,414,250781
26.423,159218,688,250740
26.428,159220,653,250753
26.433,159207,634,250733
26.438,159187,620,250723
26.443,159182,614,250717
26.448,159164,606,250723
26.453,159181,602,250693
26.458,159164,588,250699
26.463,159143,590,250705
26.468,159137,586,250701
26.473,159130,583,250689
26.478,159124,579,250678
26.483,159117,580,250658
26.488,159094,579,250660
26.493,159116,579,250662
26.498,159107,574,250650
26.503,159089,566,250647
26.508,159078,559,250640
26.512,159067,574,250643
26.517,159065,563,250631
26.522,159065,564,250646
26.527,159073,564,250640
26.532,159067,562,250647
26.537,159046,559,250627
26.542,159055,560,250616
26.547,159053,559,250630
26.552,159063,559,250645
26.557,159055,557,250635
26.562,159057,555,250650
26.567,159060,554,250637
26.572,159078,555,250677
26.577,159082,553,250664
26.582,159076,555,250655
26.587,159076,555,250672
26.592,159079,554,250655
26.597,159082,552,250641
26.602,159079,553,250649
26.607,159078,553,250631
26.612,159069,547,250643
26.617,159065,546,250649
26.622,159054,546,250640
26.627,159074,546,250658
26.632,159059,545,250656
26.637,159067,553,250639
26.642,159075,552,250637
26.647,159071,551,250667
26.652,159065,550,250655
26.656,159073,541,250666
26.661,159086,543,250653
26.666,159070,541,250658
26.671,159078,542,250644
26.676,159068,548,250639
26.681,159062,549,250645
26.686,159066,548,250644
26.691,159060,548,250661
26.696,159067,545,250666
26.701,159060,545,250669
26.706,159078,539,250661
26.711,159084,540,250664
26.716,159081,537,250670
26.721,159092,538,250634
26.726,159101,546,250666
26.731,159084,546,250679
26.736,159077,544,250651
26.741,159084,543,250671
26.746,159067,544,250677
26.751,159102,544,250658
26.756,159089,536,250677
26.761,159112,536,250684
26.766,159109,543,250673
26.771,159111,543,250674
26.776,159124,541,250685
26.781,159124,540,250679
26.786,159121,539,250680
26.791,159113,539,250697
26.796,159116,539,250683
26.800,159136,536,250709
26.805,159127,535,250688
26.810,159117,534,250684
26.815,159133,533,250703
26.820,159138,532,250667
26.825,159140,540,250706
26.830,159140,539,250721
26.835,159146,538,250695
26.840,159145,536,250708
26.845,159156,537,250731
26.850,159162,539,250698
26.855,159173,530,250729
26.860,159183,538,250746
26.865,159183,539,250768
26.870,159199,538,250787
26.875,159202,530,250778
26.880,159209,528,250770
26.885,159205,529,250794
26.890,159225,538,250784
26.895,159231,537,250807
26.900,159243,530,250798
26.905,159245,529,250790
26.910,159249,531,250775
26.915,159233,529,250812
26.920,159244,528,250797
26.925,159252,528,250822
26.930,159260,537,250823
26.935,159246,537,250812
26.939,159257,535,250819
26.944,159251,534,250796
26.949,159259,528,250798
26.954,159236,528,250782
26.959,159219,527,250774
26.964,159200,527,250768
26.969,159190,528,250749
26.974,159171,526,250733
26.979,159167,527,250703
26.984,159151,527,250682
26.989,159127,528,250698
26.994,159119,528,250683
26.999,159109,530,250675
27.004,159105,531,250667
27.009,159096,530,250662
27.014,159081,530,250654
27.019,159066,530,250649
27.024,159069,529,250625
27.029,159043,529,250626
27.034,159039,528,250615
27.039,159023,527,250611
27.044,159008,528,250600
27.049,159009,530,250570
27.054,158989,533,250563
27.059,158993,531,250558
27.064,158994,531,250551
27.069,158993,530,250551
27.074,158978,531,250557
27.079,158954,529,250562
27.083,158965,530,250536
27.088,158949,529,250550
27.093,158950,530,250561
27.098,158939,522,250541
27.103,158964,523,250557
27.108,158944,522,250555
27.113,158931,523,250540
27.118,158927,519,250527
27.123,158932,520,250536
27.128,158920,520,250567
27.133,158933,521,250536
27.138,158923,518,250527
27.143,158933,517,250546
27.148,158923,523,250546
27.153,158946,523,250548
27.158,158947,521,250548
27.163,158953,524,250577
27.168,158953,523,250561
27.173,158949,524,250561
27.178,158949,524,250574
27.183,158959,526,250589
27.188,158977,526,250577
27.193,158960,522,250583
27.198,158982,520,250561
27.203,158967,523,250576
27.208,158972,523,250586
27.213,158961,523,250585
27.218,158972,521,250596
27.223,158957,522,250617
27.227,158974,523,250618
27.232,158972,523,250615
27.237,158975,522,250615
27.242,158979,509,250621
27.247,158977,522,250622
27.252,158988,523,250639
27.257,158994,523,250630
27.262,158983,524,250635
27.267,158983,524,250632
27.272,158970,524,250642
27.277,158970,524,250637
27.282,158975,524,250663
27.287,158963,525,250631
27.292,158977,517,250646
27.297,158988,517,250658
27.302,158987,517,250655
27.307,159000,516,250655
27.312,158996,517,250648
27.317,159009,278,250661
27.322,158999,304,250671
27.327,159006,320,250684
27.332,159012,331,250686
27.337,159022,340,250674
27.342,159022,351,250687
27.347,159038,356,250683
27.352,159028,361,250685
27.357,159040,365,250684
27.362,159035,367,250677
27.366,159035,370,250718
27.371,159048,373,250695
27.376,159039,375,250689
27.381,159038,378,250711
27.386,159052,379,250713
27.391,159055,380,250723
27.396,159057,383,250720
27.401,159074,387,250728
27.406,159070,390,250751
27.411,159094,393,250752
27.416,159086,394,250742
27.421,159088,676,250762
27.426,159105,632,250778
27.431,159112,604,250783
27.436,159128,594,250781
27.441,159121,580,250794
27.446,159147,574,250797
27.451,159137,570,250780
27.456,159136,564,250795
27.461,159147,560,250807
27.466,159158,558,250811
27.471,159157,556,250798
27.476,159159,555,250825
27.481,159164,552,250819
27.486,159142,550,250814
27.491,159188,548,250823
27.496,159184,547,250806
27.501,159183,544,250836
27.506,159187,545,250816
27.510,159198,544,250821
27.515,159195,543,250823
27.520,159204,542,250832
27.525,159201,533,250803
27.530,159193,536,250812
27.535,159190,538,250800
27.540,159186,537,250795
27.545,159178,538,250788
27.550,159155,539,250772
27.555,159133,539,250721
27.560,159113,537,250702
27.565,159105,527,250711
27.570,159071,526,250659
27.575,159067,526,250656
27.580,159043,524,250615
27.585,159037,528,250627
27.590,159016,528,250589
27.595,159004,528,250613
27.600,158986,527,250587
27.605,158976,527,250583
27.610,158970,527,250574
27.615,158963,527,250541
27.620,158951,526,250566
27.625,158930,527,250532
27.630,158930,532,250556
27.635,158920,521,250523
27.640,158912,521,250501
27.645,158908,521,250504
27.650,158907,521,250491
27.654,158891,522,250490
27.659,158896,520,250498
27.664,158884,522,250502
27.669,158897,522,250500
27.674,158886,522,250515
27.679,158895,517,250517
27.684,158883,517,250482
27.689,158872,518,250496
27.694,158874,518,250499
27.699,158875,517,250488
27.704,158865,518,250502
27.709,158871,519,250494
27.714,158864,519,250503
27.719,158859,518,250494
27.724,158854,517,250491
27.729,158871,522,250495
27.734,158879,522,250503
27.739,158878,521,250518
27.744,158888,521,250532
27.749,158902,513,250568
27.754,158901,512,250529
27.759,158906,512,250548
27.764,158920,512,250556
27.769,158911,512,250573
27.774,158914,512,250553
27.779,158899,514,250551
27.784,158910,515,250551
27.789,158910,516,250557
27.793,158901,517,250535
27.798,158912,516,250553
27.803,158908,517,250552
27.808,158919,518,250552
27.813,158904,519,250546
27.818,158903,518,250542
27.823,158933,510,250547
27.828,158915,512,250533
27.833,158902,514,250551
27.838,158912,512,250551
27.843,158922,514,250549
27.848,158909,513,250564
27.853,158924,513,250560
27.858,158928,512,250579
27.863,158943,514,250562
27.868,158920,513,250556
27.873,158929,515,250611
27.878,158924,506,250577
27.883,158946,507,250570
27.888,158946,507,250572
27.893,158949,509,250588
27.898,158960,508,250609
27.903,158953,510,250590
27.908,158959,509,250614
27.913,158964,510,250623
27.918,158967,507,250634
27.923,158956,516,250629
27.928,158989,510,250637
27.933,158992,510,250644
27.937,158993,508,250646
27.942,159011,509,250651
27.947,159001,510,250679
27.952,159016,511,250656
27.957,159018,510,250666
27.962,159018,511,250659
27.967,159018,512,250673
27.972,159041,509,250683
27.977,159012,509,250662
27.982,159026,511,250679
27.987,159027,511,250683
27.992,159024,512,250677
27.997,159028,510,250663
28.002,159022,503,250693
28.007,159037,505,250685
28.012,159053,505,250664
28.017,159056,503,250688
28.022,159057,509,250671
28.027,159056,509,250679
28.032,159068,511,250701
28.037,159073,510,250713
28.042,159083,511,250712
28.047,159080,503,250716
28.052,159099,503,250716
28.057,159105,501,250726
28.062,159115,502,250734
28.067,159106,498,250746
28.072,159114,506,250757
28.077,159117,507,250760
28.081,159126,508,250766
28.086,159140,508,250765
28.091,159133,510,250777
28.096,159151,507,250771
28.101,159154,509,250774
28.106,159155,501,250773
28.111,159150,502,250759
28.116,159147,501,250756
28.121,159117,505,250776
28.126,159120,505,250754
28.131,159114,507,250736
28.136,159082,505,250714
28.141,159088,507,250701
28.146,159060,507,250698
28.151,159041,509,250680
28.156,159019,498,250669
28.161,159029,501,250667
28.166,159009,512,250662
28.171,158990,505,250648
28.176,158984,506,250634
28.181,158995,507,250628
28.186,158968,507,250628
28.191,158977,507,250616
28.196,158958,497,250612
28.201,158965,498,250631
28.206,158945,499,250600
28.211,158938,500,250593
28.216,158952,503,250612
28.220,158936,505,250595
28.225,158940,506,250590
28.230,158936,507,250601
28.235,158942,507,250615
28.240,158931,497,250604
28.245,158935,500,250606
28.250,158942,500,250603
28.255,158935,500,250629
28.260,158926,500,250624
28.265,158931,497,250628
28.270,158930,498,250644
28.275,158928,498,250639
28.280,158923,499,250633
28.285,158941,499,250634
28.290,158925,501,250646
28.295,158918,500,250651
28.300,158941,502,250641
28.305,158934,503,250672
28.310,158947,504,250684
28.315,158966,497,250922
28.320,158960,274,250694
28.325,158968,297,250709
28.330,158961,313,250708
28.335,158980,324,250722
28.340,158956,332,250716
28.345,158971,340,250726
28.350,158972,347,250720
28.355,158972,351,250712
28.360,158977,343,250709
28.364,158984,357,250709
28.369,158984,350,250710
28.374,158968,352,250727
28.379,158970,356,250730
28.384,158970,358,250741
28.389,158973,363,250723
28.394,158972,363,250734
28.399,158973,365,250737
28.404,158973,367,250738
28.409,158989,373,250772
28.414,158988,377,250767
28.419,158973,379,250759
28.424,158978,644,250790
28.429,159006,607,250781
28.434,159013,588,250796
28.439,159009,576,250802
28.444,158996,560,250816
28.449,159017,553,250821
28.454,159031,548,250805
28.459,159011,548,250835
28.464,159037,543,250831
28.469,159044,542,250857
28.474,159038,539,250853
28.479,159046,535,250872
28.484,159055,534,250890
28.489,159056,532,250875
28.494,159060,529,250908
28.499,159059,528,250910
28.504,159070,526,250917
28.508,159084,519,250894
28.513,159086,518,250914
28.518,159089,516,250933
28.523,159093,516,250914
28.528,159104,517,250937
28.533,159105,516,250941
28.538,159102,514,250960
28.543,159112,514,250973
28.548,159128,514,250964
28.553,159121,513,251002
28.558,159125,516,250985
28.563,159145,517,250977
28.568,159141,517,251001
28.573,159151,518,251000
28.578,159145,506,251010
28.583,159156,507,251038
28.588,159163,505,251045
28.593,159172,507,251028
28.598,159188,505,251058
28.603,159195,506,251062
28.608,159210,510,251086
28.613,159221,511,251095
28.618,159217,511,251088
28.623,159228,512,251095
28.628,159230,502,251101
28.633,159240,501,251133
28.638,159227,500,251103
28.643,159255,500,251122
28.647,159250,501,251121
28.652,159241,505,251129
28.657,159216,509,251118
28.662,159222,499,251102
28.667,159205,500,251093
28.672,159192,501,251076
28.677,159180,499,251074
28.682,159170,499,251073
28.687,159163,500,251070
28.692,159143,501,251059
28.697,159132,499,251047
28.702,159091,506,251044
28.707,159130,497,251036
28.712,159103,496,251041
28.717,159085,495,251018
28.722,159105,497,251020
28.727,159095,496,251013
28.732,159087,499,251022
28.737,159080,498,250996
28.742,159072,501,251007
28.747,159068,501,251005
28.752,159055,496,251024
28.757,159063,496,251011
28.762,159055,498,251012
28.767,159064,498,251019
28.772,159054,500,250999
28.777,159038,499,250998
28.782,159040,501,251018
28.787,159043,500,251009
28.791,159043,502,251019
28.796,159037,501,251028
28.801,159039,496,251025
28.806,159036,495,251026
28.811,159056,496,251028
28.816,159043,494,251025
28.821,159031,494,251033
28.826,159042,494,251031
28.831,159049,495,251036
28.836,159032,493,251050
28.841,159053,495,251060
28.846,159065,495,251091
28.851,159054,492,251095
28.856,159067,491,251091
28.861,159063,492,251107
28.866,159079,492,251131
28.871,159091,495,251103
28.876,159085,493,251119
28.881,159087,496,251123
28.886,159105,497,251136
28.891,159094,498,251124
28.896,159073,489,251147
28.901,159077,488,251124
28.906,159104,489,251122
28.911,159100,491,251149
28.916,159098,489,251138
28.921,159109,490,251149
28.926,159094,492,251143
28.931,159097,493,251155
28.935,159102,491,251156
28.940,159108,494,251153
28.945,159072,483,251165
28.950,159104,491,251199
28.955,159123,490,251199
28.960,159118,492,251187
28.965,159128,492,251200
28.970,159135,494,251213
28.975,159132,493,251210
28.980,159145,495,251234
28.985,159132,487,251220
28.990,159143,487,251235
28.995,159148,490,251237
29.000,159147,492,251256
29.005,159159,492,251247
29.010,159173,486,251270
29.015,159170,486,251271
29.020,159176,487,251298
29.025,159185,489,251298
29.030,159204,492,251310
29.035,159198,491,251301
29.040,159202,493,251322
29.045,159221,488,251325
29.050,159215,492,251348
29.055,159225,491,251322
29.060,159216,492,251328
29.065,159217,493,251336
29.070,159229,484,251346
29.074,159241,483,251336
29.079,159239,485,251339
29.084,159250,484,251380
29.089,159247,479,251375
29.094,159258,482,251396
29.099,159263,482,251378
29.104,159259,483,251375
29.109,159281,482,251397
29.114,159274,482,251396
29.119,159277,484,251400
29.124,159297,485,251400
29.129,159285,486,251418
29.134,159295,487,251417
29.139,159311,487,251413
29.144,159324,485,251423
29.149,159314,487,251418
29.154,159324,488,251439
29.159,159323,489,251430
29.164,159336,490,251460
29.169,159346,492,251455
29.174,159354,481,251456
29.179,159351,480,251455
29.184,159348,482,251488
29.189,159353,472,251446
29.194,159334,488,251445
29.199,159317,487,251440
29.204,159318,491,251404
29.209,159293,483,251412
29.214,159284,485,251386
29.218,159275,485,251381
29.223,159257,488,251372
29.228,159258,482,251349
29.233,159220,480,251349
29.238,159223,485,251364
29.243,159224,486,251344
29.248,159218,486,251319
29.253,159210,487,251320
29.258,159204,488,251304
29.263,159192,490,251305
29.268,159189,481,251294
29.273,159172,481,251313
29.278,159170,482,251289
29.283,159167,483,251293
29.288,159159,488,251277
29.293,159148,480,251281
29.298,159147,479,251293
29.303,159143,479,251293
29.308,159137,481,251280
29.313,159152,243,251273
29.318,159137,276,251279
29.323,159125,294,251276
29.328,159134,305,251290
29.333,159129,315,251283
29.338,159150,315,251292
29.343,159134,327,251301
29.348,159143,331,251300
29.353,159136,337,251298
29.358,159132,339,251321
29.362,159132,342,251310
29.367,159121,346,251307
29.372,159137,349,251310
29.377,159129,351,251304
29.382,159131,354,251313
29.387,159151,349,251314
29.392,159155,351,251315
29.397,159159,353,251357
29.402,159155,355,251348
29.407,159162,357,251335
29.412,159176,360,251347
29.417,159149,671,251318
29.422,159168,597,251336
29.427,159158,574,251316
29.432,159149,558,251323
29.437,159162,553,251309
29.442,159170,548,251319
29.447,159155,532,251316
29.452,159152,527,251324
29.457,159135,524,251319
29.462,159166,522,251304
29.467,159149,520,251307
29.472,159155,517,251322
29.477,159153,514,251303
29.482,159157,518,251301
29.487,159176,509,251316
29.492,159175,509,251334
29.497,159169,507,251334
29.501,159179,509,251340
29.506,159181,508,251339
29.511,159189,509,251336
29.516,159171,507,251343
29.521,159179,497,251343
29.526,159193,497,251335
29.531,159179,499,251357
29.536,159197,497,251341
29.541,159188,498,251367
29.546,159198,497,251376
29.551,159218,499,251373
29.556,159196,495,251380
29.561,159227,496,251389
29.566,159217,497,251381
29.571,159217,498,251401
29.576,159216,495,251423
29.581,159223,490,251414
29.586,159222,490,251414
29.591,159239,490,251411
29.596,159252,489,251429
29.601,159269,490,251418
29.606,159232,489,251434
29.611,159268,490,251444
29.616,159264,488,251445
29.621,159263,488,251466
29.626,159272,488,251442
29.631,159274,493,251457
29.636,159270,491,251462
29.641,159291,491,251468
29.645,159292,491,251447
29.650,159302,493,251464
29.655,159302,491,251465
29.660,159297,492,251458
29.665,159305,482,251469
29.670,159313,483,251493
29.675,159316,489,251548
29.680,159328,487,251483
29.685,159330,488,251478
29.690,159330,490,251517
29.695,159326,488,251501
29.700,159339,480,251518
29.705,159348,482,251492
29.710,159369,482,251525
29.715,159374,481,251544
29.720,159369,482,251530
29.725,159362,487,251521
29.730,159374,482,251531
29.735,159371,482,251519
29.740,159364,484,251523
29.745,159349,485,251488
29.750,159345,486,251494
29.755,159319,486,251465
29.760,159308,489,251455
29.765,159280,477,251444
29.770,159277,479,251431
29.775,159261,483,251427
29.780,159252,485,251405
29.784,159243,486,251387
29.789,159236,487,251389
29.794,159213,476,251375
29.799,159221,477,251361
29.804,159201,478,251367
29.809,159200,479,251340
29.814,159183,480,251346
29.819,159187,480,251318
29.824,159175,485,251319
29.829,159168,475,251309
29.834,159172,477,251303
29.839,159168,475,251308
29.844,159148,478,251283
29.849,159157,477,251302
29.854,159132,477,251279
29.859,159128,479,251297
29.864,159117,480,251287
29.869,159129,481,251280
29.874,159116,474,251293
29.879,159112,472,251279
29.884,159094,484,251268
29.889,159124,474,251272
29.894,159112,472,251258
29.899,159113,473,251273
29.904,159109,474,251267
29.909,159100,475,251285
29.914,159102,475,251264
29.919,159127,475,251281
29.924,159110,479,251281
29.928,159108,481,251284
29.933,159124,480,251289
29.938,159115,483,251296
29.943,159133,472,251308
29.948,159136,474,251322
29.953,159140,472,251320
29.958,159150,474,251334
29.963,159148,474,251354
29.968,159122,474,251307
29.973,159141,478,251320
29.978,159138,477,251340
29.983,159143,481,251325
29.988,159152,472,251328
29.993,159150,472,251334
29.998,159155,474,251334
30.003,159154,475,251328
30.008,159153,476,251316
30.013,159161,476,251331
30.018,159147,471,251339
30.023,159164,472,251336
30.028,159172,474,251327
30.033,159168,474,251342
30.038,159170,475,251336
30.043,159167,476,251334
30.048,159155,477,251331
30.053,159169,478,251328
30.058,159173,477,251332
30.063,159178,479,251325
30.068,159176,474,251343
30.072,159176,475,251345
30.077,159185,475,251354
30.082,159198,477,251366
30.087,159188,477,251394
30.092,159196,478,251366
30.097,159196,478,251389
30.102,159217,479,251395
30.107,159223,469,251395
30.112,159230,466,251401
30.117,159223,475,251398
30.122,159256,474,251413
30.127,159240,475,251440
30.132,159248,475,251443
30.137,159255,475,251441
30.142,159251,475,251427
30.147,159242,474,251435
30.152,159271,477,251432
30.157,159268,476,251456
30.162,159256,468,251439
30.167,159281,477,251455
30.172,159270,476,251440
30.177,159261,466,251445
30.182,159276,467,251463
30.187,159274,469,251453
30.192,159281,471,251444
30.197,159288,471,251431
30.202,159306,472,251454
30.207,159293,475,251464
30.211,159313,467,251482
30.216,159322,472,251474
30.221,159323,472,251477
30.226,159329,472,251472
30.231,159322,473,251495
30.236,159333,472,251492
30.241,159330,471,251467
30.246,159352,472,251472
30.251,159351,472,251485
30.256,159362,469,251478
30.261,159371,476,251485
30.266,159366,476,251485
30.271,159362,466,251517
30.276,159391,466,251513
30.281,159388,466,251509
30.286,159397,467,251524
30.291,159406,467,251534
30.296,159396,465,251519
30.301,159406,467,251512
30.306,159399,467,251514
30.311,159416,229,251486
30.316,159360,272,251498
30.321,159356,292,251475
30.326,159347,304,251462
30.331,159331,300,251446
30.336,159340,305,251453
30.341,159315,312,251432
30.346,159296,317,251413
30.351,159289,323,251425
30.355,159279,326,251428
30.360,159274,327,251437
30.365,159283,330,251395
30.370,159263,334,251407
30.375,159251,335,251394
30.380,159252,339,251376
30.385,159234,342,251383
30.390,159233,345,251377
30.395,159243,345,251368
30.400,159239,349,251382
30.405,159239,350,251376
30.410,159235,352,251379
30.415,159226,351,251318
30.420,159227,590,251400
30.425,159239,563,251359
30.430,159230,551,251397
30.435,159239,540,251385
30.440,159240,525,251399
30.445,159243,521,251409
30.450,159237,519,251401
30.455,159240,506,251413
30.460,159237,511,251411
30.465,159241,511,251409
30.470,159243,501,251423
30.475,159246,500,251427
30.480,159236,501,251438
30.485,159239,502,251443
30.490,159249,493,251436
30.495,159247,493,251436
30.499,159254,496,251460
30.504,159270,491,251478
30.509,159266,493,251484
30.514,159290,492,251493
30.519,159304,485,251522
30.524,159309,486,251520
30.529,159312,487,251530
30.534,159323,486,251552
30.539,159309,491,251552
30.544,159340,482,251575
30.549,159320,484,251574
30.554,159326,478,251567
30.559,159348,480,251579
30.564,159342,483,251597
30.569,159338,485,251609
30.574,159338,476,251606
30.579,159345,478,251619
30.584,159373,480,251614
30.589,159362,484,251604
30.594,159365,475,251627
30.599,159359,478,251647
30.604,159378,474,251644
30.609,159376,476,251657
30.614,159385,476,251651
30.619,159399,480,251661
30.624,159395,472,251666
30.629,159405,476,251679
30.634,159408,476,251682
30.638,159414,479,251695
30.643,159424,481,251686
30.648,159436,473,251712
30.653,159437,477,251718
30.658,159436,469,251717
30.663,159463,470,251728
30.668,159462,474,251742
30.673,159464,474,251747
30.678,159467,477,251750
30.683,159486,470,251758
30.688,159480,472,251762
30.693,159480,474,251775
30.698,159484,474,251776
30.703,159502,472,251803
30.708,159507,475,251815
30.713,159516,475,251798
30.718,159520,467,251802
30.723,159529,470,251791
30.728,159517,473,251797
30.733,159531,473,251798
30.738,159536,466,251816
30.743,159542,468,251850
30.748,159534,475,251818
30.753,159552,466,251830
30.758,159558,467,251821
30.763,159554,470,251828
30.768,159570,474,251840
30.773,159572,467,251832
30.778,159571,468,251833
30.782,159569,471,251847
30.787,159591,474,251873
30.792,159582,465,251838
30.797,159614,471,251873
30.802,159592,475,251845
30.807,159620,467,251855
30.812,159613,468,251891
30.817,159633,472,251885
30.822,159632,464,251882
30.827,159634,466,251876
30.832,159640,467,251904
30.837,159648,469,251887
30.842,159663,471,251906
30.847,159664,471,251897
30.852,159655,471,251892
30.857,159677,465,251926
30.862,159676,465,251930
30.867,159694,469,251930
30.872,159695,469,251929
30.877,159688,472,251931
30.882,159697,463,251929
30.887,159705,465,251947
30.892,159701,467,251922
30.897,159686,466,251914
30.902,159681,470,251902
30.907,159665,463,251883
30.912,159637,466,251856
30.917,159628,470,251856
30.922,159620,463,251830
30.926,159601,466,251828
30.931,159594,469,251800
30.936,159570,462,251780
30.941,159579,464,251805
30.946,159554,466,251792
30.951,159548,468,251768
30.956,159540,461,251724
30.961,159543,463,251733
30.966,159518,467,251732
30.971,159507,471,251718
30.976,159508,463,251700
30.981,159500,465,251711
30.986,159495,467,251710
30.991,159477,463,251689
30.996,159465,464,251680
31.001,159471,467,251667
31.006,159461,471,251660
31.011,159455,461,251652
31.016,159452,462,251643
31.021,159444,466,251669
31.026,159430,468,251642
31.031,159432,460,251637
31.036,159429,462,251645
31.041,159438,469,251636
31.046,159432,462,251644
31.051,159409,464,251651
31.056,159398,467,251621
31.061,159401,458,251641
31.065,159404,463,251622
31.070,159406,464,251590
31.075,159404,467,251610
31.080,159393,458,251617
31.085,159391,461,251611
31.090,159382,467,251625
31.095,159395,467,251595
31.100,159411,458,251622
31.105,159409,461,251628
31.110,159407,463,251624
31.115,159418,464,251606
31.120,159410,467,251595
31.125,159413,459,251603
31.130,159398,460,251598
31.135,159393,461,251570
31.140,159397,461,251567
31.145,159390,463,251565
31.150,159391,465,251570
31.155,159402,465,251553
31.160,159387,457,251576
31.165,159395,458,251549
31.170,159404,461,251565
31.175,159407,462,251566
31.180,159399,464,251583
31.185,159395,460,251570
31.190,159384,462,251560
31.195,159402,464,251566
31.200,159405,467,251569
31.205,159416,457,251576
31.209,159422,461,251571
31.214,159395,463,251581
31.219,159402,466,251568
31.224,159418,456,251549
31.229,159410,458,251574
31.234,159411,464,251556
31.239,159421,457,251566
31.244,159419,461,251581
31.249,159426,463,251566
31.254,159420,465,251542
31.259,159425,458,251557
31.264,159445,459,251555
31.269,159431,461,251540
31.274,159437,463,251546
31.279,159447,465,251533
31.284,159438,460,251555
31.289,159452,462,251537
31.294,159438,465,251553
31.299,159454,458,251557
31.304,159458,459,251549
31.309,159496,222,251553
31.314,159462,269,251548
31.319,159467,276,251555
31.324,159464,291,251535
31.329,159478,303,251560
31.334,159465,302,251540
31.339,159489,312,251547
31.344,159484,319,251553
31.349,159483,314,251548
31.353,159489,319,251550
31.358,159481,327,251560
31.363,159511,332,251577
31.368,159500,337,251584
31.373,159530,332,251587
31.378,159517,336,251556
31.383,159523,334,251574
31.388,159525,339,251588
31.393,159543,343,251576
31.398,159546,351,251574
31.403,159563,342,251603
31.408,159549,347,251570
31.413,159543,351,251526
31.418,159568,580,251618
31.423,159565,553,251599
31.428,159575,542,251571
31.433,159591,524,251609
31.438,159584,521,251583
31.443,159585,518,251584
31.448,159598,507,251598
31.453,159594,504,251595
31.458,159586,505,251584
31.463,159590,496,251587
31.468,159598,495,251578
31.473,159604,495,251591
31.478,159606,490,251594
31.483,159583,492,251557
31.488,159578,494,251557
31.492,159567,484,251522
31.497,159545,487,251522
31.502,159521,489,251515
31.507,159520,479,251499
31.512,159505,481,251491
31.517,159497,484,251482
31.522,159493,485,251469
31.527,159490,482,251451
31.532,159477,475,251478
31.537,159467,478,251453
31.542,159459,481,251436
31.547,159445,474,251429
31.552,159443,475,251430
31.557,159419,478,251412
31.562,159428,471,251412
31.567,159416,472,251398
31.572,159414,474,251380
31.577,159384,469,251380
31.582,159387,472,251396
31.587,159381,473,251399
31.592,159387,475,251389
31.597,159379,467,251362
31.602,159382,469,251360
31.607,159364,471,251367
31.612,159348,472,251354
31.617,159356,465,251346
31.622,159355,469,251327
31.627,159345,475,251330
31.632,159356,463,251321
31.636,159338,466,251319
31.641,159318,468,251320
31.646,159331,467,251330
31.651,159314,469,251318
31.656,159321,472,251300
31.661,159322,464,251299
31.666,159315,467,251316
31.671,159324,474,251295
31.676,159329,461,251329
31.681,159331,462,251334
31.686,159354,461,251357
31.691,159355,461,251347
31.696,159365,461,251354
31.701,159351,462,251324
31.706,159361,464,251348
31.711,159354,463,251336
31.716,159349,465,251344
31.721,159348,459,251341
31.726,159341,462,251324
31.731,159363,462,251322
31.736,159353,462,251342
31.741,159350,463,251333
31.746,159355,464,251317
31.751,159348,464,251322
31.756,159347,464,251321
31.761,159344,466,251312
31.766,159354,468,251317
31.771,159348,461,251313
31.776,159339,463,251326
31.780,159360,463,251302
31.785,159362,463,251311
31.790,159360,463,251295
31.795,159358,465,251341
31.800,159353,466,251321
31.805,159354,458,251326
31.810,159363,458,251329
31.815,159355,460,251331
31.820,159363,465,251313
31.825,159367,467,251308
31.830,159353,456,251312
31.835,159377,458,251319
31.840,159369,458,251313
31.845,159365,460,251324
31.850,159368,460,251342
31.855,159380,460,251328
31.860,159383,462,251290
31.865,159392,463,251325
31.870,159388,460,251323
31.875,159372,459,251314
31.880,159376,461,251327
31.885,159379,463,251316
31.890,159385,463,251329
31.895,159392,465,251322
31.900,159385,455,251318
31.905,159379,456,251314
31.910,159395,456,251320
31.915,159408,461,251316
31.919,159392,455,251301
31.924,159407,455,251345
31.929,159404,456,251315
31.934,159425,456,251312
31.939,159411,457,251298
31.944,159400,458,251306
31.949,159419,459,251338
31.954,159414,459,251325
31.959,159430,459,251302
31.964,159400,452,251314
31.969,159422,463,251311
31.974,159426,463,251315
31.979,159433,455,251308
31.984,159434,456,251315
31.989,159436,456,251316
31.994,159444,456,251324
31.999,159450,456,251322
32.004,159454,458,251325
32.009,159455,458,251321
32.014,159459,454,251342
32.019,159472,456,251335
32.024,159473,456,251332
32.029,159481,456,251345
32.034,159462,456,251344
32.039,159471,457,251336
32.044,159463,458,251322
32.049,159436,459,251301
32.054,159423,459,251274
32.059,159400,460,251275
32.063,159374,452,251234
32.068,159378,454,251228
32.073,159340,454,251205
32.078,159347,453,251194
32.083,159333,455,251176
32.088,159318,455,251166
32.093,159312,456,251154
32.098,159294,457,251136
32.103,159289,457,251157
32.108,159258,459,251133
32.113,159260,451,251121
32.118,159255,453,251115
32.123,159251,453,251099
32.128,159228,453,251092
32.133,159214,453,251098
32.138,159219,454,251062
32.143,159211,455,251072
32.148,159212,455,251061
32.153,159192,454,251036
32.158,159185,459,251088
32.163,159173,451,251055
32.168,159167,452,251038
32.173,159163,450,251014
32.178,159146,451,251019
32.183,159159,453,251017
32.188,159152,454,251012
32.193,159154,453,251008
32.198,159130,453,251022
32.203,159146,450,251011
32.207,159078,457,251003
32.212,159109,457,250995
32.217,159118,457,251017
32.222,159113,458,250976
32.227,159122,458,251009
32.232,159131,456,250990
32.237,159126,456,250989
32.242,159132,456,251003
32.247,159126,457,251009
32.252,159143,456,250990
32.257,159150,452,251018
32.262,159137,455,251030
32.267,159140,456,251015
32.272,159158,454,250992
32.277,159149,456,251002
32.282,159140,457,251018
32.287,159134,457,251010
32.292,159143,455,251002
32.297,159136,455,251012
32.302,159138,455,251007
32.307,159140,185,251034
32.312,159144,251,251015
32.317,159134,270,251007
32.322,159140,294,251012
32.327,159144,301,251022
32.332,159139,305,251027
32.337,159135,311,251030
32.342,159146,315,251034
32.346,159148,322,251037
32.351,159152,323,251037
32.356,159152,319,251033
32.361,159148,322,251042
32.366,159175,325,251058
32.371,159166,327,251051
32.376,159163,330,251070
32.381,159168,331,251076
32.386,159166,333,251090
32.391,159172,333,251083
32.396,159191,336,251106
32.401,159189,339,251089
32.406,159203,345,251090
32.411,159199,346,251096
32.416,159211,582,251119
32.421,159214,553,251130
32.426,159208,535,251118
32.431,159221,522,251106
32.436,159222,515,251153
32.441,159216,509,251143
32.446,159231,505,251150
32.451,159238,505,251105
32.456,159232,495,251175
32.461,159246,493,251170
32.466,159268,489,251162
32.471,159251,486,251194
32.476,159269,485,251198
32.481,159287,482,251198
32.486,159264,482,251207
32.490,159294,480,251223
32.495,159301,480,251225
32.500,159283,474,251259
32.505,159301,472,251223
32.510,159293,472,251247
32.515,159315,473,251261
32.520,159332,472,251280
32.525,159316,473,251269
32.530,159334,473,251260
32.535,159328,474,251288
32.540,159346,475,251300
32.545,159345,465,251296
32.550,159338,468,251296
32.555,159355,468,251288
32.560,159366,469,251320
32.565,159370,469,251322
32.570,159370,468,251328
32.575,159387,470,251334
32.580,159383,470,251343
32.585,159382,461,251343
32.590,159383,460,251350
32.595,159388,463,251338
32.600,159364,464,251331
32.605,159347,464,251307
32.610,159348,463,251309
32.615,159329,463,251298
32.620,159326,463,251289
32.625,159310,466,251282
32.630,159296,466,251278
32.634,159295,456,251279
32.639,159271,456,251261
32.644,159263,456,251258
32.649,159258,459,251265
32.654,159244,458,251237
32.659,159244,458,251259
32.664,159217,456,251244
32.669,159213,455,251243
32.674,159221,456,251267
32.679,159209,454,251232
32.684,159184,456,251249
32.689,159186,456,251228
32.694,159185,451,251228
32.699,159173,454,251228
32.704,159178,454,251246
32.709,159169,454,251210
32.714,159148,453,251214
32.719,159158,454,251221
32.724,159134,453,251213
32.729,159157,452,251213
32.734,159117,453,251200
32.739,159156,452,251196
32.744,159125,457,251219
32.749,159129,458,251216
32.754,159125,460,251231
32.759,159116,458,251216
32.764,159111,460,251194
32.769,159108,458,251213
32.773,159123,456,251214
32.778,159097,457,251200
32.783,159101,457,251207
32.788,159106,457,251196
32.793,159122,449,251216
32.798,159103,459,251240
32.803,159110,460,251238
32.808,159138,459,251260
32.813,159124,458,251229
32.818,159127,459,251262
32.823,159135,460,251260
32.828,159123,458,251252
32.833,159128,455,251257
32.838,159132,457,251253
32.843,159135,449,251260
32.848,159135,448,251247
32.853,159140,447,251287
32.858,159131,448,251272
32.863,159135,448,251278
32.868,159143,449,251276
32.873,159148,448,251279
32.878,159142,448,251286
32.883,159133,449,251303
32.888,159136,449,251291
32.893,159135,453,251312
32.898,159133,451,251293
32.903,159141,455,251302
32.908,159150,453,251285
32.913,159139,450,251291
32.917,159137,453,251306
32.922,159150,451,251315
32.927,159156,451,251311
32.932,159138,450,251304
32.937,159141,455,251349
32.942,159169,457,251329
32.947,159152,456,251312
32.952,159163,455,251325
32.957,159161,456,251328
32.962,159172,455,251352
32.967,159163,454,251326
32.972,159174,452,251363
32.977,159197,451,251364
32.982,159183,450,251369
32.987,159160,453,251360
32.992,159190,452,251363
32.997,159179,451,251370
33.002,159196,450,251346
33.007,159190,450,251374
33.012,159189,447,251363
33.017,159205,448,251369
33.022,159215,446,251376
33.027,159203,446,251364
33.032,159214,444,251389
33.037,159201,448,251370
33.042,159224,448,251373
33.047,159225,449,251381
33.052,159218,446,251381
33.057,159228,447,251383
33.061,159227,446,251369
33.066,159231,446,251404
33.071,159240,446,251379
33.076,159235,446,251391
33.081,159250,446,251399
33.086,159260,445,251378
33.091,159251,444,251399
33.096,159258,446,251396
33.101,159258,445,251393
33.106,159263,446,251395
33.111,159266,443,251403
33.116,159292,445,251403
33.121,159278,446,251401
33.126,159279,445,251414
33.131,159275,442,251397
33.136,159292,449,251427
33.141,159281,449,251409
33.146,159302,448,251421
33.151,159304,446,251402
33.156,159303,446,251401
33.161,159307,445,251414
33.166,159310,445,251394
33.171,159307,442,251405
33.176,159297,443,251388
33.181,159289,443,251392
33.186,159269,448,251367
33.191,159263,446,251346
33.196,159247,446,251330
33.200,159238,446,251311
33.205,159217,445,251303
33.210,159195,443,251303
33.215,159199,443,251284
33.220,159183,443,251263
33.225,159158,444,251249
33.230,159151,433,251247
33.235,159138,448,251234
33.240,159115,449,251226
33.245,159112,450,251218
33.250,159093,448,251208
33.255,159093,448,251194
33.260,159069,448,251169
33.265,159060,448,251143
33.270,159051,447,251142
33.275,159046,448,251115
33.280,159021,442,251118
33.285,159016,443,251108
33.290,158995,442,251070
33.295,159013,444,251083
33.300,158994,443,251067
33.305,158976,445,251062
33.310,158983,248,251049
33.315,158984,268,251046
33.320,158959,282,251028
33.325,158956,288,251046
33.330,158951,291,251056
33.335,158926,294,251022
33.340,158940,311,251001
33.344,158919,315,251001
33.349,158914,316,251007
33.354,158913,318,250992
33.359,158921,321,250985
33.364,158906,323,250982
33.369,158908,324,250975
33.374,158905,325,251001
33.379,158905,333,251005
33.384,158914,334,250998
33.389,158914,334,251014
33.394,158925,334,251005
33.399,158921,335,251025
33.404,158925,335,251026
33.409,158931,336,251030
33.414,158922,582,251003
33.419,158923,541,251012
33.424,158933,521,251015
33.429,158923,511,250998
33.434,158918,502,251005
33.439,158925,495,250995
33.444,158918,488,251001
33.449,158922,482,251002
33.454,158925,488,251007
33.459,158915,486,250987
33.464,158923,483,251022
33.469,158926,480,251025
33.474,158926,482,250997
33.479,158936,469,251009
33.484,158926,468,251017
33.488,158925,465,251022
33.493,158914,465,251020
33.498,158933,463,251020
33.503,158913,463,250998
33.508,158930,462,251005
33.513,158922,459,251013
33.518,158926,460,251027
33.523,158948,463,251018
33.528,158950,462,250988
33.533,158933,460,251018
33.538,158944,459,251022
33.543,158942,458,251025
33.548,158950,458,251038
33.553,158939,457,251025
33.558,158951,456,251027
33.563,158949,456,251034
33.568,158957,455,251036
33.573,158962,458,251020
33.578,158965,458,251010
33.583,158946,456,251011
33.588,158959,456,251022
33.593,158965,452,251033
33.598,158983,454,251028
33.603,158951,454,251036
33.608,158981,454,251011
33.613,158982,452,251036
33.618,158982,451,251033
33.623,158979,455,251050
33.627,158981,454,251029
33.632,158995,452,251048
33.637,158999,453,251062
33.642,159004,452,251047
33.647,159005,451,251042
33.652,159026,450,251073
33.657,159022,448,251081
33.662,159017,447,251084
33.667,159046,446,251091
33.672,159043,449,251093
33.677,159031,448,251080
33.682,159033,449,251083
33.687,159040,447,251112
33.692,159044,447,251105
33.697,159051,447,251105
33.702,159057,448,251101
33.707,159065,447,251093
33.712,159062,447,251115
33.717,159081,449,251139
33.722,159074,452,251105
33.727,159075,452,251102
33.732,159082,442,251104
33.737,159089,442,251109
33.742,159093,442,251108
33.747,159094,442,251109
33.752,159090,441,251123
33.757,159099,441,251108
33.762,159098,442,251126
33.767,159072,440,251182
33.771,159102,440,251107
33.776,159095,441,251099
33.781,159089,440,251090
33.786,159073,440,251071
33.791,159039,449,251060
33.796,159029,450,251025
33.801,159001,449,251008
33.806,159004,448,250994
33.811,158979,447,251006
33.816,158968,440,250993
33.821,158956,441,250973
33.826,158937,440,250954
33.831,158942,439,250953
33.836,158920,439,250919
33.841,158898,438,250941
33.846,158900,440,250915
33.851,158898,437,250920
33.856,158865,448,250888
33.861,158873,447,250878
33.866,158847,441,250877
33.871,158844,438,250885
33.876,158840,440,250849
33.881,158831,440,250867
33.886,158829,441,250844
33.891,158821,440,250853
33.896,158807,443,250855
33.901,158804,444,250834
33.906,158792,448,250844
33.910,158803,438,250825
33.915,158783,443,250832
33.920,158789,444,250827
33.925,158782,447,250818
33.930,158767,435,250830
33.935,158764,439,250836
33.940,158771,441,250826
33.945,158759,445,250827
33.950,158771,445,250829
33.955,158759,435,250825
33.960,158752,436,250825
33.965,158756,436,250839
33.970,158754,435,250821
33.975,158765,436,250830
33.980,158750,437,250845
33.985,158762,439,250859
33.990,158783,439,250863
33.995,158786,441,250876
34.000,158788,441,250868
34.005,158800,442,250873
34.010,158793,430,250865
34.015,158780,438,250860
34.020,158796,441,250855
34.025,158788,441,250852
34.030,158784,442,250859
34.035,158790,444,250866
34.040,158785,435,250889
34.045,158777,438,250871
34.050,158794,440,250871
34.054,158787,444,250901
34.059,158811,438,250885
34.064,158814,442,250899
34.069,158799,443,250888
34.074,158818,434,250886
34.079,158799,435,250892
34.084,158814,437,250912
34.089,158813,436,250900
34.094,158821,440,250906
34.099,158822,440,250917
34.104,158828,443,250892
34.109,158838,431,250915
34.114,158831,442,250922
34.119,158813,445,250936
34.124,158833,435,250940
34.129,158836,435,250935
34.134,158851,434,250952
34.139,158852,437,250942
34.144,158847,438,250957
34.149,158855,437,250986
34.154,158858,440,250969
34.159,158866,436,250959
34.164,158871,436,250976
34.169,158885,438,250980
34.174,158873,440,250976
34.179,158883,440,250979
34.184,158902,442,250993
34.189,158892,431,250998
34.194,158885,433,251016
34.198,158889,436,251002
34.203,158908,436,251020
34.208,158904,440,251011
34.213,158926,442,251031
34.218,158911,431,251037
34.223,158930,434,251059
34.228,158937,435,251036
34.233,158949,436,251055
34.238,158947,439,251055
34.243,158955,442,251064
34.248,158965,432,251084
34.253,158975,430,251061
34.258,158953,440,251096
34.263,158979,442,251101
34.268,158978,432,251077
34.273,158983,435,251106
34.278,158993,437,251103
34.283,158992,440,251115
34.288,159002,439,251128
34.293,159010,442,251106
34.298,159014,432,251107
34.303,159015,436,251121
34.308,159036,241,251133
34.313,159043,266,251117
34.318,159029,282,251152
34.323,159048,280,251150
34.328,159041,287,251138
34.333,159060,295,251153
34.337,159056,301,251154
34.342,159056,310,251145
34.347,159063,314,251155
34.352,159062,310,251124
34.357,159068,316,251140
34.362,159060,322,251135
34.367,159064,325,251162
34.372,159070,329,251142
34.377,159075,318,251157
34.382,159058,323,251156
34.387,159064,325,251150
34.392,159042,328,251113
34.397,159029,332,251115
34.402,159017,328,251104
34.407,159013,331,251094
34.412,158984,590,251057
34.417,158979,541,251031
34.422,158967,520,251055
34.427,158962,509,251040
34.432,158943,501,251045
34.437,158939,486,251043
34.442,158926,483,251018
34.447,158941,480,251008
34.452,158905,476,250993
34.457,158907,475,250978
34.462,158888,473,250966
34.467,158887,471,250983
34.472,158873,471,250988
34.477,158876,471,250958
34.481,158858,459,250952
34.486,158844,459,250946
34.491,158850,458,250946
34.496,158848,462,250966
34.501,158860,463,250966
34.506,158853,454,250942
34.511,158837,452,250945
34.516,158837,453,250927
34.521,158839,452,250941
34.526,158829,453,250957
34.531,158835,451,250946
34.536,158824,453,250932
34.541,158817,453,250940
34.546,158826,446,250931
34.551,158817,447,250940
34.556,158801,448,250925
34.561,158816,449,250935
34.566,158804,449,250932
34.571,158805,452,250912
34.576,158801,453,250929
34.581,158799,444,250937
34.586,158819,444,250926
34.591,158811,444,250945
34.596,158824,451,250945
34.601,158825,452,250952
34.606,158839,441,250944
34.611,158839,440,250964
34.616,158831,440,250953
34.621,158831,441,250950
34.625,158835,442,250952
34.630,158836,443,250930
34.635,158827,443,250949
34.640,158829,445,250955
34.645,158833,440,250935
34.650,158845,440,250934
34.655,158845,442,250956
34.660,158841,443,250960
34.665,158849,445,250960
34.670,158838,446,250947
34.675,158843,448,250971
34.680,158859,438,250957
34.685,158845,439,250993
34.690,158863,439,250956
34.695,158854,446,250975
34.700,158852,435,250962
34.705,158868,435,250992
34.710,158852,436,250974
34.715,158871,437,250968
34.720,158876,439,250986
34.725,158859,441,250961
34.730,158868,442,250974
34.735,158866,446,250959
34.740,158878,439,250992
34.745,158882,441,250989
34.750,158874,441,250990
34.755,158877,445,251009
34.760,158894,434,251006
34.764,158886,437,251004
34.769,158899,436,251009
34.774,158898,439,251003
34.779,158907,441,251011
34.784,158913,444,251018
34.789,158919,434,251028
34.794,158913,438,251039
34.799,158926,438,251052
34.804,158936,441,251058
34.809,158932,442,251025
34.814,158936,433,251044
34.819,158942,433,251045
34.824,158946,436,251057
34.829,158955,437,251057
34.834,158969,439,251083
34.839,158972,435,251023
34.844,158963,441,251088
34.849,158972,430,251089
34.854,158969,433,251079
34.859,158984,436,251099
34.864,158972,439,251088
34.869,158987,439,251087
34.874,158993,442,251104
34.879,159023,431,251108
34.884,159019,432,251113
34.889,159023,442,251124
34.894,159023,433,251113
34.899,159008,434,251124
34.904,159036,435,251124
34.908,159009,435,251123
34.913,159040,437,251131
34.918,159045,440,251129
34.923,159052,430,251157
34.928,159060,430,251159
34.933,159061,433,251177
34.938,159090,438,251175
34.943,159087,441,251166
34.948,159105,429,251185
34.953,159103,432,251194
34.958,159107,433,251203
34.963,159109,436,251208
34.968,159122,439,251202
34.973,159118,430,251197
34.978,159113,430,251187
34.983,159106,435,251219
34.988,159093,438,251170
34.993,159076,438,251162
34.998,159057,429,251157
35.003,159063,431,251144
35.008,159038,430,251130
35.013,159023,433,251132
35.018,159029,435,251142
35.023,159012,437,251127
35.028,159005,439,251126
35.033,158967,432,251108
35.038,158985,433,251109
35.043,158992,435,251121
35.048,158972,435,251116
35.052,158970,437,251100
35.057,158980,439,251092
35.062,158981,429,251089
35.067,158972,427,251105
35.072,158964,429,251120
35.077,158962,430,251103
35.082,158959,436,251139
35.087,158955,436,251117
35.092,158958,428,251119
35.097,158952,429,251137
35.102,158973,432,251128
35.107,158955,431,251139
35.112,158965,433,251139
35.117,158958,435,251129
35.122,158969,437,251141
35.127,158952,427,251132
35.132,158933,437,251148
35.137,158962,427,251149
35.142,158964,430,251160
35.147,158974,431,251151
35.152,158958,432,251161
35.157,158964,434,251165
35.162,158959,435,251161
35.167,158962,437,251168
35.172,158972,427,251194
35.177,159003,428,251212
35.182,159015,435,251205
35.187,159023,435,251215
35.191,159020,427,251229
35.196,159010,429,251229
35.201,159014,431,251209
35.206,159024,433,251227
35.211,159014,436,251244
35.216,159020,426,251257
35.221,159018,428,251248
35.226,159034,430,251250
35.231,159015,436,251261
35.236,159029,426,251249
35.241,159031,428,251267
35.246,159030,429,251263
35.251,159033,432,251264
35.256,159036,435,251274
35.261,159048,423,251274
35.266,159049,426,251269
35.271,159052,428,251285
35.276,159093,433,251286
35.281,159052,426,251286
35.286,159054,425,251288
35.291,159054,426,251317
35.296,159062,429,251289
35.301,159074,432,251290
35.306,159079,235,251311
35.311,159064,264,251290
35.316,159059,267,251298
35.321,159073,279,251316
35.326,159068,293,251307
35.331,159087,287,251298
35.335,159083,294,251326
35.340,159087,300,251323
35.345,159098,304,251323
35.350,159100,308,251348
35.355,159093,314,251373
35.360,159112,319,251370
35.365,159108,324,251360
35.370,159129,313,251360
35.375,159132,322,251364
35.380,159136,326,251375
35.385,159132,330,251367
35.390,159142,320,251373
35.395,159140,324,251388
35.400,159161,327,251396
35.405,159156,330,251386
35.410,159168,332,251394
35.415,159153,576,251402
35.420,159158,534,251416
35.425,159184,514,251419
35.430,159189,493,251401
35.435,159195,486,251424
35.440,159196,482,251430
35.445,159212,479,251435
35.450,159209,474,251448
35.455,159220,474,251436
35.460,159213,472,251457
35.465,159235,461,251452
35.470,159236,459,251480
35.475,159231,463,251466
35.479,159234,462,251462
35.484,159239,464,251463
35.489,159245,452,251464
35.494,159268,451,251469
35.499,159261,452,251488
35.504,159255,455,251481
35.509,159262,455,251487
35.514,159266,455,251496
35.519,159248,443,251483
35.524,159263,450,251483
35.529,159280,450,251493
35.534,159271,452,251477
35.539,159251,439,251493
35.544,159258,443,251445
35.549,159241,443,251431
35.554,159220,444,251426
35.559,159219,446,251393
35.564,159190,448,251396
35.569,159190,441,251373
35.574,159169,446,251365
35.579,159151,448,251359
35.584,159152,437,251360
35.589,159143,436,251344
35.594,159141,439,251337
35.599,159114,441,251338
35.604,159127,443,251307
35.609,159114,444,251314
35.614,159099,433,251310
35.618,159097,436,251278
35.623,159089,434,251299
35.628,159079,434,251302
35.633,159083,437,251298
35.638,159082,439,251281
35.643,159068,442,251299
35.648,159071,432,251290
35.653,159064,433,251276
35.658,159054,434,251270
35.663,159061,433,251279
35.668,159051,440,251261
35.673,159045,430,251277
35.678,159048,431,251276
35.683,159043,433,251289
35.688,159051,433,251267
35.693,159048,436,251272
35.698,159058,437,251282
35.703,159057,429,251274
35.708,159038,429,251278
35.713,159040,434,251286
35.718,159038,440,251282
35.723,159038,430,251299
35.728,159046,431,251301
35.733,159065,434,251312
35.738,159062,435,251321
35.743,159077,437,251337
35.748,159089,438,251333
35.753,159086,429,251336
35.758,159099,429,251353
35.762,159108,430,251332
35.767,159099,435,251337
35.772,159098,427,251333
35.777,159105,428,251330
35.782,159099,430,251339
35.787,159109,430,251338
35.792,159103,432,251328
35.797,159113,436,251335
35.802,159113,438,251372
35.807,159117,427,251374
35.812,159119,432,251363
35.817,159122,434,251404
35.822,159138,427,251385
35.827,159127,429,251364
35.832,159132,433,251379
35.837,159134,436,251388
35.842,159144,429,251392
35.847,159142,430,251388
35.852,159151,434,251390
35.857,159166,425,251421
35.862,159162,430,251407
35.867,159153,425,251418
35.872,159156,428,251419
35.877,159181,430,251438
35.882,159183,433,251435
35.887,159190,434,251430
35.892,159168,425,251436
35.897,159178,426,251439
35.902,159184,428,251444
35.906,159195,428,251459
35.911,159212,435,251467
35.916,159208,424,251470
35.921,159219,426,251452
35.926,159226,425,251472
35.931,159219,427,251472
35.936,159213,430,251483
35.941,159244,432,251486
35.946,159246,432,251499
35.951,159235,423,251506
35.956,159250,424,251505
35.961,159261,430,251519
35.966,159257,430,251530
35.971,159264,433,251528
35.976,159293,424,251536
35.981,159286,425,251543
35.986,159278,425,251556
35.991,159287,428,251560
35.996,159314,431,251582
36.001,159299,433,251585
36.006,159338,423,251572
36.011,159324,433,251589
36.016,159344,423,251592
36.021,159324,425,251581
36.026,159344,427,251594
36.031,159350,428,251607
36.036,159368,432,251614
36.041,159369,423,251627
36.045,159367,425,251619
36.050,159385,428,251626
36.055,159377,423,251623
36.060,159389,426,251635
36.065,159388,427,251644
36.070,159405,429,251657
36.075,159394,433,251650
36.080,159401,423,251653
36.085,159415,424,251660
36.090,159417,427,251668
36.095,159420,429,251662
36.100,159413,434,251642
36.105,159397,427,251665
36.110,159399,429,251593
36.115,159381,431,251628
36.120,159378,421,251588
36.125,159353,423,251579
36.130,159337,425,251590
36.135,159319,428,251552
36.140,159303,431,251536
36.145,159289,421,251537
36.150,159272,431,251532
36.155,159269,432,251525
36.160,159251,422,251511
36.165,159258,423,251483
36.170,159236,425,251499
36.175,159230,428,251495
36.180,159212,430,251494
36.185,159216,420,251486
36.189,159213,421,251492
36.194,159213,424,251465
36.199,159215,426,251465
36.204,159215,420,251488
36.209,159198,423,251492
36.214,159198,426,251473
36.219,159180,429,251469
36.224,159178,420,251478
36.229,159206,422,251463
36.234,159199,423,251471
36.239,159184,425,251463
36.244,159179,426,251475
36.249,159183,436,251504
36.254,159188,427,251502
36.259,159184,432,251485
36.264,159177,421,251499
36.269,159192,422,251500
36.274,159187,424,251502
36.279,159189,428,251490
36.284,159185,429,251501
36.289,159195,419,251491
36.294,159205,421,251518
36.299,159209,428,251524
36.304,159212,233,251532
36.309,159222,250,251538
36.314,159229,267,251542
36.319,159234,279,251543
36.324,159241,288,251553
36.329,159236,297,251542
36.333,159226,290,251552
36.338,159235,297,251555
36.343,159236,304,251578
36.348,159255,297,251571
36.353,159244,312,251557
36.358,159235,318,251568
36.363,159252,310,251571
36.368,159239,314,251580
36.373,159264,318,251606
36.378,159261,323,251593
36.383,159269,328,251583
36.388,159260,318,251598
36.393,159266,325,251588
36.398,159271,332,251604
36.403,159280,324,251590
36.408,159250,594,251610
36.413,159286,530,251615
36.418,159287,509,251630
36.423,159280,495,251634
36.428,159302,489,251629
36.433,159294,474,251619
36.438,159301,472,251634
36.443,159306,469,251647
36.448,159318,462,251632
36.453,159320,460,251654
36.458,159316,461,251638
36.463,159322,462,251656
36.468,159327,449,251670
36.472,159343,450,251681
36.477,159351,451,251684
36.482,159341,453,251662
36.487,159357,443,251693
36.492,159354,467,251708
36.497,159359,450,251713
36.502,159353,451,251690
36.507,159373,440,251704
36.512,159375,439,251725
36.517,159381,443,251721
36.522,159385,444,251724
36.527,159390,445,251731
36.532,159393,446,251735
36.537,159401,435,251727
36.542,159420,441,251737
36.547,159416,441,251732
36.552,159418,445,251751
36.557,159440,434,251752
36.562,159435,436,251770
36.567,159440,437,251750
36.572,159437,438,251750
36.577,159445,440,251779
36.582,159449,433,251786
36.587,159464,432,251789
36.592,159466,439,251798
36.597,159470,439,251795
36.602,159474,431,251820
36.607,159483,430,251818
36.612,159495,433,251808
36.616,159485,434,251822
36.621,159501,437,251807
36.626,159501,437,251824
36.631,159508,429,251811
36.636,159526,430,251844
36.641,159518,438,251829
36.646,159533,436,251845
36.651,159536,438,251845
36.656,159532,436,251857
36.661,159530,435,251854
36.666,159531,434,251844
36.671,159527,434,251824
36.676,159527,433,251827
36.681,159507,433,251811
36.686,159504,432,251797
36.691,159476,432,251781
36.696,159461,433,251771
36.701,159460,434,251775
36.706,159432,431,251744
36.711,159441,434,251734
36.716,159433,433,251722
36.721,159419,433,251708
36.726,159404,431,251721
36.731,159385,431,251709
36.736,159370,436,251682
36.741,159392,425,251697
36.746,159367,423,251678
36.751,159336,424,251676
36.756,159344,423,251659
36.760,159343,423,251643
36.765,159329,433,251636
36.770,159335,433,251646
36.775,159321,433,251622
36.780,159312,433,251632
36.785,159299,423,251605
36.790,159291,423,251619
36.795,159294,424,251603
36.800,159298,427,251600
36.805,159286,426,251587
36.810,159292,429,251611
36.815,159290,429,251589
36.820,159286,430,251600
36.825,159278,428,251586
36.830,159282,428,251599
36.835,159263,422,251585
36.840,159268,423,251581
36.845,159283,423,251598
36.850,159275,423,251583
36.855,159266,423,251581
36.860,159267,423,251587
36.865,159278,423,251602
36.870,159268,422,251594
36.875,159278,423,251614
36.880,159278,425,251626
36.885,159286,429,251607
36.890,159303,431,251626
36.895,159306,430,251603
36.899,159294,431,251625
36.904,159286,429,251612
36.909,159295,431,251607
36.914,159286,432,251595
36.919,159298,421,251606
36.924,159285,431,251576
36.929,159295,431,251602
36.934,159287,428,251579
36.939,159291,428,251602
36.944,159291,426,251595
36.949,159278,426,251590
36.954,159279,425,251573
36.959,159273,425,251567
36.964,159280,424,251557
36.969,159278,424,251546
36.974,159274,424,251576
36.979,159263,425,251509
36.984,159279,421,251541
36.989,159273,421,251570
36.994,159275,420,251577
36.999,159284,422,251545
37.004,159300,421,251551
37.009,159281,420,251573
37.014,159292,420,251567
37.019,159285,421,251571
37.024,159289,419,251564
37.029,159348,425,251583
37.034,159290,419,251577
37.039,159314,419,251583
37.043,159308,430,251580
37.048,159319,429,251588
37.053,159307,430,251597
37.058,159339,429,251602
37.063,159325,429,251593
37.068,159335,429,251619
37.073,159336,417,251593
37.078,159346,421,251619
37.083,159351,421,251612
37.088,159343,420,251612
37.093,159365,420,251600
37.098,159360,419,251598
37.103,159366,418,251618
37.108,159380,417,251642
37.113,159374,417,251628
37.118,159377,418,251616
37.123,159367,417,251644
37.128,159394,421,251642
37.133,159400,421,251661
37.138,159400,421,251647
37.143,159404,420,251650
37.148,159414,419,251650
37.153,159418,419,251671
37.158,159416,422,251685
37.163,159429,421,251678
37.168,159423,420,251671
37.173,159425,417,251686
37.178,159443,427,251690
37.183,159433,428,251687
37.187,159463,417,251693
37.192,159463,418,251702
37.197,159466,419,251683
37.202,159469,418,251713
37.207,159477,419,251706
37.212,159489,419,251735
37.217,159482,420,251718
37.222,159485,421,251739
37.227,159503,416,251732
37.232,159493,417,251740
37.237,159505,420,251718
37.242,159490,420,251732
37.247,159489,419,251695
37.252,159485,421,251702
37.257,159461,424,251681
37.262,159437,426,251659
37.267,159418,427,251657
37.272,159421,402,251651
37.277,159409,420,251637
37.282,159389,423,251628
37.287,159386,425,251626
37.292,159378,424,251619
37.297,159364,426,251603
37.302,159366,220,251608
37.307,159351,244,251594
37.312,159343,260,251587
37.317,159332,271,251577
37.322,159335,284,251576
37.326,159306,290,251555
37.331,159306,297,251557
37.336,159301,302,251549
37.341,159294,307,251540
37.346,159291,296,251546
37.351,159288,302,251521
37.356,159272,306,251532
37.361,159270,309,251514
37.366,159276,313,251521
37.371,159317,313,251515
37.376,159267,317,251525
37.381,159265,319,251530
37.386,159266,321,251515
37.391,159263,325,251521
37.396,159253,327,251515
37.401,159254,330,251505
37.406,159270,332,251468
37.411,159250,538,251513
37.416,159243,511,251505
37.421,159250,491,251492
37.426,159241,479,251494
37.431,159254,475,251506
37.436,159269,470,251514
37.441,159256,467,251520
37.446,159272,464,251530
37.451,159270,463,251524
37.456,159279,450,251543
37.461,159281,450,251548
37.466,159273,446,251546
37.470,159271,451,251541
37.475,159290,449,251527
37.480,159286,449,251528
37.485,159264,447,251538
37.490,159277,448,251525
37.495,159264,436,251541
37.500,159283,437,251532
37.505,159265,435,251509
37.510,159280,434,251521
37.515,159265,438,251536
37.520,159276,440,251538
37.525,159271,438,251542
37.530,159269,439,251524
37.535,159285,440,251522
37.540,159296,440,251516
37.545,159283,439,251522
37.550,159291,428,251529
37.555,159298,430,251543
37.560,159283,431,251550
37.565,159298,433,251529
37.570,159306,435,251538
37.575,159297,436,251538
37.580,159325,437,251560
37.585,159316,436,251533
37.590,159313,437,251549
37.595,159310,437,251562
37.600,159310,425,251560
37.605,159314,425,251553
37.610,159328,424,251551
37.614,159329,428,251568
37.619,159332,428,251558
37.624,159335,427,251596
37.629,159339,428,251550
37.634,159343,428,251593
37.639,159345,427,251586
37.644,159339,426,251564
37.649,159361,426,251595
37.654,159354,427,251599
37.659,159361,427,251604
37.664,159364,432,251581
37.669,159376,433,251578
37.674,159367,422,251573
37.679,159375,422,251592
37.684,159380,423,251598
37.689,159378,423,251587
37.694,159399,424,251610
37.699,159398,424,251598
37.704,159390,422,251597
37.709,159404,422,251617
37.714,159402,427,251609
37.719,159415,428,251636
37.724,159440,429,251612
37.729,159439,430,251626
37.734,159431,430,251640
37.739,159446,429,251632
37.744,159438,428,251647
37.749,159446,429,251641
37.753,159453,429,251645
37.758,159458,423,251701
37.763,159468,423,251651
37.768,159479,423,251646
37.773,159472,424,251657
37.778,159475,425,251653
37.783,159491,423,251666
37.788,159484,423,251641
37.793,159485,423,251659
37.798,159486,426,251654
37.803,159490,425,251627
37.808,159472,420,251618
37.813,159466,427,251606
37.818,159453,427,251615
37.823,159427,426,251582
37.828,159409,425,251564
37.833,159411,426,251572
37.838,159396,425,251536
37.843,159386,425,251538
37.848,159384,424,251533
37.853,159370,424,251530
37.858,159360,418,251549
37.863,159343,420,251543
37.868,159369,419,251523
37.873,159345,421,251523
37.878,159339,420,251527
37.883,159316,419,251519
37.888,159336,418,251521
37.893,159317,420,251502
37.897,159313,419,251500
37.902,159320,419,251491
37.907,159306,423,251494
37.912,159308,422,251518
37.917,159308,422,251487
37.922,159299,423,251501
37.927,159316,423,251501
37.932,159289,422,251489
37.937,159298,421,251504
37.942,159282,421,251499
37.947,159276,421,251496
37.952,159277,422,251492
37.957,159262,426,251498
37.962,159289,427,251468
37.967,159279,425,251496
37.972,159269,424,251484
37.977,159261,424,251473
37.982,159272,423,251499
37.987,159280,423,251494
37.992,159269,423,251483
37.997,159282,422,251494
38.002,159284,423,251512
38.007,159305,414,251527
38.012,159305,414,251506
38.017,159306,415,251526
38.022,159317,416,251533
38.027,159330,415,251549
38.032,159323,415,251558
38.036,159322,416,251543
38.041,159325,415,251541
38.046,159316,417,251541
38.051,159335,422,251546
38.056,159319,417,251543
38.061,159333,416,251529
38.066,159310,414,251548
38.071,159332,414,251533
38.076,159329,425,251532
38.081,159332,427,251538
38.086,159320,424,251549
38.091,159339,423,251551
38.096,159340,422,251562
38.101,159336,415,251563
38.106,159338,415,251563
38.111,159344,415,251554
38.116,159332,415,251551
38.121,159358,415,251577
38.126,159350,413,251575
38.131,159361,415,251589
38.136,159369,416,251568
38.141,159356,416,251575
38.146,159365,414,251586
38.151,159379,423,251597
38.156,159385,422,251597
38.161,159364,423,251604
38.166,159372,421,251575
38.171,159373,422,251612
38.176,159377,421,251619
38.180,159396,421,251601
38.185,159392,421,251609
38.190,159404,421,251620
38.195,159406,421,251624
38.200,159418,414,251621
38.205,159407,412,251612
38.210,159409,414,251640
38.215,159415,415,251651
38.220,159442,416,251647
38.225,159432,415,251645
38.230,159429,415,251652
38.235,159434,417,251651
38.240,159432,418,251655
38.245,159449,416,251666
38.250,159442,423,251674
38.255,159456,423,251669
38.260,159457,422,251673
38.265,159453,422,251659
38.270,159466,424,251693
38.275,159465,423,251657
38.280,159485,423,251685
38.285,159481,422,251680
38.290,159488,422,251670
38.295,159486,410,251696
38.300,159491,415,251871
38.305,159495,242,251698
38.310,159500,260,251696
38.315,159526,271,251732
38.320,159526,281,251729
38.324,159550,286,251728
38.329,159514,290,251724
38.334,159535,294,251733
38.339,159540,299,251733
38.344,159539,308,251735
38.349,159550,313,251725
38.354,159540,315,251720
38.359,159529,303,251720
38.364,159520,306,251696
38.369,159493,310,251666
38.374,159484,313,251666
38.379,159469,316,251670
38.384,159455,316,251663
38.389,159438,318,251633
38.394,159447,330,251645
38.399,159416,320,251623
38.404,159408,321,251607
38.409,159383,538,251600
38.414,159385,505,251584
38.419,159368,489,251578
38.424,159366,479,251566
38.429,159361,471,251551
38.434,159347,466,251539
38.439,159348,462,251568
38.444,159332,462,251558
38.449,159321,449,251534
38.454,159329,447,251528
38.459,159319,446,251522
38.463,159310,444,251515
38.468,159304,443,251501
38.473,159313,442,251502
38.478,159303,442,251532
38.483,159298,440,251501
38.488,159291,439,251521
38.493,159302,436,251522
38.498,159293,437,251517
38.503,159287,436,251513
38.508,159284,438,251505
38.513,159275,437,251506
38.518,159282,436,251514
38.523,159270,436,251485
38.528,159270,435,251505
38.533,159254,436,251517
38.538,159267,433,251556
38.543,159278,430,251502
38.548,159276,430,251487
38.553,159280,430,251517
38.558,159294,431,251507
38.563,159302,431,251518
38.568,159298,431,251515
38.573,159294,431,251518
38.578,159316,432,251534
38.583,159309,432,251530
38.588,159280,424,251551
38.593,159318,426,251519
38.598,159305,424,251565
38.603,159311,425,251525
38.607,159308,425,251544
38.612,159311,427,251528
38.617,159320,429,251543
38.622,159311,429,251547
38.627,159315,428,251541
38.632,159301,431,251557
38.637,159325,423,251551
38.642,159323,423,251554
38.647,159306,423,251557
38.652,159318,426,251566
38.657,159338,427,251552
38.662,159317,427,251561
38.667,159332,430,251585
38.672,159330,418,251583
38.677,159344,419,251578
38.682,159331,418,251575
38.687,159313,423,251573
38.692,159326,425,251573
38.697,159330,425,251565
38.702,159320,424,251579
38.707,159343,424,251569
38.712,159347,426,251602
38.717,159345,426,251571
38.722,159349,427,251594
38.727,159352,426,251608
38.732,159351,426,251610
38.737,159370,420,251615
38.742,159371,418,251609
38.747,159360,418,251617
38.751,159383,420,251623
38.756,159386,421,251635
38.761,159394,420,251637
38.766,159382,420,251636
38.771,159380,421,251623
38.776,159399,424,251639
38.781,159400,424,251648
38.786,159397,420,251631
38.791,159413,421,251640
38.796,159423,424,251666
38.801,159428,424,251641
38.806,159428,424,251657
38.811,159435,426,251677
38.816,159421,415,251677
38.821,159438,416,251686
38.826,159432,416,251700
38.831,159404,425,251696
38.836,159453,416,251691
38.841,159464,418,251688
38.846,159459,419,251712
38.851,159469,421,251697
38.856,159478,423,251707
38.861,159476,425,251718
38.866,159484,413,251708
38.871,159512,415,251722
38.876,159495,417,251729
38.881,159513,423,251739
38.886,159501,416,251739
38.890,159510,418,251728
38.895,159483,420,251701
38.900,159463,422,251700
38.905,159453,423,251679
38.910,159457,412,251690
38.915,159430,412,251669
38.920,159421,414,251657
38.925,159396,413,251642
38.930,159401,420,251655
38.935,159379,420,251652
38.940,159384,422,251624
38.945,159377,422,251603
38.950,159362,412,251625
38.955,159348,413,251610
38.960,159341,414,251600
38.965,159325,414,251597
38.970,159320,416,251576
38.975,159317,417,251574
38.980,159317,422,251584
38.985,159304,422,251570
38.990,159294,423,251564
38.995,159285,412,251562
39.000,159289,412,251557
39.005,159303,411,251549
39.010,159274,413,251564
39.015,159286,413,251552
39.020,159265,416,251551
39.025,159268,415,251551
39.030,159275,411,251581
39.034,159284,410,251571
39.039,159260,412,251574
39.044,159267,409,251560
39.049,159274,411,251575
39.054,159267,411,251580
39.059,159259,413,251566
39.064,159274,413,251560
39.069,159267,414,251570
39.074,159272,409,251577
39.079,159261,421,251600
39.084,159276,420,251589
39.089,159281,409,251622
39.094,159298,411,251617
39.099,159292,411,251623
39.104,159298,409,251625
39.109,159287,411,251624
39.114,159303,411,251648
39.119,159322,413,251627
39.124,159300,415,251648
39.129,159315,415,251644
39.134,159299,416,251652
39.139,159296,417,251630
39.144,159306,416,251647
39.149,159297,418,251657
39.154,159313,417,251654
39.159,159315,419,251657
39.164,159314,418,251655
39.169,159321,422,251642
39.174,159317,417,251668
39.178,159328,421,251643
39.183,159323,421,251659
39.188,159316,409,251654
39.193,159304,409,251648
39.198,159323,411,251656
39.203,159319,409,251669
39.208,159320,410,251685
39.213,159323,410,251681
39.218,159339,412,251673
39.223,159335,409,251700
39.228,159337,411,251702
39.233,159353,411,251703
39.238,159348,411,251724
39.243,159351,410,251696
39.248,159344,410,251724
39.253,159353,412,251716
39.258,159345,412,251727
39.263,159357,411,251735
39.268,159368,412,251746
39.273,159378,418,251744
39.278,159386,420,251769
39.283,159376,421,251758
39.288,159389,409,251765
39.293,159395,409,251756
39.298,159396,410,251736
39.303,159399,232,251800
39.308,159398,253,251775
39.313,159403,264,251774
39.317,159419,278,251812
39.322,159421,280,251762
39.327,159418,286,251791
39.332,159433,290,251799
39.337,159437,293,251809
39.342,159443,296,251793
39.347,159454,300,251815
39.352,159460,302,251821
39.357,159470,305,251834
39.362,159466,307,251849
39.367,159463,314,251841
39.372,159471,318,251870
39.377,159486,320,251852
39.382,159489,321,251849
39.387,159475,323,251858
39.392,159506,325,251865
39.397,159504,326,251875
39.402,159511,327,251885
39.407,159502,552,251879
39.412,159519,512,251882
39.417,159521,486,251900
39.422,159534,473,251922
39.427,159514,475,251890
39.432,159518,470,251889
39.437,159525,464,251880
39.442,159513,461,251863
39.447,159487,456,251846
39.452,159480,454,251817
39.457,159468,452,251831
39.461,159429,450,251827
39.466,159424,441,251789
39.471,159417,439,251793
39.476,159397,436,251781
39.481,159397,434,251776
39.486,159391,432,251787
39.491,159374,431,251758
39.496,159375,431,251775
39.501,159370,430,251778
39.506,159346,429,251745
39.511,159316,427,251728
39.516,159337,431,251754
39.521,159330,431,251752
39.526,159318,429,251724
39.531,159298,428,251725
39.536,159303,427,251743
39.541,159297,425,251703
39.546,159289,424,251718
39.551,159283,425,251702
39.556,159281,424,251699
39.561,159287,423,251660
39.566,159267,425,251709
39.571,159281,424,251715
39.576,159254,424,251713
39.581,159276,425,251702
39.586,159257,422,251705
39.591,159261,423,251707
39.596,159279,422,251715
39.601,159241,422,251710
39.605,159259,421,251712
39.610,159288,425,251688
39.615,159238,420,251700
39.620,159248,418,251729
39.625,159256,417,251732
39.630,159270,417,251734
39.635,159264,427,251726
39.640,159281,426,251760
39.645,159272,425,251750
39.650,159285,426,251742
39.655,159287,423,251766
39.660,159293,415,251751
39.665,159285,415,251759
39.670,159291,427,251751
39.675,159297,426,251760
39.680,159291,425,251744
39.685,159287,425,251749
39.690,159263,424,251740
39.695,159271,423,251739
39.700,159288,423,251746
39.705,159282,421,251742
39.710,159285,426,251747
39.715,159276,425,251748
39.720,159275,425,251786
39.725,159259,423,251761
39.730,159277,423,251746
39.735,159278,422,251740
39.740,159278,421,251750
39.744,159268,420,251752
39.749,159272,420,251748
39.754,159267,414,251737
39.759,159275,424,251729
39.764,159286,422,251765
39.769,159279,422,251753
39.774,159283,423,251765
39.779,159282,422,251755
39.784,159269,421,251754
39.789,159260,421,251746
39.794,159270,419,251719
39.799,159258,418,251718
39.804,159252,417,251694
39.809,159253,422,251694
39.814,159235,423,251688
39.819,159246,421,251686
39.824,159239,420,251668
39.829,159233,420,251660
39.834,159238,420,251689
39.839,159268,420,251697
39.844,159273,416,251733
39.849,159284,416,251742
39.854,159280,433,251745
39.859,159296,422,251725
39.864,159279,420,251728
39.869,159302,422,251727
39.874,159278,421,251724
39.879,159288,421,251726
39.884,159287,419,251737
39.888,159287,420,251735
39.893,159293,421,251733
39.898,159307,421,251735
39.903,159315,413,251734
39.908,159320,421,251762
39.913,159335,419,251766
39.918,159342,419,251768
39.923,159348,416,251785
39.928,159340,417,251783
39.933,159354,417,251776
39.938,159360,418,251808
39.943,159371,416,251790
39.948,159362,416,251833
39.953,159385,412,251768
39.958,159389,410,251828
39.963,159394,422,251853
39.968,159403,420,251833
39.973,159414,419,251843
39.978,159395,419,251848
39.983,159400,415,251862
39.988,159381,416,251804
39.993,159371,415,251825
39.998,159353,415,251802
40.003,159347,419,251800
40.008,159343,419,251786
40.013,159331,418,251757
40.018,159306,417,251783
40.023,159297,415,251762
40.028,159297,413,251758
40.032,159273,412,251750
40.037,159273,411,251723
40.042,159251,410,251735
40.047,159256,408,251737
40.052,159237,414,251710
40.057,159224,414,251716
40.062,159204,412,251681
40.067,159198,411,251707
40.072,159182,411,251689
40.077,159193,411,251684
40.082,159172,410,251652
40.087,159167,408,251653
40.092,159156,410,251679
40.097,159170,415,251709
40.102,159150,413,251646
40.107,159133,412,251639
40.112,159123,411,251634
40.117,159144,411,251661
40.122,159124,410,251639
40.127,159142,409,251672
40.132,159141,409,251644
40.137,159153,420,251666
40.142,159142,419,251655
40.147,159102,411,251682
40.152,159147,411,251687
40.157,159133,412,251675
40.162,159141,410,251676
40.167,159138,410,251712
40.171,159142,410,251693
40.176,159149,410,251718
40.181,159182,410,251721
40.186,159154,410,251736
40.191,159182,411,251743
40.196,159175,406,251734
40.201,159182,418,251734
40.206,159199,418,251749
40.211,159188,419,251766
40.216,159195,418,251771
40.221,159196,416,251771
40.226,159194,416,251776
40.231,159210,413,251755
40.236,159186,414,251760
40.241,159210,412,251788
40.246,159195,416,251772
40.251,159191,416,251789
40.256,159206,417,251776
40.261,159206,416,251786
40.266,159194,415,251789
40.271,159213,415,251803
40.276,159202,418,251784
40.281,159208,416,251801
40.286,159195,416,251773
40.291,159197,416,251792
40.296,159198,414,251777
40.301,159214,226,251765
40.306,159192,253,251773
40.311,159183,265,251775
40.315,159188,275,251769
40.320,159191,279,251745
40.325,159180,283,251752
40.330,159180,286,251750
40.335,159172,303,251750
40.340,159177,305,251744
40.345,159181,297,251746
40.350,159176,300,251746
40.355,159166,301,251720
40.360,159156,303,251719
40.365,159171,317,251731
40.370,159179,317,251728
40.375,159177,319,251698
40.380,159170,321,251708
40.385,159158,321,251713
40.390,159192,315,251690
40.395,159153,315,251689
40.400,159151,316,251687
40.405,159146,584,251652
40.410,159156,519,251662
40.415,159145,495,251635
40.420,159121,482,251628
40.425,159124,470,251616
40.430,159117,463,251612
40.435,159112,457,251585
40.440,159148,453,251573
40.445,159077,456,251524
40.450,159076,452,251521
40.455,159072,446,251526
40.459,159067,448,251505
40.464,159056,445,251499
40.469,159036,442,251453
40.474,159040,438,251446
40.479,159022,437,251397
40.484,159010,435,251394
40.489,159007,441,251373
40.494,158992,438,251354
40.499,158980,438,251329
40.504,158958,435,251314
40.509,158945,434,251291
40.514,158940,433,251259
40.519,158928,434,251240
40.524,158927,430,251237
40.529,158908,430,251204
40.534,158887,429,251166
40.539,158865,422,251146
40.544,158855,432,251110
40.549,158818,432,251071
40.554,158805,431,251013
40.559,158772,431,251008
40.564,158733,427,250946
40.569,158711,427,250919
40.574,158670,426,250885
40.579,158652,426,250860
40.584,158621,423,250819
40.589,158583,421,250777
40.594,158563,419,250731
40.598,158518,419,250709
40.603,158512,417,250680
40.608,158468,417,250639
40.613,158452,417,250597
40.618,158398,416,250537
40.623,158364,415,250504
40.628,158348,416,250445
40.633,158310,423,250408
40.638,158265,423,250381
40.643,158251,421,250331
40.648,158225,422,250314
40.653,158213,421,250281
40.658,158183,420,250246
40.663,158166,419,250215
40.668,158146,418,250199
40.673,158131,418,250172
40.678,158110,417,250143
40.683,158090,422,250113
40.688,158064,415,250096
40.693,158055,415,250079
40.698,158039,416,250048
40.703,158016,414,250036
40.708,158006,415,249994
40.713,157988,414,249947
40.718,157958,414,249926
40.723,157928,413,249903
40.728,157917,414,249870
40.733,157896,417,249851
40.738,157873,418,249822
40.742,157879,416,249786
40.747,157867,415,249787
40.752,157845,416,249748
40.757,157839,415,249714
40.762,157823,414,249700
40.767,157791,414,249651
40.772,157772,413,249603
40.777,157749,413,249543
40.782,157722,409,249491
40.787,157699,410,249451
40.792,157659,410,249396
40.797,157625,421,249350
40.802,157586,419,249288
40.807,157557,421,249231
40.812,157519,419,249164
40.817,157498,420,249136
40.822,157478,416,249096
40.827,157459,417,249041
40.832,157440,415,249001
40.837,157401,415,248962
40.842,157382,413,248931
40.847,157372,413,248902
40.852,157339,412,248861
40.857,157346,412,248843
40.862,157320,412,248835
40.867,157317,411,248800
40.872,157295,410,248777
40.877,157303,411,248744
40.882,157295,413,248763
40.886,157293,412,248766
40.891,157295,413,248750
40.896,157287,413,248736
40.901,157298,411,248717
40.906,157292,410,248723
40.911,157302,409,248739
40.916,157300,409,248734
40.921,157311,407,248736
40.926,157319,407,248747
40.931,157332,410,248753
40.936,157334,410,248785
40.941,157340,409,248797
40.946,157348,407,248820
40.951,157377,407,248826
40.956,157384,408,248854
40.961,157396,417,248880
40.966,157429,418,248882
40.971,157433,418,248893
40.976,157460,412,248936
40.981,157462,417,248949
40.986,157471,417,248964
40.991,157489,416,248992
40.996,157501,416,248999
41.001,157514,416,249020
41.006,157533,414,249055
41.011,157551,414,249065
41.016,157561,414,249106
41.021,157583,413,249138
41.025,157622,417,249149
41.030,157623,418,249170
41.035,157647,418,249208
41.040,157676,416,249232
41.045,157685,414,249268
41.050,157695,415,249283
41.055,157719,415,249304
41.060,157743,413,249336
41.065,157738,413,249356
41.070,157768,415,249376
41.075,157770,407,249386
41.080,157794,407,249415
41.085,157799,416,249433
41.090,157800,417,249430
41.095,157827,417,249452
41.100,157841,415,249489
41.105,157835,415,249486
41.110,157857,416,249506
41.115,157866,415,249542
41.120,157861,414,249525
41.125,157836,405,249508
41.130,157842,406,249516
41.135,157848,406,249520
41.140,157829,417,249521
41.145,157804,416,249536
41.150,157814,415,249525
41.155,157824,414,249526
41.160,157815,412,249551
41.165,157814,412,249542
41.169,157815,409,249561
41.174,157813,415,249559
41.179,157818,414,249567
41.184,157809,413,249574
41.189,157813,411,249586
41.194,157831,410,249583
41.199,157825,408,249580
41.204,157820,407,249582
41.209,157815,407,249599
41.214,157816,406,249605
41.219,157827,410,249615
41.224,157810,407,249622
41.229,157824,407,249640
41.234,157822,406,249623
41.239,157813,404,249655
41.244,157821,414,249649
41.249,157824,413,249653
41.254,157839,410,249640
41.259,157822,409,249649
41.264,157815,406,249653
41.269,157820,410,249650
41.274,157823,410,249658
41.279,157809,410,249640
41.284,157832,407,249649
41.289,157825,407,249629
41.294,157817,405,249649
41.299,157868,206,249645
41.304,157811,251,249657
41.309,157815,266,249645
41.313,157821,274,249641
41.318,157844,286,249663
41.323,157831,288,249684
41.328,157853,291,249667
41.333,157864,294,249688
41.338,157840,297,249668
41.343,157859,298,249700
41.348,157869,301,249702
41.353,157864,302,249666
41.358,157863,305,249682
41.363,157841,305,249678
41.368,157860,303,249673
41.373,157871,318,249690
41.378,157861,317,249687
41.383,157864,319,249665
41.388,157868,319,249658
41.393,157869,319,249655
41.398,157850,319,249661
41.403,157851,320,249650
41.408,157870,521,249662
41.413,157869,492,249638
41.418,157880,482,249675
41.423,157879,473,249679
41.428,157889,465,249690
41.433,157892,460,249708
41.438,157887,454,249698
41.443,157898,449,249719
41.448,157892,447,249709
41.452,157908,444,249706
41.457,157909,441,249734
41.462,157950,441,249732
41.467,157920,434,249705
41.472,157919,431,249736
41.477,157931,431,249715
41.482,157925,428,249729
41.487,157933,426,249721
41.492,157925,425,249704
41.497,157919,436,249711
41.502,157919,431,249700
41.507,157936,430,249683
41.512,157929,417,249712
41.517,157938,421,249723
41.522,157938,420,249678
41.527,157942,420,249708
41.532,157948,419,249711
41.537,157940,418,249690
41.542,157938,427,249691
41.547,157938,426,249688
41.552,157942,423,249677
41.557,157941,424,249676
41.562,157967,418,249690
41.567,157960,422,249686
41.572,157958,423,249693
41.577,157965,423,249665
41.582,157968,421,249684
41.587,157958,418,249680
41.592,157968,418,249647
41.596,157958,416,249651
41.601,157955,415,249642
41.606,157953,407,249638
41.611,157960,416,249606
41.616,157937,414,249603
41.621,157941,413,249589
41.626,157928,412,249578
41.631,157932,411,249562
41.636,157942,411,249575
41.641,157929,422,249557
41.646,157926,421,249554
41.651,157914,420,249508
41.656,157905,420,249502
41.661,157883,411,249442
41.666,157853,410,249407
41.671,157826,410,249348
41.676,157791,412,249295
41.681,157747,411,249249
41.686,157727,410,249215
41.691,157686,410,249158
41.696,157667,410,249106
41.701,157625,420,249087
41.706,157599,428,249027
41.711,157562,416,248970
41.716,157535,415,248923
41.721,157517,414,248866
41.726,157490,414,248842
41.731,157463,412,248775
41.736,157441,411,248747
41.740,157423,410,248701
41.745,157413,409,248682
41.750,157390,410,248665
41.755,157368,414,248622
41.760,157359,412,248619
41.765,157360,411,248613
41.770,157352,412,248602
41.775,157349,411,248590
41.780,157330,410,248594
41.785,157339,410,248585
41.790,157340,409,248590
41.795,157369,407,248626
41.800,157357,406,248610
41.805,157363,411,248650
41.810,157369,411,248657
41.815,157384,410,248700
41.820,157404,409,248711
41.825,157440,408,248760
41.830,157447,408,248798
41.835,157472,409,248809
41.840,157482,408,248869
41.845,157522,407,248906
41.850,157558,408,248965
41.855,157591,411,249031
41.860,157636,412,249064
41.865,157643,411,249107
41.870,157677,411,249164
41.875,157712,410,249208
41.879,157743,409,249254
41.884,157758,407,249310
41.889,157794,408,249335
41.894,157812,409,249384
41.899,157849,408,249423
41.904,157883,412,249472
41.909,157900,411,249520
41.914,157916,412,249545
41.919,157946,411,249594
41.924,157973,411,249627
41.929,157996,413,249656
41.934,158037,409,249717
41.939,158039,412,249760
41.944,158067,411,249793
41.949,158101,417,249807
41.954,158131,415,249847
41.959,158140,416,249894
41.964,158166,403,249950
41.969,158172,405,249988
41.974,158212,405,250003
41.979,158231,406,250067
41.984,158250,404,250072
41.989,158280,406,250106
41.994,158302,406,250133
41.999,158327,405,250194
42.004,158346,414,250240
42.009,158368,404,250276
42.014,158404,403,250330
42.019,158424,404,250376
42.023,158450,405,250417
42.028,158489,405,250447
42.033,158521,407,250533
42.038,158534,408,250571
42.043,158554,406,250629
42.048,158584,413,250669
42.053,158614,412,250708
42.058,158633,413,250733
42.063,158660,412,250785
42.068,158685,414,250819
42.073,158694,401,250846
42.078,158738,404,250878
42.083,158740,402,250918
42.088,158771,403,250955
42.093,158809,404,251009
42.098,158827,409,251043
42.103,158865,408,251097
42.108,158866,412,251142
42.113,158906,411,251198
42.118,158920,413,251246
42.123,158953,413,251262
42.128,158976,414,251291
42.133,158993,415,251317
42.138,159004,403,251342
42.143,159033,402,251379
42.148,159051,401,251397
42.153,159067,415,251427
42.158,159081,413,251448
42.162,159107,411,251480
42.167,159122,412,251498
42.172,159131,411,251519
42.177,159136,411,251552
42.182,159161,409,251556
42.187,159161,410,251590
42.192,159146,411,251614
42.197,159152,408,251582
42.202,159156,407,251608
42.207,159154,408,251607
42.212,159153,407,251642
42.217,159152,409,251628
42.222,159152,407,251661
42.227,159169,409,251666
42.232,159161,409,251693
42.237,159168,408,251685
42.242,159130,407,251687
42.247,159168,413,251716
42.252,159191,414,251711
42.257,159173,414,251727
42.262,159178,412,251751
42.267,159176,412,251754
42.272,159184,410,251778
42.277,159193,409,251778
42.282,159202,407,251764
42.287,159192,407,251808
42.292,159210,416,251792
42.297,159204,405,251818
42.302,159214,234,251827
42.306,159212,253,251829
42.311,159218,263,251849
42.316,159215,271,251840
42.321,159224,277,251854
42.326,159232,281,251854
42.331,159236,285,251883
42.336,159238,288,251882
42.341,159263,294,251908
42.346,159251,305,251897
42.351,159259,306,251932
42.356,159262,308,251936
42.361,159268,307,251944
42.366,159275,307,251964
42.371,159283,308,251981
42.376,159307,309,251988
42.381,159314,309,251996
42.386,159319,315,252018
42.391,159318,314,252030
42.396,159326,314,252045
42.401,159346,314,252040
42.406,159344,531,252045
42.411,159352,494,252049
42.416,159356,475,252049
42.421,159359,463,252073
42.426,159346,455,252075
42.431,159360,449,252099
42.436,159364,445,252083
42.441,159382,444,252088
42.446,159374,438,252097
42.450,159395,436,252099
42.455,159385,435,252126
42.460,159392,431,252122
42.465,159410,428,252131
42.470,159399,439,252125
42.475,159411,436,252155
42.480,159412,434,252162
42.485,159422,419,252159
42.490,159430,421,252185
42.495,159430,423,252172
42.500,159440,421,252179
42.505,159444,419,252167
42.510,159454,418,252195
42.515,159459,430,252185
42.520,159465,427,252190
42.525,159480,425,252190
42.530,159492,423,252235
42.535,159484,416,252241
42.540,159496,420,252232
42.545,159512,418,252265
42.550,159509,417,252252
42.555,159508,418,252261
42.560,159518,417,252263
42.565,159526,415,252277
42.570,159518,414,252294
42.575,159539,413,252289
42.580,159542,411,252296
42.585,159556,414,252296
42.589,159555,414,252307
42.594,159568,413,252329
42.599,159560,411,252314
42.604,159579,409,252334
42.609,159588,409,252334
42.614,159601,421,252344
42.619,159600,419,252334
42.624,159605,417,252349
42.629,159619,415,252358
42.634,159620,408,252351
42.639,159613,419,252377
42.644,159613,416,252353
42.649,159625,415,252351
42.654,159623,413,252358
42.659,159625,412,252344
42.664,159633,410,252390
42.669,159648,409,252391
42.674,159633,408,252376
42.679,159651,406,252403
42.684,159667,409,252426
42.689,159689,409,252409
42.694,159697,408,252418
42.699,159687,408,252428
42.704,159687,406,252421
42.709,159679,405,252431
42.714,159663,416,252369
42.719,159661,414,252400
42.724,159653,410,252387
42.729,159651,412,252365
42.733,159634,415,252388
42.738,159623,415,252390
42.743,159615,413,252409
42.748,159633,412,252372
42.753,159611,409,252368
42.758,159604,409,252392
42.763,159613,408,252377
42.768,159597,407,252378
42.773,159593,406,252378
42.778,159594,398,252373
42.783,159596,405,252368
42.788,159568,406,252381
42.793,159582,404,252366
42.798,159589,404,252384
42.803,159583,402,252371
42.808,159578,414,252359
42.813,159561,413,252385
42.818,159567,411,252377
42.823,159587,409,252359
42.828,159576,402,252393
42.833,159573,414,252382
42.838,159576,412,252397
42.843,159606,410,252397
42.848,159594,408,252408
42.853,159582,406,252411
42.858,159607,406,252404
42.863,159590,403,252423
42.868,159594,403,252431
42.873,159584,402,252407
42.877,159619,402,252413
42.882,159600,408,252420
42.887,159599,408,252430
42.892,159619,406,252461
42.897,159635,406,252459
42.902,159634,402,252472
42.907,159648,402,252484
42.912,159640,403,252466
42.917,159651,403,252497
42.922,159662,405,252487
42.927,159662,411,252508
42.932,159654,410,252510
42.937,159657,410,252502
42.942,159666,408,252498
42.947,159660,408,252498
42.952,159671,407,252510
42.957,159671,407,252530
42.962,159660,405,252508
42.967,159660,405,252501
42.972,159689,403,252489
42.977,159678,407,252525
42.982,159679,404,252520
42.987,159684,405,252534
42.992,159696,403,252528
42.997,159680,402,252534
43.002,159700,400,252538
43.007,159698,412,252534
43.012,159695,411,252525
43.016,159703,410,252535
43.021,159693,405,252535
43.026,159706,412,252547
43.031,159720,410,252542
43.036,159708,409,252526
43.041,159716,407,252549
43.046,159716,404,252568
43.051,159718,405,252535
43.056,159722,404,252549
43.061,159735,401,252561
43.066,159741,399,252554
43.071,159738,403,252567
43.076,159746,402,252554
43.081,159728,401,252547
43.086,159749,411,252559
43.091,159736,409,252567
43.096,159741,409,252553
43.101,159748,405,252579
43.106,159766,403,252575
43.111,159775,403,252601
43.116,159771,402,252598
43.121,159789,404,252614
43.126,159791,403,252612
43.131,159806,402,252626
43.136,159820,402,252617
43.141,159813,401,252627
43.146,159821,400,252616
43.151,159828,412,252625
43.156,159828,409,252645
43.160,159846,408,252648
43.165,159848,405,252671
43.170,159863,400,252665
43.175,159874,412,252673
43.180,159879,409,252669
43.185,159857,409,252662
43.190,159874,408,252669
43.195,159883,407,252689
43.200,159903,407,252692
43.205,159892,405,252679
43.210,159906,405,252707
43.215,159886,405,252697
43.220,159908,404,252720
43.225,159901,404,252683
43.230,159891,404,252679
43.235,159894,403,252692
43.240,159889,402,252675
43.245,159884,401,252646
43.250,159857,400,252632
43.255,159845,401,252642
43.260,159832,400,252616
43.265,159821,401,252604
43.270,159822,399,252606
43.275,159810,409,252609
43.280,159806,408,252593
43.285,159806,407,252577
43.290,159789,407,252601
43.295,159779,406,252582
43.300,159778,225,252579
43.304,159769,252,252574
43.309,159754,264,252569
43.314,159776,276,252563
43.319,159739,284,252545
43.324,159740,287,252559
43.329,159724,291,252539
43.334,159728,292,252523
43.339,159723,294,252541
43.344,159724,297,252529
43.349,159711,300,252524
43.354,159715,302,252524
43.359,159705,304,252519
43.364,159703,311,252511
43.369,159714,312,252514
43.374,159710,315,252521
43.379,159696,316,252494
43.384,159712,316,252520
43.389,159703,317,252514
43.394,159702,319,252504
43.399,159695,321,252491
43.404,159669,563,252510
43.409,159687,504,252486
43.414,159690,477,252505
43.419,159710,464,252505
43.424,159707,464,252518
43.429,159702,457,252530
43.434,159699,453,252496
43.439,159719,449,252526
43.443,159714,444,252521
43.448,159730,441,252557
43.453,159727,438,252544
43.458,159726,429,252525
43.463,159733,424,252514
43.468,159718,424,252516
43.473,159718,424,252508
43.478,159726,421,252511
43.483,159710,420,252512
43.488,159726,419,252503
43.493,159722,418,252492
43.498,159719,419,252516
43.503,159706,416,252481
43.508,159719,416,252490
43.513,159719,414,252484
43.518,159719,414,252466
43.523,159714,411,252486
43.528,159715,412,252480
43.533,159714,423,252479
43.538,159714,423,252485
43.543,159711,420,252491
43.548,159718,420,252478
43.553,159723,419,252495
43.558,159722,433,252493
43.563,159715,409,252503
43.568,159727,408,252492
43.573,159734,409,252530
43.578,159735,408,252518
43.583,159753,419,252530
43.587,159750,419,252540
43.592,159765,418,252534
43.597,159748,418,252555
43.602,159769,415,252565
43.607,159778,409,252555
43.612,159757,408,252563
43.617,159761,407,252590
43.622,159784,405,252582
43.627,159786,406,252585
43.632,159797,407,252603
43.637,159803,408,252578
43.642,159782,405,252588
43.647,159805,405,252605
43.652,159813,405,252610
43.657,159817,409,252602
43.662,159824,407,252625
43.667,159820,407,252617
43.672,159830,406,252620
43.677,159825,406,252618
43.682,159844,404,252651
43.687,159852,403,252627
43.692,159846,404,252634
43.697,159843,402,252625
43.702,159850,402,252641
43.707,159883,406,252642
43.712,159882,406,252645
43.717,159880,404,252667
43.722,159883,402,252683
43.727,159895,402,252664
43.731,159897,401,252654
43.736,159910,411,252665
43.741,159909,410,252670
43.746,159921,410,252664
43.751,159937,410,252679
43.756,159921,407,252687
43.761,159908,405,252658
43.766,159921,405,252649
43.771,159897,404,252638
43.776,159886,403,252618
43.781,159860,401,252590
43.786,159847,413,252571
43.791,159826,410,252578
43.796,159821,408,252560
43.801,159806,412,252577
43.806,159797,403,252526
43.811,159788,402,252500
43.816,159779,401,252507
43.821,159777,399,252509
43.826,159756,412,252487
43.831,159746,411,252488
43.836,159732,409,252457
43.841,159730,406,252476
43.846,159727,407,252461
43.851,159707,411,252438
43.856,159696,410,252427
43.861,159710,408,252443
43.866,159707,406,252428
43.870,159681,405,252415
43.875,159688,404,252410
43.880,159676,400,252409
43.885,159686,399,252391
43.890,159680,398,252409
43.895,159687,410,252421
43.900,159650,404,252385
43.905,159653,405,252382
43.910,159655,406,252394
43.915,159648,404,252380
43.920,159657,404,252396
43.925,159659,401,252372
43.930,159653,401,252377
43.935,159643,399,252361
43.940,159635,410,252364
43.945,159626,407,252356
43.950,159640,403,252349
43.955,159636,402,252354
43.960,159659,400,252353
43.965,159656,398,252362
43.970,159651,409,252368
43.975,159659,407,252370
43.980,159659,407,252351
43.985,159661,405,252379
43.990,159653,405,252354
43.995,159647,404,252347
44.000,159661,408,252339
44.005,159650,407,252313
44.010,159648,405,252343
44.014,159631,403,252328
44.019,159644,401,252348
44.024,159623,400,252311
44.029,159636,400,252298
44.034,159654,399,252305
44.039,159664,400,252307
44.044,159639,398,252310
44.049,159637,404,252308
44.054,159657,405,252316
44.059,159646,403,252319
44.064,159643,402,252309
44.069,159654,401,252315
44.074,159657,401,252323
44.079,159650,400,252306
44.084,159654,399,252310
44.089,159651,399,252301
44.094,159678,403,252305
44.099,159665,404,252317
44.104,159662,404,252302
44.109,159659,402,252312
44.114,159652,401,252305
44.119,159659,402,252295
44.124,159657,399,252296
44.129,159668,400,252289
44.134,159660,399,252279
44.139,159667,398,252287
44.144,159663,401,252297
44.149,159663,402,252286
44.154,159655,401,252292
44.158,159668,398,252307
44.163,159672,399,252287
44.168,159679,398,252284
44.173,159677,397,252290
44.178,159671,398,252279
44.183,159684,395,252272
44.188,159689,408,252301
44.193,159687,398,252304
44.198,159696,397,252294
44.203,159690,395,252311
44.208,159700,408,252305
44.213,159712,406,252309
44.218,159714,407,252323
44.223,159715,404,252292
44.228,159720,405,252323
44.233,159739,404,252315
44.238,159734,405,252326
44.243,159749,395,252344
44.248,159752,395,252337
44.253,159748,407,252345
44.258,159780,407,252367
44.263,159779,405,252357
44.268,159780,404,252362
44.273,159780,402,252374
44.278,159778,402,252384
44.283,159781,398,252393
44.288,159790,397,252404
44.293,159773,401,252379
44.297,159777,403,252370
44.302,159785,398,252360
44.307,159766,236,252370
44.312,159748,252,252349
44.317,159743,261,252340
44.322,159741,268,252325
44.327,159717,273,252334
44.332,159720,292,252331
44.337,159706,287,252301
44.342,159684,295,252330
44.347,159684,299,252288
44.352,159675,300,252310
44.357,159670,301,252293
44.362,159656,301,252294
44.367,159665,302,252274
44.372,159655,303,252280
44.377,159653,304,252273
44.382,159627,303,252274
44.387,159665,311,252281
44.392,159648,317,252303
44.397,159637,317,252283
44.402,159634,317,252299
44.407,159652,318,252288
44.412,159638,520,252298
44.417,159645,487,252309
44.422,159630,469,252324
44.427,159641,460,252342
44.432,159656,455,252331
44.437,159677,445,252319
44.441,159666,445,252374
44.446,159670,433,252366
44.451,159668,430,252377
44.456,159684,430,252374
44.461,159697,428,252395
44.466,159680,427,252396
44.471,159695,429,252406
44.476,159693,428,252422
44.481,159717,429,252437
44.486,159719,420,252471
44.491,159733,421,252479
44.496,159748,421,252499
44.501,159748,420,252520
44.506,159765,420,252529
44.511,159775,421,252515
44.516,159784,422,252537
44.521,159800,410,252554
44.526,159817,411,252560
44.531,159824,410,252580
44.536,159818,415,252596
44.541,159826,416,252596
44.546,159837,416,252614
44.551,159840,407,252615
44.556,159848,408,252639
44.561,159860,408,252656
44.566,159862,409,252672
44.571,159881,408,252675
44.576,159889,408,252718
44.581,159897,413,252667
44.585,159909,404,252719
44.590,159919,405,252723
44.595,159927,405,252768
44.600,159935,406,252791
44.605,159956,407,252801
44.610,159963,407,252805
44.615,159964,408,252843
44.620,159996,410,252850
44.625,159980,411,252841
44.630,160056,404,252878
44.635,159992,411,252887
44.640,160026,411,252913
44.645,160014,412,252913
44.650,160032,414,252947
44.655,160043,401,252944
44.660,160059,403,252997
44.665,160067,404,252983
44.670,160079,405,252992
44.675,160081,407,252996
44.680,160081,400,253018
44.685,160108,401,253017
44.690,160102,402,253048
44.695,160115,404,253042
44.700,160118,404,253065
44.705,160138,405,253079
44.710,160131,408,253060
44.715,160159,410,253099
44.720,160162,401,253102
44.724,160168,402,253134
44.729,160176,410,253135
44.734,160199,399,253173
44.739,160216,399,253172
44.744,160218,400,253182
44.749,160234,401,253205
44.754,160251,403,253233
44.759,160272,404,253256
44.764,160268,406,253255
44.769,160296,408,253286
44.774,160314,398,253304
44.779,160313,404,253317
44.784,160337,405,253332
44.789,160339,406,253337
44.794,160340,409,253337
44.799,160343,398,253364
44.804,160381,398,253349
44.809,160373,400,253402
44.814,160390,403,253403
44.819,160410,404,253418
44.824,160431,405,253435
44.829,160428,399,253474
44.834,160430,399,253476
44.839,160439,400,253468
44.844,160440,401,253477
44.849,160423,403,253467
44.854,160427,402,253473
44.859,160429,405,253473
44.864,160403,405,253459
44.868,160400,405,253473
44.873,160377,393,253469
44.878,160378,400,253478
44.883,160380,400,253477
44.888,160385,402,253505
44.893,160377,404,253497
44.898,160362,405,253488
44.903,160365,405,253498
44.908,160361,407,253494
44.913,160355,396,253513
44.918,160360,398,253514
44.923,160352,402,253506
44.928,160351,404,253522
44.933,160350,407,253520
44.938,160345,396,253503
44.943,160351,397,253523
44.948,160349,397,253527
44.953,160337,400,253526
44.958,160340,400,253515
44.963,160341,400,253537
44.968,160365,402,253551
44.973,160362,396,253543
44.978,160355,399,253555
44.983,160360,398,253580
44.988,160357,400,253596
44.993,160366,400,253610
44.998,160376,402,253601
45.003,160362,402,253615
45.008,160363,403,253600
45.012,160368,405,253622
45.017,160359,404,253619
45.022,160372,399,253655
45.027,160383,399,253653
45.032,160395,399,253646
45.037,160395,401,253667
45.042,160401,399,253675
45.047,160408,401,253686
45.052,160393,402,253688
45.057,160405,403,253673
45.062,160406,404,253675
45.067,160408,406,253683
45.072,160413,405,253692
45.077,160421,395,253682
45.082,160410,395,253663
45.087,160383,397,253668
45.092,160399,397,253666
45.097,160395,399,253646
45.102,160400,398,253663
45.107,160385,399,253677
45.112,160396,400,253644
45.117,160394,410,253656
45.122,160391,404,253668
45.127,160383,404,253646
45.132,160396,403,253655
45.137,160387,405,253666
45.142,160395,401,253655
45.147,160385,403,253666
45.151,160398,403,253644
45.156,160393,406,253647
45.161,160388,404,253646
45.166,160380,397,253630
45.171,160404,399,253631
45.176,160397,401,253633
45.181,160395,400,253646
45.186,160392,402,253632
45.191,160397,402,253636
45.196,160400,403,253652
45.201,160389,404,253639
45.206,160387,404,253635
45.211,160386,394,253635
45.216,160406,399,253652
45.221,160396,399,253664
45.226,160410,400,253660
45.231,160424,404,253667
45.236,160416,405,253680
45.241,160437,392,253683
45.246,160432,393,253697
45.251,160456,393,253713
45.256,160452,394,253696
45.261,160464,395,253737
45.266,160448,394,253743
45.271,160491,395,253774
45.276,160485,398,253754
45.281,160510,397,253778
45.286,160520,400,253791
45.291,160521,401,253821
45.295,160535,402,253871
45.300,160559,246,253821
45.305,160549,251,253837
45.310,160569,263,253831
45.315,160566,280,253838
45.320,160568,272,253838
45.325,160564,278,253833
45.330,160561,283,253858
45.335,160568,287,253846
45.340,160565,289,253832
45.345,160557,293,253817
45.350,160567,297,253816
45.355,160572,301,253805
45.360,160551,307,253809
45.365,160562,299,253808
45.370,160570,302,253816
45.375,160570,305,253809
45.380,160566,308,253772
45.385,160560,312,253782
45.390,160549,315,253792
45.395,160546,319,253751
45.400,160525,307,253736
45.405,160494,509,253704
45.410,160521,487,253674
45.415,160462,471,253647
45.420,160460,458,253646
45.425,160434,452,253617
45.430,160408,448,253614
45.435,160389,445,253583
45.439,160365,429,253575
45.444,160368,427,253555
45.449,160343,425,253548
45.454,160340,425,253538
45.459,160322,419,253506
45.464,160290,421,253500
45.469,160294,421,253493
45.474,160267,422,253473
45.479,160249,422,253438
45.484,160256,421,253420
45.489,160224,422,253407
45.494,160222,419,253408
45.499,160223,417,253409
45.504,160200,415,253388
45.509,160202,419,253376
45.514,160189,407,253389
45.519,160210,407,253388
45.524,160183,406,253346
45.529,160182,406,253359
45.534,160160,417,253352
45.539,160155,414,253329
45.544,160157,412,253322
45.549,160132,409,253344
45.554,160163,410,253312
45.559,160146,415,253327
45.564,160118,412,253301
45.569,160129,410,253293
45.574,160112,410,253309
45.578,160118,407,253304
45.583,160117,406,253306
45.588,160136,404,253312
45.593,160126,403,253334
45.598,160130,402,253326
45.603,160147,402,253355
45.608,160142,403,253310
45.613,160140,403,253330
45.618,160146,402,253316
45.623,160129,400,253317
45.628,160113,399,253305
45.633,160131,399,253309
45.638,160120,411,253314
45.643,160121,408,253311
45.648,160136,407,253322
45.653,160134,400,253329
45.658,160133,398,253312
45.663,160137,410,253352
45.668,160142,409,253301
45.673,160147,407,253284
45.678,160127,405,253311
45.683,160129,405,253289
45.688,160129,403,253302
45.693,160113,404,253279
45.698,160120,405,253281
45.703,160116,400,253273
45.708,160102,402,253295
45.713,160097,400,253284
45.718,160099,400,253265
45.722,160094,400,253245
45.727,160092,398,253244
45.732,160093,398,253255
45.737,160087,397,253232
45.742,160068,397,253242
45.747,160064,396,253203
45.752,160062,400,253197
45.757,160061,400,253184
45.762,160062,398,253191
45.767,160051,396,253184
45.772,160058,396,253217
45.777,160057,396,253194
45.782,160070,393,253203
45.787,160050,406,253194
45.792,160071,405,253194
45.797,160055,401,253190
45.802,160055,395,253187
45.807,160047,396,253200
45.812,160059,395,253173
45.817,160058,394,253193
45.822,160066,406,253188
45.827,160070,404,253193
45.832,160061,404,253186
45.837,160049,405,253201
45.842,160072,402,253173
45.847,160075,402,253191
45.852,160081,401,253186
45.857,160086,401,253206
45.862,160083,398,253221
45.866,160113,398,253197
45.871,160099,397,253217
45.876,160097,395,253198
45.881,160091,393,253191
45.886,160099,393,253181
45.891,160095,393,253171
45.896,160095,385,253166
45.901,160088,395,253163
45.906,160081,395,253159
45.911,160086,394,253140
45.916,160080,393,253136
45.921,160082,403,253151
45.926,160093,402,253124
45.931,160083,401,253123
45.936,160093,399,253134
45.941,160079,398,253140
45.946,160094,403,253134
45.951,160080,403,253094
45.956,160064,403,253098
45.961,160065,400,253082
45.966,160039,398,253053
45.971,160014,398,253017
45.976,159987,397,253016
45.981,159977,395,253004
45.986,159951,394,252991
45.991,159943,394,252971
45.996,159922,398,252972
46.001,159915,396,252935
46.005,159901,396,252938
46.010,159875,395,252912
46.015,159877,394,252897
46.020,159860,392,252914
46.025,159843,390,252900
46.030,159851,402,252896
46.035,159828,400,252870
46.040,159819,399,252857
46.045,159805,392,252851
46.050,159819,391,252853
46.055,159785,391,252828
46.060,159791,402,252833
46.065,159784,401,252829
46.070,159792,400,252840
46.075,159774,400,252806
46.080,159782,399,252807
46.085,159764,398,252813
46.090,159764,399,252822
46.095,159758,392,252811
46.100,159755,391,252811
46.105,159749,390,252797
46.110,159725,403,252794
46.115,159724,402,252787
46.120,159698,400,252778
46.125,159722,399,252751
46.130,159702,400,252740
46.135,159708,398,252742
46.140,159695,403,252784
46.145,159702,397,252734
46.149,159715,397,252739
46.154,159710,396,252766
46.159,159710,395,252751
46.164,159731,394,252747
46.169,159722,393,252753
46.174,159719,393,252745
46.179,159716,390,252744
46.184,159714,401,252734
46.189,159712,393,252724
46.194,159708,393,252711
46.199,159691,389,252693
46.204,159689,401,252682
46.209,159683,401,252683
46.214,159684,399,252681
46.219,159690,399,252670
46.224,159687,396,252671
46.229,159674,396,252668
46.234,159667,395,252654
46.239,159662,398,252643
46.244,159664,397,252639
46.249,159644,396,252614
46.254,159649,393,252623
46.259,159644,393,252599
46.264,159636,391,252599
46.269,159643,402,252592
46.274,159632,399,252614
46.279,159631,398,252601
46.284,159645,395,252595
46.289,159636,401,252589
46.293,159641,399,252587
46.298,159658,234,252587
46.303,159637,254,252583
46.308,159628,264,252563
46.313,159641,271,252551
46.318,159635,275,252532
46.323,159632,278,252545
46.328,159638,282,252541
46.333,159626,282,252529
46.338,159626,292,252534
46.343,159646,291,252530
46.348,159653,293,252537
46.353,159665,293,252584
46.358,159668,294,252565
46.363,159670,308,252568
46.368,159686,307,252581
46.373,159683,307,252602
46.378,159703,308,252614
46.383,159737,308,252627
46.388,159715,313,252655
46.393,159737,312,252664
46.398,159739,312,252655
46.403,159728,528,252666
46.408,159749,483,252689
46.413,159774,463,252683
46.418,159785,451,252676
46.423,159789,441,252681
46.428,159801,434,252716
46.432,159814,441,252732
46.437,159813,438,252707
46.442,159831,432,252729
46.447,159829,428,252748
46.452,159856,424,252754
46.457,159860,420,252771
46.462,159857,417,252765
46.467,159885,414,252790
46.472,159877,424,252798
46.477,159900,420,252789
46.482,159873,411,252806
46.487,159908,408,252800
46.492,159907,418,252814
46.497,159923,417,252813
46.502,159927,412,252812
46.507,159936,412,252829
46.512,159936,409,252835
46.517,159932,409,252848
46.522,159953,405,252868
46.527,159941,407,252806
46.532,159918,410,252836
46.537,159913,409,252807
46.542,159895,405,252802
46.547,159861,405,252780
46.552,159853,403,252778
46.557,159846,403,252767
46.562,159825,399,252736
46.567,159822,400,252733
46.572,159812,410,252723
46.576,159806,409,252709
46.581,159791,399,252708
46.586,159797,410,252748
46.591,159794,408,252730
46.596,159794,409,252732
46.601,159805,405,252757
46.606,159816,405,252771
46.611,159805,404,252776
46.616,159818,403,252769
46.621,159812,399,252770
46.626,159817,398,252757
46.631,159794,402,252760
46.636,159794,401,252766
46.641,159786,398,252747
46.646,159781,397,252767
46.651,159796,396,252786
46.656,159802,405,252791
46.661,159812,404,252823
46.666,159812,404,252843
46.671,159837,402,252887
46.676,159841,407,252965
46.681,159859,394,252953
46.686,159884,406,252976
46.691,159908,403,253005
46.696,159907,403,253040
46.701,159931,400,253072
46.706,159928,400,253099
46.711,159935,399,253080
46.715,159972,399,253106
46.720,159979,397,253129
46.725,159957,401,253136
46.730,159977,394,253148
46.735,159968,395,253137
46.740,159989,394,253154
46.745,159997,394,253174
46.750,159978,394,253176
46.755,159991,395,253199
46.760,160003,393,253189
46.765,160002,393,253211
46.770,160005,391,253238
46.775,160008,397,253235
46.780,160012,395,253225
46.785,160008,394,253246
46.790,160032,394,253261
46.795,160046,393,253303
46.800,160054,391,253309
46.805,160049,391,253345
46.810,160077,403,253318
46.815,160079,400,253350
46.820,160080,398,253359
46.825,160107,393,253358
46.830,160086,394,253372
46.835,160084,394,253345
46.840,160092,391,253347
46.845,160078,403,253322
46.850,160069,402,253298
46.855,160065,402,253322
46.859,160079,400,253316
46.864,160076,399,253302
46.869,160081,396,253298
46.874,160068,401,253299
46.879,160065,398,253270
46.884,160066,396,253264
46.889,160051,394,253247
46.894,160055,393,253251
46.899,160041,391,253245
46.904,160038,401,253239
46.909,160042,400,253240
46.914,160056,399,253230
46.919,160059,396,253226
46.924,160044,400,253215
46.929,160038,399,253224
46.934,160059,398,253219
46.939,160066,392,253244
46.944,160076,392,253237
46.949,160089,390,253258
46.954,160097,390,253251
46.959,160094,401,253247
46.964,160115,398,253258
46.969,160123,418,253245
46.974,160121,390,253263
46.979,160128,402,253270
46.984,160108,400,253263
46.989,160127,399,253266
46.994,160123,400,253259
46.999,160122,398,253268
47.003,160120,396,253268
47.008,160143,396,253271
47.013,160142,394,253277
47.018,160134,398,253293
47.023,160153,396,253301
47.028,160142,395,253292
47.033,160164,394,253318
47.038,160166,391,253317
47.043,160160,390,253321
47.048,160170,389,253306
47.053,160172,401,253301
47.058,160147,401,253276
47.063,160139,399,253279
47.068,160130,394,253282
47.073,160107,392,253271
47.078,160108,390,253274
47.083,160069,390,253235
47.088,160082,389,253259
47.093,160062,400,253248
47.098,160044,399,253263
47.103,160043,396,253254
47.108,160041,395,253249
47.113,160054,395,253214
47.118,160028,398,253246
47.123,160019,397,253258
47.128,160004,397,253229
47.133,159992,395,253213
47.138,159987,394,253208
47.142,159985,392,253241
47.147,159983,391,253210
47.152,159991,391,253243
47.157,159983,390,253231
47.162,159980,388,253260
47.167,159992,393,253256
47.172,160008,392,253275
47.177,159996,391,253284
47.182,159997,390,253290
47.187,159991,390,253328
47.192,160000,387,253309
47.197,160005,400,253350
47.202,160022,396,253356
47.207,160032,396,253378
47.212,160041,397,253437
47.217,160019,398,253421
47.222,160008,397,253415
47.227,160040,396,253418
47.232,160019,394,253407
47.237,160042,394,253442
47.242,160029,392,253433
47.247,160044,391,253471
47.252,160054,389,253464
47.257,160078,389,253472
47.262,160070,392,253456
47.267,160078,399,253512
47.272,160089,398,253518
47.277,160088,396,253540
47.282,160100,394,253548
47.286,160095,394,253545
47.291,160093,392,253549
47.296,160121,209,253568
47.301,160096,239,253554
47.306,160106,267,253575
47.311,160104,264,253606
47.316,160129,270,253607
47.321,160107,272,253598
47.326,160115,289,253627
47.331,160114,293,253602
47.336,160128,293,253625
47.341,160135,293,253627
47.346,160135,293,253636
47.351,160147,295,253638
47.356,160149,296,253628
47.361,160174,285,253645
47.366,160138,296,253640
47.371,160145,297,253663
47.376,160132,312,253636
47.381,160141,312,253640
47.386,160138,313,253662
47.391,160127,313,253642
47.396,160136,314,253640
47.401,160139,693,253611
47.406,160143,490,253659
47.411,160122,468,253632
47.416,160147,459,253629
47.421,160125,449,253623
47.426,160117,441,253626
47.430,160124,436,253630
47.435,160137,430,253633
47.440,160124,425,253623
47.445,160134,421,253617
47.450,160130,416,253617
47.455,160142,427,253600
47.460,160118,415,253604
47.465,160122,412,253600
47.470,160130,422,253577
47.475,160111,419,253573
47.480,160121,415,253548
47.485,160107,413,253532
47.490,160093,411,253554
47.495,160098,408,253537
47.500,160091,407,253516
47.505,160100,428,253555
47.510,160092,404,253518
47.515,160089,402,253499
47.520,160094,411,253503
47.525,160094,409,253513
47.530,160092,406,253483
47.535,160092,406,253470
47.540,160095,404,253486
47.545,160082,402,253479
47.550,160078,400,253460
47.555,160097,403,253451
47.560,160091,400,253434
47.565,160072,399,253440
47.569,160090,398,253446
47.574,160079,409,253425
47.579,160064,406,253415
47.584,160074,404,253401
47.589,160060,403,253368
47.594,160037,400,253347
47.599,160002,397,253331
47.604,159984,400,253290
47.609,159971,397,253290
47.614,159960,398,253268
47.619,159924,397,253247
47.624,159905,396,253219
47.629,159902,394,253202
47.634,159884,404,253173
47.639,159852,401,253170
47.644,159844,400,253147
47.649,159820,400,253138
47.654,159819,404,253117
47.659,159800,402,253112
47.664,159812,401,253092
47.669,159808,401,253088
47.674,159793,399,253080
47.679,159783,397,253063
47.684,159783,394,253064
47.689,159773,393,253074
47.694,159783,403,253055
47.699,159749,402,253061
47.704,159759,393,253060
47.709,159762,391,253056
47.713,159758,403,253051
47.718,159757,402,253055
47.723,159744,399,253038
47.728,159737,399,253053
47.733,159725,396,253020
47.738,159745,395,253010
47.743,159749,393,253025
47.748,159722,393,253009
47.753,159717,394,253016
47.758,159727,393,253020
47.763,159711,391,252993
47.768,159708,390,253000
47.773,159720,402,253001
47.778,159716,398,253002
47.783,159733,395,253009
47.788,159722,394,253015
47.793,159725,391,253011
47.798,159772,387,253024
47.803,159730,397,253027
47.808,159730,396,253021
47.813,159719,393,253027
47.818,159733,392,253016
47.823,159728,390,253030
47.828,159731,389,253007
47.833,159725,399,253017
47.838,159718,397,253007
47.843,159711,394,253018
47.848,159705,400,252998
47.853,159713,400,252994
47.857,159708,399,253003
47.862,159700,396,252996
47.867,159682,395,252969
47.872,159701,393,252971
47.877,159689,393,252973
47.882,159699,390,252980
47.887,159678,389,253001
47.892,159688,387,252990
47.897,159702,392,252989
47.902,159681,388,253000
47.907,159691,400,253014
47.912,159693,396,253009
47.917,159696,396,253001
47.922,159703,393,252996
47.927,159706,392,253013
47.932,159695,391,253022
47.937,159703,389,253022
47.942,159696,393,253014
47.947,159691,400,253030
47.952,159708,389,253029
47.957,159682,388,253002
47.962,159694,398,253018
47.967,159693,395,253015
47.972,159699,395,253010
47.977,159700,393,253016
47.982,159696,390,253018
47.987,159698,389,253017
47.992,159707,388,253004
47.996,159702,393,253031
48.001,159698,391,253015
48.006,159684,391,253032
48.011,159703,391,253022
48.016,159698,391,253009
48.021,159688,388,253022
48.026,159697,388,253019
48.031,159687,387,252998
48.036,159701,387,252989
48.041,159679,385,252989
48.046,159684,388,252989
48.051,159671,388,252992
48.056,159677,388,252987
48.061,159668,398,252948
48.066,159677,396,252973
48.071,159659,394,252957
48.076,159677,392,252955
48.081,159680,389,252982
48.086,159658,388,252982
48.091,159673,392,252988
48.096,159682,391,252995
48.101,159692,389,252992
48.106,159692,388,252981
48.111,159689,385,252987
48.116,159695,398,252988
48.121,159671,396,252992
48.126,159670,394,252995
48.131,159664,393,252980
48.136,159643,392,252985
48.140,159642,395,252963
48.145,159645,393,252941
48.150,159614,393,252928
48.155,159592,393,252942
48.160,159599,391,252932
48.165,159587,391,252943
48.170,159596,392,252886
48.175,159579,392,252907
48.180,159558,390,252905
48.185,159566,390,252923
48.190,159565,396,252887
48.195,159563,394,252909
48.200,159556,392,252887
48.205,159552,390,252884
48.210,159540,390,252894
48.215,159523,388,252879
48.220,159522,386,252896
48.225,159521,386,252904
48.230,159526,385,252880
48.235,159532,397,252867
48.240,159536,396,252886
48.245,159515,396,252872
48.250,159522,395,252880
48.255,159516,394,252891
48.260,159523,393,252868
48.265,159524,391,252880
48.270,159499,389,252888
48.275,159508,388,252909
48.280,159511,386,252879
48.284,159521,385,252867
48.289,159517,389,252906
48.294,159504,388,252891
48.299,159516,232,252911
48.304,159529,248,252911
48.309,159538,257,252932
48.314,159559,278,252947
48.319,159557,281,252957
48.324,159568,283,252984
48.329,159575,284,252989
48.334,159649,291,253006
48.339,159594,294,252996
48.344,159595,295,253015
48.349,159586,296,253020
48.354,159603,296,253011
48.359,159607,296,253026
48.364,159603,296,253038
48.369,159625,297,253043
48.374,159611,296,253046
48.379,159616,310,253069
48.384,159628,299,253042
48.389,159634,313,253060
48.394,159638,311,253084
48.399,159634,310,253073
48.404,159646,504,253095
48.409,159652,471,253107
48.414,159653,452,253097
48.419,159652,441,253103
48.423,159654,445,253110
48.428,159668,439,253120
48.433,159679,427,253138
48.438,159678,420,253147
48.443,159666,415,253148
48.448,159698,426,253150
48.453,159696,423,253167
48.458,159698,419,253152
48.463,159691,414,253174
48.468,159699,412,253167
48.473,159706,411,253150
48.478,159714,413,253169
48.483,159719,410,253194
48.488,159722,408,253230
48.493,159738,406,253208
48.498,159735,403,253225
48.503,159752,400,253241
48.508,159758,410,253244
48.513,159756,405,253264
48.518,159774,405,253279
48.523,159772,402,253272
48.528,159787,401,253299
48.533,159799,403,253324
48.538,159810,401,253304
48.543,159820,399,253338
48.548,159810,397,253320
48.553,159846,395,253349
48.558,159840,405,253395
48.563,159858,402,253412
48.567,159869,401,253420
48.572,159883,399,253427
48.577,159888,397,253475
48.582,159911,398,253462
48.587,159921,397,253492
48.592,159937,395,253500
48.597,159943,395,253522
48.602,159946,393,253527
48.607,159974,393,253546
48.612,159974,393,253555
48.617,159995,394,253559
48.622,159987,393,253582
48.627,160014,399,253593
48.632,160014,391,253621
48.637,160024,402,253607
48.642,160015,399,253619
48.647,160022,398,253625
48.652,160021,396,253629
48.657,160008,396,253622
48.662,160017,391,253606
48.667,159999,390,253618
48.672,159983,389,253613
48.677,159982,393,253595
48.682,159964,390,253597
48.687,159981,402,253597
48.692,159975,399,253599
48.697,159952,396,253598
48.702,159957,392,253629
48.707,159964,391,253633
48.711,159934,389,253623
48.716,159955,389,253617
48.721,159944,398,253623
48.726,159945,390,253651
48.731,159961,390,253671
48.736,159948,388,253666
48.741,159944,398,253660
48.746,159953,397,253683
48.751,159959,397,253667
48.756,159956,396,253698
48.761,159952,395,253696
48.766,159949,394,253684
48.771,159962,393,253700
48.776,159960,398,253710
48.781,159962,394,253707
48.786,159944,392,253730
48.791,159957,390,253740
48.796,159954,390,253740
48.801,159950,387,253736
48.806,159971,399,253747
48.811,159967,396,253743
48.816,159961,394,253760
48.821,159966,392,253776
48.826,159970,390,253759
48.831,159971,389,253774
48.836,159964,389,253786
48.841,159982,396,253774
48.846,160001,395,253809
48.850,160003,393,253828
48.855,160024,392,253848
48.860,160039,390,253864
48.865,160032,391,253867
48.870,160035,394,253884
48.875,160051,394,253896
48.880,160056,391,253911
48.885,160064,389,253912
48.890,160061,389,253912
48.895,160069,388,253905
48.900,160055,386,253930
48.905,160076,386,253922
48.910,160083,397,253924
48.915,160074,395,253966
48.920,160095,386,253954
48.925,160098,396,253971
48.930,160113,395,253975
48.935,160097,394,253984
48.940,160087,393,253992
48.945,160129,391,254001
48.950,160105,392,254009
48.955,160123,391,254017
48.960,160124,389,254033
48.965,160122,387,254041
48.970,160134,392,254043
48.975,160148,391,254033
48.980,160144,390,254057
48.985,160131,388,254050
48.990,160164,388,254063
48.994,160151,387,254075
48.999,160165,387,254097
49.004,160165,387,254088
49.009,160170,385,254093
49.014,160197,384,254124
49.019,160185,389,254136
49.024,160233,385,254170
49.029,160207,387,254184
49.034,160243,386,254211
49.039,160235,386,254185
49.044,160250,385,254194
49.049,160259,385,254226
49.054,160269,384,254228
49.059,160284,397,254236
49.064,160279,395,254247
49.069,160289,394,254264
49.074,160301,392,254274
49.079,160306,391,254321
49.084,160318,390,254304
49.089,160329,390,254308
49.094,160340,388,254343
49.099,160337,387,254312
49.104,160356,386,254366
49.109,160378,386,254354
49.114,160372,389,254412
49.119,160402,392,254382
49.124,160383,391,254387
49.129,160414,389,254408
49.134,160409,388,254416
49.138,160424,386,254421
49.143,160431,384,254425
49.148,160447,384,254422
49.153,160458,395,254462
49.158,160461,394,254463
49.163,160470,384,254498
49.168,160478,384,254492
49.173,160471,383,254487
49.178,160481,395,254476
49.183,160471,393,254496
49.188,160476,392,254479
49.193,160458,391,254462
49.198,160428,390,254472
49.203,160419,387,254432
49.208,160406,387,254440
49.213,160406,391,254431
49.218,160393,390,254416
49.223,160381,388,254411
49.228,160388,388,254403
49.233,160375,387,254406
49.238,160360,387,254415
49.243,160353,385,254410
49.248,160342,386,254395
49.253,160337,385,254412
49.258,160338,385,254393
49.263,160331,387,254401
49.268,160347,387,254378
49.273,160339,386,254396
49.277,160323,386,254401
49.282,160324,383,254385
49.287,160333,384,254405
49.292,160333,383,254400
49.297,160342,228,254395
49.302,160334,253,254408
49.307,160328,264,254401
49.312,160328,271,254417
49.317,160323,275,254420
49.322,160325,278,254442
49.327,160334,280,254435
49.332,160336,281,254426
49.337,160338,282,254456
49.342,160337,296,254440
49.347,160339,297,254466
49.352,160352,297,254462
49.357,160345,300,254503
49.362,160343,296,254486
49.367,160358,296,254473
49.372,160362,296,254494
49.377,160372,296,254512
49.382,160383,296,254519
49.387,160386,310,254551
49.392,160406,308,254515
49.397,160392,306,254538
