df_hash,22ZHK4.E6KA8L
device,HZ2X61
project_hash,29R7
project_name,istanbul_aydin_university
person_hash,29R7.3R25
person_label,v133
date_time_start,2026-04-07_18-35-30.996000_+03
date_time_start_unix,1775568930.996
date_time_end,2026-04-07_18-43-48.313000_+03
length_difference_noticed,no

time,ppg_med
5.272,470
5.297,540
5.322,651
5.347,711
5.372,688
5.397,663
5.422,728
5.447,846
5.472,891
5.497,818
5.522,741
5.547,782
5.572,891
5.597,898
5.622,742
5.647,577
5.672,568
5.697,649
5.722,590
5.747,313
5.772,23
5.797,-58
5.822,-21
5.847,-168
5.872,-599
5.897,-1044
5.922,-1213
5.947,-1220
5.972,-1460
5.997,-2062
6.022,-2671
6.047,-2913
6.072,-2938
6.097,-3248
6.122,-4007
6.147,-4758
6.172,-5027
6.197,-5000
6.222,-5319
6.247,-6184
6.272,-7019
6.297,-7223
6.322,-7034
6.347,-7257
6.372,-8141
6.397,-8963
6.422,-8972
6.447,-8467
6.472,-8452
6.497,-9241
6.522,-9929
6.547,-9581
6.572,-8573
6.597,-8157
6.622,-8727
6.647,-9155
6.672,-8278
6.697,-6562
6.722,-5580
6.747,-5826
6.772,-5895
6.797,-4322
6.822,-1696
6.847,-1
6.872,122
6.897,452
6.922,2856
6.947,6590
6.972,9100
6.997,9538
7.022,10196
7.047,13530
7.072,18588
7.097,21968
7.122,22486
7.147,23214
7.172,27565
7.197,32767
7.222,32767
7.247,32767
7.272,32767
7.297,32767
7.322,32767
7.347,32767
7.372,32767
7.397,32767
7.422,32767
7.447,32767
7.472,32767
7.497,32767
7.522,12677
7.547,-32768
7.572,-32768
7.597,-32768
7.622,-32768
7.647,-32768
7.672,-32768
7.697,-32768
7.722,-32768
7.747,-32768
7.772,-32768
7.797,-32768
7.822,-32768
7.847,-32768
7.872,-29971
7.897,-24234
7.922,-22302
7.947,-22273
7.972,-20233
7.997,-15554
8.022,-11292
8.047,-9790
8.072,-9711
8.097,-8187
8.122,-4732
8.147,-1630
8.172,-669
8.197,-835
8.222,93
8.247,2522
8.272,4676
8.297,5137
8.322,4673
8.347,5041
8.372,6604
8.397,8014
8.422,8170
8.447,7678
8.472,7912
8.497,9141
8.522,10277
8.547,10416
8.572,9980
8.597,9983
8.622,10581
8.647,10922
8.672,10387
8.697,9442
8.722,8981
8.747,9132
8.772,9164
8.797,8537
8.822,7596
8.847,7018
8.872,6851
8.897,6461
8.922,5423
8.947,4101
8.972,3175
8.997,2791
9.022,2462
9.047,1771
9.072,896
9.097,305
9.122,115
9.147,-18
9.172,-404
9.197,-920
9.222,-1222
9.247,-1215
9.272,-1137
9.297,-1207
9.322,-1349
9.347,-1348
9.372,-1165
9.397,-968
9.422,-890
9.447,-854
9.472,-724
9.497,-518
9.522,-393
9.547,-433
9.572,-531
9.597,-533
9.622,-429
9.647,-342
9.672,-355
9.697,-416
9.722,-425
9.747,-372
9.772,-334
9.797,-352
9.822,-371
9.847,-312
9.872,-180
9.897,-48
9.922,43
9.947,136
9.972,288
9.997,488
10.022,657
10.047,742
10.072,777
10.097,808
10.122,815
10.147,803
10.172,770
10.197,719
10.222,655
10.247,583
10.272,503
10.297,423
10.322,351
10.347,294
10.372,253
10.397,223
10.422,198
10.447,175
10.472,153
10.497,137
10.522,134
10.547,146
10.572,168
10.597,189
10.622,196
10.647,187
10.672,169
10.697,150
10.722,133
10.747,117
10.772,100
10.797,81
10.822,56
10.847,20
10.872,-23
10.897,-66
10.922,-96
10.947,-122
10.972,-165
10.997,-242
11.022,-338
11.047,-414
11.072,-435
11.097,-402
11.122,-348
11.147,-304
11.172,-268
11.197,-212
11.222,-117
11.247,6
11.272,126
11.297,222
11.322,297
11.347,367
11.372,440
11.397,508
11.422,555
11.447,572
11.472,555
11.497,508
11.522,440
11.547,376
11.572,343
11.597,352
11.622,386
11.647,410
11.672,407
11.697,384
11.722,363
11.747,352
11.772,336
11.797,294
11.822,229
11.847,162
11.872,117
11.897,102
11.922,105
11.947,118
11.972,138
11.997,166
12.022,191
12.047,204
12.072,205
12.097,207
12.122,225
12.147,254
12.172,271
12.197,259
12.222,223
12.247,179
12.272,143
12.297,116
12.322,95
12.347,83
12.372,87
12.397,106
12.422,124
12.447,121
12.472,95
12.497,57
12.522,22
12.547,-10
12.572,-47
12.597,-92
12.622,-138
12.647,-176
12.672,-205
12.697,-227
12.722,-234
12.747,-211
12.772,-149
12.797,-61
12.822,25
12.847,96
12.872,156
12.897,221
12.922,294
12.947,361
12.972,406
12.997,426
13.022,433
13.047,431
13.072,413
13.097,371
13.122,311
13.147,249
13.172,193
13.197,137
13.222,65
13.247,-23
13.272,-109
13.297,-174
13.322,-212
13.347,-229
13.372,-226
13.397,-194
13.422,-122
13.447,-16
13.472,102
13.497,205
13.522,280
13.547,332
13.572,380
13.597,441
13.622,528
13.647,640
13.672,761
13.697,863
13.722,919
13.747,920
13.772,879
13.797,822
13.822,773
13.847,749
13.872,755
13.897,789
13.922,834
13.947,869
13.972,877
13.997,862
14.022,839
14.047,817
14.072,779
14.097,695
14.122,546
14.147,350
14.172,144
14.197,-45
14.222,-217
14.247,-379
14.272,-525
14.297,-623
14.322,-648
14.347,-604
14.372,-527
14.397,-460
14.422,-419
14.447,-392
14.472,-362
14.497,-324
14.522,-286
14.547,-256
14.572,-228
14.597,-193
14.622,-146
14.647,-94
14.672,-48
14.697,-18
14.722,-6
14.747,-10
14.772,-21
14.797,-34
14.822,-50
14.847,-76
14.872,-117
14.897,-163
14.922,-196
14.947,-209
14.972,-216
14.997,-246
15.022,-303
15.047,-350
15.072,-320
15.097,-175
15.122,61
15.147,310
15.172,490
15.197,574
15.222,594
15.247,600
15.272,615
15.297,630
15.322,622
15.347,587
15.372,546
15.397,526
15.422,537
15.447,569
15.472,598
15.497,607
15.522,596
15.547,574
15.572,558
15.597,553
15.622,554
15.647,549
15.672,532
15.697,505
15.722,479
15.747,460
15.772,441
15.797,413
15.822,369
15.847,316
15.872,264
15.897,218
15.922,176
15.947,134
15.972,91
15.997,53
16.022,23
16.047,2
16.072,-13
16.097,-24
16.122,-34
16.147,-47
16.172,-71
16.197,-108
16.222,-147
16.247,-171
16.272,-167
16.297,-138
16.322,-97
16.347,-59
16.372,-27
16.397,1
16.422,34
16.447,68
16.472,98
16.497,115
16.522,120
16.547,120
16.572,128
16.597,151
16.622,184
16.647,216
16.672,235
16.697,241
16.722,244
16.747,254
16.772,269
16.797,282
16.822,284
16.847,278
16.872,272
16.897,273
16.922,277
16.947,277
16.972,272
16.997,269
17.022,273
17.047,284
17.072,294
17.097,297
17.122,294
17.147,285
17.172,269
17.197,243
17.222,214
17.247,196
17.272,206
17.297,243
17.322,290
17.347,321
17.372,326
17.397,315
17.422,302
17.447,297
17.472,295
17.497,288
17.522,275
17.547,259
17.572,240
17.597,215
17.622,187
17.647,168
17.672,169
17.697,190
17.722,216
17.747,226
17.772,211
17.797,179
17.822,146
17.847,116
17.872,85
17.897,46
17.922,4
17.947,-29
17.972,-48
17.997,-53
18.022,-53
18.047,-53
18.072,-56
18.097,-60
18.122,-64
18.147,-67
18.172,-66
18.197,-64
18.222,-69
18.247,-87
18.272,-107
18.297,-107
18.322,-65
18.347,18
18.372,117
18.397,198
18.422,249
18.447,282
18.472,319
18.497,365
18.522,405
18.547,426
18.572,428
18.597,423
18.622,424
18.647,425
18.672,417
18.697,395
18.722,364
18.747,335
18.772,312
18.797,290
18.822,265
18.847,237
18.872,210
18.897,184
18.922,158
18.947,128
18.972,101
18.997,80
19.022,69
19.047,61
19.072,51
19.097,39
19.122,26
19.147,17
19.172,8
19.197,-4
19.222,-28
19.247,-57
19.272,-75
19.297,-70
19.322,-34
19.347,23
19.372,86
19.397,142
19.422,189
19.447,236
19.472,286
19.497,336
19.522,376
19.547,397
19.572,405
19.597,410
19.622,424
19.647,448
19.672,473
19.697,493
19.722,509
19.747,522
19.772,533
19.797,539
19.822,540
19.847,541
19.872,542
19.897,540
19.922,523
19.947,485
19.972,431
19.997,374
20.022,325
20.047,280
20.072,229
20.097,166
20.122,94
20.147,21
20.172,-40
20.197,-82
20.222,-96
20.247,-79
20.272,-40
20.297,-1
20.322,16
20.347,12
20.372,2
20.397,7
20.422,30
20.447,53
20.472,61
20.497,52
20.522,44
20.547,54
20.572,83
20.597,120
20.622,156
20.647,186
20.672,213
20.697,231
20.722,237
20.747,229
20.772,218
20.797,209
20.822,203
20.847,191
20.872,171
20.897,145
20.922,118
20.947,89
20.972,53
20.997,13
21.022,-13
21.047,-12
21.072,16
21.097,58
21.122,91
21.147,106
21.172,110
21.197,112
21.222,113
21.247,109
21.272,90
21.297,58
21.322,17
21.347,-23
21.372,-61
21.397,-96
21.422,-129
21.447,-162
21.472,-184
21.497,-183
21.522,-146
21.547,-76
21.572,9
21.597,89
21.622,158
21.647,222
21.672,297
21.697,387
21.722,480
21.747,559
21.772,613
21.797,641
21.822,643
21.847,624
21.872,590
21.897,552
21.922,529
21.947,531
21.972,558
21.997,599
22.022,638
22.047,662
22.072,669
22.097,664
22.122,655
22.147,643
22.172,621
22.197,581
22.222,523
22.247,462
22.272,414
22.297,386
22.322,363
22.347,328
22.372,270
22.397,195
22.422,110
22.447,15
22.472,-95
22.497,-221
22.522,-349
22.547,-459
22.572,-545
22.597,-615
22.622,-676
22.647,-728
22.672,-759
22.697,-762
22.722,-748
22.747,-726
22.772,-697
22.797,-646
22.822,-559
22.847,-441
22.872,-314
22.897,-190
22.922,-65
22.947,76
22.972,237
22.997,398
23.022,539
23.047,652
23.072,751
23.097,847
23.122,929
23.147,976
23.172,980
23.197,961
23.222,949
23.247,960
23.272,984
23.297,1000
23.322,997
23.347,978
23.372,948
23.397,912
23.422,871
23.447,826
23.472,776
23.497,709
23.522,617
23.547,512
23.572,419
23.597,350
23.622,280
23.647,157
23.672,-42
23.697,-291
23.722,-523
23.747,-693
23.772,-805
23.797,-890
23.822,-963
23.847,-1011
23.872,-1029
23.897,-1039
23.922,-1067
23.947,-1109
23.972,-1129
23.997,-1105
24.022,-1060
24.047,-1017
24.072,-939
24.097,-720
24.122,-282
24.147,318
24.172,889
24.197,1237
24.222,1310
24.247,1223
24.272,1142
24.297,1152
24.322,1225
24.347,1295
24.372,1331
24.397,1350
24.422,1364
24.447,1361
24.472,1324
24.497,1263
24.522,1198
24.547,1128
24.572,1014
24.597,823
24.622,564
24.647,290
24.672,50
24.697,-144
24.722,-307
24.747,-441
24.772,-525
24.797,-543
24.822,-519
24.847,-500
24.872,-520
24.897,-567
24.922,-603
24.947,-598
24.972,-559
24.997,-510
25.022,-464
25.047,-418
25.072,-365
25.097,-309
25.122,-261
25.147,-217
25.172,-167
25.197,-104
25.222,-37
25.247,13
25.272,41
25.297,60
25.322,85
25.347,119
25.372,145
25.397,148
25.422,135
25.447,129
25.472,155
25.497,216
25.522,298
25.547,382
25.572,455
25.597,516
25.622,572
25.647,629
25.672,689
25.697,744
25.722,788
25.747,818
25.772,839
25.797,860
25.822,882
25.847,901
25.872,912
25.897,919
25.922,929
25.947,948
25.972,972
25.997,987
26.022,980
26.047,935
26.072,841
26.097,688
26.122,478
26.147,227
26.172,-38
26.197,-289
26.222,-496
26.247,-632
26.272,-683
26.297,-658
26.322,-596
26.347,-538
26.372,-499
26.397,-457
26.422,-383
26.447,-283
26.472,-197
26.497,-160
26.522,-160
26.547,-155
26.572,-117
26.597,-67
26.622,-44
26.647,-58
26.672,-71
26.697,-40
26.722,30
26.747,97
26.772,119
26.797,102
26.822,77
26.847,63
26.872,47
26.897,15
26.922,-15
26.947,-9
26.972,45
26.997,125
27.022,191
27.047,226
27.072,246
27.097,263
27.122,270
27.147,249
27.172,203
27.197,153
27.222,117
27.247,92
27.272,66
27.297,42
27.322,40
27.347,71
27.372,119
27.397,157
27.422,173
27.447,174
27.472,172
27.497,162
27.522,144
27.547,142
27.572,201
27.597,346
27.622,544
27.647,725
27.672,827
27.697,841
27.722,798
27.747,735
27.772,662
27.797,574
27.822,464
27.847,336
27.872,200
27.897,67
27.922,-45
27.947,-126
27.972,-174
27.997,-208
28.022,-252
28.047,-315
28.072,-382
28.097,-432
28.122,-456
28.147,-457
28.172,-437
28.197,-388
28.222,-310
28.247,-214
28.272,-119
28.297,-23
28.322,91
28.347,236
28.372,387
28.397,495
28.422,529
28.447,517
28.472,519
28.497,583
28.522,701
28.547,827
28.572,927
28.597,997
28.622,1052
28.647,1099
28.672,1121
28.697,1109
28.722,1076
28.747,1050
28.772,1050
28.797,1064
28.822,1061
28.847,1020
28.872,946
28.897,864
28.922,794
28.947,735
28.972,671
28.997,582
29.022,466
29.047,332
29.072,191
29.097,45
29.122,-114
29.147,-288
29.172,-451
29.197,-565
29.222,-610
29.247,-607
29.272,-610
29.297,-660
29.322,-749
29.347,-820
29.372,-817
29.397,-740
29.422,-643
29.447,-580
29.472,-556
29.497,-526
29.522,-449
29.547,-337
29.572,-241
29.597,-210
29.622,-234
29.647,-264
29.672,-254
29.697,-203
29.722,-147
29.747,-120
29.772,-128
29.797,-155
29.822,-185
29.847,-215
29.872,-245
29.897,-264
29.922,-258
29.947,-227
29.972,-180
29.997,-127
30.022,-60
30.047,38
30.072,176
30.097,336
30.122,488
30.147,612
30.172,708
30.197,785
30.222,846
30.247,883
30.272,889
30.297,871
30.322,844
30.347,821
30.372,811
30.397,818
30.422,844
30.447,887
30.472,929
30.497,949
30.522,929
30.547,870
30.572,787
30.597,694
30.622,596
30.647,494
30.672,391
30.697,298
30.722,223
30.747,167
30.772,123
30.797,88
30.822,69
30.847,74
30.872,102
30.897,142
30.922,181
30.947,213
30.972,241
30.997,268
31.022,298
31.047,331
31.072,368
31.097,410
31.122,453
31.147,483
31.172,487
31.197,457
31.222,399
31.247,324
31.272,245
31.297,170
31.322,103
31.347,44
31.372,-3
31.397,-39
31.422,-59
31.447,-64
31.472,-61
31.497,-61
31.522,-74
31.547,-105
31.572,-145
31.597,-183
31.622,-207
31.647,-215
31.672,-215
31.697,-220
31.722,-241
31.747,-280
31.772,-326
31.797,-357
31.822,-349
31.847,-292
31.872,-202
31.897,-107
31.922,-31
31.947,20
31.972,61
31.997,106
32.022,155
32.047,199
32.072,229
32.097,249
32.122,268
32.147,296
32.172,328
32.197,353
32.222,361
32.247,353
32.272,337
32.297,324
32.322,320
32.347,333
32.372,369
32.397,425
32.422,488
32.447,535
32.472,552
32.497,542
32.522,520
32.547,499
32.572,480
32.597,448
32.622,395
32.647,329
32.672,270
32.697,232
32.722,208
32.747,178
32.772,133
32.797,87
32.822,68
32.847,89
32.872,113
32.897,66
32.922,-111
32.947,-406
32.972,-717
32.997,-905
33.022,-886
33.047,-688
33.072,-427
33.097,-217
33.122,-99
33.147,-36
33.172,18
33.197,73
33.222,108
33.247,129
33.272,195
33.297,366
33.322,631
33.347,884
33.372,999
33.397,942
33.422,806
33.447,747
33.472,870
33.497,1154
33.522,1489
33.547,1753
33.572,1876
33.597,1850
33.622,1697
33.647,1452
33.672,1147
33.697,811
33.722,462
33.747,108
33.772,-234
33.797,-529
33.822,-723
33.847,-779
33.872,-718
33.897,-619
33.922,-582
33.947,-670
33.972,-867
33.997,-1087
34.022,-1215
34.047,-1171
34.072,-948
34.097,-619
34.122,-289
34.147,-39
34.172,114
34.197,199
34.222,250
34.247,273
34.272,261
34.297,227
34.322,210
34.347,246
34.372,329
34.397,414
34.422,464
34.447,488
34.472,526
34.497,590
34.522,642
34.547,632
34.572,555
34.597,470
34.622,441
34.647,475
34.672,523
34.697,537
34.722,523
34.747,523
34.772,562
34.797,616
34.822,647
34.847,647
34.872,647
34.897,669
34.922,698
34.947,699
34.972,654
34.997,581
35.022,505
35.047,428
35.072,338
35.097,234
35.122,134
35.147,55
35.172,-17
35.197,-113
35.222,-243
35.247,-387
35.272,-511
35.297,-607
35.322,-692
35.347,-779
35.372,-859
35.397,-913
35.422,-940
35.447,-961
35.472,-992
35.497,-1024
35.522,-1021
35.547,-948
35.572,-784
35.597,-533
35.622,-224
35.647,87
35.672,344
35.697,520
35.722,635
35.747,730
35.772,818
35.797,872
35.822,867
35.847,826
35.872,809
35.897,845
35.922,888
35.947,858
35.972,731
35.997,574
36.022,487
36.047,502
36.072,565
36.097,596
36.122,574
36.147,540
36.172,536
36.197,552
36.222,544
36.247,486
36.272,394
36.297,290
36.322,187
36.347,88
36.372,19
36.397,11
36.422,64
36.447,133
36.472,161
36.497,137
36.522,101
36.547,93
36.572,101
36.597,83
36.622,21
36.647,-45
36.672,-63
36.697,-28
36.722,10
36.747,-2
36.772,-72
36.797,-150
36.822,-188
36.847,-172
36.872,-125
36.897,-66
36.922,0
36.947,72
36.972,135
36.997,170
37.022,171
37.047,157
37.072,150
37.097,157
37.122,166
37.147,164
37.172,152
37.197,141
37.222,137
37.247,138
37.272,136
37.297,126
37.322,108
37.347,85
37.372,66
37.397,62
37.422,77
37.447,102
37.472,117
37.497,108
37.522,77
37.547,41
37.572,16
37.597,5
37.622,-3
37.647,-15
37.672,-24
37.697,-20
37.722,-3
37.747,18
37.772,36
37.797,51
37.822,67
37.847,76
37.872,61
37.897,19
37.922,-31
37.947,-57
37.972,-44
37.997,-4
38.022,38
38.047,82
38.072,150
38.097,259
38.122,394
38.147,518
38.172,610
38.197,688
38.222,786
38.247,911
38.272,1033
38.297,1117
38.322,1162
38.347,1202
38.372,1266
38.397,1359
38.422,1467
38.447,1592
38.472,1742
38.497,1910
38.522,2055
38.547,2130
38.572,2116
38.597,2026
38.622,1864
38.647,1592
38.672,1164
38.697,587
38.722,-49
38.747,-615
38.772,-1016
38.797,-1242
38.822,-1345
38.847,-1389
38.872,-1412
38.897,-1422
38.922,-1404
38.947,-1345
38.972,-1249
38.997,-1149
39.022,-1089
39.047,-1085
39.072,-1107
39.097,-1106
39.122,-1057
39.147,-987
39.172,-937
39.197,-914
39.222,-881
39.247,-807
39.272,-709
39.297,-641
39.322,-640
39.347,-690
39.372,-740
39.397,-746
39.422,-695
39.447,-593
39.472,-467
39.497,-353
39.522,-291
39.547,-283
39.572,-286
39.597,-243
39.622,-139
39.647,-14
39.672,104
39.697,262
39.722,534
39.747,920
39.772,1289
39.797,1475
39.822,1440
39.847,1332
39.872,1343
39.897,1521
39.922,1721
39.947,1753
39.972,1571
39.997,1306
40.022,1123
40.047,1067
40.072,1057
40.097,996
40.122,875
40.147,757
40.172,700
40.197,705
40.222,733
40.247,754
40.272,759
40.297,743
40.322,699
40.347,635
40.372,577
40.397,550
40.422,551
40.447,552
40.472,528
40.497,470
40.522,376
40.547,235
40.572,40
40.597,-183
40.622,-383
40.647,-510
40.672,-558
40.697,-559
40.722,-549
40.747,-537
40.772,-519
40.797,-497
40.822,-480
40.847,-464
40.872,-417
40.897,-314
40.922,-168
40.947,-31
40.972,46
40.997,64
41.022,62
41.047,71
41.072,86
41.097,83
41.122,70
41.147,97
41.172,201
41.197,350
41.222,450
41.247,425
41.272,290
41.297,141
41.322,69
41.347,89
41.372,140
41.397,164
41.422,149
41.447,120
41.472,74
41.497,-18
41.522,-178
41.547,-356
41.572,-466
41.597,-458
41.622,-368
41.647,-279
41.672,-232
41.697,-189
41.722,-85
41.747,87
41.772,260
41.797,357
41.822,368
41.847,357
41.872,398
41.897,507
41.922,640
41.947,738
41.972,765
41.997,720
42.022,615
42.047,479
42.072,361
42.097,306
42.122,323
42.147,365
42.172,363
42.197,288
42.222,185
42.247,131
42.272,169
42.297,277
42.322,400
42.347,509
42.372,620
42.397,753
42.422,890
42.447,975
42.472,976
42.497,920
42.522,869
42.547,859
42.572,865
42.597,840
42.622,778
42.647,719
42.672,695
42.697,686
42.722,627
42.747,489
42.772,315
42.797,180
42.822,106
42.847,35
42.872,-106
42.897,-331
42.922,-579
42.947,-785
42.972,-940
42.997,-1071
43.022,-1181
43.047,-1235
43.072,-1200
43.097,-1108
43.122,-1036
43.147,-1037
43.172,-1090
43.197,-1127
43.222,-1096
43.247,-997
43.272,-860
43.297,-709
43.322,-558
43.347,-423
43.372,-320
43.397,-244
43.422,-172
43.447,-96
43.472,-40
43.497,-15
43.522,42
43.547,256
43.572,694
43.597,1245
43.622,1646
43.647,1673
43.672,1346
43.697,921
43.722,684
43.747,710
43.772,838
43.797,860
43.822,734
43.847,591
43.872,561
43.897,606
43.922,565
43.947,351
43.972,79
43.997,-16
44.022,194
44.047,612
44.072,997
44.097,1163
44.122,1082
44.147,840
44.172,535
44.197,250
44.222,75
44.247,92
44.272,294
44.297,551
44.322,700
44.347,677
44.372,551
44.397,416
44.422,290
44.447,156
44.472,66
44.497,131
44.522,379
44.547,653
44.572,743
44.597,591
44.622,302
44.647,-85
44.672,-768
44.697,-1964
44.722,-3520
44.747,-4866
44.772,-5541
44.797,-5743
44.822,-6171
44.847,-7126
44.872,-7810
44.897,-6766
44.922,-3259
44.947,1729
44.972,6013
44.997,7868
45.022,7327
45.047,5915
45.072,5203
45.097,5618
45.122,6504
45.147,7077
45.172,7150
45.197,7014
45.222,6881
45.247,6633
45.272,6054
45.297,5144
45.322,4110
45.347,3129
45.372,2232
45.397,1410
45.422,720
45.447,204
45.472,-242
45.497,-833
45.522,-1688
45.547,-2715
45.572,-3718
45.597,-4582
45.622,-5315
45.647,-5922
45.672,-6314
45.697,-6390
45.722,-6157
45.747,-5720
45.772,-5150
45.797,-4425
45.822,-3543
45.847,-2632
45.872,-1896
45.897,-1433
45.922,-1158
45.947,-943
45.972,-780
45.997,-742
46.022,-788
46.047,-689
46.072,-222
46.097,569
46.122,1362
46.147,1851
46.172,2030
46.197,2160
46.222,2458
46.247,2851
46.272,3047
46.297,2835
46.322,2300
46.347,1774
46.372,1585
46.397,1831
46.422,2321
46.447,2689
46.472,2616
46.497,2014
46.522,1078
46.547,127
46.572,-606
46.597,-1093
46.622,-1408
46.647,-1583
46.672,-1586
46.697,-1438
46.722,-1289
46.747,-1301
46.772,-1457
46.797,-1537
46.822,-1317
46.847,-781
46.872,-111
46.897,510
46.922,1028
46.947,1460
46.972,1766
46.997,1872
47.022,1799
47.047,1690
47.072,1674
47.097,1744
47.122,1862
47.147,2142
47.172,2810
47.197,3864
47.222,4821
47.247,4977
47.272,4011
47.297,2306
47.322,568
47.347,-859
47.372,-2227
47.397,-3856
47.422,-5470
47.447,-6223
47.472,-5469
47.497,-3488
47.522,-1343
47.547,-15
47.572,319
47.597,182
47.622,109
47.647,161
47.672,73
47.697,-272
47.722,-669
47.747,-822
47.772,-662
47.797,-354
47.822,-58
47.847,219
47.872,533
47.897,835
47.922,996
47.947,954
47.972,799
47.997,676
48.022,635
48.047,618
48.072,574
48.097,534
48.122,561
48.147,649
48.172,712
48.197,671
48.222,530
48.247,358
48.272,212
48.297,103
48.322,27
48.347,-8
48.372,5
48.397,57
48.422,114
48.447,159
48.472,198
48.497,236
48.522,256
48.547,234
48.572,172
48.597,109
48.622,87
48.647,115
48.672,168
48.697,216
48.722,243
48.747,243
48.772,222
48.797,198
48.822,200
48.847,239
48.872,293
48.897,332
48.922,351
48.947,392
48.972,497
48.997,649
49.022,774
49.047,801
49.072,738
49.097,656
49.122,612
49.147,590
49.172,536
49.197,431
49.222,318
49.247,256
49.272,247
49.297,231
49.322,153
49.347,27
49.372,-77
49.397,-111
49.422,-91
49.447,-76
49.472,-109
49.497,-173
49.522,-221
49.547,-221
49.572,-179
49.597,-128
49.622,-89
49.647,-68
49.672,-56
49.697,-38
49.722,0
49.747,65
49.772,150
49.797,228
49.822,273
49.847,282
49.872,278
49.897,284
49.922,299
49.947,300
49.972,268
49.997,214
50.022,173
50.047,169
50.072,187
50.097,187
50.122,136
50.147,44
50.172,-51
50.197,-109
50.222,-117
50.247,-83
50.272,-28
50.297,34
50.322,92
50.347,133
50.372,143
50.397,120
50.422,80
50.447,46
50.472,37
50.497,44
50.522,44
50.547,18
50.572,-31
50.597,-84
50.622,-121
50.647,-143
50.672,-166
50.697,-198
50.722,-225
50.747,-219
50.772,-172
50.797,-99
50.822,-25
50.847,40
50.872,110
50.897,194
50.922,286
50.947,368
50.972,428
50.997,472
51.022,511
51.047,539
51.072,551
51.097,550
51.122,557
51.147,580
51.172,594
51.197,560
51.222,468
51.247,359
51.272,290
51.297,283
51.322,309
51.347,319
51.372,299
51.397,269
51.422,246
51.447,217
51.472,154
51.497,60
51.522,-13
51.547,-13
51.572,64
51.597,171
51.622,244
51.647,257
51.672,228
51.697,191
51.722,167
51.747,156
51.772,154
51.797,159
51.822,167
51.847,173
51.872,174
51.897,174
51.922,171
51.947,162
51.972,144
51.997,126
52.022,126
52.047,161
52.072,224
52.097,290
52.122,337
52.147,367
52.172,396
52.197,437
52.222,487
52.247,531
52.272,560
52.297,582
52.322,610
52.347,653
52.372,708
52.397,761
52.422,796
52.447,802
52.472,779
52.497,736
52.522,688
52.547,646
52.572,608
52.597,560
52.622,475
52.647,321
52.672,88
52.697,-204
52.722,-502
52.747,-755
52.772,-948
52.797,-1110
52.822,-1273
52.847,-1420
52.872,-1482
52.897,-1404
52.922,-1223
52.947,-1083
52.972,-1145
52.997,-1450
53.022,-1848
53.047,-2070
53.072,-1904
53.097,-1346
53.122,-621
53.147,-32
53.172,237
53.197,228
53.222,142
53.247,166
53.272,334
53.297,531
53.322,634
53.347,632
53.372,640
53.397,786
53.422,1103
53.447,1500
53.472,1845
53.497,2052
53.522,2124
53.547,2139
53.572,2197
53.597,2369
53.622,2649
53.647,2954
53.672,3172
53.697,3251
53.722,3236
53.747,3210
53.772,3192
53.797,3105
53.822,2859
53.847,2468
53.872,2039
53.897,1634
53.922,1154
53.947,412
53.972,-649
53.997,-1824
54.022,-2752
54.047,-3187
54.072,-3175
54.097,-2970
54.122,-2794
54.147,-2700
54.172,-2632
54.197,-2564
54.222,-2538
54.247,-2579
54.272,-2632
54.297,-2608
54.322,-2492
54.347,-2346
54.372,-2213
54.397,-2035
54.422,-1711
54.447,-1240
54.472,-766
54.497,-470
54.522,-401
54.547,-424
54.572,-336
54.597,-9
54.622,546
54.647,1228
54.672,1890
54.697,2379
54.722,2576
54.747,2455
54.772,2111
54.797,1690
54.822,1275
54.847,859
54.872,441
54.897,135
54.922,129
54.947,489
54.972,1034
54.997,1436
55.022,1477
55.047,1216
55.072,899
55.097,715
55.122,660
55.147,615
55.172,510
55.197,386
55.222,303
55.247,250
55.272,161
55.297,10
55.322,-161
55.347,-306
55.372,-434
55.397,-589
55.422,-770
55.447,-900
55.472,-904
55.497,-783
55.522,-620
55.547,-486
55.572,-384
55.597,-275
55.622,-139
55.647,-1
55.672,118
55.697,242
55.722,414
55.747,644
55.772,886
55.797,1075
55.822,1181
55.847,1214
55.872,1207
55.897,1187
55.922,1183
55.947,1227
55.972,1333
55.997,1470
56.022,1568
56.047,1559
56.072,1428
56.097,1220
56.122,1011
56.147,861
56.172,787
56.197,765
56.222,752
56.247,716
56.272,664
56.297,630
56.322,641
56.347,686
56.372,722
56.397,716
56.422,667
56.447,592
56.472,485
56.497,311
56.522,58
56.547,-230
56.572,-469
56.597,-605
56.622,-655
56.647,-678
56.672,-706
56.697,-725
56.722,-721
56.747,-724
56.772,-786
56.797,-908
56.822,-1017
56.847,-1022
56.872,-906
56.897,-735
56.922,-591
56.947,-494
56.972,-406
56.997,-295
57.022,-178
57.047,-98
57.072,-72
57.097,-96
57.122,-180
57.147,-370
57.172,-692
57.197,-1093
57.222,-1454
57.247,-1680
57.272,-1768
57.297,-1785
57.322,-1769
57.347,-1672
57.372,-1418
57.397,-1003
57.422,-529
57.447,-123
57.472,164
57.497,376
57.522,583
57.547,801
57.572,991
57.597,1116
57.622,1181
57.647,1220
57.672,1249
57.697,1257
57.722,1231
57.747,1184
57.772,1142
57.797,1116
57.822,1092
57.847,1050
57.872,993
57.897,941
57.922,903
57.947,871
57.972,831
57.997,788
58.022,761
58.047,765
58.072,791
58.097,811
58.122,807
58.147,773
58.172,715
58.197,636
58.222,543
58.247,446
58.272,362
58.297,298
58.322,248
58.347,197
58.372,141
58.397,82
58.422,26
58.447,-26
58.472,-77
58.497,-116
58.522,-131
58.547,-121
58.572,-100
58.597,-91
58.622,-100
58.647,-116
58.672,-120
58.697,-111
58.722,-96
58.747,-75
58.772,-37
58.797,22
58.822,87
58.847,127
58.872,134
58.897,143
58.922,202
58.947,319
58.972,440
58.997,488
59.022,439
59.047,341
59.072,273
59.097,270
59.122,303
59.147,316
59.172,289
59.197,247
59.222,224
59.247,225
59.272,225
59.297,206
59.322,174
59.347,150
59.372,143
59.397,143
59.422,142
59.447,143
59.472,153
59.497,165
59.522,159
59.547,121
59.572,64
59.597,14
59.622,-8
59.647,-8
59.672,-6
59.697,-22
59.722,-61
59.747,-116
59.772,-169
59.797,-201
59.822,-199
59.847,-167
59.872,-128
59.897,-106
59.922,-102
59.947,-92
59.972,-54
59.997,-4
60.022,11
60.047,-41
60.072,-137
60.097,-201
60.122,-160
60.147,-7
60.172,190
60.197,342
60.222,393
60.247,365
60.272,328
60.297,344
60.322,422
60.347,513
60.372,549
60.397,494
60.422,373
60.447,245
60.472,158
60.497,115
60.522,87
60.547,56
60.572,42
60.597,76
60.622,164
60.647,266
60.672,328
60.697,321
60.722,269
60.747,218
60.772,202
60.797,217
60.822,240
60.847,253
60.872,256
60.897,261
60.922,277
60.947,308
60.972,349
60.997,394
61.022,435
61.047,467
61.072,491
61.097,510
61.122,524
61.147,534
61.172,541
61.197,549
61.222,559
61.247,564
61.272,557
61.297,540
61.322,529
61.347,537
61.372,555
61.397,548
61.422,478
61.447,333
61.472,143
61.497,-46
61.522,-197
61.547,-301
61.572,-365
61.597,-395
61.622,-389
61.647,-346
61.672,-277
61.697,-205
61.722,-149
61.747,-112
61.772,-84
61.797,-47
61.822,3
61.847,64
61.872,125
61.897,177
61.922,224
61.947,270
61.972,319
61.997,370
62.022,426
62.047,499
62.072,604
62.097,735
62.122,852
62.147,891
62.172,812
62.197,635
62.222,439
62.247,305
62.272,257
62.297,248
62.322,213
62.347,133
62.372,42
62.397,-13
62.422,-33
62.447,-61
62.472,-131
62.497,-229
62.522,-311
62.547,-358
62.572,-404
62.597,-498
62.622,-648
62.647,-817
62.672,-970
62.697,-1118
62.722,-1293
62.747,-1482
62.772,-1611
62.797,-1607
62.822,-1481
62.847,-1330
62.872,-1235
62.897,-1158
62.922,-958
62.947,-526
62.972,83
62.997,662
63.022,996
63.047,1018
63.072,845
63.097,678
63.122,663
63.147,818
63.172,1068
63.197,1317
63.222,1507
63.247,1629
63.272,1706
63.297,1766
63.322,1816
63.347,1843
63.372,1820
63.397,1738
63.422,1616
63.447,1492
63.472,1390
63.497,1302
63.522,1187
63.547,1008
63.572,759
63.597,472
63.622,193
63.647,-44
63.672,-231
63.697,-376
63.722,-490
63.747,-582
63.772,-662
63.797,-734
63.822,-791
63.847,-819
63.872,-800
63.897,-732
63.922,-633
63.947,-525
63.972,-416
63.997,-289
64.022,-121
64.047,87
64.072,302
64.097,471
64.122,560
64.147,570
64.172,529
64.197,468
64.222,407
64.247,349
64.272,293
64.297,240
64.322,192
64.347,157
64.372,139
64.397,136
64.422,141
64.447,143
64.472,140
64.497,139
64.522,152
64.547,178
64.572,201
64.597,205
64.622,189
64.647,171
64.672,171
64.697,195
64.722,229
64.747,256
64.772,264
64.797,250
64.822,222
64.847,188
64.872,163
64.897,157
64.922,176
64.947,215
64.972,265
64.997,318
65.022,377
65.047,441
65.072,507
65.097,560
65.122,591
65.147,600
65.172,593
65.197,576
65.222,551
65.247,519
65.272,481
65.297,439
65.322,387
65.347,323
65.372,249
65.397,175
65.422,109
65.447,48
65.472,-14
65.497,-79
65.522,-134
65.547,-173
65.572,-209
65.597,-266
65.622,-356
65.647,-462
65.672,-549
65.697,-594
65.722,-606
65.747,-610
65.772,-623
65.797,-643
65.822,-669
65.847,-708
65.872,-762
65.897,-798
65.922,-750
65.947,-564
65.972,-247
65.997,127
66.022,463
66.047,692
66.072,797
66.097,782
66.122,657
66.147,434
66.172,150
66.197,-138
66.222,-382
66.247,-560
66.272,-676
66.297,-734
66.322,-729
66.347,-662
66.372,-554
66.397,-443
66.422,-353
66.447,-279
66.472,-199
66.497,-106
66.522,-18
66.547,41
66.572,82
66.597,148
66.622,294
66.647,544
66.672,865
66.697,1181
66.722,1410
66.747,1506
66.772,1480
66.797,1388
66.822,1289
66.847,1209
66.872,1139
66.897,1059
66.922,965
66.947,870
66.972,783
66.997,699
67.022,599
67.047,479
67.072,350
67.097,229
67.122,118
67.147,13
67.172,-87
67.197,-169
67.222,-218
67.247,-229
67.272,-212
67.297,-173
67.322,-107
67.347,-8
67.372,116
67.397,252
67.422,389
67.447,531
67.472,682
67.497,829
67.522,934
67.547,962
67.572,902
67.597,777
67.622,624
67.647,470
67.672,325
67.697,182
67.722,33
67.747,-123
67.772,-275
67.797,-390
67.822,-430
67.847,-369
67.872,-219
67.897,-18
67.922,189
67.947,377
67.972,533
67.997,638
68.022,655
68.047,552
68.072,332
68.097,50
68.122,-209
68.147,-374
68.172,-417
68.197,-360
68.222,-252
68.247,-145
68.272,-75
68.297,-58
68.322,-91
68.347,-156
68.372,-227
68.397,-281
68.422,-305
68.447,-302
68.472,-289
68.497,-280
68.522,-273
68.547,-254
68.572,-203
68.597,-125
68.622,-55
68.647,-37
68.672,-91
68.697,-196
68.722,-301
68.747,-369
68.772,-400
68.797,-419
68.822,-439
68.847,-437
68.872,-369
68.897,-209
68.922,28
68.947,292
68.972,518
68.997,659
69.022,700
69.047,652
69.072,554
69.097,453
69.122,391
69.147,384
69.172,424
69.197,481
69.222,522
69.247,523
69.272,469
69.297,370
69.322,264
69.347,200
69.372,209
69.397,279
69.422,358
69.447,396
69.472,380
69.497,336
69.522,295
69.547,271
69.572,255
69.597,241
69.622,238
69.647,261
69.672,309
69.697,361
69.722,387
69.747,370
69.772,305
69.797,206
69.822,104
69.847,45
69.872,71
69.897,191
69.922,367
69.947,537
69.972,656
69.997,715
70.022,729
70.047,699
70.072,613
70.097,464
70.122,267
70.147,58
70.172,-138
70.197,-311
70.222,-450
70.247,-532
70.272,-533
70.297,-461
70.322,-360
70.347,-278
70.372,-231
70.397,-196
70.422,-140
70.447,-58
70.472,29
70.497,98
70.522,146
70.547,186
70.572,236
70.597,298
70.622,368
70.647,443
70.672,521
70.697,599
70.722,673
70.747,731
70.772,762
70.797,755
70.822,702
70.847,605
70.872,481
70.897,350
70.922,227
70.947,121
70.972,35
70.997,-32
71.022,-87
71.047,-142
71.072,-196
71.097,-233
71.122,-228
71.147,-172
71.172,-84
71.197,4
71.222,81
71.247,154
71.272,233
71.297,309
71.322,366
71.347,402
71.372,432
71.397,464
71.422,473
71.447,417
71.472,287
71.497,129
71.522,7
71.547,-40
71.572,-26
71.597,17
71.622,63
71.647,90
71.672,74
71.697,2
71.722,-92
71.747,-143
71.772,-104
71.797,-8
71.822,54
71.847,25
71.872,-67
71.897,-144
71.922,-166
71.947,-179
71.972,-244
71.997,-344
72.022,-384
72.047,-288
72.072,-79
72.097,137
72.122,278
72.147,350
72.172,411
72.197,487
72.222,549
72.247,558
72.272,527
72.297,506
72.322,526
72.347,564
72.372,580
72.397,558
72.422,523
72.447,501
72.472,493
72.497,482
72.522,459
72.547,430
72.572,407
72.597,395
72.622,398
72.647,412
72.672,425
72.697,407
72.722,335
72.747,229
72.772,146
72.797,137
72.822,198
72.847,270
72.872,292
72.897,258
72.922,208
72.947,184
72.972,188
72.997,195
73.022,194
73.047,195
73.072,211
73.097,227
73.122,213
73.147,153
73.172,67
73.197,-8
73.222,-53
73.247,-80
73.272,-107
73.297,-141
73.322,-162
73.347,-145
73.372,-86
73.397,-9
73.422,52
73.447,81
73.472,86
73.497,89
73.522,102
73.547,105
73.572,75
73.597,16
73.622,-23
73.647,8
73.672,121
73.697,259
73.722,340
73.747,322
73.772,232
73.797,137
73.822,87
73.847,84
73.872,101
73.897,113
73.922,114
73.947,113
73.972,119
73.997,135
74.022,160
74.047,187
74.072,206
74.097,209
74.122,203
74.147,208
74.172,235
74.197,279
74.222,318
74.247,332
74.272,311
74.297,246
74.322,129
74.347,-33
74.372,-215
74.397,-375
74.422,-489
74.447,-567
74.472,-631
74.497,-691
74.522,-737
74.547,-767
74.572,-799
74.597,-850
74.622,-881
74.647,-794
74.672,-499
74.697,-7
74.722,555
74.747,1021
74.772,1292
74.797,1385
74.822,1383
74.847,1351
74.872,1309
74.897,1253
74.922,1197
74.947,1165
74.972,1174
74.997,1206
75.022,1224
75.047,1200
75.072,1121
75.097,993
75.122,834
75.147,674
75.172,549
75.197,482
75.222,466
75.247,470
75.272,461
75.297,430
75.322,393
75.347,374
75.372,377
75.397,385
75.422,370
75.447,310
75.472,201
75.497,57
75.522,-103
75.547,-261
75.572,-403
75.597,-513
75.622,-573
75.647,-571
75.672,-521
75.697,-456
75.722,-414
75.747,-408
75.772,-420
75.797,-418
75.822,-388
75.847,-344
75.872,-310
75.897,-287
75.922,-255
75.947,-189
75.972,-91
75.997,12
76.022,90
76.047,131
76.072,152
76.097,183
76.122,244
76.147,330
76.172,418
76.197,483
76.222,517
76.247,525
76.272,520
76.297,510
76.322,501
76.347,499
76.372,504
76.397,507
76.422,491
76.447,449
76.472,391
76.497,337
76.522,295
76.547,251
76.572,188
76.597,114
76.622,53
76.647,16
76.672,-16
76.697,-72
76.722,-151
76.747,-223
76.772,-264
76.797,-293
76.822,-358
76.847,-480
76.872,-632
76.897,-765
76.922,-856
76.947,-915
76.972,-956
76.997,-974
77.022,-971
77.047,-981
77.072,-1054
77.097,-1191
77.122,-1339
77.147,-1442
77.172,-1516
77.197,-1620
77.222,-1743
77.247,-1725
77.272,-1336
77.297,-466
77.322,751
77.347,2007
77.372,3013
77.397,3651
77.422,3967
77.447,4056
77.472,3981
77.497,3761
77.522,3403
77.547,2909
77.572,2286
77.597,1581
77.622,918
77.647,463
77.672,320
77.697,429
77.722,588
77.747,604
77.772,424
77.797,152
77.822,-70
77.847,-182
77.872,-228
77.897,-291
77.922,-412
77.947,-580
77.972,-750
77.997,-881
78.022,-941
78.047,-916
78.072,-814
78.097,-668
78.122,-519
78.147,-390
78.172,-280
78.197,-183
78.222,-94
78.247,-15
78.272,59
78.297,144
78.322,251
78.347,376
78.372,501
78.397,614
78.422,705
78.447,769
78.472,795
78.497,775
78.522,719
78.547,648
78.572,583
78.597,532
78.622,493
78.647,469
78.672,467
78.697,484
78.722,491
78.747,445
78.772,317
78.797,126
78.822,-73
78.847,-227
78.872,-319
78.897,-368
78.922,-403
78.947,-432
78.972,-439
78.997,-411
79.022,-351
79.047,-289
79.072,-253
79.097,-257
79.122,-289
79.147,-322
79.172,-335
79.197,-325
79.222,-312
79.247,-322
79.272,-364
79.297,-411
79.322,-418
79.347,-359
79.372,-254
79.397,-160
79.422,-121
79.447,-133
79.472,-151
79.497,-141
79.522,-110
79.547,-92
79.572,-98
79.597,-99
79.622,-50
79.647,63
79.672,208
79.697,336
79.722,428
79.747,499
79.772,574
79.797,656
79.822,721
79.847,741
79.872,711
79.897,642
79.922,552
79.947,457
79.972,368
79.997,291
80.022,228
80.047,172
80.072,118
80.097,68
80.122,32
80.147,25
80.172,49
80.197,98
80.222,160
80.247,229
80.272,301
80.297,380
80.322,463
80.347,549
80.372,632
80.397,711
80.422,790
80.447,876
80.472,970
80.497,1063
80.522,1130
80.547,1147
80.572,1105
80.597,1021
80.622,923
80.647,838
80.672,775
80.697,727
80.722,675
80.747,598
80.772,480
80.797,318
80.822,130
80.847,-55
80.872,-213
80.897,-332
80.922,-421
80.947,-493
80.972,-554
80.997,-600
81.022,-628
81.047,-634
81.072,-623
81.097,-597
81.122,-561
81.147,-517
81.172,-469
81.197,-418
81.222,-361
81.247,-297
81.272,-231
81.297,-171
81.322,-127
81.347,-102
81.372,-88
81.397,-75
81.422,-54
81.447,-24
81.472,12
81.497,47
81.522,75
81.547,94
81.572,107
81.597,124
81.622,151
81.647,191
81.672,237
81.697,281
81.722,312
81.747,324
81.772,317
81.797,304
81.822,304
81.847,331
81.872,383
81.897,443
81.922,493
81.947,527
81.972,554
81.997,587
82.022,625
82.047,662
82.072,685
82.097,688
82.122,670
82.147,639
82.172,604
82.197,579
82.222,571
82.247,573
82.272,564
82.297,532
82.322,486
82.347,450
82.372,434
82.397,415
82.422,363
82.447,266
82.472,148
82.497,49
82.522,-14
82.547,-53
82.572,-89
82.597,-123
82.622,-147
82.647,-166
82.672,-204
82.697,-281
82.722,-383
82.747,-468
82.772,-504
82.797,-504
82.822,-507
82.847,-538
82.872,-578
82.897,-584
82.922,-536
82.947,-454
82.972,-372
82.997,-302
83.022,-223
83.047,-110
83.072,33
83.097,171
83.122,268
83.147,316
83.172,340
83.197,367
83.222,403
83.247,436
83.272,453
83.297,459
83.322,468
83.347,488
83.372,506
83.397,505
83.422,483
83.447,457
83.472,449
83.497,459
83.522,468
83.547,459
83.572,441
83.597,437
83.622,461
83.647,500
83.672,527
83.697,537
83.722,549
83.747,581
83.772,621
83.797,629
83.822,577
83.847,474
83.872,360
83.897,261
83.922,173
83.947,80
83.972,-11
83.997,-78
84.022,-100
84.047,-94
84.072,-94
84.097,-123
84.122,-167
84.147,-199
84.172,-205
84.197,-189
84.222,-168
84.247,-153
84.272,-158
84.297,-193
84.322,-242
84.347,-248
84.372,-149
84.397,53
84.422,264
84.447,348
84.472,245
84.497,43
84.522,-82
84.547,-10
84.572,220
84.597,454
84.622,549
84.647,490
84.672,381
84.697,337
84.722,390
84.747,485
84.772,544
84.797,533
84.822,469
84.847,388
84.872,306
84.897,220
84.922,131
84.947,60
84.972,40
84.997,86
85.022,170
85.047,232
85.072,221
85.097,134
85.122,22
85.147,-59
85.172,-95
85.197,-111
85.222,-139
85.247,-174
85.272,-179
85.297,-129
85.322,-36
85.347,62
85.372,151
85.397,241
85.422,342
85.447,437
85.472,492
85.497,499
85.522,485
85.547,476
85.572,464
85.597,416
85.622,327
85.647,246
85.672,232
85.697,293
85.722,365
85.747,382
85.772,336
85.797,272
85.822,226
85.847,184
85.872,109
85.897,2
85.922,-90
85.947,-125
85.972,-114
85.997,-94
86.022,-74
86.047,-16
86.072,116
86.097,297
86.122,449
86.147,521
86.172,530
86.197,510
86.222,430
86.247,179
86.272,-321
86.297,-989
86.322,-1565
86.347,-1763
86.372,-1464
86.397,-810
86.422,-105
86.447,379
86.472,570
86.497,586
86.522,619
86.547,779
86.572,1028
86.597,1241
86.622,1312
86.647,1215
86.672,982
86.697,643
86.722,215
86.747,-247
86.772,-625
86.797,-768
86.822,-612
86.847,-248
86.872,128
86.897,363
86.922,433
86.947,426
86.972,416
86.997,396
87.022,309
87.047,142
87.072,-26
87.097,-89
87.122,0
87.147,192
87.172,399
87.197,571
87.222,724
87.247,892
87.272,1063
87.297,1157
87.322,1079
87.347,795
87.372,371
87.397,-45
87.422,-306
87.447,-338
87.472,-172
87.497,84
87.522,329
87.547,509
87.572,626
87.597,692
87.622,701
87.647,632
87.672,478
87.697,268
87.722,53
87.747,-113
87.772,-195
87.797,-173
87.822,-58
87.847,100
87.872,220
87.897,238
87.922,155
87.947,38
87.972,-38
87.997,-67
88.022,-107
88.047,-226
88.072,-427
88.097,-631
88.122,-746
88.147,-729
88.172,-599
88.197,-404
88.222,-190
88.247,5
88.272,136
88.297,169
88.322,111
88.347,15
88.372,-59
88.397,-102
88.422,-141
88.447,-195
88.472,-237
88.497,-212
88.522,-91
88.547,92
88.572,274
88.597,410
88.622,499
88.647,564
88.672,626
88.697,697
88.722,777
88.747,846
88.772,861
88.797,790
88.822,662
88.847,566
88.872,579
88.897,681
88.922,748
88.947,662
88.972,429
88.997,181
89.022,55
89.047,69
89.072,129
89.097,136
89.122,86
89.147,56
89.172,100
89.197,189
89.222,246
89.247,233
89.272,187
89.297,175
89.322,225
89.347,306
89.372,363
89.397,358
89.422,291
89.447,183
89.472,63
89.497,-37
89.522,-97
89.547,-108
89.572,-81
89.597,-39
89.622,-1
89.647,19
89.672,21
89.697,16
89.722,20
89.747,48
89.772,99
89.797,156
89.822,202
89.847,235
89.872,263
89.897,291
89.922,311
89.947,313
89.972,301
89.997,286
90.022,278
90.047,268
90.072,246
90.097,212
90.122,177
90.147,144
90.172,102
90.197,42
90.222,-26
90.247,-81
90.272,-111
90.297,-130
90.322,-159
90.347,-205
90.372,-260
90.397,-315
90.422,-367
90.447,-410
90.472,-427
90.497,-413
90.522,-389
90.547,-387
90.572,-397
90.597,-351
90.622,-180
90.647,102
90.672,390
90.697,575
90.722,647
90.747,692
90.772,783
90.797,899
90.822,947
90.847,879
90.872,749
90.897,653
90.922,628
90.947,639
90.972,649
90.997,683
91.022,782
91.047,921
91.072,999
91.097,936
91.122,763
91.147,590
91.172,487
91.197,409
91.222,268
91.247,53
91.272,-140
91.297,-207
91.322,-143
91.347,-43
91.372,2
91.397,-6
91.422,-5
91.447,43
91.472,108
91.497,129
91.522,84
91.547,8
91.572,-58
91.597,-106
91.622,-143
91.647,-168
91.672,-163
91.697,-119
91.722,-56
91.747,-5
91.772,17
91.797,21
91.822,22
91.847,26
91.872,32
91.897,41
91.922,57
91.947,78
91.972,92
91.997,92
92.022,90
92.047,99
92.072,118
92.097,127
92.122,109
92.147,74
92.172,53
92.197,74
92.222,132
92.247,195
92.272,233
92.297,245
92.322,252
92.347,276
92.372,315
92.397,344
92.422,342
92.447,315
92.472,288
92.497,282
92.522,287
92.547,272
92.572,218
92.597,147
92.622,105
92.647,116
92.672,153
92.697,162
92.722,115
92.747,39
92.772,-9
92.797,-5
92.822,26
92.847,36
92.872,3
92.897,-50
92.922,-83
92.947,-74
92.972,-30
92.997,23
93.022,64
93.047,80
93.072,68
93.097,41
93.122,23
93.147,35
93.172,81
93.197,138
93.222,184
93.247,213
93.272,238
93.297,270
93.322,305
93.347,329
93.372,339
93.397,342
93.422,345
93.447,347
93.472,341
93.497,329
93.522,321
93.547,328
93.572,344
93.597,354
93.622,350
93.647,333
93.672,314
93.697,298
93.722,285
93.747,278
93.772,280
93.797,287
93.822,290
93.847,277
93.872,245
93.897,202
93.922,155
93.947,110
93.972,75
93.997,59
94.022,70
94.047,101
94.072,134
94.097,154
94.122,165
94.147,184
94.172,220
94.197,264
94.222,304
94.247,337
94.272,370
94.297,406
94.322,435
94.347,451
94.372,456
94.397,466
94.422,482
94.447,489
94.472,469
94.497,422
94.522,369
94.547,324
94.572,284
94.597,234
94.622,174
94.647,120
94.672,82
94.697,51
94.722,8
94.747,-45
94.772,-90
94.797,-107
94.822,-110
94.847,-132
94.872,-183
94.897,-239
94.922,-263
94.947,-247
94.972,-229
94.997,-248
95.022,-306
95.047,-369
95.072,-408
95.097,-428
95.122,-462
95.147,-522
95.172,-583
95.197,-605
95.222,-569
95.247,-491
95.272,-401
95.297,-313
95.322,-213
95.347,-80
95.372,102
95.397,328
95.422,572
95.447,791
95.472,947
95.497,1020
95.522,1024
95.547,997
95.572,976
95.597,975
95.622,987
95.647,993
95.672,982
95.697,945
95.722,874
95.747,770
95.772,648
95.797,537
95.822,464
95.847,432
95.872,417
95.897,395
95.922,365
95.947,352
95.972,375
95.997,425
96.022,461
96.047,444
96.072,367
96.097,260
96.122,165
96.147,93
96.172,26
96.197,-55
96.222,-135
96.247,-166
96.272,-117
96.297,-17
96.322,52
96.347,32
96.372,-65
96.397,-170
96.422,-239
96.447,-306
96.472,-439
96.497,-648
96.522,-841
96.547,-893
96.572,-766
96.597,-549
96.622,-376
96.647,-303
96.672,-279
96.697,-220
96.722,-108
96.747,-6
96.772,17
96.797,-29
96.822,-78
96.847,-63
96.872,10
96.897,77
96.922,70
96.947,-21
96.972,-144
96.997,-230
97.022,-263
97.047,-305
97.072,-437
97.097,-657
97.122,-831
97.147,-784
97.172,-460
97.197,19
97.222,464
97.247,797
97.272,1098
97.297,1450
97.322,1778
97.347,1895
97.372,1730
97.397,1461
97.422,1362
97.447,1511
97.472,1706
97.497,1706
97.522,1512
97.547,1345
97.572,1339
97.597,1324
97.622,1008
97.647,345
97.672,-344
97.697,-677
97.722,-587
97.747,-345
97.772,-228
97.797,-240
97.822,-216
97.847,-130
97.872,-173
97.897,-489
97.922,-919
97.947,-1095
97.972,-812
97.997,-245
98.022,239
98.047,432
98.072,394
98.097,275
98.122,115
98.147,-99
98.172,-277
98.197,-227
98.222,127
98.247,615
98.272,967
98.297,1080
98.322,1081
98.347,1090
98.372,1027
98.397,717
98.422,184
98.447,-258
98.472,-291
98.497,72
98.522,478
98.547,577
98.572,345
98.597,44
98.622,-89
98.647,-61
98.672,-32
98.697,-89
98.722,-168
98.747,-180
98.772,-134
98.797,-115
98.822,-159
98.847,-214
98.872,-217
98.897,-179
98.922,-168
98.947,-227
98.972,-329
98.997,-423
99.022,-475
99.047,-475
99.072,-411
99.097,-280
99.122,-118
99.147,10
99.172,70
99.197,96
99.222,147
99.247,238
99.272,317
99.297,340
99.322,332
99.347,368
99.372,480
99.397,617
99.422,701
99.447,715
99.472,723
99.497,790
99.522,914
99.547,1034
99.572,1106
99.597,1140
99.622,1162
99.647,1157
99.672,1069
99.697,869
99.722,605
99.747,369
99.772,222
99.797,147
99.822,89
99.847,12
99.872,-73
99.897,-139
99.922,-181
99.947,-217
99.972,-253
99.997,-277
100.022,-273
100.047,-263
100.072,-298
100.097,-418
100.122,-618
100.147,-848
100.172,-1047
100.197,-1174
100.222,-1221
100.247,-1213
100.272,-1196
100.297,-1219
100.322,-1304
100.347,-1426
100.372,-1538
100.397,-1614
100.422,-1675
100.447,-1739
100.472,-1752
100.497,-1583
100.522,-1127
100.547,-422
100.572,332
100.597,908
100.622,1216
100.647,1353
100.672,1498
100.697,1755
100.722,2094
100.747,2414
100.772,2643
100.797,2763
100.822,2777
100.847,2673
100.872,2437
100.897,2097
100.922,1723
100.947,1387
100.972,1114
100.997,872
101.022,618
101.047,332
101.072,41
101.097,-191
101.122,-307
101.147,-287
101.172,-175
101.197,-58
101.222,-14
101.247,-58
101.272,-142
101.297,-194
101.322,-172
101.347,-86
101.372,25
101.397,129
101.422,213
101.447,284
101.472,357
101.497,442
101.522,539
101.547,639
101.572,723
101.597,772
101.622,782
101.647,763
101.672,740
101.697,736
101.722,757
101.747,776
101.772,729
101.797,546
101.822,205
101.847,-227
101.872,-623
101.897,-873
101.922,-951
101.947,-921
101.972,-868
101.997,-835
102.022,-814
102.047,-782
102.072,-732
102.097,-666
102.122,-590
102.147,-509
102.172,-440
102.197,-400
102.222,-379
102.247,-332
102.272,-228
102.297,-90
102.322,1
102.347,-23
102.372,-152
102.397,-301
102.422,-380
102.447,-366
102.472,-295
102.497,-210
102.522,-114
102.547,13
102.572,175
102.597,346
102.622,483
102.647,563
102.672,585
102.697,567
102.722,535
102.747,513
102.772,515
102.797,536
102.822,553
102.847,554
102.872,549
102.897,558
102.922,584
102.947,607
102.972,611
102.997,608
103.022,626
103.047,666
103.072,689
103.097,654
103.122,571
103.147,497
103.172,481
103.197,504
103.222,494
103.247,398
103.272,235
103.297,80
103.322,0
103.347,-2
103.372,34
103.397,74
103.422,112
103.447,172
103.472,274
103.497,424
103.522,604
103.547,780
103.572,909
103.597,960
103.622,942
103.647,902
103.672,879
103.697,860
103.722,772
103.747,531
103.772,109
103.797,-446
103.822,-1035
103.847,-1561
103.872,-1966
103.897,-2237
103.922,-2387
103.947,-2439
103.972,-2404
103.997,-2273
104.022,-2029
104.047,-1682
104.072,-1286
104.097,-929
104.122,-680
104.147,-540
104.172,-443
104.197,-304
104.222,-73
104.247,250
104.272,634
104.297,1030
104.322,1387
104.347,1645
104.372,1769
104.397,1773
104.422,1730
104.447,1726
104.472,1800
104.497,1914
104.522,1989
104.547,1971
104.572,1881
104.597,1792
104.622,1771
104.647,1835
104.672,1942
104.697,2037
104.722,2080
104.747,2065
104.772,1999
104.797,1891
104.822,1751
104.847,1601
104.872,1465
104.897,1344
104.922,1213
104.947,1034
104.972,803
104.997,569
105.022,407
105.047,361
105.072,418
105.097,518
105.122,595
105.147,602
105.172,506
105.197,269
105.222,-136
105.247,-704
105.272,-1383
105.297,-2092
105.322,-2763
105.347,-3348
105.372,-3818
105.397,-4157
105.422,-4366
105.447,-4467
105.472,-4485
105.497,-4420
105.522,-4243
105.547,-3931
105.572,-3510
105.597,-3058
105.622,-2655
105.647,-2321
105.672,-2010
105.697,-1661
105.722,-1253
105.747,-824
105.772,-428
105.797,-93
105.822,201
105.847,501
105.872,836
105.897,1202
105.922,1557
105.947,1851
105.972,2054
105.997,2166
106.022,2217
106.047,2241
106.072,2260
106.097,2283
106.122,2313
106.147,2349
106.172,2388
106.197,2417
106.222,2427
106.247,2418
106.272,2398
106.297,2378
106.322,2355
106.347,2330
106.372,2308
106.397,2298
106.422,2289
106.447,2258
106.472,2187
106.497,2099
106.522,2045
106.547,2053
106.572,2087
106.597,2073
106.622,1957
106.647,1752
106.672,1509
106.697,1247
106.722,932
106.747,520
106.772,19
106.797,-489
106.822,-906
106.847,-1171
106.872,-1275
106.897,-1236
106.922,-1080
106.947,-849
106.972,-602
106.997,-387
107.022,-214
107.047,-68
107.072,47
107.097,83
107.122,-10
107.147,-220
107.172,-455
107.197,-623
107.222,-722
107.247,-844
107.272,-1080
107.297,-1424
107.322,-1772
107.347,-2006
107.372,-2080
107.397,-2017
107.422,-1860
107.447,-1632
107.472,-1354
107.497,-1067
107.522,-823
107.547,-641
107.572,-486
107.597,-306
107.622,-87
107.647,129
107.672,292
107.697,388
107.722,446
107.747,511
107.772,600
107.797,695
107.822,770
107.847,815
107.872,841
107.897,863
107.922,883
107.947,882
107.972,836
107.997,730
108.022,575
108.047,407
108.072,259
108.097,142
108.122,40
108.147,-65
108.172,-175
108.197,-268
108.222,-317
108.247,-316
108.272,-283
108.297,-246
108.322,-224
108.347,-222
108.372,-234
108.397,-251
108.422,-277
108.447,-317
108.472,-367
108.497,-399
108.522,-383
108.547,-304
108.572,-191
108.597,-89
108.622,-17
108.647,48
108.672,155
108.697,310
108.722,471
108.747,586
108.772,644
108.797,685
108.822,740
108.847,790
108.872,793
108.897,748
108.922,725
108.947,803
108.972,996
108.997,1224
109.022,1381
109.047,1411
109.072,1323
109.097,1159
109.122,956
109.147,743
109.172,563
109.197,455
109.222,421
109.247,421
109.272,414
109.297,396
109.322,398
109.347,435
109.372,477
109.397,474
109.422,408
109.447,311
109.472,231
109.497,192
109.522,186
109.547,196
109.572,211
109.597,228
109.622,238
109.647,241
109.672,240
109.697,239
109.722,226
109.747,184
109.772,123
109.797,84
109.822,94
109.847,126
109.872,116
109.897,28
109.922,-89
109.947,-154
109.972,-128
109.997,-52
110.022,9
110.047,48
110.072,112
110.097,223
110.122,335
110.147,384
110.172,374
110.197,388
110.222,492
110.247,656
110.272,769
110.297,754
110.322,634
110.347,479
110.372,319
110.397,126
110.422,-109
110.447,-332
110.472,-463
110.497,-501
110.522,-543
110.547,-696
110.572,-961
110.597,-1237
110.622,-1418
110.647,-1482
110.672,-1477
110.697,-1441
110.722,-1367
110.747,-1240
110.772,-1086
110.797,-964
110.822,-911
110.847,-912
110.872,-927
110.897,-939
110.922,-959
110.947,-989
110.972,-1006
110.997,-980
111.022,-905
111.047,-797
111.072,-652
111.097,-431
111.122,-98
111.147,331
111.172,781
111.197,1151
111.222,1384
111.247,1487
111.272,1519
111.297,1545
111.322,1608
111.347,1710
111.372,1819
111.397,1893
111.422,1912
111.447,1894
111.472,1872
111.497,1866
111.522,1859
111.547,1820
111.572,1728
111.597,1591
111.622,1432
111.647,1275
111.672,1147
111.697,1080
111.722,1093
111.747,1179
111.772,1292
111.797,1382
111.822,1421
111.847,1412
111.872,1364
111.897,1270
111.922,1109
111.947,874
111.972,585
111.997,272
112.022,-37
112.047,-334
112.072,-604
112.097,-830
112.122,-996
112.147,-1105
112.172,-1166
112.197,-1183
112.222,-1150
112.247,-1066
112.272,-952
112.297,-849
112.322,-794
112.347,-806
112.372,-877
112.397,-985
112.422,-1094
112.447,-1158
112.472,-1134
112.497,-1010
112.522,-816
112.547,-611
112.572,-449
112.597,-359
112.622,-331
112.647,-328
112.672,-298
112.697,-197
112.722,-14
112.747,203
112.772,378
112.797,453
112.822,443
112.847,421
112.872,456
112.897,553
112.922,661
112.947,727
112.972,745
112.997,750
113.022,770
113.047,800
113.072,815
113.097,804
113.122,780
113.147,754
113.172,724
113.197,677
113.222,615
113.247,553
113.272,498
113.297,443
113.322,373
113.347,292
113.372,212
113.397,142
113.422,69
113.447,-14
113.472,-90
113.497,-113
113.522,-59
113.547,52
113.572,164
113.597,231
113.622,252
113.647,252
113.672,244
113.697,218
113.722,158
113.747,75
113.772,1
113.797,-41
113.822,-56
113.847,-64
113.872,-78
113.897,-95
113.922,-111
113.947,-125
113.972,-144
113.997,-162
114.022,-170
114.047,-168
114.072,-171
114.097,-195
114.122,-245
114.147,-314
114.172,-391
114.197,-466
114.222,-524
114.247,-548
114.272,-529
114.297,-488
114.322,-464
114.347,-480
114.372,-517
114.397,-537
114.422,-516
114.447,-463
114.472,-403
114.497,-341
114.522,-261
114.547,-152
114.572,-22
114.597,116
114.622,274
114.647,472
114.672,714
114.697,953
114.722,1129
114.747,1220
114.772,1256
114.797,1291
114.822,1349
114.847,1415
114.872,1472
114.897,1525
114.922,1587
114.947,1652
114.972,1687
114.997,1656
115.022,1553
115.047,1401
115.072,1229
115.097,1057
115.122,899
115.147,772
115.172,679
115.197,604
115.222,526
115.247,446
115.272,383
115.297,351
115.322,325
115.347,260
115.372,132
115.397,-24
115.422,-146
115.447,-194
115.472,-175
115.497,-126
115.522,-73
115.547,-17
115.572,45
115.597,111
115.622,163
115.647,187
115.672,175
115.697,122
115.722,35
115.747,-63
115.772,-137
115.797,-167
115.822,-168
115.847,-178
115.872,-225
115.897,-305
115.922,-394
115.947,-474
115.972,-537
115.997,-579
116.022,-595
116.047,-592
116.072,-594
116.097,-619
116.122,-652
116.147,-659
116.172,-630
116.197,-607
116.222,-641
116.247,-717
116.272,-735
116.297,-591
116.322,-282
116.347,77
116.372,346
116.397,478
116.422,535
116.447,605
116.472,708
116.497,792
116.522,806
116.547,755
116.572,683
116.597,620
116.622,553
116.647,452
116.672,319
116.697,182
116.722,68
116.747,-21
116.772,-100
116.797,-168
116.822,-212
116.847,-219
116.872,-193
116.897,-145
116.922,-80
116.947,2
116.972,82
116.997,119
117.022,74
117.047,-48
117.072,-191
117.097,-278
117.122,-270
117.147,-190
117.172,-100
117.197,-47
117.222,-30
117.247,-8
117.272,65
117.297,211
117.322,423
117.347,685
117.372,979
117.397,1284
117.422,1548
117.447,1692
117.472,1645
117.497,1392
117.522,1008
117.547,628
117.572,373
117.597,287
117.622,319
117.647,380
117.672,407
117.697,403
117.722,402
117.747,417
117.772,425
117.797,383
117.822,281
117.847,153
117.872,52
117.897,6
117.922,6
117.947,18
117.972,15
117.997,-11
118.022,-47
118.047,-63
118.072,-24
118.097,78
118.122,214
118.147,318
118.172,339
118.197,288
118.222,234
118.247,249
118.272,338
118.297,441
118.322,479
118.347,426
118.372,313
118.397,188
118.422,81
118.447,0
118.472,-52
118.497,-59
118.522,-25
118.547,19
118.572,31
118.597,-7
118.622,-77
118.647,-140
118.672,-180
118.697,-210
118.722,-250
118.747,-302
118.772,-351
118.797,-390
118.822,-431
118.847,-494
118.872,-583
118.897,-677
118.922,-746
118.947,-769
118.972,-744
118.997,-687
119.022,-620
119.047,-559
119.072,-503
119.097,-436
119.122,-340
119.147,-214
119.172,-81
119.197,23
119.222,88
119.247,129
119.272,178
119.297,250
119.322,329
119.347,389
119.372,423
119.397,444
119.422,471
119.447,502
119.472,517
119.497,505
119.522,484
119.547,482
119.572,515
119.597,576
119.622,643
119.647,710
119.672,786
119.697,876
119.722,968
119.747,1046
119.772,1113
119.797,1192
119.822,1297
119.847,1408
119.872,1485
119.897,1505
119.922,1486
119.947,1469
119.972,1476
119.997,1486
120.022,1452
120.047,1331
120.072,1116
120.097,831
120.122,529
120.147,273
120.172,117
120.197,83
120.222,155
120.247,291
120.272,456
120.297,613
120.322,708
120.347,652
120.372,375
120.397,-100
120.422,-632
120.447,-1033
120.472,-1198
120.497,-1175
120.522,-1103
120.547,-1082
120.572,-1101
120.597,-1089
120.622,-1009
120.647,-905
120.672,-848
120.697,-861
120.722,-907
120.747,-932
120.772,-926
120.797,-910
120.822,-893
120.847,-853
120.872,-759
120.897,-611
120.922,-445
120.947,-297
120.972,-175
120.997,-59
121.022,63
121.047,184
121.072,280
121.097,339
121.122,371
121.147,394
121.172,419
121.197,448
121.222,480
121.247,514
121.272,551
121.297,584
121.322,609
121.347,622
121.372,628
121.397,631
121.422,628
121.447,614
121.472,583
121.497,542
121.522,500
121.547,464
121.572,427
121.597,372
121.622,290
121.647,193
121.672,110
121.697,69
121.722,67
121.747,72
121.772,52
121.797,3
121.822,-46
121.847,-70
121.872,-64
121.897,-54
121.922,-62
121.947,-88
121.972,-109
121.997,-100
122.022,-53
122.047,30
122.072,143
122.097,276
122.122,408
122.147,514
122.172,578
122.197,606
122.222,623
122.247,642
122.272,662
122.297,673
122.322,675
122.347,679
122.372,689
122.397,691
122.422,671
122.447,629
122.472,588
122.497,562
122.522,543
122.547,512
122.572,468
122.597,434
122.622,427
122.647,433
122.672,414
122.697,356
122.722,288
122.747,256
122.772,271
122.797,299
122.822,299
122.847,271
122.872,248
122.897,244
122.922,236
122.947,191
122.972,115
122.997,55
123.022,39
123.047,43
123.072,9
123.097,-83
123.122,-187
123.147,-240
123.172,-237
123.197,-228
123.222,-255
123.247,-287
123.272,-251
123.297,-124
123.322,28
123.347,100
123.372,56
123.397,-39
123.422,-84
123.447,-37
123.472,50
123.497,106
123.522,105
123.547,79
123.572,61
123.597,46
123.622,0
123.647,-93
123.672,-203
123.697,-288
123.722,-328
123.747,-335
123.772,-330
123.797,-318
123.822,-288
123.847,-231
123.872,-147
123.897,-41
123.922,82
123.947,225
123.972,379
123.997,532
124.022,667
124.047,767
124.072,823
124.097,838
124.122,829
124.147,822
124.172,834
124.197,854
124.222,861
124.247,843
124.272,817
124.297,807
124.322,816
124.347,808
124.372,740
124.397,604
124.422,440
124.447,303
124.472,218
124.497,166
124.522,113
124.547,42
124.572,-36
124.597,-106
124.622,-158
124.647,-196
124.672,-221
124.697,-233
124.722,-235
124.747,-239
124.772,-253
124.797,-272
124.822,-290
124.847,-303
124.872,-324
124.897,-355
124.922,-378
124.947,-361
124.972,-280
124.997,-147
125.022,0
125.047,126
125.072,223
125.097,298
125.122,353
125.147,381
125.172,378
125.197,349
125.222,317
125.247,302
125.272,314
125.297,346
125.322,388
125.347,427
125.372,451
125.397,457
125.422,445
125.447,427
125.472,408
125.497,381
125.522,334
125.547,261
125.572,179
125.597,109
125.622,64
125.647,39
125.672,23
125.697,12
125.722,14
125.747,33
125.772,55
125.797,63
125.822,54
125.847,49
125.872,76
125.897,142
125.922,225
125.947,298
125.972,347
125.997,385
126.022,423
126.047,459
126.072,470
126.097,442
126.122,382
126.147,320
126.172,284
126.197,280
126.222,295
126.247,313
126.272,322
126.297,319
126.322,306
126.347,284
126.372,259
126.397,236
126.422,221
126.447,214
126.472,211
126.497,207
126.522,202
126.547,194
126.572,178
126.597,155
126.622,128
126.647,100
126.672,65
126.697,6
126.722,-88
126.747,-210
126.772,-328
126.797,-407
126.822,-437
126.847,-439
126.872,-442
126.897,-454
126.922,-458
126.947,-427
126.972,-351
126.997,-245
127.022,-133
127.047,-33
127.072,53
127.097,133
127.122,213
127.147,293
127.172,368
127.197,429
127.222,470
127.247,491
127.272,502
127.297,508
127.322,512
127.347,506
127.372,486
127.397,456
127.422,426
127.447,404
127.472,387
127.497,368
127.522,344
127.547,319
127.572,301
127.597,298
127.622,316
127.647,362
127.672,434
127.697,518
127.722,585
127.747,616
127.772,615
127.797,607
127.822,614
127.847,630
127.872,633
127.897,606
127.922,562
127.947,525
127.972,504
127.997,479
128.022,425
128.047,335
128.072,236
128.097,156
128.122,105
128.147,68
128.172,33
128.197,3
128.222,-11
128.247,-20
128.272,-56
128.297,-149
128.322,-295
128.347,-453
128.372,-574
128.397,-635
128.422,-645
128.447,-627
128.472,-594
128.497,-547
128.522,-492
128.547,-438
128.572,-391
128.597,-340
128.622,-265
128.647,-158
128.672,-36
128.697,74
128.722,162
128.747,238
128.772,321
128.797,414
128.822,498
128.847,554
128.872,578
128.897,587
128.922,598
128.947,615
128.972,627
128.997,622
129.022,601
129.047,573
129.072,547
129.097,526
129.122,504
129.147,478
129.172,445
129.197,406
129.222,369
129.247,345
129.272,339
129.297,348
129.322,359
129.347,355
129.372,328
129.397,281
129.422,225
129.447,174
129.472,137
129.497,115
129.522,105
129.547,98
129.572,89
129.597,82
129.622,80
129.647,84
129.672,86
129.697,79
129.722,63
129.747,48
129.772,44
129.797,50
129.822,58
129.847,62
129.872,63
129.897,64
129.922,62
129.947,52
129.972,34
129.997,15
130.022,3
130.047,-1
130.072,-3
130.097,0
130.122,20
130.147,72
130.172,151
130.197,238
130.222,308
130.247,344
130.272,339
130.297,295
130.322,219
130.347,138
130.372,90
130.397,99
130.422,156
130.447,216
130.472,241
130.497,224
130.522,191
130.547,167
130.572,151
130.597,124
130.622,84
130.647,49
130.672,44
130.697,74
130.722,123
130.747,174
130.772,228
130.797,294
130.822,368
130.847,428
130.872,458
130.897,463
130.922,459
130.947,455
130.972,438
130.997,394
131.022,329
131.047,261
131.072,204
131.097,150
131.122,85
131.147,10
131.172,-50
131.197,-71
131.222,-48
131.247,-2
131.272,40
131.297,74
131.322,105
131.347,141
131.372,179
131.397,210
131.422,234
131.447,256
131.472,284
131.497,315
131.522,345
131.547,369
131.572,390
131.597,411
131.622,433
131.647,453
131.672,466
131.697,466
131.722,447
131.747,408
131.772,353
131.797,288
131.822,216
131.847,136
131.872,56
131.897,-1
131.922,-11
131.947,29
131.972,94
131.997,143
132.022,155
132.047,148
132.072,158
132.097,197
132.122,236
132.147,231
132.172,164
132.197,64
132.222,-20
132.247,-64
132.272,-83
132.297,-110
132.322,-163
132.347,-231
132.372,-286
132.397,-307
132.422,-291
132.447,-246
132.472,-185
132.497,-124
132.522,-75
132.547,-39
132.572,-2
132.597,56
132.622,144
132.647,250
132.672,350
132.697,425
132.722,473
132.747,507
132.772,534
132.797,550
132.822,549
132.847,528
132.872,498
132.897,471
132.922,458
132.947,457
132.972,461
132.997,462
133.022,450
133.047,424
133.072,385
133.097,337
133.122,284
133.147,226
133.172,168
133.197,115
133.222,74
133.247,42
133.272,13
133.297,-14
133.322,-35
133.347,-34
133.372,-7
133.397,40
133.422,87
133.447,122
133.472,144
133.497,164
133.522,187
133.547,206
133.572,211
133.597,197
133.622,174
133.647,155
133.672,148
133.697,152
133.722,163
133.747,175
133.772,186
133.797,194
133.822,194
133.847,187
133.872,177
133.897,170
133.922,171
133.947,182
133.972,196
133.997,208
134.022,213
134.047,211
134.072,203
134.097,192
134.122,181
134.147,169
134.172,160
134.197,156
134.222,157
134.247,158
134.272,154
134.297,144
134.322,128
134.347,110
134.372,88
134.397,60
134.422,26
134.447,-2
134.472,-11
134.497,9
134.522,54
134.547,108
134.572,154
134.597,187
134.622,214
134.647,243
134.672,277
134.697,310
134.722,335
134.747,349
134.772,357
134.797,363
134.822,370
134.847,376
134.872,379
134.897,378
134.922,374
134.947,369
134.972,363
134.997,357
135.022,347
135.047,332
135.072,314
135.097,296
135.122,280
135.147,264
135.172,246
135.197,225
135.222,199
135.247,169
135.272,134
135.297,94
135.322,52
135.347,16
135.372,-12
135.397,-34
135.422,-58
135.447,-86
135.472,-111
135.497,-123
135.522,-113
135.547,-81
135.572,-40
135.597,2
135.622,43
135.647,85
135.672,127
135.697,166
135.722,195
135.747,214
135.772,227
135.797,241
135.822,256
135.847,270
135.872,278
135.897,283
135.922,285
135.947,288
135.972,288
135.997,285
136.022,278
136.047,268
136.072,254
136.097,236
136.122,215
136.147,195
136.172,178
136.197,163
136.222,148
136.247,131
136.272,114
136.297,97
136.322,78
136.347,53
136.372,23
136.397,0
136.422,-6
136.447,10
136.472,43
136.497,80
136.522,112
136.547,140
136.572,169
136.597,202
136.622,236
136.647,262
136.672,276
136.697,284
136.722,291
136.747,303
136.772,315
136.797,322
136.822,323
136.847,321
136.872,323
136.897,330
136.922,337
136.947,337
136.972,332
136.997,327
137.022,326
137.047,326
137.072,319
137.097,303
137.122,285
137.147,271
137.172,262
137.197,254
137.222,246
137.247,237
137.272,227
137.297,215
137.322,196
137.347,171
137.372,150
137.397,144
137.422,156
137.447,180
137.472,210
137.497,244
137.522,278
137.547,302
137.572,306
137.597,288
137.622,257
137.647,223
137.672,188
137.697,148
137.722,104
137.747,64
137.772,31
137.797,-3
137.822,-55
137.847,-119
137.872,-170
137.897,-185
137.922,-182
137.947,-210
137.972,-311
137.997,-462
138.022,-574
138.047,-562
138.072,-401
138.097,-153
138.122,96
138.147,299
138.172,471
138.197,649
138.222,848
138.247,1042
138.272,1197
138.297,1306
138.322,1389
138.347,1452
138.372,1466
138.397,1370
138.422,1123
138.447,745
138.472,323
138.497,-31
138.522,-248
138.547,-325
138.572,-323
138.597,-317
138.622,-347
138.647,-399
138.672,-436
138.697,-430
138.722,-391
138.747,-346
138.772,-315
138.797,-291
138.822,-265
138.847,-244
138.872,-247
138.897,-280
138.922,-321
138.947,-335
138.972,-310
138.997,-270
139.022,-248
139.047,-250
139.072,-260
139.097,-267
139.122,-285
139.147,-329
139.172,-372
139.197,-348
139.222,-206
139.247,34
139.272,289
139.297,483
139.322,612
139.347,736
139.372,909
139.397,1117
139.422,1285
139.447,1332
139.472,1239
139.497,1057
139.522,870
139.547,742
139.572,674
139.597,612
139.622,492
139.647,311
139.672,135
139.697,50
139.722,78
139.747,157
139.772,202
139.797,183
139.822,140
139.847,117
139.872,88
139.897,-11
139.922,-206
139.947,-429
139.972,-566
139.997,-562
140.022,-455
140.047,-327
140.072,-228
140.097,-159
140.122,-102
140.147,-45
140.172,35
140.197,184
140.222,421
140.247,696
140.272,906
140.297,994
140.322,1016
140.347,1097
140.372,1295
140.397,1523
140.422,1613
140.447,1467
140.472,1143
140.497,803
140.522,579
140.547,493
140.572,464
140.597,391
140.622,219
140.647,-31
140.672,-273
140.697,-392
140.722,-330
140.747,-133
140.772,59
140.797,125
140.822,48
140.847,-77
140.872,-148
140.897,-152
140.922,-165
140.947,-268
140.972,-470
140.997,-705
141.022,-896
141.047,-998
141.072,-995
141.097,-886
141.122,-685
141.147,-444
141.172,-231
141.197,-93
141.222,-23
141.247,13
141.272,39
141.297,53
141.322,51
141.347,57
141.372,103
141.397,188
141.422,269
141.447,303
141.472,289
141.497,267
141.522,274
141.547,308
141.572,339
141.597,347
141.622,337
141.647,326
141.672,317
141.697,294
141.722,249
141.747,188
141.772,127
141.797,71
141.822,23
141.847,-9
141.872,-8
141.897,29
141.922,80
141.947,109
141.972,107
141.997,106
142.022,155
142.047,273
142.072,428
142.097,564
142.122,647
142.147,688
142.172,717
142.197,752
142.222,781
142.247,785
142.272,755
142.297,701
142.322,638
142.347,575
142.372,511
142.397,439
142.422,361
142.447,281
142.472,208
142.497,148
142.522,106
142.547,81
142.572,69
142.597,59
142.622,44
142.647,24
142.672,10
142.697,15
142.722,47
142.747,100
142.772,158
142.797,207
142.822,239
142.847,262
142.872,282
142.897,303
142.922,317
142.947,320
142.972,314
142.997,309
143.022,316
143.047,332
143.072,342
143.097,333
143.122,303
143.147,263
143.172,224
143.197,189
143.222,150
143.247,100
143.272,46
143.297,0
143.322,-32
143.347,-55
143.372,-82
143.397,-119
143.422,-168
143.447,-226
143.472,-293
143.497,-365
143.522,-427
143.547,-456
143.572,-435
143.597,-371
143.622,-290
143.647,-215
143.672,-145
143.697,-63
143.722,38
143.747,143
143.772,221
143.797,258
143.822,267
143.847,278
143.872,302
143.897,332
143.922,354
143.947,364
143.972,374
143.997,388
144.022,395
144.047,381
144.072,345
144.097,305
144.122,281
144.147,276
144.172,279
144.197,278
144.222,274
144.247,271
144.272,267
144.297,253
144.322,224
144.347,190
144.372,167
144.397,168
144.422,184
144.447,202
144.472,212
144.497,219
144.522,234
144.547,256
144.572,274
144.597,275
144.622,257
144.647,229
144.672,206
144.697,197
144.722,200
144.747,206
144.772,209
144.797,209
144.822,211
144.847,220
144.872,230
144.897,234
144.922,226
144.947,213
144.972,202
144.997,198
145.022,196
145.047,191
145.072,180
145.097,171
145.122,170
145.147,175
145.172,179
145.197,179
145.222,180
145.247,187
145.272,194
145.297,191
145.322,175
145.347,159
145.372,166
145.397,204
145.422,260
145.447,306
145.472,331
145.497,345
145.522,365
145.547,394
145.572,414
145.597,410
145.622,387
145.647,367
145.672,365
145.697,375
145.722,371
145.747,339
145.772,285
145.797,225
145.822,174
145.847,126
145.872,74
145.897,18
145.922,-30
145.947,-64
145.972,-82
145.997,-94
146.022,-106
146.047,-116
146.072,-121
146.097,-125
146.122,-132
146.147,-140
146.172,-141
146.197,-127
146.222,-95
146.247,-56
146.272,-18
146.297,16
146.322,53
146.347,96
146.372,138
146.397,168
146.422,176
146.447,167
146.472,151
146.497,141
146.522,138
146.547,136
146.572,128
146.597,112
146.622,95
146.647,88
146.672,98
146.697,122
146.722,153
146.747,186
146.772,218
146.797,249
146.822,281
146.847,316
146.872,353
146.897,391
146.922,423
146.947,441
146.972,439
146.997,417
147.022,384
147.047,347
147.072,310
147.097,273
147.122,234
147.147,194
147.172,153
147.197,116
147.222,90
147.247,83
147.272,95
147.297,122
147.322,148
147.347,165
147.372,174
147.397,183
147.422,201
147.447,227
147.472,250
147.497,265
147.522,275
147.547,291
147.572,315
147.597,339
147.622,353
147.647,354
147.672,350
147.697,351
147.722,360
147.747,369
147.772,371
147.797,365
147.822,354
147.847,342
147.872,328
147.897,308
147.922,284
147.947,257
147.972,227
147.997,195
148.022,160
148.047,127
148.072,98
148.097,70
148.122,36
148.147,-10
148.172,-61
148.197,-98
148.222,-106
148.247,-90
148.272,-68
148.297,-56
148.322,-56
148.347,-61
148.372,-65
148.397,-68
148.422,-75
148.447,-82
148.472,-77
148.497,-52
148.522,-10
148.547,37
148.572,82
148.597,122
148.622,158
148.647,191
148.672,213
148.697,225
148.722,230
148.747,236
148.772,246
148.797,254
148.822,256
148.847,256
148.872,259
148.897,267
148.922,277
148.947,284
148.972,286
148.997,284
149.022,274
149.047,252
149.072,220
149.097,192
149.122,183
149.147,199
149.172,229
149.197,255
149.222,267
149.247,270
149.272,274
149.297,281
149.322,287
149.347,287
149.372,283
149.397,284
149.422,291
149.447,302
149.472,307
149.497,304
149.522,294
149.547,281
149.572,268
149.597,254
149.622,239
149.647,223
149.672,205
149.697,183
149.722,160
149.747,138
149.772,120
149.797,107
149.822,94
149.847,76
149.872,54
149.897,32
149.922,12
149.947,-6
149.972,-28
149.997,-55
150.022,-82
150.047,-105
150.072,-116
150.097,-109
150.122,-82
150.147,-42
150.172,0
150.197,28
150.222,45
150.247,59
150.272,84
150.297,117
150.322,139
150.347,136
150.372,115
150.397,109
150.422,146
150.447,236
150.472,360
150.497,491
150.522,606
150.547,690
150.572,731
150.597,717
150.622,652
150.647,559
150.672,470
150.697,401
150.722,344
150.747,283
150.772,215
150.797,154
150.822,118
150.847,108
150.872,112
150.897,113
150.922,109
150.947,101
150.972,90
150.997,67
151.022,30
151.047,-14
151.072,-49
151.097,-60
151.122,-44
151.147,-2
151.172,57
151.197,129
151.222,203
151.247,266
151.272,311
151.297,339
151.322,357
151.347,369
151.372,371
151.397,356
151.422,322
151.447,276
151.472,225
151.497,179
151.522,138
151.547,105
151.572,77
151.597,52
151.622,28
151.647,2
151.672,-23
151.697,-46
151.722,-62
151.747,-66
151.772,-55
151.797,-31
151.822,-1
151.847,22
151.872,32
151.897,30
151.922,28
151.947,38
151.972,65
151.997,101
152.022,134
152.047,164
152.072,195
152.097,231
152.122,267
152.147,293
152.172,301
152.197,300
152.222,300
152.247,310
152.272,323
152.297,330
152.322,329
152.347,324
152.372,322
152.397,322
152.422,317
152.447,302
152.472,280
152.497,262
152.522,253
152.547,251
152.572,248
152.597,239
152.622,222
152.647,202
152.672,182
152.697,161
152.722,139
152.747,115
152.772,89
152.797,61
152.822,37
152.847,23
152.872,27
152.897,51
152.922,90
152.947,132
152.972,168
152.997,196
153.022,220
153.047,244
153.072,271
153.097,297
153.122,317
153.147,329
153.172,332
153.197,327
153.222,311
153.247,286
153.272,252
153.297,217
153.322,189
153.347,173
153.372,168
153.397,166
153.422,160
153.447,146
153.472,128
153.497,108
153.522,87
153.547,64
153.572,37
153.597,9
153.622,-19
153.647,-46
153.672,-67
153.697,-72
153.722,-53
153.747,-8
153.772,52
153.797,111
153.822,160
153.847,197
153.872,226
153.897,248
153.922,260
153.947,262
153.972,263
153.997,270
154.022,285
154.047,297
154.072,298
154.097,286
154.122,273
154.147,269
154.172,272
154.197,273
154.222,264
154.247,245
154.272,224
154.297,207
154.322,194
154.347,182
154.372,168
154.397,154
154.422,136
154.447,113
154.472,83
154.497,55
154.522,37
154.547,37
154.572,53
154.597,75
154.622,93
154.647,109
154.672,125
154.697,145
154.722,163
154.747,172
154.772,169
154.797,160
154.822,156
154.847,164
154.872,178
154.897,191
154.922,197
154.947,196
154.972,192
154.997,188
155.022,184
155.047,180
155.072,182
155.097,191
155.122,205
155.147,218
155.172,223
155.197,221
155.222,219
155.247,220
155.272,224
155.297,228
155.322,226
155.347,218
155.372,205
155.397,191
155.422,179
155.447,175
155.472,183
155.497,204
155.522,232
155.547,262
155.572,289
155.597,312
155.622,329
155.647,340
155.672,343
155.697,344
155.722,349
155.747,363
155.772,380
155.797,393
155.822,394
155.847,381
155.872,360
155.897,337
155.922,313
155.947,288
155.972,259
155.997,229
156.022,201
156.047,176
156.072,153
156.097,127
156.122,97
156.147,61
156.172,24
156.197,-12
156.222,-51
156.247,-94
156.272,-135
156.297,-166
156.322,-180
156.347,-181
156.372,-178
156.397,-176
156.422,-169
156.447,-146
156.472,-107
156.497,-66
156.522,-41
156.547,-38
156.572,-49
156.597,-57
156.622,-58
156.647,-50
156.672,-37
156.697,-18
156.722,2
156.747,13
156.772,3
156.797,-20
156.822,-34
156.847,-12
156.872,48
156.897,129
156.922,212
156.947,299
156.972,410
156.997,557
157.022,719
157.047,855
157.072,928
157.097,928
157.122,870
157.147,776
157.172,661
157.197,537
157.222,417
157.247,320
157.272,262
157.297,241
157.322,243
157.347,246
157.372,235
157.397,205
157.422,162
157.447,122
157.472,98
157.497,90
157.522,92
157.547,93
157.572,92
157.597,93
157.622,100
157.647,110
157.672,117
157.697,117
157.722,112
157.747,108
157.772,108
157.797,112
157.822,116
157.847,117
157.872,115
157.897,112
157.922,110
157.947,109
157.972,108
157.997,107
158.022,105
158.047,100
158.072,93
158.097,83
158.122,72
158.147,62
158.172,60
158.197,76
158.222,111
158.247,157
158.272,202
158.297,235
158.322,257
158.347,276
158.372,295
158.397,308
158.422,310
158.447,302
158.472,298
158.497,303
158.522,314
158.547,317
158.572,303
158.597,279
158.622,259
158.647,250
158.672,246
158.697,234
158.722,211
158.747,186
158.772,165
158.797,149
158.822,130
158.847,106
158.872,84
158.897,76
158.922,83
158.947,92
158.972,85
158.997,56
159.022,13
159.047,-27
159.072,-56
159.097,-73
159.122,-80
159.147,-77
159.172,-62
159.197,-31
159.222,11
159.247,61
159.272,114
159.297,163
159.322,201
159.347,226
159.372,240
159.397,249
159.422,261
159.447,276
159.472,289
159.497,295
159.522,293
159.547,285
159.572,274
159.597,261
159.622,248
159.647,237
159.672,232
159.697,231
159.722,227
159.747,215
159.772,193
159.797,171
159.822,155
159.847,147
159.872,142
159.897,133
159.922,119
159.947,105
159.972,92
159.997,80
160.022,72
160.047,71
160.072,83
160.097,108
160.122,141
160.147,177
160.172,212
160.197,246
160.222,279
160.247,308
160.272,328
160.297,341
160.322,353
160.347,370
160.372,389
160.397,404
160.422,412
160.447,420
160.472,438
160.497,467
160.522,492
160.547,496
160.572,475
160.597,443
160.622,416
160.647,399
160.672,382
160.697,353
160.722,312
160.747,267
160.772,225
160.797,177
160.822,114
160.847,38
160.872,-36
160.897,-90
160.922,-118
160.947,-127
160.972,-126
160.997,-120
161.022,-106
161.047,-81
161.072,-52
161.097,-34
161.122,-37
161.147,-54
161.172,-61
161.197,-36
161.222,23
161.247,88
161.272,124
161.297,121
161.322,104
161.347,109
161.372,150
161.397,206
161.422,246
161.447,263
161.472,281
161.497,328
161.522,407
161.547,502
161.572,599
161.597,691
161.622,766
161.647,787
161.672,716
161.697,552
161.722,347
161.747,166
161.772,32
161.797,-84
161.822,-207
161.847,-304
161.872,-308
161.897,-187
161.922,2
161.947,158
161.972,208
161.997,159
162.022,59
162.047,-68
162.072,-234
162.097,-443
162.122,-666
162.147,-872
162.172,-1073
162.197,-1317
162.222,-1605
162.247,-1840
162.272,-1879
162.297,-1654
162.322,-1248
162.347,-829
162.372,-522
162.397,-342
162.422,-239
162.447,-192
162.472,-213
162.497,-279
162.522,-290
162.547,-121
162.572,251
162.597,718
162.622,1131
162.647,1445
162.672,1748
162.697,2153
162.722,2664
162.747,3160
162.772,3500
162.797,3647
162.822,3677
162.847,3682
162.872,3675
162.897,3587
162.922,3340
162.947,2922
162.972,2395
162.997,1845
163.022,1324
163.047,834
163.072,341
163.097,-183
163.122,-733
163.147,-1264
163.172,-1712
163.197,-2033
163.222,-2209
163.247,-2235
163.272,-2110
163.297,-1844
163.322,-1500
163.347,-1193
163.372,-1042
163.397,-1080
163.422,-1221
163.447,-1320
163.472,-1282
163.497,-1120
163.522,-918
163.547,-742
163.572,-587
163.597,-411
163.622,-198
163.647,13
163.672,170
163.697,249
163.722,269
163.747,248
163.772,187
163.797,78
163.822,-59
163.847,-171
163.872,-199
163.897,-126
163.922,13
163.947,168
163.972,304
163.997,414
164.022,508
164.047,590
164.072,659
164.097,714
164.122,752
164.147,772
164.172,772
164.197,761
164.222,752
164.247,754
164.272,753
164.297,720
164.322,643
164.347,541
164.372,460
164.397,429
164.422,440
164.447,460
164.472,468
164.497,467
164.522,462
164.547,443
164.572,378
164.597,252
164.622,80
164.647,-102
164.672,-274
164.697,-435
164.722,-590
164.747,-726
164.772,-816
164.797,-841
164.822,-807
164.847,-737
164.872,-670
164.897,-659
164.922,-759
164.947,-970
164.972,-1196
164.997,-1259
165.022,-1012
165.047,-464
165.072,214
165.097,809
165.122,1215
165.147,1468
165.172,1656
165.197,1801
165.222,1845
165.247,1737
165.272,1506
165.297,1237
165.322,986
165.347,738
165.372,458
165.397,161
165.422,-82
165.447,-213
165.472,-239
165.497,-232
165.522,-264
165.547,-357
165.572,-478
165.597,-559
165.622,-530
165.647,-353
165.672,-44
165.697,316
165.722,625
165.747,810
165.772,873
165.797,857
165.822,800
165.847,711
165.872,593
165.897,470
165.922,376
165.947,319
165.972,274
165.997,212
166.022,141
166.047,96
166.072,96
166.097,125
166.122,156
166.147,189
166.172,249
166.197,350
166.222,461
166.247,539
166.272,567
166.297,565
166.322,558
166.347,546
166.372,511
166.397,450
166.422,385
166.447,333
166.472,283
166.497,206
166.522,98
166.547,-6
166.572,-67
166.597,-75
166.622,-64
166.647,-67
166.672,-87
166.697,-106
166.722,-108
166.747,-103
166.772,-110
166.797,-130
166.822,-147
166.847,-143
166.872,-113
166.897,-73
166.922,-44
166.947,-42
166.972,-69
166.997,-116
167.022,-165
167.047,-204
167.072,-229
167.097,-245
167.122,-252
167.147,-248
167.172,-234
167.197,-227
167.222,-244
167.247,-282
167.272,-309
167.297,-302
167.322,-272
167.347,-269
167.372,-332
167.397,-453
167.422,-576
167.447,-646
167.472,-649
167.497,-603
167.522,-520
167.547,-380
167.572,-156
167.597,148
167.622,486
167.647,791
167.672,1016
167.697,1145
167.722,1174
167.747,1102
167.772,943
167.797,735
167.822,546
167.847,434
167.872,408
167.897,422
167.922,411
167.947,347
167.972,261
167.997,223
168.022,294
168.047,487
168.072,768
168.097,1083
168.122,1375
168.147,1582
168.172,1650
168.197,1558
168.222,1352
168.247,1131
168.272,980
168.297,915
168.322,873
168.347,786
168.372,644
168.397,491
168.422,372
168.447,285
168.472,204
168.497,125
168.522,79
168.547,79
168.572,84
168.597,18
168.622,-141
168.647,-338
168.672,-478
168.697,-522
168.722,-514
168.747,-523
168.772,-567
168.797,-606
168.822,-605
168.847,-576
168.872,-561
168.897,-567
168.922,-561
168.947,-522
168.972,-484
168.997,-518
169.022,-651
169.047,-825
169.072,-935
169.097,-914
169.122,-775
169.147,-584
169.172,-393
169.197,-210
169.222,-28
169.247,144
169.272,290
169.297,396
169.322,476
169.347,546
169.372,611
169.397,662
169.422,691
169.447,701
169.472,699
169.497,687
169.522,662
169.547,631
169.572,608
169.597,597
169.622,589
169.647,567
169.672,530
169.697,490
169.722,459
169.747,424
169.772,356
169.797,240
169.822,92
169.847,-47
169.872,-150
169.897,-219
169.922,-274
169.947,-319
169.972,-336
169.997,-299
170.022,-210
170.047,-96
170.072,13
170.097,113
170.122,218
170.147,335
170.172,444
170.197,505
170.222,502
170.247,454
170.272,404
170.297,380
170.322,380
170.347,381
170.372,365
170.397,335
170.422,309
170.447,301
170.472,314
170.497,341
170.522,374
170.547,411
170.572,456
170.597,508
170.622,562
170.647,605
170.672,624
170.697,615
170.722,584
170.747,541
170.772,489
170.797,422
170.822,339
170.847,251
170.872,179
170.897,128
170.922,86
170.947,34
170.972,-30
170.997,-88
171.022,-124
171.047,-145
171.072,-173
171.097,-217
171.122,-265
171.147,-294
171.172,-298
171.197,-295
171.222,-308
171.247,-340
171.272,-373
171.297,-394
171.322,-401
171.347,-404
171.372,-406
171.397,-407
171.422,-406
171.447,-395
171.472,-354
171.497,-247
171.522,-54
171.547,211
171.572,507
171.597,795
171.622,1062
171.647,1304
171.672,1493
171.697,1573
171.722,1499
171.747,1282
171.772,989
171.797,698
171.822,446
171.847,227
171.872,28
171.897,-147
171.922,-281
171.947,-362
171.972,-407
171.997,-439
172.022,-476
172.047,-520
172.072,-564
172.097,-603
172.122,-634
172.147,-658
172.172,-677
172.197,-692
172.222,-696
172.247,-668
172.272,-585
172.297,-433
172.322,-221
172.347,23
172.372,277
172.397,515
172.422,710
172.447,836
172.472,875
172.497,841
172.522,775
172.547,727
172.572,721
172.597,747
172.622,781
172.647,803
172.672,814
172.697,831
172.722,865
172.747,918
172.772,980
172.797,1037
172.822,1080
172.847,1113
172.872,1139
172.897,1160
172.922,1171
172.947,1166
172.972,1145
172.997,1118
173.022,1097
173.047,1089
173.072,1090
173.097,1091
173.122,1082
173.147,1060
173.172,1025
173.197,981
173.222,922
173.247,835
173.272,714
173.297,567
173.322,417
173.347,278
173.372,137
173.397,-36
173.422,-262
173.447,-517
173.472,-752
173.497,-928
173.522,-1048
173.547,-1135
173.572,-1206
173.597,-1255
173.622,-1283
173.647,-1315
173.672,-1384
173.697,-1497
173.722,-1630
173.747,-1760
173.772,-1893
173.797,-2054
173.822,-2244
173.847,-2442
173.872,-2638
173.897,-2854
173.922,-3107
173.947,-3355
173.972,-3508
173.997,-3524
174.022,-3461
174.047,-3406
174.072,-3311
174.097,-2946
174.122,-2056
174.147,-622
174.172,1034
174.197,2438
174.222,3270
174.247,3532
174.272,3453
174.297,3259
174.322,3048
174.347,2843
174.372,2683
174.397,2623
174.422,2657
174.447,2700
174.472,2666
174.497,2574
174.522,2532
174.547,2628
174.572,2823
174.597,2981
174.622,2983
174.647,2810
174.672,2539
174.697,2262
174.722,2027
174.747,1834
174.772,1664
174.797,1493
174.822,1312
174.847,1132
174.872,983
174.897,883
174.922,800
174.947,658
174.972,383
174.997,-34
175.022,-529
175.047,-1004
175.072,-1395
175.097,-1683
175.122,-1874
175.147,-1975
175.172,-1993
175.197,-1948
175.222,-1865
175.247,-1757
175.272,-1623
175.297,-1461
175.322,-1296
175.347,-1159
175.372,-1060
175.397,-968
175.422,-837
175.447,-643
175.472,-404
175.497,-158
175.522,72
175.547,301
175.572,550
175.597,820
175.622,1077
175.647,1271
175.672,1368
175.697,1365
175.722,1291
175.747,1183
175.772,1065
175.797,946
175.822,828
175.847,717
175.872,621
175.897,535
175.922,438
175.947,316
175.972,179
175.997,66
176.022,4
176.047,-18
176.072,-48
176.097,-126
176.122,-243
176.147,-350
176.172,-404
176.197,-411
176.222,-410
176.247,-429
176.272,-456
176.297,-457
176.322,-416
176.347,-360
176.372,-331
176.397,-346
176.422,-382
176.447,-399
176.472,-370
176.497,-302
176.522,-220
176.547,-139
176.572,-67
176.597,-5
176.622,31
176.647,23
176.672,-38
176.697,-133
176.722,-219
176.747,-262
176.772,-264
176.797,-256
176.822,-258
176.847,-250
176.872,-191
176.897,-72
176.922,64
176.947,161
176.972,216
176.997,307
177.022,522
177.047,858
177.072,1194
177.097,1379
177.122,1357
177.147,1205
177.172,1043
177.197,922
177.222,796
177.247,611
177.272,389
177.297,224
177.322,179
177.347,219
177.372,243
177.397,201
177.422,148
177.447,190
177.472,378
177.497,646
177.522,871
177.547,973
177.572,965
177.597,914
177.622,859
177.647,789
177.672,673
177.697,506
177.722,317
177.747,140
177.772,-17
177.797,-159
177.822,-277
177.847,-342
177.872,-333
177.897,-273
177.922,-215
177.947,-202
177.972,-230
177.997,-255
178.022,-240
178.047,-191
178.072,-144
178.097,-126
178.122,-131
178.147,-131
178.172,-108
178.197,-70
178.222,-36
178.247,-15
178.272,-1
178.297,9
178.322,16
178.347,12
178.372,-2
178.397,-22
178.422,-42
178.447,-63
178.472,-82
178.497,-93
178.522,-92
178.547,-80
178.572,-65
178.597,-49
178.622,-21
178.647,23
178.672,73
178.697,102
178.722,102
178.747,88
178.772,94
178.797,135
178.822,203
178.847,281
178.872,362
178.897,444
178.922,517
178.947,559
178.972,560
178.997,543
179.022,547
179.047,590
179.072,647
179.097,684
179.122,693
179.147,705
179.172,751
179.197,824
179.222,885
179.247,903
179.272,886
179.297,858
179.322,826
179.347,760
179.372,627
179.397,431
179.422,214
179.447,28
179.472,-96
179.497,-167
179.522,-201
179.547,-215
179.572,-217
179.597,-213
179.622,-204
179.647,-191
179.672,-171
179.697,-147
179.722,-127
179.747,-118
179.772,-121
179.797,-132
179.822,-146
179.847,-167
179.872,-194
179.897,-225
179.922,-255
179.947,-283
179.972,-311
179.997,-336
180.022,-346
180.047,-330
180.072,-284
180.097,-212
180.122,-123
180.147,-23
180.172,78
180.197,170
180.222,242
180.247,291
180.272,327
180.297,364
180.322,401
180.347,429
180.372,435
180.397,423
180.422,402
180.447,383
180.472,368
180.497,359
180.522,360
180.547,376
180.572,403
180.597,428
180.622,439
180.647,435
180.672,430
180.697,431
180.722,438
180.747,438
180.772,424
180.797,394
180.822,353
180.847,309
180.872,268
180.897,234
180.922,205
180.947,169
180.972,113
180.997,35
181.022,-55
181.047,-141
181.072,-206
181.097,-247
181.122,-260
181.147,-245
181.172,-202
181.197,-149
181.222,-110
181.247,-103
181.272,-121
181.297,-138
181.322,-133
181.347,-110
181.372,-87
181.397,-78
181.422,-77
181.447,-61
181.472,-21
181.497,33
181.522,85
181.547,123
181.572,161
181.597,219
181.622,307
181.647,407
181.672,486
181.697,527
181.722,533
181.747,523
181.772,507
181.797,473
181.822,409
181.847,330
181.872,273
181.897,264
181.922,292
181.947,317
181.972,323
181.997,334
182.022,391
182.047,508
182.072,646
182.097,757
182.122,821
182.147,859
182.172,886
182.197,893
182.222,855
182.247,779
182.272,702
182.297,658
182.322,638
182.347,606
182.372,539
182.397,441
182.422,328
182.447,194
182.472,26
182.497,-156
182.522,-302
182.547,-365
182.572,-358
182.597,-336
182.622,-340
182.647,-363
182.672,-367
182.697,-347
182.722,-335
182.747,-360
182.772,-414
182.797,-457
182.822,-469
182.847,-459
182.872,-441
182.897,-403
182.922,-322
182.947,-202
182.972,-85
182.997,-6
183.022,39
183.047,91
183.072,163
183.097,229
183.122,252
183.147,238
183.172,225
183.197,245
183.222,283
183.247,299
183.272,267
183.297,193
183.322,102
183.347,14
183.372,-51
183.397,-68
183.422,-22
183.447,63
183.472,141
183.497,182
183.522,204
183.547,241
183.572,293
183.597,314
183.622,267
183.647,183
183.672,135
183.697,159
183.722,214
183.747,231
183.772,196
183.797,159
183.822,169
183.847,209
183.872,220
183.897,182
183.922,150
183.947,191
183.972,298
183.997,401
184.022,449
184.047,484
184.072,597
184.097,822
184.122,1089
184.147,1287
184.172,1370
184.197,1389
184.222,1418
184.247,1463
184.272,1456
184.297,1326
184.322,1066
184.347,730
184.372,383
184.397,62
184.422,-224
184.447,-468
184.472,-661
184.497,-800
184.522,-895
184.547,-955
184.572,-967
184.597,-913
184.622,-796
184.647,-655
184.672,-536
184.697,-446
184.722,-348
184.747,-193
184.772,20
184.797,236
184.822,381
184.847,433
184.872,436
184.897,455
184.922,509
184.947,558
184.972,551
184.997,487
185.022,423
185.047,414
185.072,460
185.097,513
185.122,523
185.147,482
185.172,409
185.197,313
185.222,186
185.247,27
185.272,-131
185.297,-246
185.322,-297
185.347,-301
185.372,-290
185.397,-278
185.422,-259
185.447,-237
185.472,-228
185.497,-241
185.522,-263
185.547,-270
185.572,-262
185.597,-266
185.622,-299
185.647,-338
185.672,-349
185.697,-340
185.722,-374
185.747,-510
185.772,-741
185.797,-983
185.822,-1155
185.847,-1243
185.872,-1287
185.897,-1298
185.922,-1212
185.947,-937
185.972,-444
185.997,197
186.022,865
186.047,1457
186.072,1916
186.097,2204
186.122,2286
186.147,2165
186.172,1926
186.197,1725
186.222,1695
186.247,1846
186.272,2057
186.297,2163
186.322,2072
186.347,1810
186.372,1472
186.397,1134
186.422,808
186.447,471
186.472,119
186.497,-203
186.522,-433
186.547,-541
186.572,-551
186.597,-515
186.622,-474
186.647,-434
186.672,-382
186.697,-314
186.722,-242
186.747,-174
186.772,-100
186.797,3
186.822,138
186.847,277
186.872,375
186.897,407
186.922,387
186.947,341
186.972,286
186.997,210
187.022,102
187.047,-24
187.072,-121
187.097,-143
187.122,-84
187.147,6
187.172,63
187.197,67
187.222,55
187.247,82
187.272,158
187.297,233
187.322,243
187.347,185
187.372,131
187.397,165
187.422,295
187.447,438
187.472,485
187.497,393
187.522,208
187.547,20
187.572,-109
187.597,-179
187.622,-219
187.647,-245
187.672,-247
187.697,-201
187.722,-104
187.747,15
187.772,99
187.797,98
187.822,14
187.847,-82
187.872,-101
187.897,-24
187.922,54
187.947,-9
187.972,-277
187.997,-650
188.022,-927
188.047,-976
188.072,-833
188.097,-658
188.122,-575
188.147,-579
188.172,-564
188.197,-443
188.222,-219
188.247,49
188.272,308
188.297,531
188.322,691
188.347,755
188.372,716
188.397,620
188.422,550
188.447,559
188.472,637
188.497,742
188.522,853
188.547,983
188.572,1121
188.597,1205
188.622,1155
188.647,955
188.672,680
188.697,450
188.722,331
188.747,306
188.772,309
188.797,300
188.822,287
188.847,294
188.872,326
188.897,357
188.922,365
188.947,346
188.972,318
188.997,300
189.022,298
189.047,308
189.072,318
189.097,315
189.122,289
189.147,244
189.172,199
189.197,176
189.222,183
189.247,202
189.272,207
189.297,184
189.322,145
189.347,115
189.372,104
189.397,102
189.422,91
189.447,59
189.472,15
189.497,-30
189.522,-74
189.547,-118
189.572,-160
189.597,-187
189.622,-194
189.647,-196
189.672,-223
189.697,-288
189.722,-359
189.747,-378
189.772,-310
189.797,-180
189.822,-58
189.847,-1
189.872,-5
189.897,-20
189.922,-8
189.947,18
189.972,15
189.997,-36
190.022,-104
190.047,-131
190.072,-86
190.097,10
190.122,119
190.147,221
190.172,326
190.197,436
190.222,523
190.247,539
190.272,469
190.297,349
190.322,244
190.347,201
190.372,218
190.397,260
190.422,296
190.447,318
190.472,330
190.497,334
190.522,330
190.547,320
190.572,312
190.597,312
190.622,315
190.647,304
190.672,271
190.697,218
190.722,153
190.747,85
190.772,23
190.797,-6
190.822,26
190.847,135
190.872,290
190.897,421
190.922,467
190.947,420
190.972,322
190.997,233
191.022,184
191.047,164
191.072,153
191.097,147
191.122,162
191.147,206
191.172,264
191.197,313
191.222,347
191.247,383
191.272,436
191.297,494
191.322,529
191.347,524
191.372,495
191.397,478
191.422,492
191.447,527
191.472,563
191.497,599
191.522,649
191.547,708
191.572,729
191.597,652
191.622,464
191.647,224
191.672,27
191.697,-67
191.722,-78
191.747,-73
191.772,-101
191.797,-156
191.822,-193
191.847,-177
191.872,-115
191.897,-49
191.922,-27
191.947,-93
191.972,-270
191.997,-545
192.022,-856
192.047,-1094
192.072,-1160
192.097,-1025
192.122,-753
192.147,-460
192.172,-231
192.197,-78
192.222,42
192.247,173
192.272,316
192.297,443
192.322,537
192.347,604
192.372,664
192.397,728
192.422,788
192.447,832
192.472,859
192.497,873
192.522,877
192.547,870
192.572,850
192.597,820
192.622,781
192.647,731
192.672,671
192.697,616
192.722,584
192.747,582
192.772,591
192.797,583
192.822,546
192.847,495
192.872,462
192.897,460
192.922,472
192.947,460
192.972,392
192.997,255
193.022,63
193.047,-151
193.072,-345
193.097,-475
193.122,-529
193.147,-527
193.172,-511
193.197,-519
193.222,-555
193.247,-605
193.272,-653
193.297,-692
193.322,-719
193.347,-726
193.372,-711
193.397,-685
193.422,-668
193.447,-677
193.472,-707
193.497,-748
193.522,-794
193.547,-845
193.572,-889
193.597,-904
193.622,-869
193.647,-788
193.672,-679
193.697,-546
193.722,-369
193.747,-133
193.772,133
193.797,358
193.822,472
193.847,476
193.872,451
193.897,505
193.922,692
193.947,975
193.972,1241
193.997,1374
194.022,1308
194.047,1065
194.072,736
194.097,422
194.122,186
194.147,27
194.172,-89
194.197,-190
194.222,-283
194.247,-371
194.272,-462
194.297,-542
194.322,-546
194.347,-371
194.372,54
194.397,698
194.422,1439
194.447,2144
194.472,2737
194.497,3199
194.522,3517
194.547,3662
194.572,3617
194.597,3415
194.622,3137
194.647,2853
194.672,2584
194.697,2317
194.722,2041
194.747,1758
194.772,1457
194.797,1106
194.822,684
194.847,219
194.872,-219
194.897,-586
194.922,-896
194.947,-1204
194.972,-1539
194.997,-1872
195.022,-2149
195.047,-2340
195.072,-2449
195.097,-2478
195.122,-2411
195.147,-2232
195.172,-1963
195.197,-1661
195.222,-1381
195.247,-1139
195.272,-923
195.297,-727
195.322,-564
195.347,-442
195.372,-348
195.397,-253
195.422,-152
195.447,-70
195.472,-37
195.497,-56
195.522,-100
195.547,-138
195.572,-153
195.597,-136
195.622,-76
195.647,26
195.672,144
195.697,225
195.722,232
195.747,179
195.772,123
195.797,108
195.822,134
195.847,172
195.872,210
195.897,268
195.922,375
195.947,519
195.972,654
195.997,730
196.022,741
196.047,716
196.072,685
196.097,649
196.122,594
196.147,516
196.172,435
196.197,380
196.222,356
196.247,351
196.272,341
196.297,321
196.322,297
196.347,283
196.372,281
196.397,289
196.422,301
196.447,318
196.472,341
196.497,374
196.522,417
196.547,461
196.572,491
196.597,496
196.622,472
196.647,429
196.672,384
196.697,350
196.722,338
196.747,357
196.772,410
196.797,488
196.822,561
196.847,595
196.872,573
196.897,509
196.922,432
196.947,355
196.972,277
196.997,188
197.022,99
197.047,32
197.072,0
197.097,-7
197.122,-13
197.147,-33
197.172,-62
197.197,-87
197.222,-110
197.247,-141
197.272,-179
197.297,-209
197.322,-208
197.347,-169
197.372,-109
197.397,-52
197.422,-10
197.447,18
197.472,39
197.497,48
197.522,39
197.547,13
197.572,-16
197.597,-37
197.622,-44
197.647,-39
197.672,-23
197.697,4
197.722,45
197.747,95
197.772,146
197.797,195
197.822,239
197.847,284
197.872,341
197.897,418
197.922,518
197.947,622
197.972,693
197.997,699
198.022,637
198.047,538
198.072,440
198.097,361
198.122,291
198.147,218
198.172,149
198.197,113
198.222,123
198.247,155
198.272,167
198.297,135
198.322,71
198.347,7
198.372,-35
198.397,-56
198.422,-54
198.447,-16
198.472,71
198.497,186
198.522,273
198.547,286
198.572,229
198.597,157
198.622,120
198.647,111
198.672,76
198.697,-21
198.722,-158
198.747,-261
198.772,-274
198.797,-203
198.822,-103
198.847,-32
198.872,-2
198.897,8
198.922,37
198.947,99
198.972,183
198.997,256
199.022,285
199.047,258
199.072,201
199.097,162
199.122,180
199.147,253
199.172,352
199.197,453
199.222,560
199.247,681
199.272,792
199.297,837
199.322,772
199.347,623
199.372,477
199.397,415
199.422,450
199.447,530
199.472,594
199.497,615
199.522,604
199.547,573
199.572,523
199.597,459
199.622,401
199.647,368
199.672,355
199.697,330
199.722,265
199.747,161
199.772,40
199.797,-84
199.822,-222
199.847,-383
199.872,-543
199.897,-655
199.922,-681
199.947,-620
199.972,-506
199.997,-377
200.022,-263
200.047,-174
200.072,-109
200.097,-52
200.122,19
200.147,117
200.172,221
200.197,292
200.222,301
200.247,253
200.272,176
200.297,93
200.322,4
200.347,-89
200.372,-174
200.397,-225
200.422,-238
200.447,-225
200.472,-198
200.497,-136
200.522,-3
200.547,205
200.572,448
200.597,673
200.622,874
200.647,1092
200.672,1361
200.697,1651
200.722,1872
200.747,1945
200.772,1869
200.797,1711
200.822,1547
200.847,1403
200.872,1265
200.897,1111
200.922,949
200.947,799
200.972,670
200.997,546
201.022,395
201.047,201
201.072,-20
201.097,-223
201.122,-357
201.147,-405
201.172,-397
201.197,-400
201.222,-472
201.247,-621
201.272,-794
201.297,-922
201.322,-959
201.347,-915
201.372,-839
201.397,-785
201.422,-785
201.447,-846
201.472,-953
201.497,-1091
201.522,-1252
201.547,-1441
201.572,-1661
201.597,-1895
201.622,-2103
201.647,-2247
201.672,-2314
201.697,-2321
201.722,-2297
201.747,-2254
201.772,-2189
201.797,-2093
201.822,-1950
201.847,-1727
201.872,-1375
201.897,-877
201.922,-283
201.947,302
201.972,795
201.997,1195
202.022,1572
202.047,1985
202.072,2413
202.097,2784
202.122,3048
202.147,3221
202.172,3342
202.197,3421
202.222,3431
202.247,3366
202.272,3267
202.297,3176
202.322,3071
202.347,2883
202.372,2580
202.397,2231
202.422,1947
202.447,1766
202.472,1602
202.497,1332
202.522,937
202.547,538
202.572,291
202.597,239
202.622,283
202.647,274
202.672,140
202.697,-78
202.722,-296
202.747,-456
202.772,-550
202.797,-593
202.822,-595
202.847,-560
202.872,-492
202.897,-406
202.922,-335
202.947,-328
202.972,-432
202.997,-648
203.022,-912
203.047,-1127
203.072,-1243
203.097,-1298
203.122,-1374
203.147,-1499
203.172,-1597
203.197,-1548
203.222,-1307
203.247,-956
203.272,-637
203.297,-441
203.322,-349
203.347,-287
203.372,-204
203.397,-113
203.422,-51
203.447,-25
203.472,-2
203.497,58
203.522,179
203.547,346
203.572,532
203.597,708
203.622,844
203.647,919
203.672,929
203.697,885
203.722,808
203.747,718
203.772,629
203.797,542
203.822,449
203.847,334
203.872,190
203.897,38
203.922,-76
203.947,-119
203.972,-99
203.997,-74
204.022,-99
204.047,-180
204.072,-274
204.097,-333
204.122,-356
204.147,-381
204.172,-431
204.197,-494
204.222,-533
204.247,-540
204.272,-547
204.297,-588
204.322,-657
204.347,-702
204.372,-665
204.397,-525
204.422,-302
204.447,-37
204.472,230
204.497,462
204.522,614
204.547,662
204.572,619
204.597,543
204.622,501
204.647,541
204.672,663
204.697,840
204.722,1032
204.747,1202
204.772,1320
204.797,1380
204.822,1400
204.847,1413
204.872,1446
204.897,1492
204.922,1524
204.947,1512
204.972,1440
204.997,1305
205.022,1108
205.047,853
205.072,559
205.097,269
205.122,45
205.147,-64
205.172,-50
205.197,49
205.222,163
205.247,228
205.272,230
205.297,207
205.322,205
205.347,213
205.372,153
205.397,-63
205.422,-447
205.447,-900
205.472,-1281
205.497,-1517
205.522,-1643
205.547,-1742
205.572,-1846
205.597,-1903
205.622,-1840
205.647,-1636
205.672,-1337
205.697,-997
205.722,-641
205.747,-288
205.772,13
205.797,195
205.822,238
205.847,217
205.872,258
205.897,436
205.922,715
205.947,990
205.972,1181
205.997,1291
206.022,1369
206.047,1444
206.072,1498
206.097,1499
206.122,1449
206.147,1386
206.172,1347
206.197,1324
206.222,1270
206.247,1140
206.272,925
206.297,660
206.322,395
206.347,163
206.372,-26
206.397,-178
206.422,-286
206.447,-338
206.472,-332
206.497,-301
206.522,-288
206.547,-318
206.572,-366
206.597,-384
206.622,-347
206.647,-281
206.672,-226
206.697,-201
206.722,-183
206.747,-142
206.772,-78
206.797,-11
206.822,38
206.847,70
206.872,80
206.897,50
206.922,-37
206.947,-160
206.972,-267
206.997,-325
207.022,-363
207.047,-437
207.072,-537
207.097,-547
207.122,-313
207.147,207
207.172,869
207.197,1411
207.222,1625
207.247,1492
207.272,1165
207.297,843
207.322,639
207.347,544
207.372,469
207.397,341
207.422,151
207.447,-41
207.472,-163
207.497,-184
207.522,-142
207.547,-117
207.572,-165
207.597,-276
207.622,-380
207.647,-408
207.672,-342
207.697,-222
207.722,-111
207.747,-44
207.772,-10
207.797,28
207.822,98
207.847,188
207.872,254
207.897,264
207.922,233
207.947,231
207.972,337
207.997,567
208.022,842
208.047,1026
208.072,1021
208.097,832
208.122,564
208.147,346
208.172,259
208.197,308
208.222,438
208.247,578
208.272,667
208.297,673
208.322,604
208.347,498
208.372,399
208.397,332
208.422,291
208.447,263
208.472,243
208.497,234
208.522,233
208.547,223
208.572,183
208.597,114
208.622,41
208.647,-8
208.672,-29
208.697,-41
208.722,-65
208.747,-104
208.772,-136
208.797,-136
208.822,-94
208.847,-19
208.872,65
208.897,142
208.922,201
208.947,236
208.972,241
208.997,214
209.022,171
209.047,145
209.072,163
209.097,218
209.122,264
209.147,250
209.172,165
209.197,50
209.222,-47
209.247,-115
209.272,-178
209.297,-258
209.322,-349
209.347,-439
209.372,-550
209.397,-724
209.422,-957
209.447,-1165
209.472,-1231
209.497,-1118
209.522,-914
209.547,-753
209.572,-683
209.597,-643
209.622,-554
209.647,-417
209.672,-300
209.697,-216
209.722,-70
209.747,255
209.772,750
209.797,1247
209.822,1563
209.847,1660
209.872,1653
209.897,1671
209.922,1716
209.947,1688
209.972,1519
209.997,1265
210.022,1058
210.047,989
210.072,1045
210.097,1146
210.122,1217
210.147,1219
210.172,1140
210.197,986
210.222,785
210.247,586
210.272,431
210.297,330
210.322,273
210.347,246
210.372,229
210.397,195
210.422,117
210.447,11
210.472,-55
210.497,-21
210.522,90
210.547,176
210.572,151
210.597,34
210.622,-75
210.647,-117
210.672,-143
210.697,-247
210.722,-437
210.747,-604
210.772,-638
210.797,-549
210.822,-449
210.847,-413
210.872,-394
210.897,-305
210.922,-162
210.947,-122
210.972,-333
210.997,-778
211.022,-1263
211.047,-1572
211.072,-1619
211.097,-1465
211.122,-1219
211.147,-952
211.172,-700
211.197,-490
211.222,-342
211.247,-238
211.272,-121
211.297,44
211.322,234
211.347,393
211.372,497
211.397,579
211.422,685
211.447,810
211.472,900
211.497,920
211.522,896
211.547,894
211.572,944
211.597,1013
211.622,1038
211.647,999
211.672,934
211.697,902
211.722,929
211.747,992
211.772,1053
211.797,1091
211.822,1110
211.847,1121
211.872,1126
211.897,1125
211.922,1124
211.947,1135
211.972,1155
211.997,1165
212.022,1143
212.047,1091
212.072,1038
212.097,1008
212.122,984
212.147,910
212.172,731
212.197,444
212.222,101
212.247,-228
212.272,-501
212.297,-708
212.322,-852
212.347,-932
212.372,-953
212.397,-937
212.422,-920
212.447,-923
212.472,-945
212.497,-977
212.522,-1017
212.547,-1058
212.572,-1070
212.597,-1005
212.622,-852
212.647,-669
212.672,-557
212.697,-571
212.722,-661
212.747,-709
212.772,-631
212.797,-447
212.822,-255
212.847,-147
212.872,-137
212.897,-174
212.922,-202
212.947,-205
212.972,-207
212.997,-237
213.022,-289
213.047,-321
213.072,-268
213.097,-87
213.122,208
213.147,542
213.172,820
213.197,989
213.222,1062
213.247,1093
213.272,1121
213.297,1141
213.322,1122
213.347,1051
213.372,949
213.397,852
213.422,783
213.447,746
213.472,732
213.497,735
213.522,753
213.547,780
213.572,807
213.597,820
213.622,806
213.647,761
213.672,700
213.697,651
213.722,628
213.747,607
213.772,534
213.797,375
213.822,166
213.847,-4
213.872,-66
213.897,-37
213.922,-1
213.947,-28
213.972,-101
213.997,-146
214.022,-117
214.047,-50
214.072,-23
214.097,-68
214.122,-138
214.147,-155
214.172,-89
214.197,22
214.222,131
214.247,225
214.272,331
214.297,464
214.322,601
214.347,697
214.372,732
214.397,720
214.422,691
214.447,663
214.472,641
214.497,624
214.522,610
214.547,596
214.572,579
214.597,567
214.622,576
214.647,615
214.672,663
214.697,684
214.722,658
214.747,598
214.772,529
214.797,457
214.822,367
214.847,252
214.872,136
214.897,55
214.922,11
214.947,-32
214.972,-113
214.997,-227
215.022,-342
215.047,-441
215.072,-551
215.097,-711
215.122,-930
215.147,-1182
215.172,-1443
215.197,-1707
215.222,-1974
215.247,-2217
215.272,-2406
215.297,-2548
215.322,-2700
215.347,-2922
215.372,-3219
215.397,-3549
215.422,-3866
215.447,-4124
215.472,-4219
215.497,-3956
215.522,-3137
215.547,-1734
215.572,22
215.597,1759
215.622,3178
215.647,4197
215.672,4882
215.697,5291
215.722,5404
215.747,5205
215.772,4779
215.797,4278
215.822,3797
215.847,3310
215.872,2744
215.897,2108
215.922,1523
215.947,1114
215.972,904
215.997,813
216.022,750
216.047,688
216.072,647
216.097,632
216.122,614
216.147,564
216.172,485
216.197,395
216.222,299
216.247,189
216.272,70
216.297,-30
216.322,-84
216.347,-98
216.372,-102
216.397,-113
216.422,-115
216.447,-77
216.472,0
216.497,82
216.522,128
216.547,124
216.572,84
216.597,31
216.622,-21
216.647,-66
216.672,-92
216.697,-96
216.722,-91
216.747,-101
216.772,-148
216.797,-231
216.822,-333
216.847,-431
216.872,-505
216.897,-546
216.922,-553
216.947,-532
216.972,-491
216.997,-432
217.022,-350
217.047,-240
217.072,-110
217.097,14
217.122,113
217.147,182
217.172,239
217.197,303
217.222,376
217.247,435
217.272,452
217.297,402
217.322,273
217.347,80
217.372,-141
217.397,-339
217.422,-473
217.447,-533
217.472,-543
217.497,-534
217.522,-522
217.547,-497
217.572,-447
217.597,-368
217.622,-269
217.647,-163
217.672,-55
217.697,52
217.722,155
217.747,250
217.772,336
217.797,415
217.822,486
217.847,533
217.872,542
217.897,509
217.922,449
217.947,382
217.972,316
217.997,253
218.022,198
218.047,161
218.072,147
218.097,143
218.122,124
218.147,80
218.172,24
218.197,-25
218.222,-74
218.247,-143
218.272,-233
218.297,-307
218.322,-314
218.347,-248
218.372,-171
218.397,-154
218.422,-214
218.447,-293
218.472,-317
218.497,-265
218.522,-173
218.547,-67
218.572,70
218.597,275
218.622,525
218.647,739
218.672,842
218.697,837
218.722,803
218.747,811
218.772,858
218.797,890
218.822,875
218.847,842
218.872,841
218.897,888
218.922,946
218.947,974
218.972,966
218.997,946
219.022,927
219.047,899
219.072,847
219.097,779
219.122,724
219.147,695
219.172,689
219.197,690
219.222,697
219.247,716
219.272,745
219.297,768
219.322,767
219.347,736
219.372,681
219.397,604
219.422,503
219.447,385
219.472,266
219.497,154
219.522,36
219.547,-116
219.572,-310
219.597,-521
219.622,-703
219.647,-827
219.672,-895
219.697,-926
219.722,-931
219.747,-901
219.772,-827
219.797,-713
219.822,-586
219.847,-477
219.872,-404
219.897,-364
219.922,-339
219.947,-306
219.972,-258
219.997,-204
220.022,-159
220.047,-128
220.072,-100
220.097,-59
220.122,2
220.147,85
220.172,189
220.197,317
220.222,462
220.247,596
220.272,686
220.297,719
220.322,712
220.347,688
220.372,657
220.397,611
220.422,544
220.447,471
220.472,405
220.497,344
220.522,264
220.547,154
220.572,25
220.597,-106
220.622,-241
220.647,-399
220.672,-581
220.697,-755
220.722,-883
220.747,-966
220.772,-1042
220.797,-1135
220.822,-1217
220.847,-1224
220.872,-1118
220.897,-912
220.922,-637
220.947,-291
220.972,152
220.997,675
221.022,1180
221.047,1533
221.072,1662
221.097,1608
221.122,1483
221.147,1367
221.172,1266
221.197,1141
221.222,974
221.247,795
221.272,650
221.297,557
221.322,504
221.347,464
221.372,421
221.397,379
221.422,346
221.447,328
221.472,317
221.497,302
221.522,281
221.547,264
221.572,267
221.597,286
221.622,296
221.647,265
221.672,185
221.697,85
221.722,2
221.747,-46
221.772,-71
221.797,-87
221.822,-91
221.847,-72
221.872,-40
221.897,-18
221.922,-15
221.947,-14
221.972,7
221.997,45
222.022,63
222.047,47
222.072,37
222.097,93
222.122,227
222.147,370
222.172,433
222.197,400
222.222,349
222.247,377
222.272,508
222.297,679
222.322,815
222.347,902
222.372,976
222.397,1069
222.422,1162
222.447,1215
222.472,1212
222.497,1169
222.522,1091
222.547,946
222.572,703
222.597,395
222.622,123
222.647,-13
222.672,-11
222.697,42
222.722,54
222.747,4
222.772,-54
222.797,-72
222.822,-66
222.847,-95
222.872,-182
222.897,-287
222.922,-364
222.947,-420
222.972,-506
222.997,-645
223.022,-784
223.047,-842
223.072,-807
223.097,-758
223.122,-785
223.147,-886
223.172,-972
223.197,-961
223.222,-864
223.247,-755
223.272,-696
223.297,-691
223.322,-737
223.347,-870
223.372,-1139
223.397,-1517
223.422,-1883
223.447,-2088
223.472,-2062
223.497,-1822
223.522,-1413
223.547,-851
223.572,-161
223.597,568
223.622,1214
223.647,1716
223.672,2133
223.697,2565
223.722,3016
223.747,3353
223.772,3416
223.797,3158
223.822,2673
223.847,2099
223.872,1516
223.897,952
223.922,450
223.947,90
223.972,-69
223.997,-54
224.022,42
224.047,141
224.072,225
224.097,303
224.122,367
224.147,373
224.172,295
224.197,149
224.222,-22
224.247,-191
224.272,-340
224.297,-431
224.322,-398
224.347,-172
224.372,255
224.397,812
224.422,1371
224.447,1799
224.472,2016
224.497,2022
224.522,1893
224.547,1726
224.572,1582
224.597,1440
224.622,1243
224.647,956
224.672,604
224.697,235
224.722,-137
224.747,-539
224.772,-974
224.797,-1389
224.822,-1704
224.847,-1889
224.872,-1991
224.897,-2082
224.922,-2181
224.947,-2230
224.972,-2137
224.997,-1836
225.022,-1327
225.047,-691
225.072,-82
225.097,325
225.122,443
225.147,346
225.172,236
225.197,277
225.222,447
225.247,558
225.272,452
225.297,161
225.322,-120
225.347,-238
225.372,-200
225.397,-111
225.422,-9
225.447,175
225.472,486
225.497,810
225.522,949
225.547,837
225.572,656
225.597,680
225.622,1013
225.647,1485
225.672,1827
225.697,1928
225.722,1889
225.747,1840
225.772,1756
225.797,1477
225.822,921
225.847,224
225.872,-348
225.897,-621
225.922,-635
225.947,-572
225.972,-583
225.997,-691
226.022,-825
226.047,-901
226.072,-871
226.097,-715
226.122,-446
226.147,-104
226.172,251
226.197,579
226.222,859
226.247,1058
226.272,1094
226.297,877
226.322,411
226.347,-147
226.372,-563
226.397,-669
226.422,-469
226.447,-113
226.472,226
226.497,446
226.522,520
226.547,481
226.572,394
226.597,337
226.622,349
226.647,397
226.672,391
226.697,284
226.722,138
226.747,79
226.772,159
226.797,279
226.822,269
226.847,46
226.872,-302
226.897,-607
226.922,-773
226.947,-837
226.972,-890
226.997,-963
227.022,-1008
227.047,-971
227.072,-860
227.097,-731
227.122,-615
227.147,-483
227.172,-284
227.197,-3
227.222,326
227.247,649
227.272,916
227.297,1094
227.322,1172
227.347,1167
227.372,1125
227.397,1105
227.422,1151
227.447,1280
227.472,1489
227.497,1744
227.522,1954
227.547,1978
227.572,1700
227.597,1144
227.622,521
227.647,118
227.672,98
227.697,383
227.722,708
227.747,833
227.772,704
227.797,452
227.822,237
227.847,105
227.872,-22
227.897,-238
227.922,-525
227.947,-757
227.972,-801
227.997,-641
228.022,-409
228.047,-287
228.072,-377
228.097,-627
228.122,-883
228.147,-1005
228.172,-949
228.197,-761
228.222,-518
228.247,-277
228.272,-71
228.297,71
228.322,133
228.347,116
228.372,54
228.397,-2
228.422,-16
228.447,35
228.472,166
228.497,361
228.522,567
228.547,703
228.572,711
228.597,613
228.622,501
228.647,462
228.672,511
228.697,587
228.722,621
228.747,597
228.772,550
228.797,515
228.822,491
228.847,461
228.872,421
228.897,387
228.922,372
228.947,371
228.972,368
228.997,349
229.022,304
229.047,226
229.072,122
229.097,26
229.122,-4
229.147,54
229.172,166
229.197,243
229.222,217
229.247,90
229.272,-83
229.297,-253
229.322,-395
229.347,-501
229.372,-547
229.397,-508
229.422,-390
229.447,-249
229.472,-144
229.497,-95
229.522,-71
229.547,-32
229.572,29
229.597,100
229.622,169
229.647,242
229.672,324
229.697,399
229.722,435
229.747,420
229.772,368
229.797,307
229.822,257
229.847,219
229.872,194
229.897,182
229.922,182
229.947,186
229.972,189
229.997,197
230.022,224
230.047,274
230.072,337
230.097,399
230.122,453
230.147,508
230.172,571
230.197,637
230.222,697
230.247,747
230.272,793
230.297,844
230.322,902
230.347,959
230.372,1010
230.397,1052
230.422,1088
230.447,1126
230.472,1169
230.497,1209
230.522,1224
230.547,1198
230.572,1138
230.597,1074
230.622,1032
230.647,999
230.672,945
230.697,854
230.722,752
230.747,680
230.772,642
230.797,589
230.822,468
230.847,285
230.872,101
230.897,-34
230.922,-140
230.947,-281
230.972,-489
230.997,-731
231.022,-948
231.047,-1128
231.072,-1317
231.097,-1548
231.122,-1792
231.147,-1974
231.172,-2063
231.197,-2112
231.222,-2213
231.247,-2402
231.272,-2629
231.297,-2807
231.322,-2888
231.347,-2883
231.372,-2822
231.397,-2715
231.422,-2560
231.447,-2376
231.472,-2207
231.497,-2082
231.522,-1982
231.547,-1846
231.572,-1632
231.597,-1342
231.622,-1015
231.647,-683
231.672,-352
231.697,-15
231.722,317
231.747,621
231.772,889
231.797,1137
231.822,1394
231.847,1667
231.872,1938
231.897,2184
231.922,2404
231.947,2614
231.972,2823
231.997,3034
232.022,3256
232.047,3518
232.072,3834
232.097,4156
232.122,4378
232.147,4406
232.172,4249
232.197,4027
232.222,3880
232.247,3855
232.272,3869
232.297,3792
232.322,3554
232.347,3185
232.372,2768
232.397,2361
232.422,1957
232.447,1501
232.472,925
232.497,183
232.522,-724
232.547,-1719
232.572,-2652
232.597,-3361
232.622,-3764
232.647,-3903
232.672,-3896
232.697,-3840
232.722,-3748
232.747,-3572
232.772,-3278
232.797,-2893
232.822,-2482
232.847,-2085
232.872,-1692
232.897,-1264
232.922,-778
232.947,-238
232.972,340
232.997,962
233.022,1626
233.047,2305
233.072,2933
233.097,3449
233.122,3837
233.147,4115
233.172,4285
233.197,4292
233.222,4074
233.247,3663
233.272,3215
233.297,2905
233.322,2765
233.347,2628
233.372,2266
233.397,1597
233.422,773
233.447,40
233.472,-474
233.497,-838
233.522,-1215
233.547,-1700
233.572,-2274
233.597,-2872
233.622,-3443
233.647,-3953
233.672,-4360
233.697,-4642
233.722,-4864
233.747,-5159
233.772,-5606
233.797,-6136
233.822,-6583
233.847,-6840
233.872,-6940
233.897,-6947
233.922,-6799
233.947,-6293
233.972,-5261
233.997,-3756
234.022,-2042
234.047,-420
234.072,929
234.097,1956
234.122,2654
234.147,3046
234.172,3237
234.197,3409
234.222,3714
234.247,4132
234.272,4492
234.297,4626
234.322,4528
234.347,4330
234.372,4159
234.397,4027
234.422,3877
234.447,3677
234.472,3455
234.497,3243
234.522,3030
234.547,2792
234.572,2543
234.597,2335
234.622,2196
234.647,2097
234.672,1987
234.697,1854
234.722,1725
234.747,1611
234.772,1480
234.797,1284
234.822,1011
234.847,687
234.872,334
234.897,-41
234.922,-420
234.947,-741
234.972,-931
234.997,-973
235.022,-933
235.047,-892
235.072,-875
235.097,-840
235.122,-745
235.147,-603
235.172,-462
235.197,-354
235.222,-266
235.247,-182
235.272,-103
235.297,-40
235.322,17
235.347,88
235.372,155
235.397,158
235.422,38
235.447,-190
235.472,-439
235.497,-625
235.522,-727
235.547,-775
235.572,-790
235.597,-750
235.622,-635
235.647,-477
235.672,-358
235.697,-332
235.722,-376
235.747,-416
235.772,-400
235.797,-342
235.822,-289
235.847,-263
235.872,-244
235.897,-200
235.922,-124
235.947,-46
235.972,-3
235.997,-11
236.022,-65
236.047,-136
236.072,-190
236.097,-201
236.122,-163
236.147,-97
236.172,-27
236.197,44
236.222,134
236.247,245
236.272,343
236.297,372
236.322,310
236.347,208
236.372,154
236.397,198
236.422,308
236.447,401
236.472,416
236.497,367
236.522,310
236.547,285
236.572,288
236.597,292
236.622,293
236.647,317
236.672,375
236.697,437
236.722,447
236.747,383
236.772,284
236.797,219
236.822,229
236.847,286
236.872,326
236.897,316
236.922,293
236.947,335
236.972,491
236.997,715
237.022,885
237.047,883
237.072,687
237.097,391
237.122,147
237.147,58
237.172,123
237.197,266
237.222,409
237.247,516
237.272,577
237.297,568
237.322,455
237.347,241
237.372,-1
237.397,-170
237.422,-220
237.447,-208
237.472,-224
237.497,-296
237.522,-350
237.547,-305
237.572,-168
237.597,-50
237.622,-47
237.647,-139
237.672,-209
237.697,-166
237.722,-42
237.747,49
237.772,43
237.797,-6
237.822,7
237.847,130
237.872,299
237.897,416
237.922,453
237.947,463
237.972,510
237.997,592
238.022,662
238.047,686
238.072,681
238.097,679
238.122,671
238.147,607
238.172,451
238.197,225
238.222,0
238.247,-167
238.272,-271
238.297,-342
238.322,-409
238.347,-475
238.372,-535
238.397,-586
238.422,-634
238.447,-675
238.472,-704
238.497,-724
238.522,-750
238.547,-782
238.572,-788
238.597,-712
238.622,-526
238.647,-256
238.672,24
238.697,249
238.722,397
238.747,485
238.772,533
238.797,549
238.822,551
238.847,576
238.872,665
238.897,822
238.922,995
238.947,1123
238.972,1193
238.997,1248
239.022,1342
239.047,1481
239.072,1620
239.097,1714
239.122,1759
239.147,1783
239.172,1797
239.197,1777
239.222,1690
239.247,1539
239.272,1368
239.297,1225
239.322,1127
239.347,1062
239.372,1008
239.397,954
239.422,886
239.447,787
239.472,636
239.497,437
239.522,213
239.547,-8
239.572,-213
239.597,-399
239.622,-556
239.647,-677
239.672,-766
239.697,-840
239.722,-915
239.747,-991
239.772,-1062
239.797,-1139
239.822,-1252
239.847,-1418
239.872,-1608
239.897,-1771
239.922,-1877
239.947,-1947
239.972,-2012
239.997,-2066
240.022,-2058
240.047,-1947
240.072,-1755
240.097,-1545
240.122,-1365
240.147,-1210
240.172,-1064
240.197,-939
240.222,-864
240.247,-820
240.272,-702
240.297,-396
240.322,105
240.347,669
240.372,1106
240.397,1325
240.422,1381
240.447,1398
240.472,1452
240.497,1522
240.522,1552
240.547,1527
240.572,1483
240.597,1461
240.622,1459
240.647,1446
240.672,1397
240.697,1313
240.722,1212
240.747,1108
240.772,1008
240.797,920
240.822,846
240.847,782
240.872,719
240.897,657
240.922,608
240.947,584
240.972,579
240.997,573
241.022,544
241.047,493
241.072,431
241.097,369
241.122,307
241.147,245
241.172,184
241.197,123
241.222,53
241.247,-32
241.272,-120
241.297,-176
241.322,-181
241.347,-155
241.372,-140
241.397,-161
241.422,-196
241.447,-203
241.472,-164
241.497,-112
241.522,-91
241.547,-115
241.572,-151
241.597,-160
241.622,-133
241.647,-95
241.672,-70
241.697,-58
241.722,-45
241.747,-16
241.772,28
241.797,94
241.822,185
241.847,301
241.872,419
241.897,515
241.922,586
241.947,659
241.972,766
241.997,905
242.022,1038
242.047,1123
242.072,1143
242.097,1110
242.122,1031
242.147,900
242.172,712
242.197,491
242.222,285
242.247,127
242.272,3
242.297,-134
242.322,-319
242.347,-531
242.372,-711
242.397,-813
242.422,-832
242.447,-798
242.472,-738
242.497,-661
242.522,-571
242.547,-484
242.572,-424
242.597,-396
242.622,-372
242.647,-312
242.672,-196
242.697,-44
242.722,104
242.747,220
242.772,298
242.797,347
242.822,375
242.847,390
242.872,402
242.897,425
242.922,466
242.947,520
242.972,569
242.997,598
243.022,596
243.047,557
243.072,483
243.097,381
243.122,275
243.147,195
243.172,154
243.197,142
243.222,134
243.247,114
243.272,80
243.297,41
243.322,8
243.347,0
243.372,27
243.397,86
243.422,137
243.447,130
243.472,45
243.497,-77
243.522,-166
243.547,-181
243.572,-147
243.597,-117
243.622,-100
243.647,-48
243.672,87
243.697,281
243.722,440
243.747,489
243.772,443
243.797,388
243.822,381
243.847,395
243.872,365
243.897,268
243.922,155
243.947,89
243.972,78
243.997,71
244.022,32
244.047,-13
244.072,-7
244.097,66
244.122,167
244.147,241
244.172,284
244.197,336
244.222,429
244.247,543
244.272,634
244.297,684
244.322,718
244.347,769
244.372,827
244.397,852
244.422,809
244.447,703
244.472,561
244.497,402
244.522,231
244.547,56
244.572,-95
244.597,-196
244.622,-245
244.647,-271
244.672,-310
244.697,-369
244.722,-431
244.747,-473
244.772,-488
244.797,-478
244.822,-445
244.847,-384
244.872,-292
244.897,-179
244.922,-55
244.947,77
244.972,221
244.997,369
245.022,510
245.047,635
245.072,750
245.097,861
245.122,946
245.147,962
245.172,875
245.197,704
245.222,522
245.247,401
245.272,354
245.297,341
245.322,313
245.347,263
245.372,224
245.397,217
245.422,225
245.447,215
245.472,176
245.497,132
245.522,104
245.547,85
245.572,47
245.597,-14
245.622,-71
245.647,-100
245.672,-112
245.697,-145
245.722,-214
245.747,-283
245.772,-296
245.797,-238
245.822,-153
245.847,-105
245.872,-125
245.897,-182
245.922,-211
245.947,-155
245.972,1
245.997,215
246.022,395
246.047,448
246.072,343
246.097,142
246.122,-57
246.147,-212
246.172,-370
246.197,-599
246.222,-888
246.247,-1136
246.272,-1251
246.297,-1250
246.322,-1231
246.347,-1245
246.372,-1229
246.397,-1071
246.422,-746
246.447,-340
246.472,37
246.497,341
246.522,563
246.547,648
246.572,508
246.597,151
246.622,-243
246.647,-426
246.672,-286
246.697,84
246.722,523
246.747,985
246.772,1525
246.797,2122
246.822,2591
246.847,2756
246.872,2698
246.897,2749
246.922,3159
246.947,3791
246.972,4189
246.997,4014
247.022,3390
247.047,2793
247.072,2601
247.097,2757
247.122,2868
247.147,2586
247.172,1888
247.197,1012
247.222,215
247.247,-394
247.272,-835
247.297,-1165
247.322,-1439
247.347,-1705
247.372,-1983
247.397,-2232
247.422,-2362
247.447,-2324
247.472,-2169
247.497,-2008
247.522,-1901
247.547,-1812
247.572,-1665
247.597,-1437
247.622,-1182
247.647,-958
247.672,-777
247.697,-611
247.722,-448
247.747,-311
247.772,-223
247.797,-176
247.822,-141
247.847,-107
247.872,-87
247.897,-91
247.922,-105
247.947,-102
247.972,-76
247.997,-40
248.022,-4
248.047,42
248.072,112
248.097,194
248.122,256
248.147,275
248.172,263
248.197,252
248.222,256
248.247,264
248.272,257
248.297,236
248.322,220
248.347,228
248.372,256
248.397,288
248.422,311
248.447,321
248.472,319
248.497,304
248.522,276
248.547,236
248.572,186
248.597,123
248.622,40
248.647,-62
248.672,-170
248.697,-247
248.722,-262
248.747,-200
248.772,-82
248.797,52
248.822,175
248.847,286
248.872,408
248.897,546
248.922,676
248.947,753
248.972,759
248.997,721
249.022,689
249.047,690
249.072,706
249.097,701
249.122,662
249.147,617
249.172,609
249.197,659
249.222,750
249.247,847
249.272,912
249.297,923
249.322,867
249.347,747
249.372,578
249.397,393
249.422,219
249.447,75
249.472,-44
249.497,-154
249.522,-272
249.547,-403
249.572,-540
249.597,-665
249.622,-764
249.647,-831
249.672,-859
249.697,-829
249.722,-717
249.747,-524
249.772,-302
249.797,-136
249.822,-82
249.847,-113
249.872,-120
249.897,16
249.922,362
249.947,903
249.972,1564
249.997,2227
250.022,2739
250.047,2936
250.072,2717
250.097,2119
250.122,1333
250.147,598
250.172,73
250.197,-229
250.222,-400
250.247,-533
250.272,-660
250.297,-767
250.322,-828
250.347,-841
250.372,-820
250.397,-785
250.422,-763
250.447,-774
250.472,-822
250.497,-881
250.522,-913
250.547,-887
250.572,-799
250.597,-659
250.622,-477
250.647,-260
250.672,-19
250.697,222
250.722,441
250.747,616
250.772,735
250.797,799
250.822,824
250.847,839
250.872,869
250.897,914
250.922,955
250.947,982
250.972,1013
250.997,1073
251.022,1158
251.047,1227
251.072,1248
251.097,1244
251.122,1266
251.147,1320
251.172,1317
251.197,1136
251.222,747
251.247,268
251.272,-116
251.297,-307
251.322,-349
251.347,-361
251.372,-417
251.397,-497
251.422,-551
251.447,-572
251.472,-589
251.497,-619
251.522,-635
251.547,-609
251.572,-563
251.597,-548
251.622,-587
251.647,-637
251.672,-629
251.697,-547
251.722,-445
251.747,-393
251.772,-407
251.797,-446
251.822,-453
251.847,-406
251.872,-314
251.897,-187
251.922,-30
251.947,139
251.972,283
251.997,365
252.022,382
252.047,371
252.072,367
252.097,376
252.122,385
252.147,388
252.172,401
252.197,434
252.222,472
252.247,486
252.272,471
252.297,462
252.322,499
252.347,585
252.372,672
252.397,709
252.422,691
252.447,650
252.472,622
252.497,606
252.522,581
252.547,537
252.572,493
252.597,476
252.622,487
252.647,508
252.672,523
252.697,538
252.722,563
252.747,591
252.772,600
252.797,582
252.822,560
252.847,564
252.872,596
252.897,613
252.922,564
252.947,436
252.972,261
252.997,89
253.022,-55
253.047,-176
253.072,-286
253.097,-381
253.122,-447
253.147,-482
253.172,-505
253.197,-541
253.222,-592
253.247,-642
253.272,-669
253.297,-669
253.322,-654
253.347,-643
253.372,-642
253.397,-643
253.422,-629
253.447,-579
253.472,-480
253.497,-327
253.522,-137
253.547,62
253.572,237
253.597,365
253.622,441
253.647,470
253.672,462
253.697,431
253.722,394
253.747,379
253.772,398
253.797,441
253.822,472
253.847,463
253.872,418
253.897,371
253.922,350
253.947,345
253.972,318
253.997,247
254.022,155
254.047,94
254.072,89
254.097,120
254.122,147
254.147,160
254.172,188
254.197,256
254.222,350
254.247,425
254.272,455
254.297,464
254.322,495
254.347,565
254.372,649
254.397,729
254.422,822
254.447,962
254.472,1141
254.497,1293
254.522,1347
254.547,1289
254.572,1169
254.597,1038
254.622,903
254.647,745
254.672,573
254.697,437
254.722,380
254.747,378
254.772,361
254.797,284
254.822,174
254.847,97
254.872,87
254.897,111
254.922,121
254.947,117
254.972,142
254.997,224
255.022,333
255.047,406
255.072,408
255.097,360
255.122,304
255.147,257
255.172,205
255.197,137
255.222,63
255.247,0
255.272,-60
255.297,-139
255.322,-249
255.347,-375
255.372,-496
255.397,-607
255.422,-722
255.447,-850
255.472,-977
255.497,-1082
255.522,-1152
255.547,-1186
255.572,-1183
