df_hash,22ZHK4.JVF6GR
device,HZ2X61
project_hash,29R7
project_name,istanbul_aydin_university
person_hash,29R7.2LVU
person_label,V157
date_time_start,2026-06-08_20-04-04.390000_+03
date_time_start_unix,1780931044.39
date_time_end,2026-06-08_20-13-20.835000_+03
length_difference_noticed,no

time,ppg_ir,ppg_ambient,ppg_red
5.282,186134,168,243002
5.287,186119,168,242967
5.292,186096,168,242937
5.297,186047,168,242886
5.302,186037,168,242862
5.306,186010,168,242812
5.311,185983,168,242790
5.316,185932,169,242747
5.321,185922,168,242680
5.326,185890,168,242650
5.331,185872,168,242630
5.336,185845,169,242557
5.341,185831,168,242542
5.346,185813,168,242513
5.351,185795,168,242495
5.356,185791,168,242445
5.361,185772,168,242421
5.366,185759,168,242433
5.371,185751,168,242420
5.376,185744,168,242401
5.381,185750,168,242394
5.386,185739,168,242390
5.391,185760,168,242384
5.396,185754,168,242376
5.401,185765,168,242378
5.406,185791,168,242401
5.411,185795,168,242427
5.416,185818,168,242417
5.421,185819,169,242463
5.426,185842,168,242409
5.430,185855,168,242415
5.435,185850,169,242436
5.440,186138,168,242719
5.445,186142,168,242719
5.450,186117,168,242705
5.455,186123,168,242711
5.460,186133,168,242797
5.465,186152,168,242551
5.470,185951,168,242533
5.475,185971,168,242570
5.480,185971,168,242600
5.485,186009,168,242620
5.490,185989,168,242637
5.495,186019,168,242620
5.500,186037,168,242648
5.505,186021,168,242675
5.510,186048,168,242701
5.515,186074,168,242723
5.520,186101,168,242748
5.525,186094,168,242758
5.530,186100,168,242754
5.535,186124,168,242786
5.540,186118,168,242796
5.545,186136,168,242792
5.550,186151,168,242800
5.554,186158,168,242776
5.559,186129,168,242769
5.564,186129,168,242742
5.569,186133,168,242742
5.574,186128,168,242726
5.579,186138,168,242719
5.584,186142,168,242719
5.589,186117,168,242705
5.594,186123,168,242711
5.599,186133,168,242708
5.604,186152,168,242712
5.609,186149,168,242715
5.614,186173,168,242712
5.619,186178,168,242716
5.624,186194,168,242744
5.629,186203,168,242748
5.634,186213,168,242752
5.639,186229,168,242744
5.644,186240,168,242764
5.649,186253,168,242772
5.654,186280,168,242789
5.659,186303,168,242833
5.664,186325,168,242862
5.669,186355,168,242898
5.674,186375,168,242939
5.678,186383,168,242942
5.683,186423,168,242962
5.688,186441,168,243000
5.693,186461,168,243012
5.698,186467,168,243029
5.703,186470,168,243030
5.708,186454,168,243047
5.713,186439,168,243036
5.718,185563,168,242351
5.723,185557,168,242319
5.728,185564,168,242300
5.733,185551,168,242292
5.738,185541,168,242223
5.743,185543,168,242959
5.748,186165,168,242945
5.753,186127,168,242914
5.758,186073,168,242869
5.763,186035,168,242826
5.768,185992,168,242794
5.773,185949,168,242766
5.778,185920,168,242727
5.783,185890,168,242692
5.788,185852,168,242671
5.793,185831,168,242643
5.798,185787,168,242594
5.802,185757,168,242576
5.807,185734,168,242561
5.812,185716,168,242515
5.817,185689,168,242505
5.822,185684,168,242479
5.827,185661,168,242448
5.832,185661,168,242431
5.837,185631,168,242423
5.842,185620,168,242389
5.847,185604,168,242374
5.852,185599,168,242353
5.857,185563,168,242351
5.862,185557,168,242319
5.867,185564,168,242300
5.872,185551,168,242292
5.877,185541,168,242278
5.882,185543,168,242284
5.887,185533,168,242269
5.892,185529,168,242271
5.897,185543,168,242253
5.902,185530,168,242254
5.907,185557,168,242254
5.912,185553,168,242267
5.917,185571,168,242265
5.922,185589,168,242267
5.926,185584,168,242287
5.931,185604,168,242278
5.936,185622,169,242300
5.941,185624,168,242295
5.946,185636,168,242286
5.951,185626,168,242309
5.956,185636,168,242295
5.961,185651,168,242318
5.966,185654,168,242304
5.971,185687,168,242317
5.976,185663,168,242313
5.981,185654,168,242324
5.986,185673,168,242317
5.991,185665,168,242313
5.996,185947,168,242518
6.001,185962,168,242564
6.006,185968,168,242547
6.011,185989,168,242582
6.016,186017,168,242593
6.021,186020,168,242332
6.026,185715,168,242333
6.031,185717,168,242330
6.036,185737,169,242338
6.041,185735,168,242366
6.046,185728,168,242342
6.050,185749,168,242374
6.055,185744,168,242365
6.060,185760,168,242388
6.065,185764,168,242395
6.070,185789,168,242391
6.075,185785,169,242407
6.080,185804,168,242402
6.085,185810,168,242442
6.090,185820,168,242430
6.095,185834,169,242448
6.100,185831,168,242455
6.105,185859,168,242468
6.110,185874,168,242476
6.115,185886,169,242490
6.120,185906,168,242485
6.125,185912,168,242512
6.130,185929,168,242525
6.135,185947,168,242518
6.140,185962,168,242564
6.145,185968,168,242547
6.150,185989,168,242582
6.155,186017,168,242621
6.160,186020,168,242624
6.165,186061,168,242646
6.170,186068,168,242702
6.174,186085,169,242712
6.179,186133,168,242758
6.184,186156,168,242781
6.189,186173,168,242789
6.194,186215,169,242834
6.199,186232,168,242904
6.204,186254,168,242876
6.209,186274,168,242879
6.214,186269,168,242893
6.219,186248,168,242881
6.224,186222,168,242864
6.229,186195,168,242855
6.234,186150,168,242817
6.239,186134,168,242810
6.244,186082,168,242797
6.249,186007,168,242783
6.254,186021,168,242767
6.259,185974,168,242752
6.264,185936,168,242731
6.269,185897,168,242719
6.274,185866,168,242710
6.279,185852,168,242700
6.284,185828,168,242676
6.289,185811,168,242687
6.294,185795,168,242670
6.299,185788,168,242678
6.303,185773,168,242679
6.308,185751,168,242686
6.313,185746,168,242697
6.318,185742,168,242690
6.323,185746,168,242724
6.328,185749,168,242712
6.333,185730,169,242718
6.338,185739,168,242728
6.343,185732,168,242735
6.348,185748,168,242756
6.353,185743,168,242767
6.358,185747,168,242767
6.363,185748,168,242763
6.368,185748,168,242776
6.373,185750,168,242751
6.378,185721,168,242758
6.383,185727,168,242760
6.388,185728,168,242736
6.393,185721,168,242735
6.398,185720,168,242704
6.403,185692,168,242713
6.408,185698,168,242684
6.413,185806,168,242634
6.418,185808,168,242633
6.423,185820,168,242652
6.427,185839,168,242632
6.432,185862,168,242623
6.437,185704,168,242601
6.442,185723,168,242600
6.447,185725,168,242604
6.452,185730,168,242612
6.457,185727,168,242599
6.462,185734,168,242641
6.467,185739,168,242610
6.472,185755,168,242629
6.477,185764,168,242644
6.482,185758,168,242634
6.487,185764,168,242633
6.492,185768,168,242625
6.497,185765,168,242641
6.502,185760,168,242639
6.507,185780,168,242625
6.512,185768,168,242636
6.517,185797,168,242625
6.522,185788,168,242625
6.527,185782,168,242635
6.532,185802,168,242631
6.537,185791,168,242627
6.542,185815,168,242629
6.547,185805,168,242633
6.551,185806,168,242634
6.556,185808,168,242633
6.561,185820,168,242652
6.566,185839,168,242649
6.571,185862,168,242634
6.576,185857,168,242662
6.581,185873,168,242680
6.586,185871,168,242667
6.591,185883,168,242686
6.596,185905,169,242698
6.601,185908,168,242726
6.606,185923,168,242715
6.611,185948,168,242714
6.616,185961,168,242739
6.621,185980,168,242761
6.626,185987,168,242771
6.631,186006,168,242788
6.636,186037,168,242809
6.641,186052,168,242840
6.646,186080,168,242867
6.651,186087,168,242884
6.656,186127,168,242927
6.661,186150,168,242958
6.666,186155,168,242975
6.671,186183,168,242991
6.675,186184,168,243019
6.680,186235,168,243014
6.685,186232,168,243050
6.690,185956,168,243098
6.695,185959,168,243101
6.700,185950,168,243112
6.705,185948,168,243119
6.710,185950,168,243128
6.715,185950,168,243133
6.720,186371,168,243144
6.725,186390,168,243141
6.730,186411,168,243186
6.735,186412,168,243191
6.740,186400,168,243176
6.745,186390,168,243194
6.750,186384,168,243165
6.755,186324,168,243148
6.760,186264,168,243126
6.765,186257,168,243128
6.770,186217,168,243118
6.775,186179,168,243112
6.780,186148,168,243099
6.785,186135,168,243090
6.790,186088,168,243080
6.795,186068,168,243081
6.799,186046,168,243082
6.804,186032,168,243092
6.809,185988,168,243071
6.814,186002,169,243072
6.819,185985,168,243083
6.824,185958,168,243079
6.829,185956,168,243098
6.834,185959,168,243101
6.839,185950,168,243112
6.844,185948,168,243119
6.849,185950,168,243141
6.854,185950,168,243141
6.859,185945,168,243165
6.864,185974,168,243187
6.869,185971,168,243221
6.874,185967,168,243233
6.879,185992,168,243268
6.884,185994,168,243287
6.889,186027,168,243311
6.894,186038,168,243329
6.899,186052,168,243368
6.904,186062,168,243381
6.909,186083,168,243422
6.914,186097,169,243465
6.919,186130,168,243499
6.923,186145,168,243513
6.928,186158,168,243528
6.933,186191,168,243569
6.938,186210,168,243583
6.943,186226,168,243608
6.948,186261,168,243641
6.953,186280,168,243676
6.958,186304,168,243709
6.963,186325,168,243719
6.968,186485,168,243823
6.973,186504,168,243836
6.978,186514,168,243841
6.983,186506,168,243839
6.988,186525,168,243805
6.993,186521,168,243788
6.998,186414,168,243814
7.003,186421,168,243816
7.008,186427,168,243827
7.013,186421,168,243830
7.018,186427,168,243803
7.023,186424,168,243817
7.028,186385,168,243815
7.033,186417,168,243813
7.038,186416,168,243801
7.043,186407,168,243791
7.047,186423,168,243777
7.052,186405,168,243767
7.057,186429,168,243771
7.062,186434,168,243760
7.067,186419,168,243758
7.072,186444,168,243777
7.077,186442,168,243779
7.082,186440,168,243778
7.087,186446,168,243773
7.092,186456,168,243794
7.097,186473,168,243789
7.102,186463,168,243787
7.107,186485,168,243823
7.112,186504,168,243836
7.117,186514,168,243841
7.122,186506,168,243839
7.127,186525,168,243838
7.132,186521,168,243832
7.137,186517,169,243852
7.142,186543,168,243835
7.147,186566,168,243879
7.152,186558,169,243881
7.157,186576,168,243888
7.162,186588,168,243893
7.167,186606,168,243924
7.171,186602,168,243904
7.176,186635,168,243921
7.181,186637,168,243938
7.186,186658,168,243954
7.191,186679,168,243965
7.196,186683,168,243974
7.201,186709,168,243980
7.206,186711,168,243979
7.211,186719,168,244005
7.216,186721,168,244002
7.221,186742,168,244008
7.226,186754,168,244020
7.231,186774,168,244037
7.236,186802,168,244053
7.241,186805,168,244073
7.246,186832,168,244093
7.251,186845,168,244096
7.256,186842,168,244090
7.261,186864,168,244112
7.266,186853,168,244122
7.271,186858,168,244124
7.276,186832,168,244104
7.281,186794,168,244067
7.286,186769,168,244043
7.291,186715,168,244037
7.295,186659,168,244049
7.300,186641,168,244055
7.305,186614,168,244039
7.310,186585,168,244017
7.315,186541,168,243976
7.320,186487,168,243989
7.325,186482,168,243971
7.330,186453,168,243952
7.335,186426,168,243935
7.340,186393,168,243890
7.345,186352,168,243874
7.350,186345,168,243854
7.355,186295,168,243841
7.360,186284,168,243814
7.365,186258,168,243807
7.370,186246,168,243789
7.375,186235,168,243762
7.380,186224,168,243769
7.385,186221,168,243789
7.390,186205,168,243769
7.395,186216,168,243781
7.400,186214,168,243777
7.405,186212,168,243781
7.410,186221,168,243798
7.415,186218,168,243812
7.420,186237,168,243816
7.424,186232,168,243836
7.429,186252,168,243835
7.434,186253,168,243859
7.439,186285,168,243894
7.444,186285,168,243916
7.449,186307,168,243929
7.454,186314,168,243975
7.459,186347,168,243992
7.464,186362,168,244024
7.469,186383,168,244046
7.474,186424,168,244069
7.479,186423,168,244061
7.484,186454,168,244110
7.489,186459,168,244125
7.494,186464,168,244149
7.499,186495,168,244136
7.504,186506,168,244154
7.509,186515,168,244172
7.514,186510,168,244149
7.519,186532,168,244202
7.524,186537,168,244193
7.529,186516,168,244181
7.534,186526,168,244173
7.539,186542,168,244161
7.544,186535,168,244152
7.548,186538,168,244155
7.553,186528,168,244165
7.558,186508,168,244133
7.563,186535,168,244133
7.568,186513,168,244138
7.573,186516,168,244138
7.578,186522,168,244140
7.583,186537,168,244152
7.588,186530,168,244135
7.593,186510,168,244133
7.598,186526,168,244150
7.603,186559,168,244153
7.608,186556,168,244172
7.613,186572,169,244180
7.618,186572,168,244195
7.623,186587,168,244198
7.628,186590,168,244204
7.633,186605,168,244235
7.638,186621,168,244257
7.643,186631,168,244300
7.648,186650,168,244302
7.653,186651,168,244315
7.658,186663,168,244324
7.663,186679,168,244324
7.668,186673,168,244326
7.672,186676,168,244334
7.677,186700,168,244341
7.682,186713,168,244351
7.687,186734,168,244364
7.692,186744,168,244400
7.697,186765,168,244417
7.702,186769,168,244456
7.707,186794,168,244453
7.712,186817,168,244502
7.717,186837,168,244502
7.722,186855,168,244518
7.727,186864,168,244517
7.732,186876,168,244552
7.737,186900,168,244587
7.742,186917,168,244594
7.747,186932,168,244628
7.752,186964,168,244640
7.757,186983,168,244683
7.762,187010,168,244720
7.767,187033,168,244739
7.772,187042,168,244747
7.777,187079,168,244766
7.782,187088,168,244778
7.787,187085,168,244761
7.792,187086,168,244741
7.796,187072,168,244729
7.801,186399,168,244366
7.806,186403,168,244390
7.811,186395,168,244406
7.816,186411,168,244381
7.821,186430,168,244281
7.826,186437,168,244511
7.831,186740,168,244483
7.836,186696,168,244422
7.841,186653,168,244408
7.846,186593,168,244372
7.851,186561,168,244334
7.856,186515,168,244330
7.861,186506,168,244302
7.866,186478,168,244293
7.871,186442,168,244274
7.876,186430,168,244289
7.881,186426,168,244262
7.886,186399,168,244264
7.891,186389,168,244265
7.896,186382,168,244274
7.901,186371,168,244286
7.906,186375,168,244281
7.911,186379,168,244300
7.916,186373,168,244307
7.920,186391,168,244323
7.925,186382,168,244322
7.930,186394,168,244333
7.935,186406,168,244354
7.940,186399,168,244366
7.945,186403,168,244390
7.950,186395,168,244406
7.955,186411,168,244381
7.960,186430,168,244419
7.965,186437,168,244411
7.970,186436,168,244408
7.975,186436,168,244431
7.980,186434,168,244428
7.985,186449,168,244415
7.990,186447,168,244422
7.995,186456,168,244435
8.000,186454,168,244389
8.005,186465,168,244401
8.010,186466,168,244379
8.015,186472,168,244375
8.020,186471,168,244358
8.025,186461,168,244363
8.030,186459,169,244339
8.035,186462,168,244329
8.040,186469,168,244341
8.044,186491,168,244334
8.049,186466,168,244325
8.054,186473,168,244306
8.059,186475,168,244318
8.064,186482,168,244309
8.069,186456,168,244313
8.074,186498,168,244331
8.079,186475,168,244315
8.084,186463,168,244278
8.089,186470,168,244259
8.094,186456,168,244272
8.099,186433,168,244259
8.104,186454,168,244244
8.109,186465,168,244231
8.114,186456,168,244238
8.119,186466,168,244232
8.124,186455,168,244217
8.129,186469,168,244210
8.134,186469,168,244217
8.139,186472,168,244204
8.144,186477,168,244220
8.149,186486,168,244197
8.154,186462,168,244181
8.159,186474,168,244185
8.164,186495,168,244191
8.168,186486,169,244193
8.173,186525,168,244214
8.178,186522,168,244219
8.183,186531,168,244233
8.188,186531,168,244232
8.193,186539,168,244241
8.198,186562,168,244255
8.203,186571,168,244260
8.208,186596,168,244264
8.213,186612,168,244281
8.218,186615,168,244300
8.223,186641,168,244319
8.228,186647,168,244313
8.233,186648,169,244323
8.238,186665,168,244329
8.243,186689,168,244338
8.248,186704,168,244348
8.253,186710,168,244347
8.258,186695,168,244336
8.263,186723,168,244332
8.268,186728,168,244343
8.273,186751,168,244366
8.278,186762,168,244394
8.283,186792,168,244404
8.288,186809,168,244408
8.292,186830,168,244421
8.297,186838,168,244437
8.302,186845,168,244450
8.307,186871,168,244491
8.312,186892,168,244474
8.317,186883,168,244459
8.322,186903,168,244459
8.327,186864,168,244459
8.332,186828,168,244451
8.337,186797,168,244434
8.342,186755,168,244417
8.347,186725,168,244369
8.352,186686,168,244354
8.357,186180,168,243956
8.362,186183,168,243957
8.367,186198,168,243957
8.372,186176,168,243977
8.377,186198,168,243989
8.382,186215,168,244247
8.387,186423,168,244201
8.392,186370,168,244175
8.397,186371,168,244156
8.402,186327,168,244135
8.407,186309,168,244104
8.412,186289,168,244111
8.416,186269,168,244062
8.421,186256,168,244054
8.426,186221,168,244034
8.431,186223,168,244018
8.436,186188,168,244003
8.441,186208,168,243999
8.446,186178,168,243991
8.451,186170,169,243973
8.456,186185,168,243977
8.461,186159,168,243960
8.466,186167,168,243954
8.471,186169,168,243968
8.476,186174,168,243971
8.481,186153,168,243943
8.486,186186,168,243970
8.491,186181,168,243962
8.496,186252,168,243876
8.501,186274,168,243862
8.506,186270,168,243865
8.511,186277,168,243866
8.516,186271,168,243718
8.521,186278,168,243967
8.526,186242,168,243981
8.531,186224,168,243984
8.536,186249,168,243986
8.541,186271,168,244004
8.545,186280,168,243990
8.550,186281,168,244000
8.555,186299,168,243962
8.560,186281,168,244006
8.565,186295,168,243996
8.570,186321,168,243996
8.575,186285,168,243982
8.580,186311,168,243995
8.585,186294,168,243958
8.590,186284,168,243957
8.595,186282,168,243942
8.600,186289,168,243939
8.605,186270,168,243928
8.610,186270,168,243933
8.615,186284,168,243924
8.620,186279,169,243912
8.625,186284,168,243885
8.630,186273,168,243881
8.635,186252,168,243876
8.640,186274,168,243862
8.645,186270,168,243865
8.650,186277,168,243866
8.655,186271,168,243860
8.660,186278,168,243839
8.665,186287,168,243860
8.669,186292,168,243847
8.674,186290,168,243853
8.679,186295,168,243863
8.684,186305,168,243810
8.689,186303,168,243869
8.694,186309,168,243852
8.699,186323,168,243888
8.704,186349,168,243866
8.709,186358,169,243883
8.714,186358,168,243882
8.719,186368,168,243902
8.724,186393,168,243914
8.729,186406,168,243915
8.734,186408,168,243947
8.739,186407,168,243962
8.744,186430,168,243969
8.749,186449,168,243986
8.754,186463,168,243984
8.759,186452,168,243993
8.764,186463,168,243989
8.769,186476,168,243980
8.774,185965,168,243456
8.779,185923,168,243423
8.784,185884,168,243384
8.789,185880,169,243354
8.793,185834,168,243212
8.798,185819,168,244007
8.803,186533,168,243990
8.808,186554,168,244002
8.813,186569,168,244007
8.818,186580,168,244007
8.823,186582,168,243996
8.828,186589,168,243985
8.833,186610,168,243986
8.838,186600,168,243977
8.843,186574,168,243965
8.848,186530,168,243910
8.853,186495,168,243890
8.858,186450,168,243823
8.863,186399,168,243793
8.868,186346,168,243763
8.873,186301,168,243754
8.878,186237,168,243707
8.883,186215,168,243651
8.888,186162,168,243623
8.893,186102,168,243596
8.898,186071,168,243560
8.903,186027,168,243528
8.908,185989,168,243480
8.913,185965,168,243456
8.917,185923,168,243423
8.922,185884,168,243384
8.927,185880,169,243354
8.932,185834,168,243314
8.937,185819,168,243318
8.942,185811,168,243272
8.947,185770,168,243238
8.952,185745,168,243201
8.957,185735,168,243177
8.962,185725,168,243172
8.967,185710,168,243147
8.972,185692,168,243130
8.977,185696,168,243116
8.982,185699,168,243117
8.987,185688,168,243113
8.992,185683,169,243083
8.997,185688,168,243062
9.002,185680,168,243056
9.007,185673,168,243053
9.012,185661,169,243038
9.017,185670,168,243028
9.022,185660,168,243038
9.027,185661,168,243014
9.032,185681,168,243028
9.037,185688,168,243004
9.041,185698,168,243016
9.046,185716,168,243034
9.051,185739,168,243007
9.056,185745,168,243010
9.061,185727,168,242996
9.066,185747,168,242993
9.071,185754,168,242984
9.076,185776,168,242988
9.081,185749,168,242995
9.086,185756,168,242976
9.091,185766,169,242965
9.096,185766,168,242973
9.101,185758,168,242965
9.106,185760,168,242965
9.111,185757,169,242965
9.116,185770,168,242963
9.121,185759,168,242955
9.126,185775,168,242940
9.131,185770,168,242956
9.136,185772,168,242943
9.141,185773,168,242935
9.146,185779,168,242940
9.151,185780,168,242927
9.156,185772,168,242923
9.161,185797,168,242923
9.165,185794,168,242915
9.170,185780,168,242907
9.175,185785,168,242913
9.180,185808,168,242913
9.185,185796,168,242911
9.190,185804,168,242913
9.195,185813,168,242911
9.200,185810,168,242902
9.205,185820,168,242897
9.210,185826,168,242903
9.215,185817,168,242895
9.220,185842,168,242897
9.225,185860,168,242902
9.230,185860,168,242903
9.235,185879,168,242916
9.240,185878,168,242935
9.245,185901,168,242909
9.250,185910,169,242920
9.255,185919,168,242950
9.260,185936,168,242944
9.265,185955,168,242956
9.270,185975,168,242975
9.275,185955,168,242973
9.280,185989,168,243007
9.285,185998,168,243008
9.289,186019,168,243011
9.294,186034,168,243018
9.299,186044,168,243030
9.304,186073,168,243056
9.309,186086,168,243024
9.314,186083,168,243065
9.319,186118,168,243087
9.324,186121,168,243090
9.329,185414,168,242481
9.334,185396,168,242459
9.339,185397,168,242443
9.344,185372,168,242413
9.349,185382,168,242363
9.354,185348,168,243110
9.359,186192,168,243127
9.364,186175,168,243107
9.369,186170,168,243095
9.374,186109,168,243040
9.379,186056,168,243000
9.384,186019,168,242977
9.389,185960,168,242942
9.394,185920,168,242893
9.399,185867,168,242884
9.404,185818,168,242842
9.409,185784,169,242821
9.413,185738,168,242780
9.418,185706,168,242736
9.423,185660,168,242745
9.428,185633,168,242689
9.433,185599,168,242672
9.438,185573,168,242638
9.443,185540,168,242612
9.448,185501,168,242577
9.453,185458,168,242543
9.458,185459,168,242514
9.463,185435,168,242469
9.468,185414,168,242481
9.473,185396,168,242459
9.478,185397,168,242443
9.483,185372,168,242413
9.488,185382,168,242416
9.493,185348,168,242405
9.498,185353,168,242402
9.503,185347,168,242382
9.508,185341,168,242378
9.513,185349,168,242392
9.518,185339,168,242384
9.523,185334,168,242356
9.528,185340,168,242358
9.533,185332,168,242351
9.537,185347,168,242348
9.542,185348,168,242343
9.547,185346,168,242342
9.552,185362,168,242350
9.557,185368,168,242346
9.562,185384,168,242347
9.567,185389,168,242351
9.572,185408,168,242356
9.577,185420,168,242368
9.582,185425,168,242393
9.587,185431,168,242378
9.592,185430,168,242360
9.597,185439,168,242359
9.602,185468,168,242372
9.607,185587,168,242360
9.612,185595,168,242377
9.617,185617,168,242334
9.622,185629,168,242378
9.627,185621,168,242361
9.632,185629,168,242362
9.637,185484,168,242386
9.642,185500,168,242365
9.647,185481,168,242394
9.652,185492,168,242383
9.657,185493,168,242388
9.662,185488,168,242387
9.666,185500,168,242385
9.671,185486,168,242384
9.676,185503,168,242377
9.681,185503,168,242393
9.686,185504,168,242346
9.691,185520,168,242364
9.696,185519,168,242362
9.701,185515,168,242356
9.706,185524,168,242350
9.711,185540,168,242367
9.716,185553,168,242377
9.721,185549,168,242374
9.726,185565,168,242356
9.731,185573,168,242373
9.736,185580,168,242376
9.741,185594,168,242361
9.746,185587,168,242360
9.751,185595,168,242377
9.756,185617,168,242334
9.761,185629,168,242378
9.766,185621,168,242410
9.771,185629,168,242395
9.776,185646,168,242426
9.781,185672,168,242417
9.786,185687,168,242424
9.790,185697,168,242433
9.795,185699,168,242448
9.800,185717,168,242445
9.805,185703,168,242484
9.810,185746,169,242462
9.815,185756,168,242462
9.820,185749,168,242468
9.825,185769,168,242475
9.830,185767,168,242471
9.835,185798,168,242500
9.840,185817,168,242519
9.845,185817,168,242516
9.850,185854,168,242523
9.855,185860,168,242526
9.860,185867,168,242534
9.865,185876,168,242521
9.870,185885,168,242534
9.875,185894,168,242542
9.880,185886,168,242554
9.885,185129,168,241950
9.890,185110,168,241941
9.895,185115,168,241911
9.900,185075,168,241894
9.905,185093,168,241960
9.910,185084,168,242439
9.914,185668,168,242381
9.919,185623,168,242385
9.924,185584,168,242359
9.929,185553,168,242324
9.934,185499,168,242295
9.939,185469,168,242282
9.944,185421,168,242265
9.949,185411,168,242233
9.954,185371,168,242203
9.959,185334,168,242194
9.964,185308,168,242176
9.969,185287,168,242147
9.974,185260,168,242131
9.979,185243,168,242126
9.984,185193,168,242099
9.989,185210,168,242101
9.994,185189,168,242036
9.999,185177,168,242036
10.004,185159,168,241995
10.009,185143,168,242011
10.014,185124,168,241965
10.019,185137,168,241986
10.024,185129,168,241950
10.029,185110,168,241941
10.034,185115,168,241911
10.038,185075,168,241894
10.043,185093,168,241930
10.048,185084,169,241905
10.053,185086,168,241910
10.058,185072,168,241886
10.063,185083,168,241886
10.068,185068,168,241909
10.073,185097,168,241922
10.078,185094,168,241915
10.083,185096,168,241909
10.088,185119,168,241909
10.093,185130,168,241918
10.098,185142,168,241903
10.103,185154,168,241931
10.108,185182,168,241946
10.113,185177,168,241949
10.118,185176,168,241935
10.123,185198,168,241933
10.128,185199,168,241923
10.133,185217,168,241958
10.138,185223,168,241962
10.143,185221,168,241957
10.148,185225,168,241962
10.153,185249,168,241974
10.158,185238,168,241994
10.162,185247,168,241992
10.167,185272,168,242013
10.172,185288,168,242028
10.177,185290,168,242038
10.182,185295,168,242048
10.187,185298,168,242047
10.192,185300,168,242084
10.197,185303,168,242066
10.202,185323,168,242071
10.207,185325,168,242081
10.212,185327,168,242086
10.217,185329,168,242083
10.222,185362,168,242091
10.227,185355,168,242102
10.232,185371,169,242108
10.237,185386,168,242109
10.242,185383,168,242111
10.247,185377,168,242135
10.252,185394,168,242123
10.257,185405,168,242128
10.262,185411,168,242117
10.267,185412,168,242109
10.272,185426,168,242118
10.277,185429,168,242096
10.282,185449,168,242103
10.286,185432,168,242094
10.291,185446,169,242118
10.296,185467,169,242120
10.301,185483,168,242134
10.306,185494,168,242145
10.311,185506,168,242150
10.316,185521,168,242156
10.321,185537,168,242184
10.326,185568,168,242228
10.331,185586,168,242228
10.336,185606,168,242246
10.341,185610,169,242224
10.346,185632,168,242250
10.351,185653,168,242307
10.356,185668,168,242294
10.361,185689,168,242316
10.366,185717,168,242372
10.371,185727,169,242366
10.376,185752,168,242388
10.381,185768,168,242390
10.386,185787,168,242397
10.391,185795,168,242400
10.396,185808,168,242414
10.401,185812,168,242414
10.406,185832,168,242418
10.410,185801,169,242412
10.415,185777,168,242383
10.420,185729,168,242369
10.425,185698,168,242332
10.430,185658,169,242310
10.435,185613,168,242295
10.440,185176,168,241986
10.445,185160,168,241991
10.450,185190,168,242008
10.455,185191,168,242016
10.460,185202,168,242137
10.465,185240,168,242146
10.470,185367,168,242115
10.475,185330,168,242102
10.480,185328,168,242088
10.485,185289,168,242073
10.490,185273,168,242046
10.495,185249,168,242061
10.500,185232,168,242031
10.505,185219,168,242009
10.510,185209,169,241998
10.515,185180,168,241961
10.520,185195,168,241981
10.525,185169,168,241966
10.530,185156,168,241964
10.534,185170,168,241955
10.539,185155,168,241951
10.544,185160,168,241936
10.549,185156,169,241960
10.554,185167,168,241965
10.559,185158,168,241941
10.564,185149,168,241945
10.569,185154,168,241948
10.574,185160,168,241994
10.579,185418,168,242169
10.584,185435,168,242174
10.589,185435,168,242195
10.594,185449,168,242222
10.599,185456,168,242290
10.604,185483,168,242012
10.609,185219,168,242036
10.614,185239,168,242043
10.619,185257,168,242042
10.624,185279,168,242067
10.629,185291,168,242087
10.634,185312,168,242082
10.639,185301,169,242105
10.644,185316,168,242105
10.649,185342,168,242100
10.654,185358,168,242130
10.659,185338,168,242168
10.663,185356,168,242129
10.668,185367,168,242129
10.673,185351,168,242127
10.678,185381,168,242147
10.683,185379,168,242142
10.688,185396,168,242144
10.693,185397,168,242164
10.698,185399,168,242170
10.703,185407,168,242149
10.708,185417,169,242156
10.713,185413,168,242156
10.718,185418,168,242169
10.723,185435,168,242174
10.728,185435,168,242195
10.733,185449,168,242222
10.738,185456,168,242238
10.743,185483,168,242250
10.748,185490,168,242248
10.753,185507,168,242259
10.758,185513,168,242260
10.763,185527,168,242286
10.768,185549,168,242300
10.773,185571,168,242316
10.778,185570,168,242323
10.783,185578,168,242335
10.787,185592,168,242356
10.792,185598,168,242340
10.797,185629,168,242365
10.802,185638,168,242377
10.807,185633,168,242386
10.812,185656,168,242396
10.817,185670,168,242420
10.822,185696,168,242431
10.827,185713,168,242437
10.832,185719,168,242462
10.837,185752,168,242475
10.842,185758,168,242468
10.847,185768,168,242499
10.852,185773,168,242499
10.857,185641,168,242437
10.862,185621,169,242393
10.867,185599,168,242394
10.872,185571,168,242360
10.877,185554,168,242270
10.882,185520,168,242575
10.887,185883,168,242591
10.892,185909,168,242595
10.897,185926,168,242593
10.902,185949,168,242619
10.907,185960,168,242649
10.911,185995,168,242674
10.916,185995,168,242664
10.921,186031,168,242673
10.926,186060,168,242684
10.931,186049,169,242686
10.936,186052,168,242673
10.941,186050,168,242684
10.946,186009,168,242665
10.951,185975,168,242631
10.956,185942,168,242600
10.961,185901,168,242579
10.966,185859,168,242549
10.971,185823,168,242523
10.976,185787,168,242523
10.981,185755,168,242493
10.986,185722,168,242462
10.991,185681,168,242425
10.996,185641,168,242437
11.001,185621,169,242393
11.006,185599,168,242394
11.011,185571,168,242360
11.016,185554,168,242343
11.021,185520,168,242328
11.026,185501,168,242327
11.031,185502,168,242297
11.035,185477,168,242289
11.040,185451,168,242272
11.045,185431,168,242240
11.050,185439,168,242241
11.055,185437,168,242245
11.060,185428,168,242232
11.065,185434,168,242254
11.070,185436,168,242261
11.075,185444,168,242267
11.080,185434,168,242261
11.085,185443,168,242253
11.090,185472,168,242288
11.095,185449,168,242292
11.100,185464,168,242301
11.105,185461,168,242325
11.110,185484,168,242331
11.115,185507,168,242308
11.120,185488,168,242366
11.125,185508,168,242364
11.130,185527,168,242371
11.135,185532,168,242396
11.140,185552,168,242398
11.145,185558,168,242417
11.150,185590,168,242403
11.155,185587,168,242437
11.159,185614,168,242467
11.164,185640,168,242453
11.169,185662,170,242450
11.174,185656,168,242472
11.179,185674,168,242491
11.184,185674,168,242535
11.189,185699,169,242528
11.194,185715,168,242546
11.199,185726,168,242535
11.204,185731,168,242555
11.209,185737,168,242567
11.214,185733,168,242567
11.219,185753,168,242582
11.224,185763,168,242609
11.229,185759,169,242594
11.234,185782,168,242586
11.239,185772,168,242592
11.244,185787,168,242593
11.249,185790,168,242602
11.254,185790,168,242630
11.259,185800,168,242627
11.264,185818,168,242619
11.269,185855,168,242638
11.274,185836,168,242666
11.279,185859,168,242668
11.283,185870,168,242683
11.288,185884,168,242720
11.293,185902,168,242718
11.298,185935,168,242742
11.303,185943,168,242782
11.308,185980,168,242788
11.313,185983,168,242806
11.318,186011,168,242820
11.323,186025,168,242849
11.328,186053,168,242900
11.333,186064,168,242906
11.338,186081,168,242921
11.343,186109,168,242936
11.348,186131,168,242950
11.353,186133,168,243001
11.358,186177,168,243019
11.363,186191,168,243046
11.368,186225,168,243063
11.373,186232,168,243099
11.378,186245,168,243103
11.383,186284,168,243122
11.388,186297,169,243160
11.393,186328,168,243183
11.398,186340,168,243185
11.403,186352,168,243221
11.407,186374,168,243238
11.412,186134,168,243048
11.417,186109,168,243049
11.422,186098,168,243029
11.427,186064,168,243019
11.432,186049,168,243029
11.437,186036,168,243285
11.442,186488,168,243308
11.447,186500,168,243350
11.452,186530,168,243326
11.457,186529,168,243323
11.462,186529,169,243342
11.467,186535,168,243326
11.472,186557,169,243327
11.477,186545,168,243332
11.482,186552,168,243322
11.487,186542,168,243320
11.492,186543,168,243303
11.497,186490,168,243276
11.502,186448,168,243239
11.507,186411,168,243229
11.512,186395,168,243222
11.517,186361,168,243200
11.522,186305,168,243179
11.527,186272,168,243149
11.531,186233,168,243107
11.536,186203,168,243111
11.541,186167,168,243078
11.546,186144,168,243070
11.551,186134,168,243048
11.556,186109,168,243049
11.561,186098,168,243029
11.566,186064,168,243019
11.571,186049,168,243007
11.576,186036,168,242994
11.581,186019,168,242979
11.586,186012,168,242973
11.591,185998,168,242959
11.596,186008,168,242954
11.601,185993,168,242967
11.606,185990,168,242962
11.611,185973,168,242956
11.616,185979,168,242944
11.621,185983,168,242941
11.626,185982,168,242971
11.631,185981,168,242957
11.636,185995,168,242957
11.641,185987,168,242937
11.646,185963,168,242934
11.651,185973,168,242937
11.655,185988,168,242925
11.660,185973,168,242909
11.665,185987,168,242928
11.670,186005,168,242937
11.675,186007,168,242927
11.680,186020,168,242940
11.685,186027,168,242974
11.690,186342,169,243258
11.695,186331,168,243254
11.700,186355,168,243241
11.705,186361,168,243274
11.710,186359,168,243295
11.715,186379,168,243059
11.720,186146,168,243082
11.725,186155,168,243098
11.730,186164,168,243119
11.735,186201,168,243129
11.740,186202,168,243144
11.745,186222,168,243151
11.750,186229,168,243156
11.755,186200,168,243195
11.760,186245,168,243204
11.765,186266,168,243203
11.770,186275,168,243224
11.775,186277,168,243243
11.780,186282,168,243236
11.784,186279,168,243261
11.789,186286,168,243248
11.794,186291,168,243244
11.799,186316,168,243239
11.804,186310,168,243247
11.809,186319,168,243238
11.814,186304,168,243246
11.819,186328,168,243232
11.824,186324,168,243236
11.829,186342,169,243258
11.834,186331,168,243254
11.839,186355,168,243241
11.844,186361,168,243274
11.849,186359,168,243259
11.854,186379,168,243281
11.859,186387,168,243278
11.864,186398,168,243275
11.869,186401,168,243288
11.874,186416,168,243306
11.879,186435,168,243304
11.884,186441,168,243322
11.889,186461,168,243345
11.894,186487,168,243349
11.899,186500,168,243375
11.904,186498,168,243389
11.908,186495,168,243390
11.913,186531,168,243416
11.918,186552,168,243419
11.923,186560,168,243445
11.928,186592,168,243443
11.933,186597,168,243460
11.938,186607,168,243460
11.943,186620,168,243469
11.948,186650,169,243486
11.953,186656,168,243513
11.958,186678,169,243529
11.963,186681,168,243520
11.968,186456,168,243431
11.973,186438,168,243427
11.978,186461,168,243449
11.983,186432,168,243428
11.988,186429,168,243295
11.993,186435,168,243570
11.998,186779,168,243630
12.003,186809,168,243603
12.008,186813,168,243612
12.013,186825,168,243631
12.018,186849,169,243626
12.023,186876,168,243630
12.028,186859,168,243630
12.032,186879,168,243647
12.037,186856,168,243633
12.042,186825,168,243590
12.047,186762,168,243586
12.052,186754,168,243582
12.057,186723,168,243562
12.062,186700,168,243534
12.067,186661,169,243535
12.072,186625,168,243486
12.077,186574,168,243457
12.082,186530,168,243451
12.087,186528,168,243432
12.092,186505,168,243450
12.097,186496,168,243427
12.102,186485,168,243438
12.107,186456,168,243431
12.112,186438,168,243427
12.117,186461,168,243449
12.122,186432,168,243428
12.127,186429,168,243447
12.132,186435,168,243457
12.137,186427,168,243468
12.142,186423,168,243472
12.147,186472,168,243506
12.152,186445,168,243504
12.156,186449,168,243533
12.161,186458,168,243547
12.166,186477,168,243546
12.171,186476,168,243565
12.176,186494,168,243542
12.181,186480,168,243568
12.186,186482,168,243569
12.191,186495,168,243552
12.196,186482,168,243558
12.201,186466,168,243565
12.206,186477,168,243575
12.211,186495,168,243568
12.216,186498,168,243555
12.221,186502,168,243541
12.226,186508,168,243559
12.231,186511,168,243557
12.236,186511,168,243526
12.241,186532,168,243502
12.246,186510,168,243495
12.251,186528,168,243498
12.256,186522,168,243469
12.261,186527,168,243450
12.266,186508,168,243426
12.271,186490,168,243412
12.276,186488,168,243378
12.280,186487,168,243343
12.285,186485,168,243295
12.290,186457,168,243301
12.295,186455,168,243256
12.300,186451,168,243260
12.305,186447,168,243221
12.310,186433,168,243196
12.315,186422,168,243149
12.320,186407,168,243104
12.325,186360,168,243034
12.330,186339,169,242965
12.335,186304,168,242869
12.340,186259,168,242795
12.345,186232,168,242686
12.350,186170,168,242600
12.355,186153,168,242548
12.360,186122,168,242466
12.365,186087,168,242417
12.370,186086,168,242368
12.375,186082,168,242349
12.380,186080,168,242303
12.385,186079,168,242259
12.390,186054,168,242235
12.395,186068,168,242222
12.400,186068,168,242184
12.404,186049,168,242144
12.409,186026,169,242087
12.414,185999,168,242023
12.419,185988,168,241973
12.424,185966,168,241927
12.429,185950,168,241874
12.434,185941,168,241809
12.439,185930,168,241787
12.444,185918,168,241761
12.449,185910,168,241722
12.454,185917,168,241686
12.459,185909,168,241675
12.464,185902,168,241643
12.469,185887,168,241609
12.474,185897,168,241597
12.479,185872,168,241596
12.484,185875,168,241571
12.489,185885,168,241547
12.494,185860,168,241497
12.499,185853,168,241457
12.504,185838,168,241423
12.509,185839,168,241396
12.514,185846,168,241390
12.519,185844,168,241357
12.524,185265,168,240387
12.528,185260,168,240382
12.533,185266,168,240365
12.538,185250,168,240363
12.543,185261,168,240207
12.548,185242,168,241202
12.553,185820,168,241180
12.558,185819,168,241145
12.563,185823,168,241138
12.568,185817,168,241112
12.573,185794,168,241067
12.578,185766,168,241040
12.583,185737,168,240995
12.588,185682,168,240938
12.593,185648,168,240888
12.598,185607,168,240820
12.603,185568,168,240770
12.608,185519,168,240737
12.613,185484,168,240690
12.618,185427,168,240631
12.623,185406,168,240599
12.628,185372,168,240569
12.633,185355,168,240536
12.638,185331,168,240505
12.643,185314,168,240486
12.648,185315,168,240462
12.652,185282,168,240430
12.657,185256,168,240406
12.662,185265,168,240387
12.667,185260,168,240382
12.672,185266,168,240365
12.677,185250,168,240363
12.682,185261,168,240382
12.687,185242,168,240340
12.692,185233,168,240339
12.697,185215,168,240314
12.702,185221,168,240313
12.707,185222,168,240327
12.712,185230,168,240325
12.717,185219,168,240318
12.722,185220,168,240310
12.727,185207,168,240291
12.732,185228,168,240297
12.737,185217,168,240315
12.742,185225,168,240301
12.747,185201,168,240259
12.752,185187,168,240234
12.757,185169,168,240252
12.762,185170,168,240221
12.767,185135,168,240193
12.772,185128,168,240181
12.776,185123,168,240150
12.781,185117,168,240150
12.786,185117,168,240124
12.791,185101,168,240101
12.796,185075,168,240081
12.801,185070,168,240067
12.806,185056,168,240027
12.811,185031,168,240022
12.816,185036,168,240007
12.821,185027,168,239985
12.826,185021,168,239935
12.831,185019,168,239952
12.836,184984,168,239980
12.841,185012,168,239957
12.846,185001,168,239937
12.851,184982,168,239946
12.856,184967,168,239941
12.861,184968,168,239932
12.866,184955,169,239938
12.871,184951,168,239914
12.876,184975,168,239912
12.881,184953,168,239915
12.886,184941,168,239923
12.891,184950,168,239913
12.896,184961,168,239902
12.901,184933,168,239904
12.905,184945,168,239904
12.910,184953,168,239898
12.915,184965,168,239917
12.920,184965,168,239917
12.925,184974,168,239924
12.930,184975,168,239919
12.935,184988,168,239907
12.940,185449,168,240280
12.945,185489,168,240284
12.950,185486,168,240289
12.955,185513,168,240305
12.960,185513,168,240230
12.965,185488,168,239993
12.970,185090,168,240002
12.975,185093,168,239991
12.980,185086,168,239976
12.985,185096,168,239959
12.990,185117,168,239964
12.995,185119,168,239939
13.000,185140,168,239947
13.005,185148,168,239957
13.010,185170,168,239972
13.015,185177,168,239971
13.020,185190,168,239983
13.025,185203,168,239980
13.029,185229,168,240031
13.034,185243,168,240030
13.039,185263,168,240051
13.044,185280,168,240079
13.049,185300,168,240078
13.054,185322,168,240132
13.059,185347,168,240143
13.064,185386,168,240178
13.069,185412,168,240203
13.074,185448,168,240246
13.079,185449,168,240280
13.084,185489,168,240284
13.089,185486,168,240289
13.094,185513,168,240305
13.099,185513,168,240311
13.104,185488,168,240312
13.109,185461,168,240310
13.114,185443,168,240292
13.119,185408,168,240242
13.124,185372,168,240254
13.129,185340,168,240245
13.134,185329,168,240277
13.139,185316,168,240293
13.144,185280,168,240257
13.149,185281,168,240286
13.153,185244,168,240266
13.158,185232,168,240261
13.163,185227,168,240288
13.168,185200,168,240297
13.173,185204,168,240309
13.178,185176,168,240311
13.183,185166,168,240287
13.188,185150,168,240291
13.193,185155,168,240278
13.198,185154,168,240293
13.203,185140,168,240305
13.208,185130,168,240290
13.213,185126,168,240279
13.218,185141,168,240315
13.223,185134,168,240302
13.228,185141,168,240311
13.233,185140,168,240349
13.238,185135,168,240345
13.243,185156,168,240363
13.248,185162,168,240416
13.253,185177,168,240440
13.258,185178,168,240451
13.263,185189,168,240464
13.268,185234,168,240489
13.273,185204,168,240544
13.277,185217,168,240550
13.282,185245,168,240594
13.287,185266,168,240638
13.292,185303,168,240667
13.297,185302,168,240684
13.302,185339,168,240738
13.307,185363,168,240770
13.312,185379,168,240776
13.317,185408,168,240817
13.322,185421,168,240835
13.327,185444,168,240848
13.332,185452,168,240880
13.337,185471,168,240907
13.342,185476,168,240903
13.347,185502,168,240919
13.352,185512,168,240984
13.357,185509,168,240999
13.362,185532,168,241020
13.367,185555,168,241069
13.372,185565,168,241074
13.377,185576,168,241115
13.382,185591,168,241136
13.387,185600,168,241181
13.392,185625,168,241198
13.397,185640,168,241229
13.401,185643,168,241247
13.406,185651,168,241281
13.411,185658,168,241277
13.416,185660,168,241306
13.421,185668,168,241327
13.426,185664,168,241349
13.431,185698,168,241377
13.436,185718,168,241409
13.441,185714,168,241443
13.446,185729,168,241481
13.451,185760,168,241511
13.456,185772,168,241541
13.461,185794,168,241587
13.466,185812,169,241626
13.471,185832,168,241653
13.476,185867,168,241721
13.481,185877,168,241727
13.486,185885,168,241766
13.491,185889,168,241789
13.496,186353,168,242353
13.501,186368,168,242353
13.506,186361,168,242364
13.511,186334,168,242347
13.516,186308,168,242201
13.521,186307,168,241955
13.525,186024,168,241971
13.530,186041,168,241995
13.535,186043,168,242018
13.540,186078,168,242015
13.545,186076,168,242048
13.550,186081,168,242075
13.555,186107,168,242070
13.560,186122,168,242083
13.565,186154,168,242098
13.570,186146,168,242094
13.575,186159,168,242099
13.580,186203,168,242130
13.585,186210,168,242143
13.590,186218,168,242161
13.595,186252,168,242207
13.600,186267,168,242230
13.605,186290,168,242244
13.610,186296,168,242247
13.615,186300,168,242259
13.620,186349,168,242294
13.625,186352,168,242335
13.630,186365,168,242354
13.635,186353,168,242353
13.640,186368,168,242353
13.645,186361,168,242364
13.649,186334,168,242347
13.654,186308,168,242354
13.659,186307,168,242335
13.664,186258,168,242327
13.669,186213,168,242299
13.674,186195,168,242302
13.679,186179,168,242277
13.684,186161,168,242285
13.689,186135,168,242285
13.694,186112,168,242265
13.699,186100,168,242273
13.704,186081,168,242263
13.709,186070,168,242256
13.714,186032,168,242239
13.719,186016,168,242233
13.724,185993,168,242229
13.729,186030,168,242228
13.734,186006,168,242243
13.739,185984,168,242226
13.744,185983,168,242207
13.749,185972,168,242220
13.754,185977,168,242218
13.759,185967,168,242222
13.764,185965,168,242228
13.769,185958,168,242224
13.773,186356,168,242653
13.778,186381,168,242652
13.783,186365,168,242667
13.788,186381,168,242660
13.793,186383,168,242466
13.798,186386,168,242214
13.803,185974,168,242229
13.808,186005,168,242245
13.813,185998,168,242244
13.818,186007,168,242237
13.823,186024,168,242295
13.828,186044,168,242316
13.833,186070,168,242378
13.838,186085,168,242367
13.843,186117,168,242405
13.848,186149,168,242430
13.853,186166,168,242444
13.858,186197,168,242473
13.863,186213,168,242514
13.868,186224,168,242528
13.873,186253,168,242551
13.878,186256,168,242575
13.883,186283,168,242583
13.888,186293,168,242592
13.893,186298,168,242608
13.897,186324,168,242618
13.902,186328,168,242636
13.907,186339,168,242638
13.912,186356,168,242653
13.917,186381,168,242652
13.922,186365,168,242667
13.927,186381,168,242660
13.932,186383,168,242675
13.937,186386,168,242673
13.942,186387,168,242683
13.947,186395,168,242713
13.952,186407,168,242709
13.957,186427,168,242720
13.962,186450,168,242718
13.967,186445,168,242745
13.972,186463,168,242735
13.977,186449,168,242748
13.982,186489,168,242788
13.987,186492,168,242771
13.992,186506,168,242799
13.997,186551,168,242789
14.002,186544,168,242818
14.007,186577,168,242856
14.012,186598,168,242863
14.017,186612,168,242891
14.022,186624,168,242905
14.026,186647,168,242917
14.031,186667,168,242969
14.036,186672,168,242976
14.041,186719,168,243006
14.046,186744,168,243022
14.051,186764,168,243055
14.056,186766,168,243096
14.061,186817,168,243116
14.066,186822,168,243164
14.071,186849,168,243184
14.076,186885,168,243205
14.081,186910,168,243262
14.086,186950,168,243275
14.091,186977,168,243307
14.096,187023,168,243347
14.101,187032,168,243397
14.106,187080,168,243412
14.111,187095,168,243461
14.116,187122,168,243498
14.121,187170,168,243547
14.126,187211,168,243567
14.131,187250,168,243631
14.136,187272,168,243685
14.141,187323,168,243711
14.146,187340,168,243759
14.150,187372,168,243784
14.155,187393,168,243809
14.160,187409,168,243821
14.165,187439,168,243857
14.170,187426,168,243859
14.175,187419,168,243889
14.180,187402,168,243895
14.185,187387,168,243859
14.190,187364,168,243863
14.195,187342,168,243839
14.200,187326,168,243836
14.205,187287,168,243853
14.210,187278,168,243864
14.215,187265,168,243872
14.220,187256,168,243895
14.225,187256,168,243893
14.230,187229,168,243927
14.235,187232,168,243903
14.240,187208,168,243904
14.245,187190,168,243932
14.250,187198,168,243961
14.255,187212,168,243972
14.260,187229,168,243993
14.265,187215,168,244036
14.270,187225,168,244004
14.274,187228,168,244039
14.279,187236,168,244079
14.284,187243,168,244097
14.289,187233,168,244059
14.294,187264,168,244081
14.299,187268,168,244113
14.304,187269,168,244148
14.309,187295,168,244137
14.314,187293,168,244150
14.319,187299,168,244207
14.324,187315,168,244195
14.329,187652,168,244542
14.334,187656,168,244533
14.339,187656,168,244539
14.344,187673,168,244556
14.349,187670,168,244532
14.354,187666,168,244304
14.359,187387,168,244330
14.364,187399,168,244319
14.369,187427,168,244333
14.374,187442,168,244343
14.379,187463,168,244357
14.384,187487,168,244372
14.389,187494,168,244402
14.394,187523,168,244428
14.398,187517,168,244430
14.403,187548,168,244454
14.408,187532,168,244466
14.413,187543,168,244464
14.418,187555,168,244460
14.423,187582,168,244485
14.428,187598,168,244493
14.433,187594,168,244497
14.438,187619,168,244538
14.443,187619,168,244531
14.448,187629,168,244530
14.453,187646,168,244553
14.458,187647,168,244542
14.463,187637,168,244552
14.468,187652,168,244542
14.473,187656,168,244533
14.478,187656,168,244539
14.483,187673,168,244556
14.488,187670,168,244550
14.493,187666,168,244548
14.498,187690,168,244578
14.503,187703,168,244567
14.508,187693,168,244578
14.513,187723,168,244588
14.518,187742,168,244607
14.522,187753,168,244601
14.527,187747,168,244626
14.532,187768,168,244629
14.537,187773,168,244635
14.542,187783,168,244634
14.547,187808,168,244650
14.552,187805,168,244649
14.557,187829,168,244660
14.562,187834,168,244686
14.567,187873,168,244704
14.572,187869,168,244710
14.577,187877,168,244718
14.582,187904,168,244741
14.587,187918,168,244736
14.592,187942,168,244765
14.597,187944,168,244790
14.602,187974,168,244808
14.607,187930,168,244797
14.612,187909,168,244784
14.617,187873,168,244760
14.622,187863,168,244744
14.627,187828,168,244621
14.632,187822,168,244863
14.637,188091,168,244909
14.642,188115,168,244911
14.646,188138,168,244943
14.651,188158,168,244955
14.656,188168,169,244953
14.661,188167,168,244966
14.666,188221,168,245001
14.671,188225,168,245009
14.676,188250,168,245017
14.681,188264,168,245034
14.686,188271,168,245045
14.691,188245,168,245054
14.696,188232,168,245016
14.701,188223,168,244988
14.706,188178,168,244963
14.711,188131,168,244907
14.716,188099,168,244874
14.721,188051,168,244861
14.726,188042,168,244839
14.731,188003,168,244849
14.736,187978,168,244836
14.741,187962,168,244820
14.746,187791,168,244757
14.751,187828,168,244776
14.756,187830,168,244786
14.761,187853,168,244744
14.766,187828,168,244730
14.770,187822,168,244686
14.775,187817,168,244678
14.780,187789,168,244662
14.785,187780,168,244675
14.790,187774,168,244686
14.795,187764,168,244654
14.800,187747,168,244650
14.805,187744,168,244617
14.810,187749,168,244635
14.815,187726,168,244617
14.820,187702,168,244630
14.825,187744,168,244619
14.830,187731,168,244615
14.835,187725,168,244655
14.840,187731,168,244644
14.845,187742,168,244673
14.850,187754,168,244656
14.855,187738,168,244660
14.860,187753,168,244659
14.865,187760,168,244682
14.870,187755,168,244703
14.875,187782,168,244714
14.880,187784,168,244733
14.885,187791,168,244757
14.890,187828,168,244776
14.894,187830,168,244786
14.899,187853,168,244770
14.904,187875,168,244810
14.909,187877,168,244809
14.914,187891,168,244837
14.919,187917,168,244842
14.924,187932,168,244856
14.929,187922,168,244859
14.934,187945,168,244856
14.939,187949,168,244882
14.944,187977,168,244911
14.949,187993,168,244913
14.954,188002,168,244954
14.959,188019,168,244975
14.964,188020,168,244981
14.969,188038,168,244978
14.974,188047,168,244967
14.979,188058,168,244982
14.984,188060,168,245024
14.989,188068,168,245044
14.994,188083,168,245038
14.999,188099,168,245042
15.004,188100,168,245076
15.009,188096,168,245064
15.014,188110,168,245061
15.018,188121,168,245090
15.023,188566,168,245535
15.028,188584,168,245533
15.033,188606,168,245574
15.038,188634,168,245597
15.043,188621,168,245662
15.048,188670,168,245149
15.053,188212,168,245176
15.058,188213,168,245182
15.063,188225,168,245186
15.068,188246,168,245207
15.073,188247,168,245211
15.078,188252,168,245229
15.083,188274,168,245234
15.088,188308,168,245283
15.093,188319,168,245283
15.098,188331,168,245307
15.103,188347,168,245315
15.108,188363,168,245337
15.113,188368,168,245332
15.118,188385,168,245367
15.123,188413,168,245368
15.128,188436,168,245391
15.133,188440,168,245399
15.138,188470,168,245436
15.143,188489,168,245452
15.147,188520,168,245482
15.152,188543,168,245495
15.157,188556,168,245512
15.162,188566,168,245535
15.167,188584,168,245533
15.172,188606,168,245574
15.177,188634,168,245597
15.182,188621,168,245604
15.187,188670,168,245620
15.192,188676,168,245634
15.197,188682,168,245651
15.202,188670,168,245663
15.207,188651,168,245637
15.212,188650,168,245611
15.217,188606,168,245585
15.222,188581,168,245569
15.227,188536,169,245549
15.232,188496,168,245509
15.237,188470,168,245523
15.242,188437,168,245505
15.247,188427,168,245491
15.252,188368,168,245491
15.257,188374,168,245459
15.262,188338,168,245446
15.267,188306,168,245413
15.271,188297,168,245406
15.276,188281,168,245403
15.281,188240,168,245378
15.286,188225,168,245349
15.291,188214,168,245358
15.296,188190,168,245344
15.301,188198,168,245322
15.306,188170,168,245306
15.311,188167,168,245332
15.316,188170,168,245310
15.321,188163,168,245345
15.326,188170,168,245307
15.331,188148,168,245320
15.336,188143,168,245336
15.341,188162,168,245316
15.346,188150,168,245324
15.351,188145,168,245323
15.356,188140,168,245306
15.361,188141,168,245328
15.366,188158,168,245314
15.371,188152,168,245342
15.376,188155,168,245322
15.381,188168,168,245333
15.386,188164,168,245351
15.391,188186,168,245351
15.395,188195,168,245388
15.400,188216,168,245415
15.405,188219,168,245418
15.410,188243,168,245397
15.415,188266,168,245464
15.420,188285,168,245483
15.425,188299,168,245468
15.430,188305,168,245489
15.435,188304,168,245484
15.440,188303,168,245497
15.445,188317,168,245493
15.450,188344,168,245504
15.455,188336,168,245550
15.460,188351,168,245557
15.465,188373,168,245562
15.470,188369,168,245559
15.475,188363,168,245580
15.480,188370,168,245576
15.485,188383,168,245576
15.490,188387,168,245590
15.495,188398,168,245583
15.500,188400,168,245565
15.505,188415,168,245593
15.510,188401,168,245576
15.515,188411,168,245586
15.519,188419,168,245617
15.524,188434,168,245607
15.529,188438,168,245622
15.534,188472,168,245623
15.539,188453,168,245648
15.544,188484,168,245678
15.549,188503,168,245675
15.554,188502,168,245682
15.559,188528,168,245697
15.564,188535,168,245724
15.569,188537,168,245705
15.574,188552,168,245729
15.579,188983,168,246162
15.584,188981,168,246159
15.589,188961,168,246157
15.594,188939,168,246146
15.599,188893,168,246057
15.604,188851,168,245793
15.609,188656,168,245841
15.614,188693,168,245860
15.619,188684,168,245892
15.624,188696,168,245894
15.629,188719,168,245904
15.634,188699,168,245898
15.639,188717,168,245912
15.643,188729,168,245902
15.648,188737,168,245903
15.653,188765,168,245918
15.658,188763,168,245919
15.663,188784,168,245959
15.668,188776,168,245968
15.673,188805,168,246000
15.678,188828,168,246011
15.683,188850,168,246040
15.688,188889,168,246076
15.693,188900,168,246097
15.698,188920,168,246155
15.703,188928,168,246137
15.708,188949,168,246147
15.713,188971,168,246171
15.718,188983,168,246162
15.723,188981,168,246159
15.728,188961,168,246157
15.733,188939,168,246146
15.738,188893,168,246115
15.743,188851,168,246095
15.748,188810,168,246091
15.753,188779,168,246069
15.758,188745,168,246042
15.763,188726,168,246038
15.767,188696,168,246021
15.772,188658,168,246011
15.777,188636,168,245977
15.782,188626,168,245960
15.787,188578,168,245925
15.792,188554,168,245930
15.797,188550,168,245900
15.802,188510,168,245885
15.807,188501,168,245870
15.812,188483,168,245842
15.817,188472,168,245839
15.822,188460,168,245830
15.827,188448,168,245821
15.832,188433,168,245812
15.837,188444,168,245815
15.842,188429,168,245828
15.847,188412,168,245801
15.852,188428,168,245799
15.857,188635,168,246017
15.862,188614,168,246046
15.867,188619,168,246062
15.872,188644,168,246072
15.877,188628,168,246078
15.882,188660,168,245824
15.887,188419,168,245833
15.891,188429,168,245822
15.896,188423,168,245828
15.901,188443,168,245854
15.906,188446,168,245864
15.911,188446,168,245855
15.916,188457,168,245887
15.921,188447,168,245898
15.926,188488,168,245896
15.931,188501,168,245904
15.936,188508,168,245919
15.941,188520,168,245937
15.946,188556,168,245947
15.951,188553,168,245950
15.956,188556,168,245947
15.961,188554,168,245967
15.966,188552,168,245979
15.971,188558,168,245978
15.976,188581,168,245996
15.981,188593,168,245999
15.986,188591,168,246017
15.991,188613,168,246023
15.996,188635,168,246017
16.001,188614,168,246046
16.006,188619,168,246062
16.011,188644,168,246072
16.015,188628,168,246083
16.020,188660,168,246091
16.025,188654,168,246085
16.030,188653,168,246086
16.035,188682,168,246080
16.040,188661,168,246079
16.045,188659,168,246072
16.050,188660,168,246075
16.055,188664,168,246061
16.060,188655,168,246047
16.065,188655,168,246060
16.070,188657,168,246074
16.075,188660,168,246057
16.080,188682,168,246051
16.085,188663,168,246040
16.090,188657,168,246061
16.095,188674,168,246026
16.100,188674,168,246041
16.105,188671,168,246039
16.110,188689,168,246045
16.115,188703,168,246075
16.120,188716,168,246060
16.125,188710,168,246078
16.130,188720,168,246087
16.135,188740,168,246102
16.140,188747,168,246090
16.144,188751,168,246093
16.149,188750,168,246115
16.154,188770,168,246110
16.159,188778,168,246149
16.164,188791,168,246136
16.169,188791,168,246145
16.174,188812,168,246153
16.179,188833,168,246172
16.184,188836,168,246160
16.189,188841,168,246167
16.194,188859,168,246206
16.199,188861,168,246222
16.204,188870,168,246215
16.209,188884,168,246212
16.214,188913,168,246229
16.219,188909,168,246232
16.224,188938,168,246276
16.229,188946,168,246271
16.234,188972,168,246301
16.239,188973,168,246312
16.244,188996,168,246334
16.249,188992,168,246356
16.254,189030,168,246343
16.259,189037,168,246356
16.264,189047,168,246376
16.268,189050,168,246375
16.273,189040,168,246375
16.278,189021,168,246354
16.283,188996,168,246335
16.288,188967,168,246294
16.293,188899,168,246259
16.298,188868,168,246219
16.303,188833,168,246206
16.308,188786,168,246178
16.313,188740,168,246156
16.318,188720,168,246124
16.323,188702,168,246118
16.328,188658,168,246081
16.333,188634,168,246080
16.338,188600,168,246063
16.343,188594,168,246050
16.348,188551,168,246023
16.353,188541,168,246012
16.358,188505,169,246014
16.363,188499,168,245989
16.368,188479,168,245989
16.373,188476,168,245974
16.378,188463,168,245951
16.383,188470,168,245951
16.388,188444,168,245943
16.392,188427,168,245944
16.397,188420,168,245932
16.402,188405,168,245914
16.407,188407,168,245927
16.412,188597,168,246148
16.417,188595,168,246176
16.422,188597,168,246173
16.427,188592,168,246169
16.432,188606,168,246186
16.437,188601,168,245934
16.442,188392,168,245945
16.447,188403,168,245941
16.452,188398,168,245944
16.457,188407,168,245951
16.462,188410,168,245960
16.467,188424,168,245974
16.472,188455,168,245991
16.477,188465,168,246015
16.482,188474,168,246016
16.487,188478,168,246042
16.492,188487,168,246038
16.497,188498,168,246053
16.502,188505,168,246059
16.507,188514,168,246058
16.512,188521,168,246076
16.516,188529,168,246067
16.521,188547,168,246102
16.526,188554,168,246132
16.531,188585,168,246156
16.536,188576,168,246162
16.541,188586,168,246151
16.546,188585,168,246148
16.551,188597,168,246148
16.556,188595,168,246176
16.561,188597,168,246173
16.566,188592,168,246169
16.571,188606,168,246172
16.576,188601,168,246186
16.581,188627,168,246184
16.586,188612,168,246194
16.591,188630,168,246203
16.596,188618,168,246190
16.601,188646,168,246215
16.606,188625,168,246206
16.611,188640,168,246206
16.616,188672,168,246226
16.621,188670,168,246231
16.626,188659,168,246218
16.631,188669,168,246234
16.636,188694,168,246257
16.640,188699,168,246256
16.645,188705,168,246259
16.650,188727,168,246290
16.655,188731,168,246277
16.660,188762,168,246302
16.665,188756,168,246303
16.670,188779,168,246335
16.675,188803,168,246337
16.680,188786,168,246364
16.685,188812,168,246383
16.690,189348,168,246994
16.695,189359,168,246978
16.700,189374,168,247009
16.705,189399,168,247012
16.710,189394,168,246978
16.715,189372,168,246499
16.720,188949,168,246524
16.725,188943,168,246564
16.730,188957,168,246545
16.735,188975,168,246586
16.740,188986,168,246592
16.745,189011,168,246593
16.750,189040,168,246627
16.755,189042,168,246657
16.760,189082,168,246666
16.764,189083,168,246693
16.769,189104,168,246742
16.774,189150,168,246734
16.779,189145,168,246754
16.784,189155,168,246782
16.789,189183,168,246801
16.794,189195,168,246794
16.799,189228,168,246848
16.804,189247,168,246863
16.809,189280,168,246886
16.814,189286,168,246911
16.819,189313,168,246938
16.824,189347,168,246953
16.829,188851,168,246708
16.834,188840,168,246666
16.839,188827,168,246673
16.844,188837,168,246663
16.849,188834,168,246762
16.854,188808,168,246983
16.859,189335,168,246985
16.864,189302,168,246953
16.869,189266,168,246952
16.874,189233,168,246924
16.879,189219,168,246930
16.884,189179,168,246885
16.888,189132,168,246878
16.893,189109,168,246859
16.898,189074,168,246816
16.903,189034,168,246814
16.908,189009,168,246792
16.913,189005,168,246779
16.918,188983,168,246763
16.923,188954,168,246763
16.928,188922,168,246758
16.933,188903,168,246737
16.938,188905,168,246713
16.943,188874,168,246717
16.948,188877,168,246709
16.953,188874,168,246710
16.958,188861,168,246690
16.963,188842,168,246675
16.968,188851,168,246708
16.973,188840,168,246666
16.978,188827,168,246673
16.983,188837,168,246663
16.988,188834,168,246670
16.993,188808,168,246658
16.998,188828,168,246687
17.003,188822,168,246671
17.008,188823,168,246664
17.012,188828,168,246657
17.017,188829,168,246701
17.022,188822,168,246691
17.027,188843,168,246682
17.032,188843,168,246693
17.037,188848,168,246695
17.042,188861,168,246739
17.047,188864,168,246734
17.052,188879,168,246750
17.057,188900,168,246759
17.062,188935,168,246763
17.067,188919,168,246788
17.072,188957,168,246780
17.077,188967,168,246811
17.082,188968,168,246787
17.087,188981,168,246812
17.092,188988,168,246825
17.097,189004,168,246823
17.102,189017,168,246860
17.107,189030,168,246851
17.112,189023,168,246870
17.117,189034,168,246880
17.122,189051,168,246918
17.127,189061,168,246910
17.132,189079,168,246935
17.136,189071,168,246902
17.141,189071,168,246932
17.146,189086,168,246917
17.151,189096,168,246928
17.156,189096,168,246919
17.161,189110,168,246937
17.166,189121,168,246943
17.171,189109,168,246928
17.176,189129,168,246936
17.181,189146,168,246952
17.186,189141,168,246972
17.191,189153,168,246951
17.196,189156,168,246958
17.201,189186,168,246970
17.206,189187,168,246995
17.211,189186,168,246996
17.216,189216,168,247025
17.221,189215,168,247004
17.226,189234,168,247031
17.231,189262,168,247036
17.236,189247,168,247041
17.241,189275,168,247067
17.246,189293,168,247076
17.251,189305,168,247095
17.256,189316,168,247120
17.261,189331,168,247111
17.265,189342,168,247121
17.270,189366,168,247153
17.275,189380,168,247170
17.280,189400,168,247159
17.285,189416,168,247204
17.290,189419,168,247207
17.295,189466,168,247225
17.300,189460,168,247236
17.305,189481,168,247252
17.310,189474,170,247277
17.315,189514,168,247277
17.320,189526,168,247288
17.325,189548,168,247310
17.330,189561,168,247327
17.335,189559,168,247321
17.340,189590,168,247337
17.345,189611,168,247358
17.350,189619,168,247372
17.355,189647,168,247374
17.360,189649,168,247388
17.365,189665,168,247399
17.370,189671,168,247423
17.375,189705,168,247417
17.380,189711,168,247427
17.385,189352,168,247100
17.389,189326,168,247095
17.394,189332,168,247064
17.399,189300,168,247057
17.404,189297,168,247260
17.409,189300,168,247531
17.414,189843,168,247535
17.419,189848,168,247552
17.424,189867,168,247539
17.429,189869,168,247547
17.434,189836,168,247512
17.439,189822,168,247498
17.444,189768,168,247460
17.449,189738,168,247421
17.454,189720,168,247425
17.459,189684,168,247395
17.464,189649,168,247357
17.469,189613,168,247331
17.474,189587,168,247339
17.479,189547,168,247296
17.484,189509,168,247272
17.489,189472,168,247246
17.494,189472,168,247248
17.499,189427,168,247200
17.504,189381,168,247197
17.509,189410,168,247161
17.513,189364,168,247135
17.518,189356,168,247106
17.523,189352,168,247100
17.528,189326,168,247095
17.533,189332,168,247064
17.538,189300,168,247057
17.543,189297,168,247040
17.548,189300,168,247046
17.553,189283,168,247022
17.558,189277,168,247055
17.563,189279,168,247047
17.568,189289,168,247023
17.573,189297,168,247048
17.578,189300,168,247034
17.583,189284,168,247039
17.588,189297,168,247038
17.593,189298,168,247045
17.598,189303,168,247039
17.603,189321,168,247036
17.608,189309,168,247063
17.613,189327,168,247068
17.618,189331,168,247074
17.623,189338,168,247085
17.628,189352,168,247090
17.633,189374,168,247102
17.637,189378,168,247130
17.642,189399,168,247139
17.647,189419,168,247142
17.652,189454,168,247146
17.657,189443,169,247176
17.662,189699,168,247354
17.667,189714,168,247368
17.672,189727,168,247390
17.677,189741,168,247383
17.682,189753,168,247481
17.687,189772,168,247214
17.692,189529,168,247232
17.697,189529,168,247245
17.702,189550,168,247239
17.707,189526,168,247272
17.712,189540,168,247254
17.717,189556,168,247240
17.722,189549,168,247244
17.727,189558,168,247271
17.732,189586,168,247248
17.737,189564,168,247248
17.742,189571,168,247253
17.747,189595,168,247241
17.752,189592,168,247265
17.757,189593,168,247255
17.761,189601,168,247270
17.766,189611,168,247282
17.771,189625,168,247284
17.776,189638,168,247312
17.781,189643,168,247321
17.786,189647,168,247320
17.791,189683,168,247360
17.796,189695,168,247344
17.801,189699,168,247354
17.806,189714,168,247368
17.811,189727,168,247390
17.816,189741,168,247383
17.821,189753,168,247398
17.826,189772,168,247439
17.831,189806,168,247456
17.836,189789,168,247479
17.841,189812,168,247469
17.846,189824,168,247460
17.851,189839,168,247526
17.856,189862,168,247555
17.861,189889,168,247542
17.866,189882,168,247563
17.871,189932,168,247590
17.876,189921,168,247590
17.881,189955,168,247609
17.885,189966,168,247625
17.890,189965,168,247631
17.895,189982,168,247643
17.900,189999,168,247665
17.905,190011,168,247674
17.910,190024,168,247685
17.915,190051,168,247720
17.920,190063,168,247724
17.925,190076,168,247743
17.930,190097,168,247749
17.935,190113,168,247767
17.940,190138,168,247763
17.945,190136,168,247782
17.950,190154,168,247823
17.955,190181,168,247826
17.960,190202,168,247870
17.965,190223,168,247875
17.970,190247,168,247910
17.975,190275,168,247918
17.980,190279,168,247931
17.985,190289,168,247948
17.990,190278,168,247958
17.995,190304,168,247948
18.000,190283,168,247921
18.005,190234,168,247899
18.009,190216,168,247880
18.014,190189,168,247867
18.019,190141,168,247840
18.024,190136,168,247843
18.029,190088,168,247839
18.034,190055,168,247804
18.039,190026,168,247791
18.044,190030,168,247763
18.049,190013,168,247736
18.054,189951,168,247750
18.059,189952,168,247692
18.064,189909,168,247713
18.069,189902,168,247676
18.074,189866,168,247674
18.079,189878,168,247669
18.084,189859,168,247665
18.089,189848,168,247636
18.094,189839,168,247647
18.099,189843,168,247656
18.104,189833,168,247646
18.109,189825,168,247648
18.114,189830,168,247636
18.119,189839,168,247627
18.124,189832,168,247659
18.129,189838,168,247652
18.133,189844,168,247646
18.138,189843,168,247683
18.143,189859,168,247669
18.148,189848,168,247683
18.153,189867,168,247682
18.158,189877,168,247674
18.163,189879,168,247691
18.168,189877,168,247699
18.173,189884,168,247717
18.178,189874,168,247694
18.183,189906,168,247707
18.188,189921,168,247734
18.193,189937,168,247740
18.198,189946,168,247776
18.203,189980,168,247800
18.208,189992,168,247798
18.213,190013,168,247841
18.218,190029,168,247830
18.223,190026,168,247833
18.228,190028,168,247845
18.233,190028,168,247834
18.238,190046,168,247831
18.243,190069,168,247884
18.248,190086,168,247884
18.253,190079,168,247887
18.257,190086,168,247873
18.262,190092,168,247900
18.267,190106,168,247900
18.272,190108,168,247910
18.277,190128,168,247915
18.282,190137,168,247934
18.287,190145,168,247936
18.292,190144,168,247951
18.297,190157,168,247955
18.302,190149,168,247938
18.307,190158,168,247969
18.312,190161,168,247967
18.317,190175,168,247975
18.322,190189,168,247989
18.327,190193,168,248012
18.332,190199,168,248026
18.337,190209,168,248035
18.342,190228,168,248051
18.347,190244,168,248059
18.352,190251,168,248076
18.357,190278,168,248096
18.362,190284,168,248099
18.367,190306,168,248109
18.372,190300,168,248141
18.377,190339,168,248144
18.382,190348,168,248177
18.386,190359,168,248197
18.391,190365,168,248209
18.396,190386,168,248222
18.401,190402,168,248256
18.406,190418,168,248266
18.411,190426,168,248282
18.416,190460,168,248302
18.421,190472,168,248329
18.426,190488,168,248328
18.431,190511,169,248355
18.436,190528,168,248367
18.441,190541,168,248385
18.446,190548,168,248402
18.451,190582,168,248423
18.456,190571,168,248434
18.461,190598,168,248457
18.466,190615,168,248476
18.471,190643,168,248496
18.476,190646,168,248502
18.481,190659,168,248518
18.486,190694,168,248516
18.491,190701,168,248541
18.496,190453,168,248434
18.501,190428,168,248404
18.506,190410,168,248390
18.510,190392,168,248391
18.515,190377,168,248358
18.520,190393,168,248642
18.525,190818,168,248668
18.530,190835,168,248656
18.535,190867,168,248683
18.540,190862,168,248676
18.545,190884,168,248700
18.550,190869,168,248688
18.555,190866,168,248682
18.560,190853,168,248670
18.565,190825,168,248650
18.570,190790,168,248634
18.575,190765,168,248625
18.580,190713,168,248590
18.585,190700,168,248579
18.590,190656,168,248551
18.595,190642,168,248547
18.600,190615,168,248518
18.605,190584,168,248525
18.610,190559,168,248515
18.615,190511,168,248483
18.620,190526,168,248460
18.625,190483,168,248440
18.630,190467,168,248450
18.634,190453,168,248434
18.639,190428,168,248404
18.644,190410,168,248390
18.649,190392,168,248391
18.654,190377,168,248361
18.659,190393,168,248372
18.664,190383,168,248374
18.669,190370,168,248376
18.674,190364,168,248357
18.679,190372,168,248338
18.684,190349,168,248353
18.689,190341,168,248343
18.694,190354,168,248343
18.699,190347,168,248328
18.704,190354,168,248349
18.709,190348,168,248333
18.714,190342,168,248361
18.719,190358,168,248356
18.724,190351,168,248339
18.729,190356,168,248343
18.734,190336,168,248359
18.739,190344,168,248362
18.744,190373,168,248359
18.749,190374,168,248383
18.754,190372,168,248377
18.758,190388,168,248400
18.763,190412,168,248397
18.768,190407,168,248415
18.773,190671,168,248666
18.778,190689,168,248679
18.783,190677,168,248681
18.788,190694,168,248734
18.793,190709,168,248748
18.798,190718,168,248476
18.803,190487,168,248490
18.808,190523,168,248528
18.813,190530,168,248537
18.818,190544,168,248537
18.823,190556,168,248552
18.828,190559,168,248572
18.833,190572,168,248574
18.838,190558,168,248601
18.843,190569,168,248593
18.848,190577,168,248604
18.853,190573,168,248609
18.858,190592,168,248612
18.863,190589,168,248617
18.868,190605,168,248605
18.873,190606,168,248629
18.878,190582,168,248617
18.882,190621,168,248632
18.887,190629,168,248605
18.892,190633,168,248655
18.897,190641,168,248631
18.902,190650,168,248639
18.907,190653,168,248651
18.912,191061,168,249063
18.917,191078,168,249104
18.922,191088,168,249110
18.927,191126,168,249126
18.932,191114,168,249215
18.937,191141,168,248731
18.942,190732,168,248753
18.947,190740,168,248743
18.952,190751,168,248765
18.957,190783,168,248778
18.962,190778,168,248793
18.967,190797,168,248786
18.972,190815,168,248824
18.977,190838,168,248842
18.982,190848,168,248848
18.987,190856,168,248869
18.992,190861,168,248875
18.997,190891,168,248896
19.002,190895,168,248914
19.006,190908,168,248924
19.011,190926,168,248946
19.016,190958,168,248932
19.021,190955,168,248987
19.026,190983,168,248995
19.031,190984,168,249002
19.036,191015,168,249024
19.041,191030,168,249044
19.046,191034,168,249061
19.051,191061,168,249063
19.056,191078,168,249104
19.061,191088,168,249110
19.066,191126,168,249126
19.071,191114,168,249137
19.076,191141,168,249165
19.081,191151,168,249164
19.086,191183,168,249230
19.091,191224,168,249246
19.096,191222,168,249233
19.101,191260,168,249292
19.106,191260,168,249286
19.111,191280,168,249323
19.116,191290,168,249326
19.121,191313,168,249326
19.126,191322,168,249339
19.130,191301,168,249311
19.135,191266,168,249294
19.140,191241,168,249255
19.145,191195,168,249222
19.150,191187,168,249228
19.155,191132,168,249165
19.160,191093,168,249164
19.165,191063,168,249133
19.170,191017,168,249104
19.175,190995,168,249073
19.180,190962,168,249053
19.185,190928,168,249014
19.190,190917,168,248986
19.195,190887,168,248976
19.200,190847,168,248935
19.205,190820,168,248922
19.210,190789,168,248893
19.215,190769,168,248865
19.220,190774,168,248836
19.225,190738,168,248825
19.230,190734,168,248804
19.235,190724,168,248792
19.240,190711,168,248809
19.245,190719,168,248767
19.250,190700,168,248742
19.254,190671,168,248744
19.259,190694,168,248725
19.264,190675,168,248711
19.269,190667,168,248720
19.274,190655,168,248712
19.279,190653,168,248714
19.284,190661,168,248713
19.289,190663,168,248711
19.294,190658,168,248691
19.299,190661,168,248712
19.304,190656,168,248708
19.309,190640,168,248717
19.314,190667,168,248731
19.319,190669,168,248731
19.324,190679,168,248756
19.329,190697,168,248762
19.334,190714,168,248792
19.339,190730,168,248785
19.344,190764,168,248811
19.349,190761,168,248823
19.354,190768,168,248853
19.359,190783,168,248873
19.364,190806,168,248874
19.369,190826,168,248885
19.374,190829,168,248895
19.379,190852,168,248894
19.383,190867,168,248931
19.388,190873,168,248937
19.393,190881,168,248967
19.398,190908,168,248985
19.403,190902,168,248987
19.408,190920,168,248985
19.413,190935,168,249003
19.418,190941,168,249020
19.423,190952,168,249026
19.428,190940,168,249043
19.433,190944,168,249021
19.438,190955,168,249042
19.443,190974,168,249051
19.448,190960,168,249082
19.453,190978,168,249054
19.458,190988,168,249079
19.463,191003,168,249090
19.468,191333,168,249409
19.473,191361,168,249434
19.478,191371,168,249469
19.483,191384,168,249501
19.488,191404,168,249397
19.493,191411,168,249151
19.498,191079,168,249156
19.503,191090,168,249166
19.507,191099,168,249189
19.512,191097,168,249210
19.517,191107,168,249223
19.522,191119,168,249224
19.527,191137,168,249216
19.532,191150,168,249261
19.537,191165,168,249257
19.542,191171,168,249270
19.547,191186,168,249284
19.552,191202,169,249281
19.557,191204,168,249296
19.562,191224,168,249311
19.567,191225,168,249315
19.572,191246,168,249318
19.577,191256,168,249339
19.582,191263,168,249353
19.587,191290,168,249376
19.592,191288,168,249388
19.597,191306,168,249381
19.602,191336,168,249389
19.607,191333,168,249409
19.612,191361,168,249434
19.617,191371,168,249469
19.622,191384,168,249501
19.627,191404,168,249481
19.631,191411,168,249488
19.636,191418,168,249507
19.641,191451,168,249519
19.646,191458,168,249533
19.651,191485,168,249549
19.656,191486,168,249559
19.661,191504,168,249574
19.666,191534,168,249590
19.671,191550,168,249612
19.676,191551,168,249639
19.681,191586,168,249633
19.686,191603,168,249663
19.691,191602,168,249695
19.696,191643,168,249702
19.701,191663,168,249743
19.706,191661,168,249762
19.711,191675,168,249753
19.716,191669,168,249742
19.721,191634,168,249727
19.726,191600,168,249702
19.731,191573,168,249678
19.736,191528,168,249655
19.741,191489,168,249648
19.746,191138,168,249397
19.751,191115,168,249409
19.755,191121,168,249403
19.760,191120,168,249424
19.765,191142,168,249589
19.770,191137,168,249565
19.775,191289,168,249562
19.780,191263,168,249547
19.785,191265,168,249519
19.790,191239,168,249491
19.795,191220,168,249485
19.800,191199,168,249479
19.805,191174,168,249467
19.810,191167,168,249454
19.815,191169,168,249434
19.820,191158,168,249419
19.825,191149,168,249421
19.830,191135,168,249407
19.835,191114,168,249393
19.840,191122,168,249397
19.845,191123,168,249393
19.850,191121,168,249410
19.855,191105,168,249392
19.860,191106,168,249393
19.865,191113,168,249398
19.870,191114,168,249411
19.875,191125,168,249392
19.879,191119,168,249419
19.884,191138,168,249397
19.889,191115,168,249409
19.894,191121,168,249403
19.899,191120,168,249424
19.904,191142,168,249435
19.909,191137,168,249435
19.914,191168,168,249455
19.919,191174,168,249470
19.924,191180,168,249481
19.929,191215,168,249495
19.934,191227,168,249518
19.939,191237,168,249563
19.944,191260,168,249553
19.949,191266,168,249581
19.954,191269,168,249568
19.959,191259,168,249567
19.964,191280,168,249575
19.969,191298,168,249589
19.974,191286,168,249619
19.979,191301,168,249613
19.984,191299,168,249617
19.989,191315,168,249634
19.994,191306,168,249620
19.999,191317,168,249642
20.003,191335,168,249655
20.008,191322,168,249647
20.013,191344,168,249652
20.018,191350,168,249664
20.023,191663,168,249972
20.028,191650,168,249980
20.033,191675,168,250000
20.038,191689,168,250008
20.043,191700,168,249950
20.048,191736,168,249697
20.053,191378,168,249697
20.058,191394,168,249718
20.063,191381,168,249731
20.068,191412,168,249743
20.073,191438,168,249738
20.078,191433,168,249760
20.083,191455,168,249769
20.088,191456,168,249796
20.093,191469,168,249783
20.098,191480,168,249791
20.103,191490,168,249800
20.108,191493,168,249834
20.113,191517,168,249825
20.118,191529,168,249848
20.123,191532,168,249865
20.127,191548,168,249873
20.132,191580,168,249867
20.137,191543,168,249913
20.142,191593,168,249926
20.147,191585,168,249933
20.152,191631,168,249931
20.157,191637,168,249936
20.162,191663,168,249972
20.167,191650,168,249980
20.172,191675,168,250000
20.177,191689,168,250008
20.182,191700,168,250018
20.187,191736,168,250036
20.192,191728,168,250056
20.197,191753,168,250087
20.202,191778,168,250092
20.207,191793,168,250105
20.212,191814,168,250135
20.217,191850,168,250161
20.222,191852,168,250172
20.227,191857,168,250200
20.232,191880,168,250226
20.237,191884,168,250227
20.242,191924,168,250275
20.247,191942,168,250279
20.251,191966,168,250286
20.256,191988,168,250320
20.261,192003,168,250352
20.266,192016,168,250338
20.271,192037,168,250375
20.276,192053,168,250388
20.281,192062,168,250409
20.286,192079,168,250406
20.291,192049,168,250394
20.296,192042,168,250387
20.301,192018,168,250376
20.306,191986,168,250344
20.311,191953,168,250343
20.316,191939,168,250320
20.321,191893,168,250302
20.326,191877,168,250282
20.331,191838,168,250266
20.336,191803,168,250241
20.341,191790,168,250208
20.346,191746,168,250223
20.351,191716,168,250176
20.356,191700,168,250157
20.361,191683,168,250123
20.366,191650,168,250121
20.371,191636,168,250106
20.375,191626,168,250075
20.380,191615,168,250064
20.385,191589,168,250060
20.390,191587,168,250038
20.395,191581,168,250020
20.400,191563,168,250017
20.405,191564,168,250033
20.410,191562,168,250014
20.415,191547,168,250023
20.420,191550,168,250029
20.425,191553,168,250032
20.430,191547,168,250012
20.435,191534,168,250016
20.440,191543,168,250027
20.445,191545,168,250021
20.450,191544,168,250035
20.455,191542,168,250007
20.460,191538,168,250012
20.465,191538,168,250025
20.470,191550,168,250031
20.475,191554,168,250016
20.480,191595,168,250032
20.485,191560,168,250039
20.490,191584,168,250054
20.495,191599,168,250075
20.500,191608,168,250071
20.504,191606,168,250066
20.509,191631,168,250062
20.514,191625,168,250071
20.519,191639,168,250084
20.524,191659,168,250101
20.529,191651,168,250089
20.534,191656,168,250100
20.539,191676,168,250105
20.544,191657,168,250120
20.549,191672,168,250123
20.554,191681,168,250122
20.559,191678,168,250132
20.564,191689,168,250123
20.569,191691,168,250122
20.574,191678,169,250141
20.579,191703,168,250139
20.584,191693,168,250146
20.589,191708,168,250146
20.594,191713,168,250144
20.599,191712,168,250157
20.604,191731,168,250173
20.609,191720,168,250153
20.614,191711,168,250168
20.619,191753,168,250160
20.624,191742,168,250149
20.628,191747,168,250180
20.633,191764,168,250193
20.638,191763,168,250190
20.643,191768,168,250205
20.648,191762,168,250198
20.653,191794,168,250212
20.658,191786,168,250207
20.663,191806,168,250205
20.668,191794,168,250214
20.673,191848,168,250228
20.678,191821,168,250241
20.683,191820,168,250248
20.688,191823,168,250257
20.693,191849,168,250255
20.698,191854,168,250261
20.703,191858,168,250281
20.708,191892,168,250287
20.713,191887,168,250292
20.718,191905,168,250292
20.723,191931,168,250315
20.728,191918,168,250333
20.733,191923,168,250342
20.738,191920,168,250338
20.743,191955,169,250327
20.748,191961,168,250377
20.752,191956,168,250385
20.757,191995,168,250389
20.762,192011,168,250406
20.767,192025,168,250418
20.772,192028,168,250419
20.777,192049,168,250431
20.782,192075,168,250445
20.787,192074,168,250488
20.792,192104,168,250490
20.797,192109,168,250501
20.802,192135,168,250512
20.807,192144,168,250543
20.812,192155,168,250516
20.817,192179,168,250544
20.822,192178,168,250545
20.827,192215,168,250573
20.832,192214,168,250596
20.837,192217,168,250585
20.842,192219,168,250575
20.847,192199,168,250568
20.852,192178,168,250555
20.857,191660,168,250166
20.862,191657,168,250133
20.867,191659,168,250121
20.872,191659,168,250163
20.876,191669,168,250220
20.881,191650,168,250467
20.886,191985,168,250436
20.891,191951,168,250406
20.896,191921,168,250394
20.901,191883,168,250366
20.906,191865,168,250331
20.911,191847,168,250309
20.916,191811,168,250280
20.921,191806,168,250280
20.926,191775,168,250259
20.931,191774,168,250249
20.936,191755,168,250240
20.941,191730,168,250222
20.946,191717,168,250212
20.951,191734,168,250206
20.956,191699,168,250184
20.961,191706,168,250180
20.966,191699,168,250169
20.971,191682,168,250158
20.976,191667,168,250131
20.981,191664,168,250156
20.986,191669,168,250143
20.991,191674,168,250139
20.996,191817,168,250293
21.000,191827,168,250298
21.005,191820,168,250317
21.010,191825,168,250287
21.015,191821,168,250125
21.020,191838,168,250150
21.025,191662,168,250148
21.030,191669,168,250149
21.035,191661,168,250142
21.040,191679,168,250166
21.045,191679,168,250159
21.050,191706,168,250164
21.055,191713,168,250204
21.060,191728,168,250205
21.065,191743,168,250209
21.070,191761,168,250207
21.075,191770,168,250222
21.080,191756,168,250214
21.085,191769,168,250213
21.090,191753,168,250204
21.095,191760,168,250215
21.100,191762,168,250243
21.105,191770,168,250237
21.110,191780,168,250255
21.115,191792,168,250242
21.120,191801,168,250240
21.124,191801,168,250281
21.129,191813,168,250295
21.134,191817,168,250293
21.139,191827,168,250298
21.144,191820,168,250317
21.149,191825,168,250287
21.154,191821,168,250305
21.159,191838,168,250286
21.164,191833,168,250300
21.169,191839,168,250325
21.174,191841,168,250293
21.179,191842,168,250319
21.184,191844,168,250330
21.189,191880,168,250302
21.194,191872,168,250349
21.199,191892,168,250373
21.204,191887,168,250346
21.209,191908,168,250373
21.214,191895,168,250370
21.219,191926,168,250367
21.224,191919,168,250383
21.229,191905,168,250420
21.234,191917,168,250406
21.239,191934,168,250425
21.244,191947,168,250428
21.248,191972,168,250433
21.253,191980,168,250427
21.258,191982,168,250470
21.263,191995,168,250458
21.268,191999,168,250472
21.273,192025,168,250504
21.278,192016,168,250526
21.283,192024,168,250514
21.288,192040,168,250515
21.293,192057,168,250517
21.298,192075,168,250550
21.303,192092,168,250574
21.308,192103,168,250553
21.313,192122,168,250591
21.318,192116,168,250581
21.323,192127,168,250600
21.328,192154,168,250586
21.333,192178,168,250630
21.338,192176,168,250637
21.343,192182,168,250637
21.348,192191,168,250666
21.353,192220,169,250677
21.358,192228,168,250651
21.363,192246,168,250683
21.368,192259,168,250706
21.372,192264,168,250756
21.377,192295,168,250763
21.382,192304,168,250775
21.387,192318,168,250773
21.392,192332,168,250776
21.397,192334,168,250763
21.402,192343,168,250788
21.407,192323,168,250772
21.412,192288,168,250753
21.417,192267,168,250696
21.422,192217,168,250677
21.427,192190,168,250664
21.432,192155,168,250638
21.437,192135,168,250632
21.442,192096,168,250592
21.447,192043,168,250588
21.452,192013,168,250546
21.457,191972,168,250521
21.462,191957,168,250493
21.467,191925,168,250510
21.472,191917,168,250472
21.477,191861,168,250463
21.482,191861,168,250447
21.487,191843,168,250424
21.492,191817,168,250398
21.496,191806,168,250394
21.501,191797,168,250361
21.506,191779,168,250371
21.511,191757,168,250329
21.516,191745,168,250324
21.521,191732,168,250338
21.526,191729,168,250324
21.531,191724,168,250304
21.536,191718,168,250325
21.541,191715,168,250309
21.546,191703,168,250300
21.551,191825,168,250443
21.556,191828,168,250468
21.561,191828,168,250479
21.566,191830,168,250462
21.571,191845,168,250540
21.576,191850,168,250297
21.581,191669,168,250269
21.586,191660,168,250261
21.591,191666,168,250278
21.596,191667,168,250294
21.601,191686,168,250291
21.606,191686,168,250295
21.611,191692,168,250310
21.616,191697,168,250325
21.621,191735,168,250324
21.625,191742,168,250334
21.630,191757,168,250329
21.635,191746,168,250338
21.640,191772,168,250352
21.645,191761,168,250370
21.650,191758,168,250350
21.655,191771,168,250363
21.660,191786,168,250379
21.665,191782,168,250394
21.670,191785,168,250436
21.675,191800,168,250443
21.680,191809,168,250424
21.685,191822,168,250449
21.690,191825,168,250443
21.695,191828,168,250468
21.700,191828,168,250479
21.705,191830,168,250462
21.710,191845,168,250471
21.715,191850,168,250502
21.720,191850,168,250492
21.725,191855,168,250507
21.730,191865,168,250496
21.735,191866,168,250501
21.740,191860,168,250513
21.745,191840,168,250559
21.749,191889,168,250532
21.754,191889,168,250531
21.759,191895,168,250567
21.764,191892,168,250546
21.769,191908,168,250546
21.774,191905,168,250556
21.779,191916,168,250584
21.784,191923,168,250582
21.789,191935,168,250584
21.794,191946,168,250583
21.799,191961,168,250612
21.804,191967,168,250618
21.809,191969,168,250623
21.814,191972,168,250614
21.819,191977,168,250614
21.824,191996,168,250621
21.829,192331,168,250913
21.834,192320,168,250917
21.839,192298,168,250867
21.844,192258,168,250838
21.849,192221,168,250683
21.854,192202,168,250701
21.859,192077,168,250691
21.864,192076,168,250744
21.869,192088,168,250755
21.873,192107,168,250749
21.878,192103,168,250769
21.883,192118,168,250763
21.888,192140,168,250781
21.893,192148,168,250805
21.898,192165,168,250791
21.903,192184,168,250801
21.908,192193,168,250807
21.913,192197,168,250835
21.918,192196,168,250826
21.923,192223,168,250847
21.928,192236,168,250830
21.933,192246,168,250845
21.938,192261,168,250872
21.943,192282,168,250869
21.948,192295,168,250882
21.953,192303,168,250900
21.958,192311,168,250916
21.963,192329,168,250916
21.968,192331,168,250913
21.973,192320,168,250917
21.978,192298,168,250867
21.983,192258,168,250838
21.988,192221,168,250822
21.993,192202,168,250770
21.997,192142,168,250739
22.002,192108,168,250738
22.007,192079,168,250706
22.012,192032,168,250684
22.017,191988,168,250638
22.022,191962,168,250632
22.027,191936,168,250600
22.032,191906,168,250584
22.037,191877,168,250584
22.042,191847,168,250553
22.047,191838,168,250507
22.052,191813,168,250511
22.057,191784,168,250488
22.062,191770,168,250469
22.067,191753,168,250473
22.072,191738,168,250429
22.077,191715,168,250437
22.082,191699,168,250413
22.087,191691,168,250406
22.092,191671,168,250395
22.097,191662,168,250400
22.102,191647,168,250356
22.107,191651,168,250362
22.112,191629,168,250342
22.117,191616,168,250339
22.121,191599,168,250347
22.126,191619,168,250324
22.131,191604,168,250303
22.136,191600,168,250319
22.141,191581,168,250302
22.146,191579,168,250280
22.151,191590,168,250299
22.156,191584,168,250306
22.161,191592,168,250300
22.166,191588,168,250319
22.171,191580,168,250301
22.176,191583,168,250307
22.181,191597,168,250319
22.186,191587,168,250324
22.191,191624,168,250331
22.196,191617,168,250335
22.201,191653,168,250342
22.206,191646,168,250320
22.211,191665,168,250361
22.216,191667,168,250344
22.221,191685,168,250366
22.226,191691,168,250355
22.231,191675,168,250397
22.236,191698,168,250390
22.241,191700,168,250406
22.245,191706,168,250398
22.250,191721,168,250417
22.255,191709,168,250422
22.260,191716,168,250420
22.265,191722,168,250430
22.270,191732,168,250432
22.275,191751,168,250447
22.280,191766,168,250434
22.285,191764,168,250470
22.290,191745,168,250464
22.295,191744,168,250458
22.300,191767,168,250477
22.305,191763,168,250485
22.310,191776,168,250490
22.315,191771,168,250465
22.320,191786,168,250469
22.325,191783,168,250487
22.330,191782,168,250483
22.335,191795,168,250501
22.340,191816,168,250503
22.345,191802,168,250510
22.350,191823,168,250514
22.355,191838,168,250526
22.360,191852,168,250548
22.365,191850,168,250554
22.369,191870,168,250563
22.374,191869,168,250560
22.379,191879,168,250569
22.384,192236,168,250841
22.389,192237,168,250843
22.394,192275,168,250879
22.399,192310,168,250881
22.404,192288,168,250625
22.409,192295,168,250636
22.414,191969,168,250656
22.419,191976,168,250667
22.424,191989,168,250664
22.429,191994,168,250679
22.434,192007,168,250687
22.439,192021,168,250696
22.444,192031,168,250717
22.449,192036,168,250721
22.454,192050,168,250735
22.459,192057,168,250729
22.464,192095,168,250740
22.469,192096,168,250753
22.474,192104,168,250762
22.479,192118,168,250752
22.484,192139,168,250787
22.489,192132,168,250783
22.493,192159,168,250801
22.498,192162,168,250799
22.503,192161,168,250811
22.508,192182,168,250830
22.513,192213,168,250829
22.518,192221,168,250834
22.523,192236,168,250841
22.528,192237,168,250843
22.533,192275,168,250879
22.538,192310,168,250881
22.543,192288,168,250879
22.548,192295,168,250897
22.553,192317,168,250879
22.558,192294,168,250899
22.563,192305,168,250867
22.568,192268,168,250835
22.573,192205,168,250816
22.578,192175,168,250795
22.583,192158,168,250764
22.588,192112,168,250737
22.593,192078,168,250734
22.598,192058,168,250696
22.603,192009,168,250678
22.608,191985,168,250648
22.613,191953,168,250632
22.617,191906,168,250583
22.622,191871,168,250582
22.627,191855,168,250549
22.632,191831,168,250527
22.637,191804,168,250507
22.642,191788,168,250475
22.647,191757,168,250475
22.652,191726,168,250441
22.657,191721,168,250433
22.662,191702,168,250422
22.667,191706,168,250404
22.672,191709,168,250425
22.677,191712,168,250451
22.682,191717,168,250375
22.687,191739,168,250365
22.692,191647,168,250365
22.697,191638,168,250372
22.702,191645,168,250365
22.707,191634,168,250332
22.712,191626,168,250344
22.717,191638,168,250355
22.722,191621,168,250352
22.727,191618,168,250331
22.732,191627,168,250334
22.737,191608,168,250335
22.742,191615,168,250312
22.746,191624,168,250350
22.751,191614,168,250339
22.756,191616,168,250353
22.761,191640,168,250349
22.766,191646,168,250373
22.771,191655,168,250370
22.776,191634,168,250369
22.781,191661,168,250388
22.786,191673,168,250385
22.791,191695,168,250399
22.796,191695,168,250397
22.801,191702,168,250422
22.806,191706,168,250404
22.811,191709,168,250425
22.816,191712,168,250451
22.821,191717,168,250465
22.826,191739,168,250436
22.831,191733,168,250454
22.836,191743,168,250460
22.841,191755,168,250470
22.846,191755,168,250476
22.851,191752,168,250477
22.856,191766,168,250474
22.861,191766,168,250476
22.866,191793,168,250472
22.870,191756,168,250493
22.875,191759,168,250480
22.880,191766,168,250491
22.885,191769,168,250510
22.890,191765,168,250493
22.895,191792,168,250496
22.900,191802,168,250519
22.905,191796,168,250512
22.910,191807,168,250506
22.915,191796,168,250520
22.920,191819,168,250529
22.925,191826,168,250534
22.930,191833,168,250517
22.935,191842,168,250546
22.940,192096,168,250772
22.945,192138,168,250790
22.950,192143,168,250797
22.955,192155,168,250800
22.960,192166,168,250841
22.965,192170,168,250563
22.970,191878,168,250578
22.975,191890,168,250596
22.980,191884,168,250598
22.985,191915,168,250592
22.990,191929,168,250614
22.994,191937,168,250619
22.999,191932,168,250620
23.004,191951,168,250632
23.009,191965,168,250659
23.014,191968,168,250647
23.019,191962,168,250663
23.024,191996,168,250670
23.029,191999,168,250678
23.034,192009,168,250701
23.039,192021,168,250673
23.044,192036,168,250693
23.049,192036,168,250712
23.054,192037,168,250714
23.059,192070,168,250708
23.064,192050,168,250731
23.069,192084,168,250747
23.074,192089,168,250753
23.079,192096,168,250772
23.084,192138,168,250790
23.089,192143,168,250797
23.094,192155,168,250800
23.099,192166,168,250813
23.104,192170,168,250831
23.109,192204,168,250788
23.114,192208,168,250838
23.118,192207,168,250845
23.123,192228,168,250854
23.128,192207,168,250831
23.133,192170,168,250805
23.138,192160,168,250803
23.143,192127,168,250752
23.148,192094,168,250740
23.153,192081,168,250732
23.158,192008,168,250745
23.163,191997,168,250693
23.168,191953,168,250690
23.173,191929,168,250636
23.178,191889,168,250639
23.183,191872,168,250593
23.188,191844,168,250585
23.193,191800,168,250563
23.198,191785,168,250524
23.203,191772,168,250509
23.208,191766,168,250500
23.213,191735,168,250475
23.218,191719,168,250492
23.223,191701,168,250471
23.228,191699,168,250452
23.233,191681,168,250444
23.238,191663,168,250435
23.242,191661,168,250430
23.247,191650,168,250408
23.252,191645,168,250403
23.257,191635,168,250414
23.262,191617,168,250406
23.267,191601,168,250394
23.272,191618,168,250394
23.277,191591,168,250384
23.282,191588,168,250392
23.287,191588,168,250373
23.292,191608,168,250368
23.297,191607,168,250369
23.302,191599,168,250356
23.307,191597,168,250378
23.312,191600,168,250366
23.317,191586,168,250355
23.322,191617,168,250391
23.327,191606,168,250402
23.332,191625,168,250406
23.337,191623,168,250423
23.342,191644,168,250426
23.347,191670,168,250426
23.352,191654,168,250448
23.357,191688,168,250424
23.362,191669,168,250435
23.366,191665,168,250422
23.371,191675,168,250439
23.376,191684,168,250447
23.381,191699,168,250459
23.386,191719,168,250475
23.391,191709,168,250480
23.396,191714,168,250513
23.401,191703,169,250491
23.406,191729,168,250493
23.411,191726,168,250522
23.416,191722,168,250483
23.421,191733,168,250500
23.426,191741,168,250497
23.431,191743,168,250483
23.436,191740,168,250473
23.441,191744,168,250503
23.446,191754,168,250507
23.451,191736,168,250519
23.456,191753,168,250514
23.461,191751,168,250517
23.466,191760,168,250533
23.471,191772,168,250522
23.476,191779,168,250539
23.481,191767,168,250532
23.486,191797,168,250552
23.490,191794,168,250545
23.495,191801,168,250536
23.500,191822,168,250579
23.505,191824,168,250565
23.510,191817,168,250564
23.515,191830,168,250592
23.520,191840,168,250626
23.525,191844,168,250582
23.530,191856,168,250589
23.535,191851,168,250613
23.540,191872,168,250588
23.545,191869,168,250616
23.550,191908,168,250630
23.555,191919,168,250610
23.560,191919,168,250628
23.565,191918,168,250632
23.570,191930,168,250642
23.575,191938,168,250641
23.580,191935,168,250639
23.585,191954,168,250659
23.590,191954,168,250676
23.595,191995,168,250677
23.600,191998,168,250692
23.605,192018,168,250726
23.610,192009,168,250742
23.614,192019,168,250716
23.619,192040,168,250717
23.624,192068,168,250739
23.629,192057,168,250758
23.634,191675,168,250460
23.639,191662,168,250447
23.644,191643,168,250426
23.649,191628,168,250398
23.654,191607,168,250534
23.659,191585,168,250815
23.664,192184,168,250816
23.669,192176,168,250855
23.674,192183,168,250833
23.679,192210,168,250842
23.684,192192,168,250833
23.689,192203,168,250830
23.694,192166,170,250827
23.699,192153,168,250804
23.704,192112,168,250771
23.709,192075,168,250751
23.714,192033,168,250722
23.719,192010,168,250690
23.724,191993,168,250679
23.729,191939,168,250662
23.734,191910,168,250629
23.739,191872,168,250591
23.743,191836,168,250584
23.748,191814,168,250571
23.753,191782,168,250539
23.758,191763,168,250525
23.763,191737,168,250498
23.768,191711,168,250463
23.773,191675,168,250460
23.778,191662,168,250447
23.783,191643,168,250426
23.788,191628,168,250398
23.793,191607,168,250386
23.798,191585,168,250372
23.803,191587,168,250363
23.808,191566,168,250331
23.813,191559,168,250336
23.818,191548,168,250334
23.823,191531,168,250317
23.828,191522,168,250294
23.833,191522,168,250310
23.838,191504,168,250306
23.843,191503,168,250286
23.848,191511,168,250281
23.853,191485,168,250266
23.858,191470,168,250270
23.863,191478,168,250274
23.867,191467,168,250245
23.872,191482,168,250247
23.877,191495,168,250260
23.882,191477,168,250280
23.887,191495,168,250272
23.892,191472,168,250285
23.897,191504,168,250271
23.902,191501,168,250300
23.907,191518,168,250321
23.912,191678,168,250449
23.917,191689,168,250446
23.922,191685,168,250447
23.927,191702,168,250434
23.932,191704,168,250607
23.937,191728,168,250377
23.942,191584,168,250376
23.947,191585,168,250372
23.952,191588,168,250393
23.957,191591,168,250403
23.962,191609,168,250390
23.967,191606,168,250418
23.972,191617,168,250413
23.977,191622,168,250413
23.982,191641,168,250429
23.987,191633,168,250431
23.991,191628,168,250424
23.996,191638,168,250423
24.001,191628,168,250432
24.006,191644,168,250414
24.011,191640,168,250422
24.016,191651,168,250435
24.021,191660,168,250406
24.026,191648,168,250439
24.031,191651,168,250448
24.036,191652,168,250424
24.041,191651,168,250429
24.046,191663,168,250441
24.051,191678,168,250449
24.056,191689,168,250446
24.061,191685,168,250447
24.066,191702,168,250434
24.071,191704,168,250476
24.076,191728,168,250448
24.081,191718,168,250472
24.086,191741,168,250471
24.091,191734,168,250474
24.096,191742,168,250491
24.101,191745,168,250517
24.106,191773,168,250510
24.111,191792,168,250534
24.115,191796,168,250521
24.120,191799,168,250546
24.125,191806,168,250549
24.130,191811,168,250547
24.135,191845,168,250551
24.140,191848,168,250569
24.145,191852,168,250576
24.150,191851,168,250577
24.155,191854,168,250573
24.160,191885,168,250594
24.165,191907,168,250595
24.170,191893,168,250574
24.175,191905,168,250609
24.180,191923,168,250607
24.185,191932,168,250592
24.190,191932,168,250603
24.195,191956,168,250622
24.200,191964,168,250655
24.205,191976,168,250633
24.210,191982,168,250666
24.215,192000,168,250676
24.220,192027,168,250650
24.225,192020,168,250676
24.230,192046,168,250642
24.235,192053,168,250694
24.239,192086,168,250686
24.244,192091,168,250714
24.249,192115,168,250729
24.254,192129,168,250741
24.259,192126,168,250757
24.264,192121,168,250738
24.269,192148,168,250752
24.274,192138,168,250743
24.279,192123,168,250708
24.284,192053,168,250670
24.289,192028,168,250639
24.294,191986,168,250604
24.299,191954,168,250577
24.304,191904,168,250555
24.309,191868,168,250530
24.314,191831,168,250518
24.319,191810,168,250479
24.324,191769,168,250453
24.329,191759,168,250452
24.334,191717,168,250423
24.339,191687,168,250388
24.344,191654,168,250372
24.349,191619,168,250348
24.354,191586,168,250329
24.359,191580,168,250310
24.363,191554,168,250311
24.368,191526,168,250278
24.373,191520,168,250251
24.378,191512,168,250237
24.383,191485,168,250220
24.388,191489,168,250206
24.393,191466,168,250197
24.398,191446,168,250195
24.403,191462,168,250182
24.408,191440,168,250166
24.413,191438,168,250186
24.418,191425,168,250203
24.423,191403,168,250193
24.428,191408,168,250200
24.433,191422,168,250212
24.438,191422,168,250200
24.443,191412,168,250214
24.448,191426,168,250223
24.453,191429,168,250222
24.458,191423,168,250241
24.463,191446,168,250245
24.468,192178,168,251581
24.473,192189,168,251635
24.478,192217,168,251643
24.483,192221,168,251649
24.487,192229,168,251679
24.492,192220,168,250419
24.497,191554,168,250460
24.502,191569,168,250482
24.507,191589,168,250498
24.512,191627,168,250578
24.517,191664,168,250645
24.522,191717,168,250773
24.527,191768,168,250837
24.532,191789,168,250896
24.537,191836,168,250962
24.542,191871,168,251063
24.547,191912,168,251108
24.552,191946,168,251216
24.557,191998,168,251320
24.562,192029,168,251357
24.567,192079,168,251438
24.572,192110,168,251505
24.577,192131,168,251557
24.582,192141,168,251567
24.587,192149,168,251580
24.592,192147,168,251561
24.597,192142,168,251543
24.602,192144,168,251560
24.607,192178,168,251581
24.611,192189,168,251635
24.616,192217,168,251643
24.621,192221,168,251649
24.626,192229,168,251662
24.631,192220,168,251647
24.636,192243,168,251583
24.641,192276,168,251620
24.646,192274,168,251633
24.651,192301,168,251649
24.656,192316,168,251642
24.661,192325,168,251711
24.666,192360,168,251735
24.671,192383,168,251756
24.676,192396,168,251789
24.681,192402,168,251812
24.686,192408,168,251804
24.691,192404,168,251735
24.696,192396,168,251696
24.701,192417,168,251727
24.706,192442,168,251742
24.711,192441,168,251712
24.716,192432,168,251699
24.721,192448,168,251675
24.726,192454,168,251643
24.731,192457,168,251651
24.735,192462,168,251667
24.740,192482,168,251704
24.745,193713,168,252955
24.750,193705,168,252921
24.755,193669,168,252898
24.760,193649,169,252843
24.765,193628,168,252915
24.770,193604,168,251906
24.775,192732,168,251972
24.780,192798,168,252008
24.785,192846,168,252074
24.790,192884,168,252094
24.795,192942,168,252156
24.800,192991,168,252232
24.805,193052,168,252303
24.810,193114,168,252368
24.815,193142,168,252392
24.820,193172,168,252441
24.825,193205,169,252440
24.830,193271,168,252502
24.835,193308,168,252541
24.840,193361,168,252590
24.845,193407,168,252631
24.850,193452,169,252658
24.855,193492,168,252726
24.860,193578,168,252809
24.864,193614,168,252926
24.869,193673,168,252936
24.874,193712,168,252972
24.879,193734,168,253003
24.884,193713,168,252955
24.889,193705,168,252921
24.894,193669,168,252898
24.899,193649,169,252843
24.904,193628,168,252843
24.909,193604,168,252817
24.914,193619,168,252844
24.919,193602,169,252846
24.924,193599,168,252867
24.929,193619,168,252930
24.934,193636,168,252976
24.939,193646,169,252998
24.944,193668,168,253020
24.949,193647,168,253011
24.954,193650,168,253002
24.959,193631,168,252969
24.964,193632,168,252964
24.969,193617,168,252905
24.974,193604,169,252880
24.979,193623,169,252868
24.984,193629,168,252871
24.988,193602,168,252861
24.993,193649,168,252886
24.998,193657,170,252935
25.003,193707,169,252935
25.008,193700,168,252959
25.013,193737,168,252982
25.018,193760,170,252989
25.023,194377,170,253649
25.028,194389,169,253671
25.033,194431,168,253671
25.038,194419,168,253699
25.043,194458,168,253902
25.048,194488,168,253125
25.053,193910,168,253137
25.058,193943,169,253114
25.063,193946,168,253163
25.068,193968,170,253166
25.073,193966,168,253162
25.078,193997,168,253174
25.083,193999,168,253196
25.088,194030,170,253191
25.093,194047,168,253206
25.098,194072,168,253233
25.103,194085,168,253236
25.108,194158,168,253297
25.112,194161,169,253352
25.117,194175,169,253343
25.122,194219,168,253415
25.127,194247,168,253460
25.132,194275,169,253493
25.137,194286,169,253539
25.142,194311,168,253556
25.147,194334,168,253567
25.152,194375,168,253589
25.157,194378,168,253604
25.162,194377,170,253649
25.167,194389,169,253671
25.172,194431,168,253671
25.177,194419,168,253699
25.182,194458,168,253718
25.187,194488,169,253775
25.192,194504,168,253820
25.197,194525,168,253849
25.202,194554,168,253892
25.207,194578,168,253879
25.212,194597,168,253933
25.217,194627,170,253972
25.222,194644,170,253829
25.227,194672,168,253861
25.232,194675,168,253873
25.236,194683,170,253902
25.241,194746,170,253936
25.246,194744,168,253963
25.251,194757,168,253997
25.256,194761,169,254005
25.261,194777,169,253994
25.266,194778,168,253980
25.271,194780,169,253957
25.276,194801,169,253977
25.281,194796,170,253985
25.286,194788,168,253984
25.291,194780,168,253970
25.296,194770,170,253958
25.301,194776,170,253958
25.306,194795,170,253937
25.311,194816,168,253937
25.316,194802,168,253930
25.321,194805,168,253904
25.326,194787,169,253897
25.331,194786,168,253903
25.336,194788,168,253902
25.341,194790,169,253894
25.346,194789,168,253906
25.351,194796,168,253911
25.356,194810,169,253940
25.360,194824,170,253973
25.365,194830,168,253976
25.370,194815,168,253990
25.375,194830,168,254002
25.380,194829,172,254006
25.385,194836,169,254010
25.390,194826,168,254036
25.395,194839,168,254052
25.400,194872,170,254041
25.405,194856,168,254042
25.410,194859,168,254061
25.415,194870,168,254076
25.420,194868,172,254087
25.425,194883,169,254083
25.430,194906,168,254113
25.435,194904,168,254136
25.440,192739,171,250966
25.445,192688,169,250864
25.450,192641,168,250776
25.455,192596,168,250669
25.460,192537,171,250472
25.465,192507,170,253991
25.470,194600,168,253860
25.475,194494,168,253760
25.480,194421,170,253651
25.484,194327,168,253505
25.489,194224,169,253348
25.494,194111,169,253221
25.499,194035,168,253015
25.504,193874,168,252811
25.509,193751,168,252636
25.514,193642,168,252469
25.519,193536,172,252287
25.524,193447,169,252121
25.529,193333,168,252001
25.534,193275,168,251848
25.539,193184,171,251711
25.544,193116,169,251618
25.549,193072,169,251499
25.554,192982,168,251429
25.559,192936,169,251345
25.564,192890,168,251246
25.569,192830,168,251134
25.574,192778,169,251036
25.579,192739,171,250966
25.584,192688,169,250864
25.589,192641,168,250776
25.594,192596,168,250669
25.599,192537,171,250613
25.604,192507,169,250489
25.608,192468,168,250408
25.613,192445,168,250336
25.618,192392,171,250278
25.623,192370,169,250202
25.628,192372,168,250190
25.633,192375,168,250204
25.638,192385,171,250222
25.643,192424,170,250219
25.648,192436,170,250284
25.653,192479,169,250360
25.658,192547,170,250435
25.663,192571,168,250497
25.668,192607,170,250554
25.673,192624,168,250594
25.678,192664,170,250647
25.683,192656,168,250664
25.688,192639,170,250636
25.693,192617,168,250598
25.698,192604,171,250577
25.703,192584,169,250515
25.708,192564,168,250508
25.713,192545,168,250444
25.718,191495,171,248549
25.723,191462,171,248454
25.728,191416,168,248370
25.732,191382,168,248265
25.737,191333,171,248268
25.742,191269,170,250245
25.747,192379,169,250186
25.752,192360,168,250100
25.757,192321,168,250091
25.762,192265,170,250015
25.767,192215,169,249916
25.772,192171,168,249835
25.777,192129,169,249740
25.782,192068,168,249640
25.787,192013,170,249567
25.792,191959,168,249447
25.797,191917,171,249373
25.802,191872,170,249298
25.807,191834,169,249241
25.812,191807,168,249153
25.817,191784,168,249106
25.822,191754,168,249052
25.827,191734,170,249004
25.832,191681,169,248941
25.837,191654,169,248873
25.842,191597,170,248766
25.847,191578,168,248700
25.852,191540,168,248626
25.856,191495,171,248549
25.861,191462,171,248454
25.866,191416,168,248370
25.871,191382,168,248265
25.876,191333,171,248179
25.881,191269,170,248066
25.886,191250,168,247953
25.891,191169,169,247853
25.896,191121,169,247741
25.901,191081,169,247652
25.906,191033,171,247544
25.911,190985,168,247440
25.916,190949,169,247380
25.921,190918,169,247298
25.926,190899,168,247249
25.931,190886,168,247200
25.936,190893,169,247216
25.941,190828,171,247153
25.946,190818,169,247121
25.951,190827,168,247057
25.956,190805,168,247037
25.961,190789,172,247004
25.966,190793,169,246977
25.971,190754,168,246925
25.976,190742,168,246878
25.981,190677,169,246831
25.985,190605,168,246773
25.990,190553,168,246727
25.995,190496,170,246652
26.000,190442,170,246610
26.005,190415,168,246559
26.010,190353,170,246482
26.015,190295,169,246428
26.020,190257,170,246390
26.025,190207,168,246300
26.030,190137,168,246238
26.035,190075,168,246147
26.040,190011,170,246070
26.045,189972,168,245960
26.050,189899,169,245877
26.055,189845,169,245772
26.060,189784,170,245711
26.065,189759,168,245689
26.070,189706,169,245622
26.075,189688,169,245584
26.080,189664,170,245557
26.085,189639,168,245558
26.090,189628,168,245544
26.095,189618,169,245559
26.100,189613,171,245558
26.105,189608,168,245567
26.109,189606,168,245565
26.114,189586,170,245540
26.119,189557,171,245514
26.124,189535,168,245515
26.129,189543,168,245468
26.134,189514,168,245434
26.139,189484,169,245372
26.144,189461,170,245362
26.149,189467,168,245331
26.154,189440,168,245333
26.159,189445,169,245335
26.164,189432,169,245330
26.169,189444,168,245334
26.174,189427,168,245332
26.179,189428,170,245307
26.184,189429,168,245327
26.189,189417,168,245342
26.194,189435,169,245350
26.199,189447,170,245349
26.204,189445,168,245337
26.209,189436,168,245348
26.214,189443,168,245374
26.219,189466,169,245407
26.224,189472,168,245454
26.229,189481,168,245492
26.233,189525,168,245537
26.238,189518,171,245560
26.243,189528,169,245579
26.248,189543,168,245615
26.253,189539,168,245607
26.258,189554,172,245605
26.263,189541,170,245602
26.268,189548,169,245589
26.273,189535,168,245562
26.278,189536,171,245537
26.283,189538,169,245539
26.288,189544,168,245524
26.293,189564,168,245562
26.298,189575,169,245575
26.303,189589,168,245618
26.308,189632,169,245675
26.313,189662,168,245714
26.318,189689,169,245762
26.323,189715,168,245807
26.328,189764,169,245849
26.333,189790,168,245919
26.338,189815,169,245982
26.343,189848,168,246038
26.348,189876,169,246102
26.353,189916,168,246154
26.357,189947,169,246225
26.362,189984,168,246270
26.367,190033,168,246345
26.372,190057,168,246422
26.377,190102,168,246474
26.382,190147,170,246524
26.387,190176,169,246580
26.392,190240,168,246675
26.397,190287,171,246747
26.402,190331,169,246832
26.407,190382,168,246905
26.412,190438,168,246955
26.417,190478,170,247005
26.422,190506,169,247026
26.427,190517,168,247040
26.432,190534,168,247032
26.437,190538,171,246976
26.442,190503,169,246902
26.447,190506,168,246862
26.452,190488,169,246788
26.457,190486,170,246754
26.462,190472,168,246752
26.467,190489,168,246745
26.472,190494,169,246730
26.477,190514,170,246761
26.481,190509,169,246796
26.486,190541,168,246814
26.491,190547,169,246826
26.496,190566,169,246833
26.501,190589,169,246841
26.506,190582,168,246836
26.511,190586,169,246827
26.516,190555,169,246798
26.521,190532,170,246717
26.526,190486,168,246692
26.531,190444,168,246621
26.536,190391,170,246579
26.541,190352,170,246490
26.546,190293,168,246408
26.551,189581,169,245484
26.556,189565,169,245508
26.561,189568,170,245524
26.566,189581,1283,244936
26.571,189585,169,245546
26.576,189615,168,245974
26.581,189937,168,245921
26.586,189887,170,246133
26.591,189853,168,245817
26.596,189803,168,245786
26.601,189787,168,245745
26.605,190049,170,245688
26.610,189725,168,245668
26.615,189687,168,245661
26.620,189687,928,245626
26.625,189672,168,245636
26.630,189656,170,245588
26.635,189647,169,245588
26.640,189630,170,245567
26.645,189627,168,245543
26.650,189595,169,245489
26.655,189605,1031,245463
26.660,189563,170,245443
26.665,189549,168,245439
26.670,189556,170,245433
26.675,189560,169,245441
26.680,189544,170,245477
26.685,189563,168,245462
26.690,189581,169,245484
26.695,189565,169,245508
26.700,189568,170,245524
26.705,189581,1283,244936
26.710,189585,169,245550
26.715,189615,168,245584
26.720,189631,1227,245600
26.725,189641,168,245611
26.729,189662,169,245620
26.734,189703,169,245673
26.739,189726,169,245706
26.744,189738,170,245727
26.749,189764,168,245740
26.754,189769,2304,245758
26.759,189798,169,245788
26.764,189818,168,245804
26.769,190209,1135,245839
26.774,189846,169,245870
26.779,189837,170,245896
26.784,189861,171,245897
26.789,189873,169,245927
26.794,189885,168,245920
26.799,189891,173,245922
26.804,189886,169,245940
26.809,189903,168,245937
26.814,189903,169,245913
26.819,189898,170,245886
26.824,189888,168,245858
26.829,189886,169,245380
26.834,189878,168,245341
26.839,189896,170,245326
26.844,189886,168,245322
26.849,189877,168,245264
26.853,189873,168,245781
26.858,189930,169,245744
26.863,189935,169,245743
26.868,189915,168,245690
26.873,189923,169,245675
26.878,189935,171,245653
26.883,189931,169,245595
26.888,189932,168,245582
26.893,189920,168,245544
26.898,189893,171,245520
26.903,189889,169,245484
26.908,189892,168,245472
26.913,189900,168,245472
26.918,189896,169,245474
26.923,189905,170,245461
26.928,189886,169,245439
26.933,189906,168,245430
26.938,189920,1816,246246
26.943,189907,170,245439
26.948,189887,169,245419
26.953,189930,1217,245425
26.958,189903,170,245402
26.963,189913,170,245389
26.968,189886,169,245380
26.973,189878,168,245341
26.977,189896,170,245326
26.982,189886,168,245322
26.987,189877,168,245299
26.992,189873,168,245298
26.997,189880,169,245269
27.002,189879,168,245259
27.007,189866,168,245240
27.012,189886,169,245239
27.017,189873,171,245235
27.022,189897,169,245213
27.027,189894,168,245229
27.032,189910,168,245229
27.037,189913,169,245232
27.042,189936,168,245259
27.047,189926,168,245246
27.052,189921,168,245253
27.057,189928,169,245233
27.062,189879,168,245144
27.067,189842,168,245138
27.072,189794,169,245085
27.077,189752,171,245064
27.082,189706,170,244972
27.087,189646,169,244915
27.092,189559,168,244814
27.097,189502,169,244718
27.102,189447,169,244616
27.106,189371,169,244548
27.111,189314,168,244414
27.116,189260,169,244348
27.121,189194,169,244227
27.126,189138,169,244111
27.131,189091,168,244020
27.136,189030,168,243927
27.141,188954,169,243825
27.146,188918,168,243734
27.151,188868,168,243645
27.156,188818,170,243576
27.161,188762,171,243501
27.166,188737,170,243417
27.171,188683,169,243309
27.176,188633,169,243202
27.181,188543,169,243083
27.186,188482,169,242916
27.191,188405,168,242765
27.196,188336,169,242632
27.201,188256,168,242468
27.206,188170,170,242307
27.211,188090,169,242123
27.216,188006,170,241990
27.221,187937,169,241825
27.226,187873,168,241699
27.230,187791,168,241563
27.235,187740,171,241420
27.240,187662,171,241289
27.245,187599,170,241161
27.250,187554,168,241027
27.255,187500,171,240895
27.260,187439,171,240781
27.265,187406,169,240689
27.270,187334,168,240567
27.275,187289,168,240441
27.280,187255,169,240364
27.285,187213,168,240267
27.290,187164,168,240175
27.295,187103,171,240057
27.300,187069,174,239977
27.305,187013,168,239838
27.310,186956,168,239749
27.315,186912,168,239651
27.320,186860,174,239546
27.325,186789,171,239442
27.330,186738,169,239338
27.335,186677,169,239242
27.340,186620,170,239129
27.345,186576,169,239020
27.350,186528,169,238914
27.354,186479,168,238830
27.359,186442,169,238731
27.364,186386,168,238634
27.369,186357,170,238586
27.374,186313,171,238495
27.379,186280,173,238417
27.384,186229,170,238339
27.389,186196,169,238271
27.394,186165,169,238199
27.399,186146,174,238135
27.404,186104,171,238086
27.409,186084,170,238005
27.414,186040,170,237936
27.419,186011,172,237872
27.424,185971,170,237796
27.429,185940,169,237725
27.434,185910,169,237696
27.439,185896,171,237636
27.444,185864,169,237579
27.449,185834,170,237525
27.454,185790,170,237657
27.459,185782,172,237600
27.464,185754,170,237556
27.469,185721,168,237520
27.474,185714,168,237461
27.478,185693,170,237430
27.483,185667,169,237378
27.488,185672,168,237338
27.493,185647,168,237307
27.498,185593,171,237257
27.503,185599,169,237242
27.508,185578,168,237211
27.513,185587,168,237186
27.518,185569,174,237160
27.523,185256,170,236882
27.528,185216,170,236843
27.533,185174,168,236834
27.538,185151,171,236801
27.543,185138,170,236602
27.548,185107,170,237105
27.553,185581,169,237113
27.558,185591,172,237112
27.563,185594,170,237113
27.568,185603,169,237124
27.573,185609,169,237140
27.578,185637,171,237141
27.583,185647,169,237136
27.588,185671,169,237122
27.593,185652,169,237153
27.598,185670,171,237175
27.602,185685,170,237163
27.607,185668,169,237179
27.612,185659,168,237170
27.617,185630,171,237175
27.622,185601,170,237148
27.627,185551,169,237105
27.632,185530,168,237092
27.637,185484,170,237057
27.642,185440,170,237023
27.647,185376,170,236986
27.652,185348,168,236966
27.657,185310,171,236909
27.662,185256,170,236882
27.667,185216,170,236843
27.672,185174,168,236834
27.677,185151,171,236801
27.682,185138,170,236787
27.687,185107,169,236773
27.692,185085,168,236766
27.697,185092,169,236748
27.702,185057,168,236754
27.707,185032,168,236734
27.712,185007,168,236737
27.717,184991,169,236706
27.722,184975,168,236672
27.726,184970,170,236639
27.731,184926,169,236580
27.736,184918,172,236575
27.741,184889,168,236556
27.746,184881,168,236507
27.751,184860,168,236461
27.756,184844,173,236467
27.761,184832,171,236440
27.766,184823,170,236422
27.771,184806,169,236391
27.776,184798,171,236366
27.781,184777,169,236327
27.786,184750,168,236311
27.791,184738,168,236261
27.796,184729,169,236225
27.801,184175,169,234836
27.806,184159,168,234806
27.811,184146,169,234758
27.816,184122,170,234728
27.821,184137,169,234513
27.826,184108,171,235994
27.831,184624,168,235969
27.836,184630,168,235911
27.841,184630,170,235880
27.846,184595,169,235811
27.850,184573,168,235778
27.855,184546,171,235726
27.860,184521,171,235668
27.865,184512,170,235603
27.870,184483,168,235544
27.875,184446,168,235483
27.880,184422,168,235423
27.885,184407,168,235351
27.890,184366,168,235294
27.895,184360,171,235236
27.900,184319,170,235170
27.905,184300,169,235126
27.910,184278,168,235080
27.915,184264,168,235035
27.920,184234,171,234965
27.925,184225,169,234954
27.930,184213,168,234921
27.935,184200,170,234862
27.940,184175,169,234836
27.945,184159,168,234806
27.950,184146,169,234758
27.955,184122,170,234728
27.960,184137,169,234684
27.965,184108,171,234660
27.970,184066,168,234608
27.974,184087,169,234571
27.979,184062,172,234518
27.984,184037,169,234485
27.989,184041,168,234478
27.994,184011,168,234426
27.999,183994,172,234377
28.004,183976,169,234368
28.009,183956,168,234303
28.014,183950,168,234271
28.019,183929,172,234227
28.024,183909,169,234165
28.029,183873,168,234105
28.034,183872,168,234057
28.039,183854,169,234001
28.044,183837,170,233927
28.049,183821,169,233890
28.054,183795,168,233853
28.059,183765,173,233791
28.064,183765,170,233733
28.069,183758,168,233704
28.074,183731,168,233660
28.079,183708,169,233582
28.084,183705,168,233554
28.089,183683,169,233534
28.094,183674,169,233482
28.098,183644,170,233467
28.103,183666,171,233428
28.108,183635,169,233371
28.113,183618,169,233349
28.118,183609,169,233319
28.123,183591,171,233297
28.128,183581,170,233261
28.133,183560,168,233213
28.138,183564,173,233181
28.143,183542,170,233114
28.148,183538,168,233086
28.153,183517,168,233016
28.158,183489,170,232975
28.163,183470,171,232965
28.168,183461,169,232901
28.173,183459,168,232880
28.178,183420,172,232830
28.183,183356,169,232766
28.188,183319,168,232704
28.193,183261,170,232633
28.198,183205,171,232558
28.203,183139,168,232491
28.208,183064,168,232419
28.213,183020,170,232349
28.218,182948,171,232287
28.223,182881,168,232214
28.227,182835,168,232130
28.232,182771,168,232085
28.237,182742,173,232052
28.242,182719,170,232002
28.247,182654,168,231954
28.252,182627,168,231925
28.257,182601,173,231873
28.262,182569,170,231856
28.267,182562,168,231853
28.272,182531,168,231824
28.277,182521,169,231799
28.282,182488,171,231792
28.287,182478,169,231783
28.292,182459,168,231764
28.297,182444,169,231760
28.302,182448,170,231734
28.307,182436,169,231723
28.312,182424,168,231733
28.317,182444,168,231721
28.322,182424,170,231748
28.327,182417,169,231741
28.332,182418,168,231746
28.337,182426,169,231740
28.342,182436,170,231757
28.347,182436,169,231779
28.351,182440,168,231819
28.356,184894,172,236150
28.361,184971,170,236328
28.366,185062,169,236438
28.371,185122,168,236536
28.376,185169,170,236610
28.381,185233,169,232058
28.386,182639,168,232147
28.391,182699,168,232227
28.396,182784,171,232378
28.401,182876,170,232520
28.406,182954,168,232688
28.411,183052,168,232901
28.416,183184,172,233092
28.421,183255,172,233298
28.426,183374,170,233510
28.431,183484,168,233710
28.436,183612,169,233905
28.441,183714,168,234084
28.446,183819,170,234267
28.451,183913,168,234436
28.456,184020,169,234624
28.461,184125,171,234829
28.466,184246,170,235016
28.471,184368,168,235224
28.475,184468,169,235439
28.480,184591,171,235641
28.485,184710,170,235845
28.490,184794,168,235991
28.495,184894,172,236150
28.500,184971,170,236328
28.505,185062,169,236438
28.510,185122,168,236536
28.515,185169,170,236614
28.520,185233,171,236666
28.525,185259,169,236724
28.530,185278,168,236756
28.535,185323,171,236779
28.540,185344,169,236793
28.545,185362,168,236863
28.550,185417,169,236934
28.555,185470,169,237001
28.560,185503,168,237074
28.565,185541,170,237113
28.570,185569,168,237171
28.575,185638,170,237217
28.580,185673,169,237308
28.585,185716,171,237345
28.590,185764,168,237414
28.595,185792,169,237475
28.599,185828,172,237509
28.604,185865,170,237586
28.609,185907,168,237674
28.614,185970,168,237723
28.619,186005,169,237771
28.624,186031,170,237815
28.629,186065,168,237859
28.634,186114,169,237934
28.639,186135,168,237985
28.644,186192,170,238047
28.649,186221,168,238097
28.654,186264,168,238166
28.659,186323,169,238221
28.664,186341,168,238303
28.669,186397,168,238373
28.674,186450,168,238396
28.679,186477,169,238581
28.684,186524,170,238646
28.689,186558,169,238693
28.694,186585,168,238769
28.699,186656,169,238817
28.704,186677,171,238897
28.709,186704,169,238954
28.714,186740,171,238982
28.719,186762,172,239034
28.723,186776,168,239096
28.728,186782,168,239116
28.733,186769,170,239153
28.738,186756,172,239195
28.743,186748,169,239250
28.748,186749,168,239245
28.753,186741,168,239267
28.758,186711,172,239287
28.763,186718,168,239305
28.768,186715,169,239320
28.773,186716,169,239346
28.778,186700,170,239343
28.783,186697,168,239376
28.788,186684,168,239329
28.793,186666,170,239356
28.798,186691,171,239362
28.803,186692,168,239395
28.808,186702,168,239436
28.813,186710,168,239430
28.818,186714,170,239450
28.823,186707,168,239446
28.828,186694,170,239461
28.833,186722,169,239473
28.838,186727,171,239480
28.843,186724,168,239490
28.847,186716,168,239511
28.852,186741,170,239520
28.857,186749,172,239540
28.862,186741,170,239533
28.867,186754,169,239528
28.872,186737,168,239543
28.877,186762,169,239532
28.882,186748,171,239551
28.887,186770,169,239538
28.892,186759,168,239546
28.897,186751,169,239527
28.902,186779,168,239533
28.907,186774,170,239543
28.912,187036,169,239759
28.917,187073,170,239789
28.922,187057,169,239799
28.927,187073,168,239808
28.932,187082,169,239794
28.937,187105,169,239556
28.942,186855,171,239572
28.947,186864,169,239593
28.952,186871,168,239590
28.957,186905,170,239618
28.962,186904,169,239631
28.967,186908,168,239640
28.971,186927,168,239651
28.976,186927,168,239644
28.981,186914,170,239650
28.986,186920,169,239668
28.991,186940,168,239668
28.996,186951,170,239660
29.001,186943,168,239664
29.006,186946,168,239683
29.011,186948,168,239691
29.016,186958,169,239707
29.021,186978,168,239719
29.026,186996,170,239710
29.031,187014,169,239696
29.036,187009,170,239753
29.041,187027,168,239758
29.046,187041,168,239759
29.051,187036,169,239759
29.056,187073,170,239789
29.061,187057,169,239799
29.066,187073,168,239808
29.071,187082,169,239836
29.076,187105,171,239834
29.081,187120,169,239841
29.086,187126,168,239859
29.091,187153,168,239906
29.095,187172,171,239916
29.100,187191,169,239914
29.105,187209,170,239949
29.110,187209,168,239991
29.115,187253,170,240022
29.120,187257,168,240039
29.125,187284,168,240067
29.130,187308,168,240101
29.135,187328,170,240117
29.140,187351,168,240153
29.145,187351,168,240154
29.150,187370,169,240186
29.155,187369,172,240150
29.160,187389,170,240176
29.165,187400,169,240177
29.170,187401,168,240173
29.175,187410,171,240162
29.180,187424,170,240153
29.185,187432,169,240137
29.190,187421,168,240128
29.195,187441,168,240115
29.200,187412,171,240091
29.205,187443,168,240122
