df_hash,22ZHK4.3RS3P8
device,HZ2X61
project_hash,29R7
project_name,istanbul_aydin_university
person_hash,29R7.CV3S
person_label,v119
date_time_start,2026-03-10_17-43-05.648000_+03
date_time_start_unix,1773150185.648
date_time_end,2026-03-10_17-53-26.485000_+03
length_difference_noticed,no

time,ppg_ir,ppg_ambient,ppg_red
5.484,137987,173,200755
5.489,137983,172,200737
5.494,137972,177,200719
5.499,137957,177,200684
5.504,137931,175,200628
5.509,137922,176,200597
5.514,137913,171,200568
5.519,137910,178,200557
5.524,137888,175,200531
5.529,137887,174,200513
5.534,137871,172,200507
5.539,137893,179,200515
5.544,137876,177,200529
5.549,137889,175,200541
5.554,137888,173,200515
5.559,137891,176,200521
5.564,137906,174,200506
5.569,137888,173,200497
5.574,137886,178,200488
5.579,137889,178,200473
5.584,137882,176,200461
5.589,137898,176,200464
5.594,137890,174,200449
5.599,137889,174,200444
5.604,137876,173,200430
5.609,137875,176,200416
5.614,137863,174,200403
5.619,137860,174,200389
5.624,137867,173,200392
5.629,137860,179,200392
5.634,137864,178,200371
5.639,137856,176,200348
5.644,137844,176,200327
5.649,137855,174,200319
5.654,137847,176,200322
5.659,137847,175,200323
5.664,137851,175,200305
5.669,137840,173,200271
5.674,137857,179,200259
5.679,137844,177,200254
5.684,137849,177,200250
5.689,137836,174,200238
5.694,137859,173,200217
5.699,137854,172,200207
5.704,137856,180,200215
5.709,137863,177,200199
5.714,137870,176,200202
5.719,137873,174,200204
5.724,137867,174,200178
5.729,137885,179,200165
5.734,137874,177,200162
5.739,137857,176,200138
5.744,137874,176,200123
5.749,137875,174,200121
5.754,137881,175,200119
5.759,137874,175,200085
5.764,137878,176,200101
5.769,137878,174,200090
5.774,137882,173,200068
5.779,137878,179,200084
5.784,137903,179,200066
5.789,137879,176,200057
5.794,137891,175,200059
5.799,137880,173,200053
5.804,137882,176,200055
5.809,137894,174,200032
5.814,137892,173,200013
5.819,137904,171,200018
5.824,137911,180,200032
5.829,137908,177,200036
5.834,137919,175,200017
5.839,137918,173,200000
5.844,137927,174,199999
5.849,137930,179,199999
5.854,137927,173,200012
5.859,137941,172,199990
5.864,137938,179,200001
5.869,137939,177,200005
5.874,137959,176,200022
5.879,137976,175,200010
5.884,137976,176,200036
5.889,137995,173,200037
5.894,137986,173,200037
5.899,138006,178,200026
5.904,138020,174,200057
5.909,138010,172,200043
5.914,138017,178,200057
5.919,138028,176,200031
5.924,138034,176,200027
5.929,138037,174,200049
5.934,138051,173,200046
5.939,138063,172,200070
5.944,138061,180,200073
5.949,138087,178,200066
5.954,138088,175,200075
5.959,138091,173,200088
5.964,138109,173,200093
5.969,138105,179,200087
5.974,138110,178,200097
5.979,138104,177,200103
5.984,138144,177,200120
5.989,138140,175,200124
5.994,138161,174,200121
5.999,138161,173,200128
6.004,138152,173,200137
6.009,138168,178,200131
6.014,138200,178,200151
6.019,138193,175,200176
6.024,138200,176,200180
6.029,138221,174,200187
6.034,138226,174,200192
6.039,138233,172,200216
6.044,138250,179,200218
6.049,138244,179,200234
6.054,138260,179,200235
6.059,138279,177,200233
6.064,138294,177,200265
6.069,138294,175,200261
6.074,138312,175,200288
6.079,138327,173,200295
6.084,138334,174,200310
6.089,138347,173,200323
6.094,138356,173,200343
6.099,138371,173,200362
6.104,138377,174,200368
6.109,138389,173,200395
6.114,138392,172,200396
6.119,138391,178,200414
6.124,138389,177,200404
6.129,138383,176,200394
6.134,138370,175,200397
6.139,138340,173,200373
6.144,138346,174,200369
6.149,138303,175,200345
6.154,138322,175,200334
6.159,138275,172,200322
6.164,138266,173,200330
6.169,138252,178,200293
6.174,138235,177,200283
6.179,138211,175,200265
6.184,138198,175,200239
6.189,138189,174,200226
6.194,138164,174,200196
6.199,138153,174,200191
6.204,138148,174,200203
6.209,138129,174,200192
6.214,138114,172,200185
6.219,138110,178,200180
6.224,138112,178,200185
6.229,138105,178,200168
6.234,138099,177,200179
6.239,138097,175,200150
6.244,138071,174,200154
6.249,138064,177,200133
6.254,138059,176,200131
6.259,138062,175,200129
6.264,138053,174,200111
6.269,138033,175,200105
6.274,138034,173,200074
6.279,138007,173,200078
6.284,138001,179,200068
6.289,137998,179,200056
6.294,137990,182,200031
6.299,137990,172,200037
6.304,137966,177,200042
6.309,137969,177,200013
6.314,137967,175,200014
6.319,137940,174,199990
6.324,137941,173,199993
6.329,137935,180,199987
6.334,137917,177,199965
6.339,137900,175,199952
6.344,137924,177,199965
6.349,137913,178,199948
6.354,137898,175,199934
6.359,137894,174,199947
6.364,137898,172,199926
6.369,137889,180,199909
6.374,137877,177,199912
6.379,137850,176,199908
6.384,137868,173,199913
6.389,137863,174,199916
6.394,137881,174,199908
6.399,137870,173,199914
6.404,137889,172,199923
6.409,137878,179,199917
6.414,137887,177,199903
6.419,137883,175,199897
6.424,137888,173,199898
6.429,137894,174,199910
6.434,137885,179,199903
6.439,137881,178,199906
6.444,137880,172,199924
6.449,137894,180,199929
6.454,137882,177,199910
6.459,137885,176,199925
6.464,137893,174,199933
6.469,137882,174,199927
6.474,137895,173,199917
6.479,137882,179,199929
6.484,137872,176,199931
6.489,137869,177,199915
6.494,137881,177,199914
6.499,137886,175,199918
6.504,137878,173,199917
6.509,137885,174,199924
6.514,137882,172,199922
6.519,137889,179,199935
6.524,137882,176,199927
6.529,137888,177,199931
6.534,137878,175,199928
6.539,137900,174,199946
6.544,137896,175,199953
6.549,137904,176,199944
6.554,137890,173,199925
6.559,137905,172,199933
6.564,137899,177,199931
6.569,137916,177,199939
6.574,137911,174,199936
6.579,137926,174,199934
6.584,137912,171,199941
6.589,137928,171,199929
6.594,137931,173,199941
6.599,137924,180,199932
6.604,137952,177,199944
6.609,137925,178,199932
6.614,137944,177,199933
6.619,137934,176,199942
6.624,137949,175,199950
6.629,137955,176,199950
6.634,137958,174,199952
6.639,137976,177,199940
6.644,137953,172,199942
6.649,137967,180,199960
6.654,137979,177,199957
6.659,137972,176,199957
6.664,137981,174,199977
6.669,137992,174,199987
6.674,137998,179,200009
6.679,137996,176,199987
6.684,138003,173,199981
6.689,138023,177,199992
6.694,138027,175,199999
6.699,138024,174,200016
6.704,138028,171,200004
6.709,138031,178,200029
6.714,138042,176,200010
6.719,138038,175,200033
6.724,138060,173,200047
6.729,138064,173,200059
6.734,138070,178,200048
6.739,138087,173,200078
6.744,138101,177,200084
6.749,138093,178,200087
6.754,138097,176,200094
6.759,138093,175,200105
6.764,138114,173,200113
6.769,138120,172,200081
6.774,138126,178,200105
6.779,138109,177,200078
6.784,138127,175,200094
6.789,138131,178,200083
6.794,138135,176,200106
6.799,138140,175,200092
6.804,138135,173,200076
6.809,138136,173,200087
6.814,138131,179,200073
6.819,138140,178,200076
6.824,138153,176,200055
6.829,138160,175,200057
6.834,138143,176,200092
6.839,138151,176,200056
6.844,138147,174,200057
6.849,138159,173,200055
6.854,138174,172,200062
6.859,138187,179,200079
6.864,138176,176,200098
6.869,138184,175,200063
6.874,138208,175,200104
6.879,138197,174,200090
6.884,138218,175,200107
6.889,138208,174,200105
6.894,138232,174,200121
6.899,138227,173,200137
6.904,138251,178,200141
6.909,138264,176,200153
6.914,138256,176,200165
6.919,138263,174,200165
6.924,138278,173,200186
6.929,138299,179,200178
6.934,138300,175,200183
6.939,138291,173,200190
6.944,138307,179,200200
6.949,138308,178,200201
6.954,138316,178,200216
6.959,138316,176,200223
6.964,138318,175,200209
6.969,138313,175,200183
6.974,138303,175,200165
6.979,138281,173,200148
6.984,138264,175,200111
6.989,138250,173,200109
6.994,138222,174,200093
6.999,138211,179,200082
7.004,138182,177,200058
7.009,138154,176,200036
7.014,138191,179,200015
7.019,138118,174,199994
7.024,138104,174,199984
7.029,138092,171,199966
7.034,138077,176,199946
7.039,138064,175,199939
7.044,138039,173,199918
7.049,138020,172,199910
7.054,138013,181,199907
7.059,137996,178,199888
7.064,137986,177,199870
7.069,137977,175,199870
7.074,137976,176,199878
7.079,137963,174,199841
7.084,137962,173,199828
7.089,137946,178,199813
7.094,137945,179,199807
7.099,137922,177,199790
7.104,137917,176,199788
7.109,137894,174,199766
7.114,137884,175,199764
7.119,137868,173,199734
7.124,137855,172,199725
7.129,137861,173,199712
7.134,137826,177,199706
7.139,137831,175,199684
7.144,137814,174,199685
7.149,137814,172,199669
7.154,137803,173,199645
7.159,137791,178,199637
7.164,137769,176,199618
7.169,137778,174,199618
7.174,137758,175,199595
7.179,137754,176,199592
7.184,137738,175,199563
7.189,137714,172,199569
7.194,137722,174,199548
7.199,137714,179,199546
7.204,137693,177,199532
7.209,137695,174,199528
7.214,137702,175,199516
7.219,137678,173,199518
7.224,137670,173,199493
7.229,137676,175,199491
7.234,137672,177,199480
7.239,137676,175,199495
7.244,137675,174,199484
7.249,137662,172,199485
7.254,137684,180,199467
7.259,137656,178,199460
7.264,137659,177,199448
7.269,137666,175,199437
7.274,137675,175,199459
7.279,137669,177,199417
7.284,137678,175,199434
7.289,137656,173,199437
7.294,137656,174,199421
7.299,137661,178,199438
7.304,137658,177,199409
7.309,137654,174,199418
7.314,137650,173,199416
7.319,137652,179,199413
7.324,137639,177,199403
7.329,137641,178,199396
7.334,137657,178,199388
7.339,137651,176,199361
7.344,137634,174,199369
7.349,137637,172,199363
7.354,137641,173,199352
7.359,137623,179,199361
7.364,137621,178,199346
7.369,137623,176,199326
7.374,137629,177,199311
7.379,137625,178,199318
7.384,137611,177,199322
7.389,137628,175,199306
7.394,137626,175,199311
7.399,137629,174,199297
7.404,137636,173,199289
7.409,137632,178,199273
7.414,137618,178,199285
7.419,137620,177,199289
7.424,137642,177,199260
7.429,137627,177,199276
7.434,137638,177,199267
7.439,137643,176,199258
7.444,137642,175,199269
7.449,137641,173,199275
7.454,137647,173,199253
7.459,137655,180,199265
7.464,137653,179,199263
7.469,137672,178,199269
7.474,137673,171,199250
7.479,137674,176,199263
7.484,137673,175,199264
7.489,137680,174,199273
7.494,137671,173,199271
7.499,137683,173,199267
7.504,137668,179,199251
7.509,137682,178,199234
7.514,137688,177,199251
7.519,137694,177,199241
7.524,137693,173,199247
7.529,137698,172,199245
7.534,137701,178,199251
7.539,137700,179,199253
7.544,137704,177,199241
7.549,137708,176,199243
7.554,137706,174,199244
7.559,137719,175,199245
7.564,137714,172,199223
7.569,137722,182,199239
7.574,137724,173,199240
7.579,137728,174,199238
7.584,137743,172,199247
7.589,137753,178,199239
7.594,137748,178,199246
7.599,137757,179,199272
7.604,137769,176,199269
7.609,137782,176,199276
7.614,137774,175,199287
7.619,137787,176,199288
7.624,137802,177,199296
7.629,137814,177,199317
7.634,137814,175,199315
7.639,137825,176,199322
7.644,137817,174,199317
7.649,137837,174,199310
7.654,137843,172,199339
7.659,137854,173,199343
7.664,137853,178,199369
7.669,137883,177,199370
7.674,137876,172,199365
7.679,137879,180,199374
7.684,137892,178,199378
7.689,137892,177,199371
7.694,137900,175,199378
7.699,137901,175,199402
7.704,137912,173,199404
7.709,137917,173,199408
7.714,137904,171,199415
7.719,137922,175,199419
7.724,137931,173,199420
7.729,137918,173,199435
7.734,137944,172,199426
7.739,137947,181,199417
7.744,137933,178,199424
7.749,137966,178,199436
7.754,137973,175,199437
7.759,137976,176,199450
7.764,137985,174,199464
7.769,137996,178,199480
7.774,138006,178,199493
7.779,138019,178,199502
7.784,138014,175,199514
7.789,138032,175,199529
7.794,138050,173,199542
7.799,138058,173,199540
7.804,138052,179,199552
7.809,138071,177,199557
7.814,138060,175,199585
7.819,138077,175,199575
7.824,138074,173,199581
7.829,138066,173,199558
7.834,138054,172,199566
7.839,138044,180,199533
7.844,138037,178,199538
7.849,138009,178,199522
7.854,137990,176,199492
7.859,137976,176,199496
7.864,137941,174,199468
7.869,137931,177,199440
7.874,137920,174,199441
7.879,137887,175,199416
7.884,137878,173,199381
7.889,137867,172,199387
7.894,137874,177,199361
7.899,137833,177,199355
7.904,137824,175,199328
7.909,137797,174,199318
7.914,137805,172,199336
7.919,137788,175,199291
7.924,137785,173,199277
7.929,137767,173,199268
7.934,137759,178,199258
7.939,137749,178,199247
7.944,137742,176,199243
7.949,137728,175,199228
7.954,137719,173,199234
7.959,137708,173,199214
7.964,137701,173,199199
7.969,137699,173,199181
7.974,137668,171,199160
7.979,137669,179,199174
7.984,137658,177,199152
7.989,137648,176,199151
7.994,137637,174,199132
7.999,137637,174,199132
8.004,137617,173,199109
8.009,137601,172,199108
8.014,137593,173,199083
8.019,137595,173,199085
8.024,137579,179,199059
8.029,137562,178,199064
8.034,137569,176,199061
8.039,137565,175,199036
8.044,137550,174,199031
8.049,137542,173,199032
8.054,137529,171,199007
8.059,137526,178,199018
8.064,137531,173,198995
8.069,137515,173,198994
8.074,137510,178,198992
8.079,137513,177,198992
8.084,137513,176,198980
8.089,137511,174,198985
8.094,137511,174,198975
8.099,137506,173,198996
8.104,137534,173,199004
8.109,137529,174,198987
8.114,137515,174,198990
8.119,137515,174,198987
8.124,137527,174,198989
8.129,137528,172,198997
8.134,137529,179,199013
8.139,137535,177,198996
8.144,137523,178,199011
8.149,137527,176,199000
8.154,137535,175,199014
8.159,137529,175,199009
8.164,137535,175,199018
8.169,137535,173,199033
8.174,137540,172,199022
8.179,137537,178,199017
8.184,137535,178,199032
8.189,137532,176,199020
8.194,137514,174,199011
8.199,137516,173,199007
8.204,137513,173,199001
8.209,137516,172,198985
8.214,137507,173,198988
8.219,137515,172,198972
8.224,137517,180,198967
8.229,137501,177,198965
8.234,137512,176,198961
8.239,137506,174,198958
8.244,137510,175,198939
8.249,137519,173,198946
8.254,137524,179,198961
8.259,137532,173,198958
8.264,137527,174,198943
8.269,137515,172,198947
8.274,137543,179,198946
8.279,137540,176,198948
8.284,137544,177,198960
8.289,137550,175,198951
8.294,137537,174,198957
8.299,137541,174,198942
8.304,137543,175,198954
8.309,137572,175,199000
8.314,137560,175,198974
8.319,137583,174,198995
8.324,137578,175,199003
8.329,137584,173,199003
8.334,137583,172,199014
8.339,137587,178,199009
8.344,137584,179,199005
8.349,137589,177,199001
8.354,137612,176,199031
8.359,137604,172,199021
8.364,137607,180,199021
8.369,137612,178,199045
8.374,137617,177,199033
8.379,137626,175,199050
8.384,137634,177,199052
8.389,137653,175,199047
8.394,137661,174,199064
8.399,137662,173,199069
8.404,137669,174,199069
8.409,137653,174,199072
8.414,137685,173,199085
8.419,137685,171,199076
8.424,137689,179,199078
8.429,137689,177,199112
8.434,137697,176,199108
8.439,137704,175,199118
8.444,137717,175,199112
8.449,137718,173,199103
8.454,137734,173,199144
8.459,137739,173,199121
8.464,137730,174,199126
8.469,137741,173,199121
8.474,137732,172,199141
8.479,137755,178,199137
8.484,137770,178,199145
8.489,137765,176,199160
8.494,137773,176,199152
8.499,137785,174,199162
8.504,137775,177,199173
8.509,137790,176,199150
8.514,137793,175,199170
8.519,137803,173,199171
8.524,137805,174,199190
8.529,137806,173,199181
8.534,137811,180,199183
8.539,137824,177,199193
8.544,137814,178,199191
8.549,137822,176,199182
8.554,137840,179,199185
8.559,137834,176,199175
8.564,137842,176,199192
8.569,137862,175,199207
8.574,137852,174,199196
8.579,137858,173,199205
8.584,137861,174,199212
8.589,137873,173,199202
8.594,137879,173,199208
8.599,137877,172,199214
8.604,137883,174,199243
8.609,137891,178,199238
8.614,137885,178,199236
8.619,137888,176,199221
8.624,137883,176,199213
8.629,137870,175,199223
8.634,137839,174,199183
8.639,137835,172,199182
8.644,137814,172,199176
8.649,137804,178,199151
8.654,137783,173,199154
8.659,137764,178,199133
8.664,137743,177,199129
8.669,137732,176,199087
8.674,137721,175,199099
8.679,137704,174,199077
8.684,137703,174,199066
8.689,137684,173,199066
8.694,137678,173,199044
8.699,137663,172,199026
8.704,137655,177,199042
8.709,137646,177,199024
8.714,137625,175,199033
8.719,137622,175,199001
8.724,137618,174,199014
8.729,137607,173,199011
8.734,137604,172,199007
8.739,137600,179,198998
8.744,137586,177,198990
8.749,137580,179,198990
8.754,137576,174,199002
8.759,137580,174,198972
8.764,137565,172,198952
8.769,137562,180,198974
8.774,137555,178,198958
8.779,137542,177,198963
8.784,137529,176,198932
8.789,137516,176,198926
8.794,137527,175,198920
8.799,137520,177,198924
8.804,137518,176,198922
8.809,137496,176,198899
8.814,137488,175,198904
8.819,137490,174,198889
8.824,137484,174,198884
8.829,137471,173,198870
8.834,137470,178,198879
8.839,137454,177,198868
8.844,137453,176,198865
8.849,137444,180,198835
8.854,137444,177,198860
8.859,137434,176,198861
8.864,137440,175,198859
8.869,137437,175,198845
8.874,137445,173,198841
8.879,137426,173,198826
8.884,137431,172,198862
8.889,137439,180,198849
8.894,137442,178,198849
8.899,137453,172,198854
8.904,137454,175,198843
8.909,137440,176,198838
8.914,137438,174,198851
8.919,137447,174,198832
8.924,137455,172,198852
8.929,137456,173,198850
8.934,137452,179,198844
8.939,137467,178,198864
8.944,137459,176,198854
8.949,137451,173,198857
8.954,137435,178,198839
8.959,137445,177,198862
8.964,137451,175,198869
8.969,137460,175,198840
8.974,137460,174,198845
8.979,137453,174,198847
8.984,137455,172,198847
8.989,137443,179,198857
8.994,137465,177,198868
8.999,137454,179,198843
9.004,137448,177,198840
9.009,137467,178,198841
9.014,137455,176,198835
9.019,137446,176,198826
9.024,137460,175,198833
9.029,137464,177,198837
9.034,137461,175,198842
9.039,137460,174,198817
9.044,137443,179,198849
9.049,137472,177,198835
9.054,137469,175,198836
9.059,137495,174,198832
9.064,137479,172,198843
9.069,137486,173,198840
9.074,137480,178,198838
9.079,137502,177,198839
9.084,137496,175,198836
9.089,137497,175,198850
9.094,137514,177,198860
9.099,137508,176,198867
9.104,137524,174,198881
9.109,137521,176,198891
9.114,137535,174,198915
9.119,137541,174,198894
9.124,137542,173,198895
9.129,137542,174,198904
9.134,137554,172,198932
9.139,137564,172,198924
9.144,137567,173,198932
9.149,137575,174,198930
9.154,137578,173,198956
9.159,137586,173,198956
9.164,137602,178,198958
9.169,137596,178,198961
9.174,137597,177,198964
9.179,137612,176,198981
9.184,137615,175,198969
9.189,137628,176,198983
9.194,137632,178,198991
9.199,137631,177,198986
9.204,137652,174,199015
9.209,137650,175,199005
9.214,137661,174,199003
9.219,137671,173,199024
9.224,137674,172,199036
9.229,137671,179,199049
9.234,137698,178,199047
9.239,137700,177,199074
9.244,137696,171,199072
9.249,137703,179,199072
9.254,137725,177,199100
9.259,137726,177,199091
9.264,137734,174,199103
9.269,137736,175,199118
9.274,137747,173,199131
9.279,137759,173,199129
9.284,137759,173,199145
9.289,137776,174,199148
9.294,137796,178,199170
9.299,137787,178,199188
9.304,137805,177,199174
9.309,137806,177,199194
9.314,137808,176,199200
9.319,137821,176,199238
9.324,137831,175,199243
9.329,137847,175,199246
9.334,137858,175,199260
9.339,137870,177,199265
9.344,137879,172,199293
9.349,137881,172,199296
9.354,137882,179,199306
9.359,137906,178,199310
9.364,137907,177,199308
9.369,137915,176,199319
9.374,137915,176,199322
9.379,137929,175,199335
9.384,137930,174,199332
9.389,137951,177,199335
9.394,137957,178,199355
9.399,137961,177,199367
9.404,137959,176,199379
9.409,137953,176,199370
9.414,137970,176,199399
9.419,137980,175,199364
9.424,138004,174,199402
9.429,137991,173,199405
9.434,138002,174,199415
9.439,138002,176,199399
9.444,138015,176,199414
9.449,138022,175,199429
9.454,138031,176,199427
9.459,138037,175,199422
9.464,138050,174,199448
9.469,138055,173,199434
9.474,138061,174,199450
9.479,138056,172,199464
9.484,138072,172,199476
9.489,138082,173,199465
9.494,138068,175,199477
9.499,138093,173,199492
9.504,138067,172,199487
9.509,138088,171,199458
9.514,138071,179,199455
9.519,138048,177,199432
9.524,138033,176,199425
9.529,138016,174,199408
9.534,137998,175,199384
9.539,137977,176,199384
9.544,137954,175,199374
9.549,137951,174,199342
9.554,137932,174,199342
9.559,137893,173,199312
9.564,137883,172,199288
9.569,137867,171,199289
9.574,137849,180,199271
9.579,137838,177,199266
9.584,137800,179,199236
9.589,137805,174,199229
9.594,137795,175,199224
9.599,137785,173,199211
9.604,137769,173,199192
9.609,137762,171,199213
9.614,137740,180,199176
9.619,137743,177,199173
9.624,137724,177,199163
9.629,137737,175,199154
9.634,137713,179,199149
9.639,137707,177,199123
9.644,137697,176,199108
9.649,137693,174,199126
9.654,137669,175,199120
9.659,137678,174,199116
9.664,137667,174,199099
9.669,137652,172,199086
9.674,137646,173,199091
9.679,137632,172,199074
9.684,137624,174,199067
9.689,137617,173,199049
9.694,137620,174,199059
9.699,137588,174,199024
9.704,137589,173,199018
9.709,137580,172,199026
9.714,137564,173,199017
9.719,137556,179,199001
9.724,137540,178,198993
9.729,137532,178,198986
9.734,137542,173,198969
9.739,137521,179,198976
9.744,137503,178,198968
9.749,137516,175,198970
9.754,137506,177,198965
9.759,137506,175,198980
9.764,137510,175,198965
9.769,137507,173,198967
9.774,137497,175,198990
9.779,137487,174,198984
9.784,137499,177,199002
9.789,137514,175,198998
9.794,137520,176,199019
9.799,137516,174,199003
9.804,137523,174,199022
9.809,137529,172,199010
9.814,137536,173,199034
9.819,137520,178,199042
9.824,137524,178,199033
9.829,137531,176,199042
9.834,137535,172,199034
9.839,137543,178,199073
9.844,137543,178,199064
9.849,137541,175,199073
9.854,137544,176,199084
9.859,137551,175,199113
9.864,137540,174,199095
9.869,137551,172,199101
9.874,137548,173,199121
9.879,137560,174,199128
9.884,137551,174,199110
9.889,137558,173,199110
9.894,137566,173,199117
9.899,137555,172,199113
9.904,137535,172,199100
9.909,137550,177,199102
9.914,137551,177,199091
9.919,137544,176,199109
9.924,137543,176,199092
9.929,137555,177,199086
9.934,137537,179,199079
9.939,137552,178,199066
9.944,137544,177,199087
9.949,137531,175,199072
9.954,137524,176,199046
9.959,137540,176,199036
9.964,137531,176,199048
9.969,137529,174,199028
9.974,137529,173,199031
9.979,137525,177,199011
9.984,137524,176,198977
9.989,137523,175,198979
9.994,137521,174,198966
9.999,137507,174,198951
10.004,137506,173,198950
10.009,137505,172,198949
10.014,137514,179,198938
10.019,137513,178,198943
10.024,137493,177,198949
10.029,137511,176,198950
10.034,137510,176,198902
10.039,137523,176,198954
10.044,137524,173,198927
10.049,137528,173,198946
10.054,137525,172,198937
10.059,137549,179,198967
10.064,137540,177,198952
10.069,137540,176,198963
10.074,137548,175,198932
10.079,137539,178,198948
10.084,137567,176,198958
10.089,137566,175,198966
10.094,137564,173,198961
10.099,137558,174,198969
10.104,137576,173,198983
10.109,137590,172,198971
10.114,137603,178,198994
10.119,137589,179,198972
10.124,137635,172,198972
10.129,137608,172,198991
10.134,137604,172,198976
10.139,137606,179,198980
10.144,137600,177,198982
10.149,137617,176,198987
10.154,137624,174,198987
10.159,137623,175,198996
10.164,137639,173,198990
10.169,137654,172,198978
10.174,137644,174,198989
10.179,137646,176,198995
10.184,137659,173,198999
10.189,137665,172,198992
10.194,137687,178,199021
10.199,137677,178,199009
10.204,137678,175,199019
10.209,137687,175,199013
10.214,137694,174,199017
10.219,137697,175,199021
10.224,137716,171,199024
10.229,137711,173,199027
10.234,137729,171,199013
10.239,137731,179,199051
10.244,137723,178,199044
10.249,137745,177,199049
10.254,137750,175,199054
10.259,137743,177,199032
10.264,137745,174,199057
10.269,137753,173,199058
10.274,137771,174,199047
10.279,137776,175,199062
10.284,137767,174,199063
10.289,137777,173,199049
10.294,137788,172,199064
10.299,137793,173,199067
10.304,137792,178,199076
10.309,137805,178,199078
10.314,137803,177,199088
10.319,137816,178,199082
10.324,137823,179,199108
10.329,137818,177,199112
10.334,137839,175,199114
10.339,137834,175,199115
10.344,137856,174,199129
10.349,137869,173,199148
10.354,137881,172,199144
10.359,137885,173,199153
10.364,137887,172,199161
10.369,137901,171,199174
10.374,137886,173,199166
10.379,137917,173,199197
10.384,137911,172,199187
10.389,137926,172,199213
10.394,137933,177,199217
10.399,137938,179,199236
10.404,137954,177,199242
10.409,137954,177,199257
10.414,137956,175,199268
10.419,137978,178,199265
10.424,137989,172,199283
10.429,137975,172,199273
10.434,137954,178,199250
10.439,137949,179,199256
10.444,137937,178,199256
10.449,137910,177,199232
10.454,137904,175,199209
10.459,137876,176,199186
10.464,137846,174,199177
10.469,137810,173,199139
10.474,137793,173,199140
10.479,137778,173,199137
10.484,137767,172,199096
10.489,137753,178,199064
10.494,137734,177,199050
10.499,137716,178,199034
10.504,137684,177,199018
10.509,137672,177,199000
10.514,137670,176,199007
10.519,137655,172,198988
10.524,137641,172,198983
10.529,137624,172,198982
10.534,137621,178,198965
10.539,137599,172,198947
10.544,137612,172,198950
10.549,137601,179,198944
10.554,137591,178,198942
10.559,137589,178,198940
10.564,137561,177,198920
10.569,137572,172,198928
10.574,137546,178,198908
10.579,137547,177,198896
10.584,137534,177,198901
10.589,137531,176,198881
10.594,137500,175,198887
10.599,137498,175,198866
10.604,137480,174,198869
10.609,137492,173,198857
10.614,137452,174,198843
10.619,137444,175,198826
10.624,137452,175,198814
10.629,137438,174,198805
10.634,137429,174,198796
10.639,137411,173,198782
10.644,137406,173,198789
10.649,137404,172,198780
10.654,137390,172,198792
10.659,137388,172,198773
10.664,137388,175,198762
10.669,137362,173,198741
10.674,137356,172,198744
10.679,137347,172,198745
10.684,137335,180,198725
10.689,137338,178,198730
10.694,137336,178,198739
10.699,137330,177,198738
10.704,137336,178,198738
10.709,137330,176,198745
10.714,137341,173,198741
10.719,137352,174,198746
10.724,137360,175,198758
10.729,137337,175,198736
10.734,137347,175,198734
10.739,137344,176,198740
10.744,137345,177,198720
10.749,137340,177,198743
10.754,137342,177,198727
10.759,137340,177,198735
10.764,137357,176,198721
10.769,137344,176,198720
10.774,137337,176,198704
10.779,137335,176,198704
10.784,137329,178,198717
10.789,137330,177,198710
10.794,137344,178,198712
10.799,137341,178,198710
10.804,137330,180,198719
10.809,137339,178,198718
10.814,137331,177,198721
10.819,137333,177,198715
10.824,137327,179,198718
10.829,137333,178,198695
10.834,137332,179,198713
10.839,137334,178,198701
10.844,137343,173,198711
10.849,137349,172,198714
10.854,137353,173,198742
10.859,137363,173,198745
10.864,137364,174,198737
10.869,137365,175,198738
10.874,137376,175,198754
10.879,137381,174,198756
10.884,137392,176,198770
10.889,137402,175,198763
10.894,137398,175,198781
10.899,137401,175,198788
10.904,137408,176,198784
10.909,137423,175,198789
10.914,137441,172,198804
10.919,137429,172,198807
10.924,137447,173,198815
10.929,137445,172,198835
10.934,137448,173,198840
10.939,137453,172,198834
10.944,137450,174,198818
10.949,137460,174,198835
10.954,137467,174,198842
10.959,137470,177,198850
10.964,137475,179,198860
10.969,137490,178,198863
10.974,137487,179,198887
10.979,137512,178,198892
10.984,137505,180,198892
10.989,137522,172,198900
10.994,137514,172,198922
10.999,137517,178,198928
11.004,137521,179,198930
11.009,137538,174,198931
11.014,137545,174,198938
11.019,137549,173,198963
11.024,137568,174,198967
11.029,137586,173,198982
11.034,137581,174,198986
11.039,137582,173,198996
11.044,137603,175,199009
11.049,137602,175,199016
11.054,137601,178,199020
11.059,137632,171,199042
11.064,137632,173,199054
11.069,137635,173,199077
11.074,137663,174,199069
11.079,137668,174,199082
11.084,137673,177,199099
11.089,137674,177,199118
11.094,137680,177,199101
11.099,137700,177,199108
11.104,137709,173,199119
11.109,137701,172,199137
11.114,137713,172,199145
11.119,137729,172,199139
11.124,137724,173,199148
11.129,137733,173,199147
11.134,137743,173,199163
11.139,137738,173,199174
11.144,137757,174,199169
11.149,137758,173,199185
11.154,137768,181,199192
11.159,137784,175,199192
11.164,137784,177,199207
11.169,137790,177,199213
11.174,137794,177,199218
11.179,137793,176,199214
11.184,137817,178,199222
11.189,137803,177,199239
11.194,137822,177,199254
11.199,137831,176,199260
11.204,137853,172,199269
11.209,137862,172,199266
11.214,137859,172,199274
11.219,137868,171,199282
11.224,137872,178,199279
11.229,137882,178,199293
11.234,137887,177,199330
11.239,137894,177,199331
11.244,137904,178,199352
11.249,137924,177,199326
11.254,137934,173,199361
11.259,137933,172,199368
11.264,137952,172,199371
11.269,137959,178,199397
11.274,137958,178,199394
11.279,137982,177,199406
11.284,137994,177,199411
11.289,138001,177,199438
11.294,138016,177,199450
11.299,138015,176,199455
11.304,138021,173,199463
11.309,138038,172,199484
11.314,138050,172,199491
11.319,138057,172,199507
11.324,138071,173,199503
11.329,138070,172,199529
11.334,138076,172,199504
11.339,138078,172,199519
11.344,138097,172,199529
11.349,138101,180,199533
11.354,138101,174,199540
11.359,138115,174,199547
11.364,138124,174,199564
11.369,138131,176,199556
11.374,138125,175,199564
11.379,138125,175,199541
11.384,138120,174,199556
11.389,138088,175,199546
11.394,138100,174,199538
11.399,138050,176,199492
11.404,138033,177,199479
11.409,138023,179,199453
11.414,137990,172,199438
11.419,137961,172,199401
11.424,137923,172,199382
11.429,137905,174,199333
11.434,137883,174,199308
11.439,137856,174,199285
11.444,137837,173,199261
11.449,137830,178,199239
11.454,137804,177,199219
11.459,137767,177,199183
11.464,137753,177,199186
11.469,137733,179,199163
11.474,137730,178,199151
11.479,137710,179,199132
11.484,137710,172,199125
11.489,137705,173,199107
11.494,137681,172,199095
11.499,137675,175,199086
11.504,137668,174,199083
11.509,137653,176,199079
11.514,137643,175,199076
11.519,137635,176,199068
11.524,137622,176,199049
11.529,137632,178,199060
11.534,137621,177,199047
11.539,137608,177,199030
11.544,137594,176,199031
11.549,137594,177,199013
11.554,137578,176,199017
11.559,137560,175,199004
11.564,137554,175,198992
11.569,137551,177,198987
11.574,137533,174,198954
11.579,137529,175,198967
11.584,137528,174,198942
11.589,137508,176,198946
11.594,137495,175,198941
11.599,137495,178,198928
11.604,137473,177,198915
11.609,137469,180,198896
11.614,137465,178,198900
11.619,137456,179,198908
11.624,137455,178,198904
11.629,137446,179,198887
11.634,137453,178,198872
11.639,137444,179,198883
11.644,137444,171,198884
11.649,137445,175,198904
11.654,137448,173,198910
11.659,137457,173,198886
11.664,137462,172,198907
11.669,137452,173,198893
11.674,137467,173,198885
11.679,137469,173,198901
11.684,137456,172,198906
11.689,137462,174,198896
11.694,137482,176,198913
11.699,137464,176,198912
11.704,137465,175,198918
11.709,137455,177,198922
11.714,137460,177,198926
11.719,137460,178,198927
11.724,137482,176,198928
11.729,137470,179,198932
11.734,137478,177,198934
11.739,137469,178,198921
11.744,137471,173,198914
11.749,137472,177,198920
11.754,137475,176,198934
11.759,137454,177,198927
11.764,137456,175,198934
11.769,137453,178,198923
11.774,137462,178,198912
11.779,137474,178,198938
11.784,137462,178,198908
11.789,137476,172,198922
11.794,137475,174,198928
11.799,137462,175,198933
11.804,137471,174,198932
11.809,137484,175,198942
11.814,137489,175,198943
11.819,137480,175,198958
11.824,137483,174,198950
11.829,137495,175,198937
11.834,137502,175,198926
11.839,137504,174,198926
11.844,137495,173,198933
11.849,137493,175,198934
11.854,137501,174,198935
11.859,137500,174,198950
11.864,137511,173,198950
11.869,137525,174,198954
11.874,137519,173,198958
11.879,137517,174,198973
11.884,137528,173,198968
11.889,137540,174,198955
11.894,137534,176,198961
11.899,137544,177,198957
11.904,137547,175,198967
11.909,137547,176,198972
11.914,137540,176,198961
11.919,137549,176,198966
11.924,137555,175,198974
11.929,137563,175,198973
11.934,137584,175,198987
11.939,137592,180,198973
11.944,137579,171,199007
11.949,137580,172,198979
11.954,137583,172,199024
11.959,137602,173,199012
11.964,137618,172,199023
11.969,137617,173,199035
11.974,137611,173,199036
11.979,137633,174,199054
11.984,137641,173,199053
11.989,137642,176,199066
11.994,137675,177,199063
11.999,137670,178,199079
12.004,137671,178,199097
12.009,137679,172,199106
12.014,137692,172,199105
12.019,137702,173,199107
12.024,137707,172,199135
12.029,137724,172,199128
12.034,137726,173,199142
12.039,137728,175,199154
12.044,137741,175,199154
12.049,137731,175,199159
12.054,137734,176,199145
12.059,137752,175,199185
12.064,137769,174,199182
12.069,137762,174,199185
12.074,137772,174,199184
12.079,137776,174,199190
12.084,137780,173,199188
12.089,137776,176,199190
12.094,137795,177,199200
12.099,137809,176,199211
12.104,137797,175,199197
12.109,137812,174,199207
12.114,137817,175,199216
12.119,137817,174,199214
12.124,137841,173,199223
12.129,137841,172,199212
12.134,137840,174,199216
12.139,137853,175,199228
12.144,137847,174,199207
12.149,137853,174,199219
12.154,137859,176,199232
12.159,137873,174,199229
12.164,137888,173,199236
12.169,137892,173,199239
12.174,137884,174,199258
12.179,137895,173,199255
12.184,137910,175,199262
12.189,137912,174,199261
12.194,137927,176,199287
12.199,137932,174,199286
12.204,137921,173,199284
12.209,137929,172,199284
12.214,137928,173,199299
12.219,137941,172,199311
12.224,137932,178,199297
12.229,137941,177,199304
12.234,137931,174,199290
12.239,137933,175,199289
12.244,137900,176,199255
12.249,137883,175,199257
12.254,137858,176,199239
12.259,137845,175,199216
12.264,137828,175,199193
12.269,137806,175,199179
12.274,137787,177,199141
12.279,137765,176,199135
12.284,137737,172,199102
12.289,137706,172,199093
12.294,137717,175,199069
12.299,137682,174,199060
12.304,137683,174,199037
12.309,137657,174,199024
12.314,137640,176,199011
12.319,137622,175,198999
12.324,137615,175,198989
12.329,137602,174,198984
12.334,137596,174,198969
12.339,137578,173,198949
12.344,137568,173,198931
12.349,137557,172,198930
12.354,137558,173,198924
12.359,137543,173,198915
12.364,137547,174,198907
12.369,137528,172,198880
12.374,137518,174,198870
12.379,137516,173,198867
12.384,137504,175,198854
12.389,137500,174,198865
12.394,137473,176,198840
12.399,137481,175,198832
12.404,137469,175,198827
12.409,137465,174,198842
12.414,137474,175,198814
12.419,137461,174,198809
12.424,137450,174,198792
12.429,137451,173,198777
12.434,137441,176,198811
12.439,137436,175,198810
12.444,137424,175,198806
12.449,137425,174,198795
12.454,137423,175,198809
12.459,137414,174,198792
12.464,137414,175,198772
12.469,137410,173,198795
12.474,137403,175,198793
12.479,137428,176,198784
12.484,137400,177,198771
12.489,137396,176,198778
12.494,137403,177,198788
12.499,137423,177,198767
12.504,137404,172,198784
12.509,137416,171,198787
12.514,137415,174,198801
12.519,137417,175,198797
12.524,137431,176,198808
12.529,137427,172,198791
12.534,137431,174,198801
12.539,137436,174,198783
12.544,137419,176,198811
12.549,137421,177,198804
12.554,137436,173,198787
12.559,137423,174,198806
12.564,137437,175,198811
12.569,137436,176,198804
12.574,137442,178,198812
12.579,137439,173,198817
12.584,137421,174,198807
12.589,137434,174,198794
12.594,137439,176,198783
12.599,137435,177,198806
12.604,137432,178,198787
12.609,137437,172,198786
12.614,137438,174,198805
12.619,137426,174,198796
12.624,137424,175,198786
12.629,137446,171,198781
12.634,137438,172,198797
12.639,137444,173,198781
12.644,137431,175,198798
12.649,137436,175,198786
12.654,137448,177,198797
12.659,137446,179,198804
12.664,137444,172,198781
12.669,137450,173,198798
12.674,137444,175,198808
12.679,137455,174,198785
12.684,137470,175,198806
12.689,137463,175,198813
12.694,137463,177,198826
12.699,137477,179,198824
12.704,137489,173,198831
12.709,137480,173,198824
12.714,137490,174,198835
12.719,137489,175,198843
12.724,137488,176,198850
12.729,137510,177,198850
12.734,137500,178,198855
12.739,137511,179,198863
12.744,137519,172,198855
12.749,137526,172,198880
12.754,137540,172,198874
12.759,137547,173,198878
12.764,137550,173,198880
12.769,137552,174,198891
12.774,137559,176,198905
12.779,137558,179,198919
12.784,137560,172,198908
12.789,137586,172,198928
12.794,137577,172,198927
12.799,137579,173,198933
12.804,137594,174,198953
12.809,137599,174,198945
12.814,137607,174,198946
12.819,137596,176,198956
12.824,137599,172,198963
12.829,137613,172,198958
12.834,137619,172,198951
12.839,137626,174,198965
12.844,137634,173,198966
12.849,137635,173,198974
12.854,137655,173,198979
12.859,137661,175,199002
12.864,137673,175,199009
12.869,137669,174,199010
12.874,137697,171,199016
12.879,137694,174,199035
12.884,137715,173,199035
12.889,137717,174,199039
12.894,137722,175,199058
12.899,137725,176,199072
12.904,137738,175,199083
12.909,137737,176,199085
12.914,137758,176,199106
12.919,137767,179,199123
12.924,137771,176,199093
12.929,137776,176,199120
12.934,137779,176,199099
12.939,137779,178,199111
12.944,137815,178,199128
12.949,137805,172,199151
12.954,137816,172,199133
12.959,137820,174,199136
12.964,137833,173,199125
12.969,137845,172,199150
12.974,137852,177,199154
12.979,137850,179,199140
12.984,137861,179,199174
12.989,137859,172,199167
12.994,137862,172,199176
12.999,137872,175,199163
13.004,137872,174,199179
13.009,137889,174,199183
13.014,137877,174,199182
13.019,137890,173,199199
13.024,137894,173,199203
13.029,137912,174,199201
13.034,137911,174,199226
13.039,137928,176,199222
13.044,137921,176,199230
13.049,137944,177,199212
13.054,137935,177,199235
13.059,137961,172,199248
13.064,137955,172,199246
13.069,137959,176,199267
13.074,137968,176,199272
13.079,137983,178,199259
13.084,137984,177,199276
13.089,137983,178,199280
13.094,137971,171,199269
13.099,137962,173,199260
13.104,137951,172,199229
13.109,137936,173,199206
13.114,137907,174,199199
13.119,137890,178,199188
13.124,137865,178,199186
13.129,137847,173,199159
13.134,137820,172,199147
13.139,137803,174,199121
13.144,137793,174,199102
13.149,137762,176,199085
13.154,137726,176,199059
13.159,137713,179,199050
13.164,137710,172,199039
13.169,137694,175,199015
13.174,137683,175,199013
13.179,137677,178,199013
13.184,137656,178,198998
13.189,137654,172,198989
13.194,137638,171,198986
13.199,137626,174,198976
13.204,137624,175,198970
13.209,137614,176,198952
13.214,137603,179,198953
13.219,137596,176,198942
13.224,137596,175,198941
13.229,137579,177,198939
13.234,137576,176,198939
13.239,137573,179,198919
13.244,137569,172,198912
13.249,137548,172,198904
13.254,137534,172,198884
13.259,137534,174,198851
13.264,137518,178,198866
13.269,137509,173,198867
13.274,137503,173,198840
13.279,137496,175,198842
13.284,137499,174,198846
13.289,137482,176,198837
13.294,137474,176,198826
13.299,137463,179,198810
13.304,137461,172,198843
13.309,137453,173,198819
13.314,137457,175,198814
13.319,137441,177,198816
13.324,137444,177,198811
13.329,137441,179,198798
13.334,137439,171,198803
13.339,137439,174,198818
13.344,137444,174,198803
13.349,137431,175,198815
13.354,137434,175,198835
13.359,137436,177,198822
13.364,137447,175,198846
13.369,137448,177,198834
13.374,137454,177,198844
13.379,137453,179,198844
13.384,137463,172,198848
13.389,137463,173,198862
13.394,137461,173,198866
13.399,137470,175,198870
13.404,137471,176,198869
13.409,137462,178,198870
13.414,137471,173,198870
13.419,137480,174,198879
13.424,137485,175,198874
13.429,137483,177,198901
13.434,137495,171,198898
13.439,137495,173,198911
13.444,137505,174,198907
13.449,137496,175,198904
13.454,137499,175,198929
13.459,137500,170,198916
13.464,137491,174,198926
13.469,137507,175,198929
13.474,137510,175,198936
13.479,137506,178,198922
13.484,137487,173,198919
13.489,137516,174,198935
13.494,137517,174,198900
13.499,137506,175,198924
13.504,137514,176,198913
13.509,137508,173,198913
13.514,137502,174,198910
13.519,137509,174,198916
13.524,137521,176,198908
13.529,137514,177,198922
13.534,137528,179,198912
13.539,137510,172,198919
13.544,137529,174,198916
13.549,137525,174,198905
13.554,137527,176,198917
13.559,137535,172,198893
13.564,137526,174,198901
13.569,137549,174,198902
13.574,137541,176,198905
13.579,137554,177,198904
13.584,137546,173,198901
13.589,137541,173,198914
13.594,137570,174,198908
13.599,137553,176,198913
13.604,137551,180,198931
13.609,137575,175,198917
13.614,137590,176,198933
13.619,137584,177,198939
13.624,137591,172,198936
13.629,137601,173,198958
13.634,137591,173,198963
13.639,137607,174,198959
13.644,137615,176,198987
13.649,137621,176,198988
13.654,137622,171,199004
13.659,137638,175,198996
13.664,137652,178,199001
13.669,137652,178,199027
13.674,137661,172,199016
13.679,137659,173,199021
13.684,137666,176,199039
13.689,137670,176,199036
13.694,137682,178,199049
13.699,137677,172,199051
13.704,137680,174,199062
13.709,137704,177,199063
13.714,137716,178,199075
13.719,137714,172,199083
13.724,137719,175,199094
13.729,137729,175,199096
13.734,137734,177,199100
13.739,137743,171,199097
13.744,137751,173,199106
13.749,137760,173,199123
13.754,137764,176,199127
13.759,137778,171,199148
13.764,137776,174,199149
13.769,137774,174,199154
13.774,137805,176,199158
13.779,137797,177,199165
13.784,137813,173,199178
13.789,137810,173,199195
13.794,137833,175,199196
13.799,137837,176,199200
13.804,137856,176,199159
13.809,137846,174,199202
13.814,137870,174,199224
13.819,137863,175,199216
13.824,137881,179,199232
13.829,137878,172,199250
13.834,137885,174,199250
13.839,137890,175,199232
13.844,137915,178,199237
13.849,137915,178,199261
13.854,137922,175,199279
13.859,137946,175,199284
13.864,137930,179,199290
13.869,137952,172,199283
13.874,137944,173,199289
13.879,137957,173,199322
13.884,137975,176,199323
13.889,137986,176,199336
13.894,137996,178,199351
13.899,137999,172,199363
13.904,138020,177,199373
13.909,138019,177,199373
13.914,138033,172,199395
13.919,138039,173,199428
13.924,138065,175,199400
13.929,138062,176,199393
13.934,138054,177,199416
13.939,138071,171,199435
13.944,138081,173,199429
13.949,138084,174,199427
13.954,138104,177,199447
13.959,138096,171,199452
13.964,138108,172,199453
13.969,138098,173,199454
13.974,138109,175,199469
13.979,138121,176,199450
13.984,138104,172,199426
13.989,138096,172,199424
13.994,138081,174,199401
13.999,138065,176,199383
14.004,138051,172,199372
14.009,138012,173,199335
14.014,137998,173,199315
14.019,137973,173,199302
14.024,137950,175,199278
14.029,137928,175,199242
14.034,137900,176,199212
14.039,137888,176,199203
14.044,137861,179,199159
14.049,137847,176,199149
14.054,137812,178,199130
14.059,137796,172,199107
14.064,137782,173,199093
14.069,137779,174,199080
14.074,137772,175,199064
14.079,137747,175,199065
14.084,137749,177,199053
14.089,137726,176,199035
14.094,137736,177,199025
14.099,137755,173,199008
14.104,137709,177,199019
14.109,137701,176,198995
14.114,137685,177,199002
14.119,137692,175,198982
14.124,137681,176,198994
14.129,137677,176,198981
14.134,137657,177,198988
14.139,137663,176,198987
14.144,137656,177,198965
14.149,137645,174,198958
14.154,137641,174,198962
14.159,137633,173,198949
14.164,137623,175,198951
14.169,137621,175,198929
14.174,137629,176,198954
14.179,137603,176,198919
14.184,137594,179,198937
14.189,137593,172,198928
14.194,137606,175,198906
14.199,137582,173,198908
14.204,137572,175,198898
14.209,137555,176,198906
14.214,137557,175,198886
14.219,137546,175,198896
14.224,137556,175,198893
14.229,137547,176,198881
14.234,137534,176,198898
14.239,137543,175,198872
14.244,137538,178,198886
14.249,137549,172,198879
14.254,137561,172,198901
14.259,137556,171,198903
14.264,137549,172,198894
14.269,137553,179,198917
14.274,137567,178,198907
14.279,137559,177,198901
14.284,137568,177,198887
14.289,137558,178,198895
14.294,137571,173,198875
14.299,137553,174,198895
14.304,137552,174,198885
14.309,137547,175,198868
14.314,137554,175,198879
14.319,137561,176,198879
14.324,137550,177,198904
14.329,137553,178,198903
14.334,137566,178,198900
14.339,137563,178,198883
14.344,137558,173,198907
14.349,137570,175,198907
14.354,137561,174,198903
14.359,137572,174,198906
14.364,137565,173,198906
14.369,137572,174,198909
14.374,137572,173,198930
14.379,137573,174,198915
14.384,137586,174,198914
14.389,137562,175,198899
14.394,137572,177,198895
14.399,137579,177,198893
14.404,137577,177,198899
14.409,137581,178,198901
14.414,137575,178,198909
14.419,137582,178,198922
14.424,137584,178,198900
14.429,137589,172,198931
14.434,137599,172,198928
14.439,137606,173,198905
14.444,137611,174,198945
14.449,137630,176,198946
14.454,137634,174,198951
14.459,137629,175,198964
14.464,137642,174,198966
14.469,137634,177,198968
14.474,137658,176,198967
14.479,137654,176,198986
14.484,137672,176,198998
14.489,137708,172,199012
14.494,137677,176,199018
14.499,137684,176,199017
14.504,137675,176,199024
14.509,137696,178,199029
14.514,137689,176,199031
14.519,137680,176,199041
14.524,137692,177,199036
14.529,137696,179,199034
14.534,137707,178,199050
14.539,137720,173,199038
14.544,137710,173,199033
14.549,137719,175,199034
14.554,137719,174,199035
14.559,137719,174,199057
14.564,137729,174,199050
14.569,137732,176,199047
14.574,137732,175,199059
14.579,137722,176,199069
14.584,137744,175,199062
14.589,137734,173,199070
14.594,137753,171,199074
14.599,137754,173,199029
14.604,137745,171,199053
14.609,137754,173,199064
14.614,137759,172,199070
14.619,137768,173,199055
14.624,137779,172,199067
14.629,137772,174,199073
14.634,137788,173,199087
14.639,137786,177,199077
14.644,137793,176,199095
14.649,137792,178,199095
14.654,137804,178,199091
14.659,137813,178,199094
14.664,137825,177,199096
14.669,137813,172,199101
14.674,137817,172,199139
14.679,137825,173,199126
14.684,137828,172,199124
14.689,137841,176,199115
14.694,137861,176,199143
14.699,137862,178,199140
14.704,137873,178,199178
14.709,137892,173,199149
14.714,137880,172,199160
14.719,137898,172,199179
14.724,137886,172,199172
14.729,137904,173,199170
14.734,137912,174,199156
14.739,137913,172,199172
14.744,137917,171,199187
14.749,137935,173,199201
14.754,137935,172,199222
14.759,137944,173,199220
14.764,137951,172,199213
14.769,137965,174,199223
14.774,137952,173,199229
14.779,137974,174,199239
14.784,137996,176,199240
14.789,137995,173,199246
14.794,138002,172,199258
14.799,138019,172,199266
14.804,138020,171,199275
14.809,138036,172,199304
14.814,138043,171,199311
14.819,138050,178,199320
14.824,138072,177,199315
14.829,138067,172,199335
14.834,138082,173,199342
14.839,138086,172,199356
14.844,138089,171,199357
14.849,138093,173,199363
14.854,138089,172,199351
14.859,138099,174,199356
14.864,138090,173,199335
14.869,138074,174,199335
14.874,138057,174,199316
14.879,138043,174,199297
14.884,138018,172,199275
14.889,138000,174,199265
14.894,137976,173,199238
14.899,137958,174,199230
14.904,137944,174,199220
14.909,137924,175,199188
14.914,137903,175,199179
14.919,137875,175,199150
14.924,137867,174,199142
14.929,137850,175,199128
14.934,137845,171,199115
14.939,137835,172,199091
14.944,137817,171,199111
14.949,137810,178,199086
14.954,137796,178,199063
14.959,137783,171,199069
14.964,137786,178,199038
14.969,137774,178,199042
14.974,137761,179,199046
14.979,137753,173,199024
14.984,137759,173,199012
14.989,137741,174,199020
14.994,137738,174,199010
14.999,137728,173,199005
15.004,137715,174,198994
15.009,137716,173,198991
15.014,137707,174,198993
15.019,137698,174,198970
15.024,137683,174,198969
15.029,137699,177,198976
15.034,137664,179,198978
15.039,137662,177,198961
15.044,137658,176,198952
15.049,137650,176,198940
15.054,137642,176,198942
15.059,137639,175,198926
15.064,137636,194,198932
15.069,137616,174,198919
15.074,137597,175,198927
15.079,137600,177,198925
15.084,137593,177,198911
15.089,137579,176,198902
15.094,137593,177,198903
15.099,137600,176,198897
15.104,137588,176,198895
15.109,137589,175,198904
15.114,137580,176,198908
15.119,137574,174,198893
15.124,137581,174,198891
15.129,137590,176,198900
15.134,137593,177,198927
15.139,137586,176,198928
15.144,137613,175,198935
15.149,137592,175,198936
15.154,137610,177,198932
15.159,137599,176,198940
15.164,137600,177,198939
15.169,137617,176,198935
15.174,137608,178,198933
15.179,137610,175,198942
15.184,137608,176,198958
15.189,137603,175,198950
15.194,137624,176,198972
15.199,137618,176,198970
15.204,137609,176,198977
15.209,137623,175,198951
15.214,137632,177,198965
15.219,137625,175,198957
15.224,137612,178,198978
15.229,137602,177,198953
15.234,137623,178,198965
15.239,137627,176,198962
15.244,137625,175,198973
15.249,137613,173,198947
15.254,137629,175,198975
15.259,137615,173,198940
15.264,137636,173,198955
15.269,137627,172,198962
15.274,137607,176,198969
15.279,137634,174,198968
15.284,137634,174,198979
15.289,137647,173,198957
15.294,137649,174,198977
15.299,137653,173,198994
15.304,137643,173,198991
15.309,137640,171,198991
15.314,137665,172,198991
15.319,137671,171,198987
15.324,137668,175,198990
15.329,137683,176,198981
15.334,137675,178,198974
15.339,137663,177,199002
15.344,137682,176,198984
15.349,137686,176,198997
15.354,137681,177,198993
15.359,137690,175,199003
15.364,137709,176,199011
15.369,137708,174,199005
15.374,137714,172,199004
15.379,137711,171,199019
15.384,137725,171,199014
15.389,137727,171,199028
15.394,137725,172,199032
15.399,137735,172,199024
15.404,137749,172,199033
15.409,137748,177,199039
15.414,137736,179,199047
15.419,137759,172,199056
15.424,137769,174,199063
15.429,137784,173,199068
15.434,137788,174,199068
15.439,137788,173,199077
15.444,137793,172,199081
15.449,137802,171,199086
15.454,137802,179,199093
15.459,137800,178,199096
15.464,137815,178,199102
15.469,137813,177,199121
15.474,137820,174,199108
15.479,137826,173,199117
15.484,137837,173,199122
15.489,137841,173,199129
15.494,137836,173,199123
15.499,137852,173,199137
15.504,137857,173,199123
15.509,137864,172,199156
15.514,137873,173,199161
15.519,137878,172,199155
15.524,137883,176,199166
15.529,137887,175,199176
15.534,137900,176,199168
15.539,137898,175,199179
15.544,137907,175,199201
15.549,137927,174,199187
15.554,137926,175,199191
15.559,137932,174,199191
15.564,137933,173,199213
15.569,137934,175,199216
15.574,137935,175,199227
15.579,137954,174,199231
15.584,137981,174,199219
15.589,137966,173,199238
15.594,137983,174,199244
15.599,137986,173,199242
15.604,137990,173,199269
15.609,137990,172,199267
15.614,138011,172,199272
15.619,138018,173,199279
15.624,138028,177,199271
15.629,138027,177,199287
15.634,138033,176,199308
15.639,138048,176,199302
15.644,138055,175,199320
15.649,138040,174,199310
15.654,138054,175,199312
15.659,138079,175,199321
15.664,138070,174,199322
15.669,138083,176,199328
15.674,138093,176,199343
15.679,138101,176,199332
15.684,138101,176,199334
15.689,138115,176,199344
15.694,138130,175,199358
15.699,138119,176,199354
15.704,138128,174,199378
15.709,138152,173,199358
15.714,138150,172,199375
15.719,138153,176,199365
15.724,138162,174,199371
15.729,138168,173,199396
15.734,138166,173,199404
15.739,138168,173,199394
15.744,138174,172,199386
15.749,138170,172,199374
15.754,138166,177,199363
15.759,138130,178,199352
15.764,138143,179,199342
15.769,138100,171,199345
15.774,138091,178,199333
15.779,138078,179,199308
15.784,138048,178,199288
15.789,138039,177,199285
15.794,138025,177,199263
15.799,137992,178,199246
15.804,137981,176,199232
15.809,137966,176,199203
15.814,137950,171,199203
15.819,137941,173,199181
15.824,137920,171,199165
15.829,137913,171,199155
15.834,137901,171,199147
15.839,137881,180,199136
15.844,137872,179,199119
15.849,137868,178,199134
15.854,137865,176,199119
15.859,137858,178,199120
15.864,137870,174,199101
15.869,137838,175,199097
15.874,137850,174,199101
15.879,137835,176,199102
15.884,137831,174,199098
15.889,137833,175,199109
15.894,137838,174,199111
15.899,137837,175,199095
15.904,137826,175,199110
15.909,137801,175,199117
15.914,137825,173,199139
15.919,137818,177,199117
15.924,137817,176,199109
15.929,137819,176,199123
15.934,137817,175,199134
15.939,137806,177,199135
15.944,137798,175,199120
15.949,137803,176,199150
15.954,137803,175,199144
15.959,137797,176,199147
15.964,137797,171,199120
15.969,137803,172,199167
15.974,137806,172,199169
15.979,137814,173,199164
15.984,137795,172,199182
15.989,137809,173,199183
15.994,137805,172,199204
15.999,137811,174,199199
16.004,137815,173,199214
16.009,137816,175,199222
16.014,137829,176,199223
16.019,137820,178,199243
16.024,137835,177,199265
16.029,137840,178,199285
16.034,137855,177,199303
16.039,137868,178,199317
16.044,137867,177,199306
16.049,137877,178,199316
16.054,137878,176,199325
16.059,137866,173,199353
16.064,137882,172,199341
16.069,137903,173,199366
16.074,137899,171,199380
16.079,137917,173,199375
16.084,137906,172,199411
16.089,137907,172,199400
16.094,137916,171,199400
16.099,137920,172,199410
16.104,137908,172,199412
16.109,137916,175,199400
16.114,137905,174,199398
16.119,137928,176,199399
16.124,137907,176,199408
16.129,137923,176,199396
16.134,137919,176,199412
16.139,137918,178,199381
16.144,137919,178,199395
16.149,137911,178,199399
16.154,137921,177,199399
16.159,137918,174,199412
16.164,137927,173,199394
16.169,137927,173,199423
16.174,137931,172,199423
16.179,137942,173,199436
16.184,137950,173,199438
16.189,137954,173,199449
16.194,137961,172,199445
16.199,137969,173,199455
16.204,137962,172,199438
16.209,137975,178,199450
16.214,137980,177,199461
16.219,137976,177,199457
16.224,137989,176,199457
16.229,137984,176,199487
16.234,137983,175,199464
16.239,137988,176,199481
16.244,137999,176,199466
16.249,137988,176,199461
16.254,137991,176,199484
16.259,137992,172,199486
16.264,138005,172,199460
16.269,138002,173,199462
16.274,138002,172,199458
16.279,137994,173,199457
16.284,138006,174,199449
16.289,138008,173,199460
16.294,138016,173,199460
16.299,138029,173,199461
16.304,138021,176,199450
16.309,138017,174,199453
16.314,138033,173,199472
16.319,138032,174,199468
16.324,138044,174,199461
16.329,138037,174,199480
16.334,138036,174,199478
16.339,138050,174,199477
16.344,138059,174,199485
16.349,138068,175,199508
16.354,138064,178,199506
16.359,138073,178,199517
16.364,138089,172,199535
16.369,138100,172,199542
16.374,138098,172,199527
16.379,138116,172,199531
16.384,138107,173,199556
16.389,138117,173,199560
16.394,138129,173,199548
16.399,138119,174,199558
16.404,138135,178,199575
16.409,138136,178,199563
16.414,138158,178,199588
16.419,138164,172,199592
16.424,138156,173,199596
16.429,138166,172,199616
16.434,138179,172,199619
16.439,138180,173,199616
16.444,138192,174,199636
16.449,138207,176,199648
16.454,138196,177,199632
16.459,138214,178,199662
16.464,138233,180,199665
16.469,138222,171,199661
16.474,138237,172,199661
16.479,138234,172,199676
16.484,138242,174,199670
16.489,138255,173,199676
16.494,138281,174,199691
16.499,138278,173,199696
16.504,138273,178,199709
16.509,138287,177,199703
16.514,138300,178,199728
16.519,138285,177,199725
16.524,138306,173,199738
16.529,138303,172,199745
16.534,138296,172,199746
16.539,138322,172,199751
16.544,138314,173,199750
16.549,138324,175,199757
16.554,138339,175,199777
16.559,138358,174,199782
16.564,138349,176,199778
16.569,138347,175,199761
16.574,138345,175,199759
16.579,138340,174,199754
16.584,138315,176,199743
16.589,138305,174,199734
16.594,138282,175,199708
16.599,138274,177,199714
16.604,138262,178,199695
16.609,138248,177,199688
16.614,138225,177,199681
16.619,138199,176,199671
16.624,138202,178,199641
16.629,138186,177,199613
16.634,138159,178,199609
16.639,138153,178,199596
16.644,138153,172,199607
16.649,138142,174,199596
16.654,138135,174,199589
16.659,138114,173,199595
16.664,138120,175,199576
16.669,138113,175,199562
16.674,138098,176,199559
16.679,138094,175,199554
16.684,138084,177,199548
16.689,138085,176,199545
16.694,138085,176,199511
16.699,138066,171,199516
16.704,138058,174,199525
16.709,138054,173,199508
16.714,138054,173,199504
16.719,138060,173,199510
16.724,138042,175,199498
16.729,138033,174,199494
16.734,138016,174,199489
16.739,138019,173,199491
16.744,138028,175,199485
16.749,138017,173,199478
16.754,138012,174,199499
16.759,138024,172,199458
16.764,138002,174,199465
16.769,137997,173,199476
16.774,137995,173,199471
16.779,137993,172,199463
16.784,137979,174,199443
16.789,137969,173,199450
16.794,137978,177,199402
16.799,137979,175,199445
16.804,137971,177,199435
16.809,137958,176,199444
16.814,137964,177,199438
16.819,137969,175,199417
16.824,137963,177,199449
16.829,137969,176,199447
16.834,137984,176,199455
16.839,137981,176,199455
16.844,137994,173,199481
16.849,137996,175,199488
16.854,137993,176,199490
16.859,138011,175,199496
16.864,137999,176,199491
16.869,138006,176,199517
16.874,138011,176,199535
16.879,138017,175,199537
16.884,138026,177,199560
16.889,138039,177,199574
16.894,138066,174,199590
16.899,138041,174,199593
16.904,138058,176,199610
16.909,138042,176,199636
16.914,138072,176,199628
16.919,138073,176,199626
16.924,138069,177,199635
16.929,138069,177,199611
16.934,138073,178,199620
16.939,138068,177,199632
16.944,138062,173,199620
16.949,138079,174,199647
16.954,138071,174,199644
16.959,138086,174,199636
16.964,138093,174,199645
16.969,138080,174,199651
16.974,138091,175,199674
16.979,138087,174,199708
16.984,138100,174,199686
16.989,138101,175,199706
16.994,138129,173,199710
16.999,138123,173,199723
17.004,138122,173,199749
17.009,138155,173,199759
17.014,138153,173,199779
17.019,138162,172,199794
17.024,138185,173,199808
17.029,138194,173,199818
17.034,138195,173,199841
17.039,138223,173,199838
17.044,138235,175,199885
17.049,138242,176,199905
17.054,138265,174,199930
17.059,138259,174,199947
17.064,138279,174,199984
17.069,138301,175,199998
17.074,138300,174,200033
17.079,138324,174,200062
17.084,138336,175,200085
17.089,138383,175,200107
17.094,138358,178,200098
17.099,138368,178,200134
17.104,138387,171,200165
17.109,138407,173,200188
17.114,138422,172,200198
17.119,138431,172,200218
17.124,138457,171,200232
17.129,138444,172,200254
17.134,138470,172,200280
17.139,138476,181,200297
17.144,138489,171,200294
17.149,138491,173,200308
17.154,138496,172,200326
17.159,138507,172,200331
17.164,138521,173,200351
17.169,138528,174,200344
17.174,138542,174,200377
17.179,138561,174,200406
17.184,138571,174,200432
17.189,138594,179,200454
17.194,138603,177,200473
17.199,138625,178,200489
17.204,138630,178,200520
17.209,138654,179,200540
17.214,138666,178,200562
17.219,138683,171,200563
17.224,138693,171,200609
17.229,138710,179,200632
17.234,138722,177,200656
17.239,138734,173,200679
17.244,138752,172,200708
17.249,138756,173,200716
17.254,138775,171,200746
17.259,138788,172,200761
17.264,138786,172,200788
17.269,138825,173,200806
17.274,138834,172,200836
17.279,138838,172,200851
17.284,138855,171,200851
17.289,138851,175,200887
17.294,138866,173,200888
17.299,138893,173,200929
17.304,138911,172,200936
17.309,138928,173,200981
17.314,138916,171,201013
17.319,138950,178,201022
17.324,138960,176,201048
17.329,138947,176,201067
17.334,138994,175,201072
17.339,138996,171,201104
17.344,138996,171,201091
17.349,139018,172,201117
17.354,139026,171,201145
17.359,139019,171,201137
17.364,139040,171,201151
17.369,139024,172,201154
17.374,139021,171,201140
17.379,139007,178,201113
17.384,139003,172,201132
17.389,138978,173,201080
17.394,138976,172,201072
17.399,138934,171,201041
17.404,138917,177,201025
17.409,138907,178,201007
17.414,138871,177,200981
17.419,138852,177,200965
17.424,138837,175,200962
17.429,138818,176,200925
17.434,138807,172,200941
17.439,138793,174,200894
17.444,138769,173,200871
17.449,138757,174,200869
17.454,138737,173,200841
17.459,138729,173,200840
17.464,138707,172,200836
17.469,138703,172,200830
17.474,138687,178,200815
17.479,138683,178,200800
17.484,138675,172,200795
17.489,138641,173,200775
17.494,138643,172,200751
17.499,138637,172,200738
17.504,138625,177,200732
17.509,138612,178,200716
17.514,138607,177,200712
17.519,138587,176,200695
17.524,138570,174,200672
17.529,138563,176,200644
17.534,138546,172,200624
17.539,138537,172,200620
17.544,138513,171,200591
17.549,138501,172,200579
17.554,138487,172,200563
17.559,138467,172,200551
17.564,138454,170,200523
17.569,138430,178,200509
17.574,138429,178,200488
17.579,138423,174,200457
17.584,138391,172,200455
17.589,138385,173,200435
17.594,138378,173,200408
17.599,138363,174,200395
17.604,138345,173,200371
17.609,138323,174,200334
17.614,138292,173,200318
17.619,138296,173,200296
17.624,138266,172,200256
17.629,138245,175,200234
17.634,138236,176,200205
17.639,138218,175,200183
17.644,138208,174,200152
17.649,138196,174,200132
17.654,138168,174,200105
17.659,138173,173,200081
17.664,138146,173,200059
17.669,138146,173,200025
17.674,138123,172,200001
17.679,138128,175,199979
17.684,138109,175,199961
17.689,138084,175,199949
17.694,138080,175,199926
17.699,138084,174,199936
17.704,138068,173,199910
17.709,138056,172,199893
17.714,138056,173,199877
17.719,138052,172,199882
17.724,138034,178,199857
17.729,138038,176,199856
17.734,138021,176,199832
17.739,138022,176,199824
17.744,138024,175,199803
17.749,138016,175,199805
17.754,138007,176,199805
17.759,138008,174,199805
17.764,138012,174,199802
17.769,137996,173,199781
17.774,138012,174,199786
17.779,138003,175,199769
17.784,137994,175,199763
17.789,138011,173,199756
17.794,138001,174,199745
17.799,138006,174,199761
17.804,138018,173,199758
17.809,138008,172,199762
17.814,138013,173,199768
17.819,138014,173,199757
17.824,138026,173,199756
17.829,138010,171,199755
17.834,138018,180,199752
17.839,138025,177,199752
17.844,138038,177,199766
17.849,138042,176,199782
17.854,138048,176,199779
17.859,138068,175,199798
17.864,138069,174,199808
17.869,138064,174,199805
17.874,138051,177,199813
17.879,138088,172,199826
17.884,138085,171,199830
17.889,138091,177,199829
17.894,138109,178,199835
17.899,138112,176,199857
17.904,138111,175,199866
17.909,138124,174,199871
17.914,138121,174,199875
17.919,138138,173,199896
17.924,138145,175,199897
17.929,138146,173,199905
17.934,138170,174,199912
17.939,138175,173,199930
17.944,138175,172,199922
17.949,138160,172,199934
17.954,138179,174,199939
17.959,138201,173,199954
17.964,138205,173,199970
17.969,138203,172,199975
17.974,138219,176,199983
17.979,138232,174,200008
17.984,138224,174,200007
17.989,138245,172,200005
17.994,138252,174,200011
17.999,138251,173,200013
18.004,138263,173,200012
18.009,138280,172,200032
18.014,138259,173,200028
18.019,138271,173,200033
18.024,138289,175,200043
18.029,138276,175,200036
18.034,138274,175,200050
18.039,138304,174,200033
18.044,138301,174,200054
18.049,138301,173,200054
18.054,138303,175,200044
18.059,138304,174,200051
18.064,138301,175,200060
18.069,138315,173,200051
18.074,138315,177,200081
18.079,138328,176,200068
18.084,138327,176,200074
18.089,138332,174,200073
18.094,138346,175,200071
18.099,138339,175,200083
18.104,138354,175,200073
18.109,138359,173,200086
18.114,138357,173,200087
18.119,138369,174,200069
18.124,138365,172,200100
18.129,138369,171,200108
18.134,138374,178,200110
18.139,138378,177,200104
18.144,138393,176,200110
18.149,138409,174,200138
18.154,138411,175,200129
18.159,138418,174,200141
18.164,138421,174,200123
18.169,138415,175,200161
18.174,138432,176,200142
18.179,138436,174,200156
18.184,138436,174,200164
18.189,138443,172,200153
18.194,138449,173,200145
18.199,138453,172,200178
18.204,138458,172,200166
18.209,138455,171,200164
18.214,138455,172,200151
18.219,138446,174,200136
18.224,138423,174,200131
18.229,138424,172,200109
18.234,138401,173,200097
18.239,138372,172,200083
18.244,138346,173,200059
18.249,138339,172,200043
18.254,138320,172,200025
18.259,138293,172,200003
18.264,138266,172,199948
18.269,138248,173,199950
18.274,138223,173,199912
18.279,138199,173,199889
18.284,138184,173,199859
18.289,138172,172,199834
18.294,138159,173,199830
18.299,138139,172,199810
18.304,138121,172,199762
18.309,138106,171,199740
18.314,138061,171,199706
18.319,138040,177,199655
18.324,138021,176,199620
18.329,137972,175,199552
18.334,137926,174,199474
18.339,137899,174,199407
18.344,137857,174,199324
18.349,137802,173,199252
18.354,137758,173,199148
18.359,137713,173,199072
18.364,137661,175,199043
18.369,137629,175,198913
18.374,137599,175,198853
18.379,137552,176,198770
18.384,137527,175,198705
18.389,137484,175,198653
18.394,137433,176,198586
18.399,137401,178,198507
18.404,137368,178,198455
18.409,137324,171,198412
18.414,137271,173,198351
18.419,137265,175,198295
18.424,137240,174,198270
18.429,137228,174,198202
18.434,137191,173,198184
18.439,137170,174,198144
18.444,137161,173,198117
18.449,137142,173,198095
18.454,137125,173,198074
18.459,137103,174,198044
18.464,137103,175,198031
18.469,137110,175,198003
18.474,137085,175,197996
18.479,137082,176,197987
18.484,137062,174,197968
18.489,137072,174,197981
18.494,137067,173,197986
18.499,137068,175,197995
18.504,137079,173,197966
18.509,137067,173,197957
18.514,137060,175,197938
18.519,137076,177,197945
18.524,137051,176,197930
18.529,137066,176,197917
18.534,137060,174,197923
18.539,137058,177,197915
18.544,137053,174,197915
18.549,137057,174,197906
18.554,137043,173,197881
18.559,137047,174,197896
18.564,137044,172,197888
18.569,137029,172,197891
18.574,137042,171,197874
18.579,137035,172,197871
18.584,137026,178,197867
18.589,137028,177,197854
18.594,137034,175,197832
18.599,137029,175,197823
18.604,137029,174,197819
18.609,137011,173,197808
18.614,136996,175,197790
18.619,136984,175,197783
18.624,137010,174,197777
18.629,137000,174,197762
18.634,136985,172,197770
18.639,136999,173,197769
18.644,136990,172,197746
18.649,137009,172,197739
18.654,137001,170,197750
18.659,136992,171,197747
18.664,136985,173,197725
18.669,136999,173,197724
18.674,137003,172,197718
18.679,136987,173,197727
18.684,136989,172,197708
18.689,136989,172,197702
18.694,136993,171,197705
18.699,136986,173,197688
18.704,137010,172,197702
18.709,136997,175,197695
18.714,137000,174,197695
18.719,136997,175,197698
18.724,137009,175,197698
18.729,137016,175,197709
18.734,137017,174,197708
18.739,137015,175,197700
18.744,137014,174,197699
18.749,137024,174,197699
18.754,137008,173,197674
18.759,137017,177,197659
18.764,137011,176,197660
18.769,137016,175,197648
18.774,137017,173,197661
18.779,137009,175,197638
18.784,137014,174,197628
18.789,137007,173,197628
18.794,137039,173,197619
18.799,137029,174,197624
18.804,137014,173,197619
18.809,137038,177,197607
18.814,137027,176,197604
18.819,137032,177,197599
18.824,137026,176,197569
18.829,137040,176,197567
18.834,137050,175,197577
18.839,137042,176,197551
18.844,137035,176,197541
18.849,137043,176,197500
18.854,137032,175,197506
18.859,137038,172,197506
18.864,137029,171,197482
18.869,137017,178,197462
18.874,137032,176,197447
18.879,137002,177,197427
18.884,137015,176,197406
18.889,137010,176,197397
18.894,137023,173,197381
18.899,137021,174,197354
18.904,137010,174,197341
18.909,137006,175,197310
18.914,137014,173,197307
18.919,137020,174,197313
18.924,137007,173,197290
18.929,137015,172,197276
18.934,137031,171,197262
18.939,137021,172,197267
18.944,137024,171,197251
18.949,137026,178,197248
18.954,137007,174,197275
18.959,137058,178,197246
18.964,137048,177,197252
18.969,137059,176,197239
18.974,137063,175,197240
18.979,137061,175,197246
18.984,137079,173,197240
18.989,137077,174,197232
18.994,137094,173,197240
18.999,137088,173,197256
19.004,137086,176,197230
19.009,137103,175,197234
19.014,137120,174,197245
19.019,137119,174,197254
19.024,137116,173,197272
19.029,137159,173,197290
19.034,137135,172,197281
19.039,137165,172,197319
19.044,137179,172,197312
19.049,137186,178,197329
19.054,137188,173,197354
19.059,137205,172,197362
19.064,137216,173,197379
19.069,137211,172,197365
19.074,137213,171,197375
19.079,137206,171,197329
19.084,137203,173,197363
19.089,137174,172,197325
19.094,137160,172,197344
19.099,137148,171,197345
19.104,137132,175,197361
19.109,137120,173,197365
19.114,137089,173,197345
19.119,137091,172,197333
19.124,137065,173,197354
19.129,137049,172,197347
19.134,137041,172,197333
19.139,137027,172,197344
19.144,137013,174,197343
19.149,137006,173,197301
19.154,136992,175,197331
19.159,136980,174,197330
19.164,136980,176,197335
19.169,136962,175,197324
19.174,136962,174,197316
19.179,136953,174,197324
19.184,136939,176,197310
19.189,136950,175,197313
19.194,136936,174,197311
19.199,136941,175,197301
19.204,136901,173,197290
19.209,136869,172,197277
19.214,136872,171,197262
19.219,136872,177,197272
19.224,136849,179,197247
19.229,136848,177,197233
19.234,136818,177,197229
19.239,136807,175,197216
19.244,136795,176,197201
19.249,136777,173,197186
19.254,136780,174,197180
19.259,136763,173,197169
19.264,136746,174,197159
19.269,136733,172,197122
19.274,136722,172,197143
19.279,136698,178,197105
19.284,136690,178,197101
19.289,136682,177,197099
19.294,136673,176,197073
19.299,136673,171,197075
19.304,136656,179,197056
19.309,136651,176,197050
19.314,136636,176,197025
19.319,136643,175,197027
19.324,136629,177,197017
19.329,136620,176,197024
19.334,136620,177,197025
19.339,136612,176,197014
19.344,136627,176,197004
19.349,136616,172,197014
19.354,136646,172,197013
19.359,136639,172,197033
19.364,136638,173,197032
19.369,136642,172,197023
19.374,136630,172,197016
19.379,136636,171,197006
19.384,136624,173,197013
19.389,136624,172,196985
19.394,136615,172,196989
19.399,136621,173,197013
19.404,136621,174,197017
19.409,136628,173,197023
19.414,136623,173,197031
19.419,136620,172,197020
19.424,136615,174,197014
19.429,136615,173,197024
19.434,136608,172,197007
19.439,136605,171,197004
19.444,136603,177,196992
19.449,136600,175,196978
19.454,136601,175,196984
19.459,136580,173,196962
19.464,136576,174,196957
19.469,136582,173,196952
19.474,136581,173,196949
19.479,136572,172,196949
19.484,136557,174,196947
19.489,136572,174,196929
19.494,136569,177,196943
19.499,136570,176,196946
19.504,136567,177,196933
19.509,136570,176,196947
19.514,136587,176,196967
19.519,136576,175,196962
19.524,136574,176,196952
19.529,136579,176,196962
19.534,136586,176,196960
19.539,136589,174,196955
19.544,136602,171,196957
19.549,136593,177,196972
19.554,136615,177,196951
19.559,136617,176,196956
19.564,136624,177,196977
19.569,136619,176,196995
19.574,136622,176,197015
19.579,136636,174,197029
19.584,136645,175,197028
19.589,136653,175,197037
19.594,136665,172,197060
19.599,136670,177,197082
19.604,136675,177,197080
19.609,136693,177,197100
19.614,136699,177,197120
19.619,136710,176,197130
19.624,136729,176,197153
19.629,136757,177,197201
19.634,136775,176,197244
19.639,136803,177,197273
19.644,136815,176,197316
19.649,136831,176,197352
19.654,136872,177,197402
19.659,136885,176,197439
19.664,136916,177,197498
19.669,136923,177,197524
19.674,136967,177,197574
19.679,136997,176,197622
19.684,137022,176,197665
19.689,137061,179,197690
19.694,137104,171,197796
19.699,137135,172,197855
19.704,137151,178,197910
19.709,137189,172,197959
19.714,137212,171,198025
19.719,137242,171,198033
19.724,137260,171,198078
19.729,137273,173,198096
19.734,137293,172,198120
19.739,137302,174,198137
19.744,137316,174,198152
19.749,137332,175,198172
19.754,137332,174,198186
19.759,137358,173,198215
19.764,137362,173,198228
19.769,137369,174,198231
19.774,137373,172,198244
19.779,137391,173,198229
19.784,137379,172,198255
19.789,137390,176,198266
19.794,137414,176,198275
19.799,137416,175,198283
19.804,137435,175,198323
19.809,137436,176,198337
19.814,137456,175,198356
19.819,137464,176,198396
19.824,137482,175,198415
19.829,137496,177,198435
19.834,137510,176,198459
19.839,137531,174,198510
19.844,137546,174,198546
19.849,137578,175,198567
19.854,137588,174,198593
19.859,137617,173,198644
19.864,137643,172,198678
19.869,137666,173,198718
19.874,137694,172,198774
19.879,137708,172,198828
19.884,137748,172,198890
19.889,137777,175,198938
19.894,137802,174,198995
19.899,137839,174,199078
19.904,137872,173,199130
19.909,137915,175,199194
19.914,137930,173,199262
19.919,137975,173,199330
19.924,138015,172,199390
19.929,138037,173,199433
19.934,138060,172,199461
19.939,138083,171,199538
19.944,138107,171,199606
19.949,138128,179,199679
19.954,138148,177,199740
19.959,138151,177,199806
19.964,138172,177,199884
19.969,138184,178,199908
19.974,138201,176,199937
19.979,138187,176,199964
19.984,138240,171,200000
19.989,138208,173,200030
19.994,138213,172,200062
19.999,138225,172,200097
20.004,138214,177,200122
20.009,138226,178,200151
20.014,138222,176,200158
20.019,138212,175,200146
20.024,138215,174,200153
20.029,138195,175,200147
20.034,138190,177,200141
20.039,138179,176,200132
20.044,138162,175,200115
20.049,138146,176,200111
20.054,138135,174,200103
20.059,138108,175,200084
20.064,138101,173,200063
20.069,138090,175,200041
20.074,138061,173,200027
20.079,138041,173,200022
20.084,138016,174,199974
20.089,138000,175,199937
20.094,137962,173,199916
20.099,137940,173,199891
20.104,137921,172,199851
20.109,137888,173,199825
20.114,137872,172,199780
20.119,137827,172,199729
20.124,137802,171,199678
20.129,137758,171,199638
20.134,137733,174,199583
20.139,137691,174,199502
20.144,137628,173,199438
20.149,137605,173,199372
20.154,137570,172,199304
20.159,137524,171,199230
20.164,137470,170,199162
20.169,137445,177,199109
20.174,137410,176,199052
20.179,137387,175,198979
20.184,137346,172,198954
20.189,137327,173,198927
20.194,137316,171,198900
20.199,137293,172,198866
20.204,137292,170,198824
20.209,137289,178,198815
20.214,137279,176,198809
20.219,137273,176,198766
20.224,137255,174,198739
20.229,137260,180,198734
20.234,137244,176,198717
20.239,137253,176,198721
20.244,137227,174,198716
20.249,137238,174,198696
20.254,137226,173,198703
20.259,137208,173,198700
20.264,137218,171,198679
20.269,137204,172,198656
20.274,137203,171,198623
20.279,137212,174,198648
20.284,137204,172,198653
20.289,137204,173,198656
20.294,137233,172,198655
20.299,137243,172,198676
20.304,137238,171,198681
20.309,137238,171,198693
20.314,137231,178,198673
20.319,137229,178,198657
20.324,137231,176,198642
20.329,137226,172,198608
20.334,137210,171,198629
20.339,137200,177,198620
20.344,137195,176,198596
20.349,137214,176,198606
20.354,137204,175,198575
20.359,137199,174,198563
20.364,137182,174,198562
20.369,137183,173,198542
20.374,137181,174,198524
20.379,137191,172,198538
20.384,137199,172,198540
20.389,137180,172,198530
20.394,137209,172,198524
20.399,137218,171,198541
20.404,137214,171,198560
20.409,137244,171,198579
20.414,137252,172,198603
20.419,137277,178,198646
20.424,137294,178,198674
20.429,137314,172,198709
20.434,137329,174,198763
20.439,137347,173,198784
20.444,137368,172,198839
20.449,137400,172,198855
20.454,137421,172,198900
20.459,137431,171,198928
20.464,137448,171,198961
20.469,137462,177,198987
20.474,137468,172,199021
20.479,137484,172,199013
20.484,137472,172,199003
20.489,137481,172,199012
20.494,137471,173,198980
20.499,137471,173,198994
20.504,137478,172,198983
20.509,137483,172,198981
20.514,137464,173,198959
20.519,137464,171,198947
20.524,137460,172,198919
20.529,137453,173,198911
20.534,137447,174,198889
20.539,137441,173,198869
20.544,137446,173,198855
20.549,137445,172,198854
20.554,137441,174,198850
20.559,137444,172,198841
20.564,137447,172,198851
20.569,137453,171,198839
20.574,137472,175,198867
20.579,137471,174,198870
20.584,137485,173,198882
20.589,137510,173,198887
20.594,137494,173,198889
20.599,137511,172,198902
20.604,137537,172,198897
20.609,137542,171,198890
20.614,137557,172,198904
20.619,137573,178,198899
20.624,137589,173,198919
20.629,137597,172,198913
20.634,137618,173,198938
20.639,137624,171,198923
20.644,137644,172,198960
20.649,137648,171,198956
20.654,137658,179,198969
20.659,137681,177,198998
20.664,137687,177,199006
20.669,137689,176,198978
20.674,137698,173,198961
20.679,137686,172,198975
20.684,137673,171,198968
20.689,137675,170,198958
20.694,137671,179,198958
20.699,137686,177,198980
20.704,137700,177,198988
20.709,137704,175,198991
20.714,137715,176,198973
20.719,137722,175,198981
20.724,137730,174,198951
20.729,137722,172,198946
20.734,137745,173,198958
20.739,137754,172,198961
20.744,137767,173,198983
20.749,137778,171,199009
20.754,137813,171,199027
20.759,137822,171,199075
20.764,137858,178,199109
20.769,137887,171,199135
20.774,137909,175,199185
20.779,137918,174,199160
20.784,137913,174,199183
20.789,137907,173,199172
20.794,137904,173,199168
20.799,137900,173,199152
20.804,137904,173,199147
20.809,137884,172,199161
20.814,137880,173,199158
20.819,137864,174,199163
20.824,137848,175,199146
20.829,137844,173,199126
20.834,137818,173,199102
20.839,137792,172,199076
20.844,137776,171,199058
20.849,137741,170,199043
20.854,137722,178,199016
20.859,137692,176,198973
20.864,137666,176,198951
20.869,137637,170,198925
20.874,137621,178,198900
20.879,137595,177,198872
20.884,137569,176,198836
20.889,137565,175,198828
20.894,137543,175,198827
20.899,137542,174,198775
20.904,137533,175,198789
20.909,137530,173,198794
20.914,137529,173,198737
20.919,137513,175,198742
20.924,137487,174,198720
20.929,137502,172,198703
20.934,137487,173,198689
20.939,137477,172,198682
20.944,137484,172,198686
20.949,137458,176,198692
20.954,137458,176,198676
20.959,137447,176,198677
20.964,137451,175,198656
20.969,137440,176,198669
20.974,137428,176,198644
20.979,137421,175,198638
20.984,137420,175,198636
20.989,137408,173,198631
20.994,137409,173,198628
20.999,137403,174,198614
21.004,137393,172,198610
21.009,137385,172,198623
21.014,137376,174,198619
21.019,137370,175,198591
21.024,137366,175,198582
21.029,137371,174,198583
21.034,137366,173,198585
21.039,137360,174,198599
21.044,137366,174,198591
21.049,137373,174,198611
21.054,137366,174,198635
21.059,137373,175,198639
21.064,137356,183,198663
21.069,137394,175,198634
21.074,137395,175,198670
21.079,137399,176,198668
21.084,137399,174,198680
21.089,137417,174,198685
21.094,137424,173,198717
21.099,137428,174,198721
21.104,137443,173,198763
21.109,137423,173,198756
21.114,137450,177,198755
21.119,137445,173,198803
21.124,137455,172,198813
21.129,137471,173,198848
21.134,137452,173,198863
21.139,137476,173,198876
21.144,137475,173,198882
21.149,137470,172,198875
21.154,137456,172,198854
21.159,137461,174,198867
21.164,137465,177,198868
21.169,137459,177,198857
21.174,137440,176,198876
21.179,137447,179,198845
21.184,137454,177,198848
21.189,137452,177,198845
21.194,137444,176,198850
21.199,137426,178,198830
21.204,137433,176,198839
21.209,137421,176,198851
21.214,137430,171,198832
21.219,137429,172,198849
21.224,137431,172,198862
21.229,137428,171,198849
21.234,137431,171,198830
21.239,137427,172,198846
21.244,137421,171,198821
21.249,137428,171,198815
21.254,137422,171,198810
21.259,137423,173,198796
21.264,137423,173,198809
21.269,137422,173,198788
21.274,137419,173,198814
21.279,137438,174,198811
21.284,137429,173,198823
21.289,137426,174,198831
21.294,137436,173,198832
21.299,137434,174,198815
21.304,137414,174,198798
21.309,137449,176,198777
21.314,137447,173,198822
21.319,137450,174,198814
21.324,137464,173,198831
21.329,137463,173,198840
21.334,137465,172,198816
21.339,137452,173,198806
21.344,137461,172,198794
21.349,137455,172,198809
21.354,137471,171,198801
21.359,137462,176,198790
21.364,137481,175,198792
21.369,137482,175,198807
21.374,137474,175,198807
21.379,137485,176,198797
21.384,137464,175,198780
21.389,137461,176,198796
21.394,137472,175,198774
21.399,137471,178,198773
21.404,137478,177,198799
21.409,137483,173,198779
21.414,137486,172,198780
21.419,137493,174,198773
21.424,137499,174,198774
21.429,137507,174,198775
21.434,137523,173,198803
21.439,137525,175,198788
21.444,137531,174,198798
21.449,137530,175,198792
21.454,137546,174,198797
21.459,137548,172,198798
21.464,137562,172,198811
21.469,137564,172,198813
21.474,137563,171,198809
21.479,137570,172,198816
21.484,137578,171,198826
21.489,137579,172,198854
21.494,137602,171,198858
21.499,137614,173,198852
21.504,137625,172,198871
21.509,137624,171,198877
21.514,137625,170,198880
21.519,137639,178,198900
21.524,137669,177,198923
21.529,137661,177,198916
21.534,137685,170,198944
21.539,137690,171,198934
21.544,137702,171,198931
21.549,137704,171,198925
21.554,137707,169,198962
21.559,137738,174,198959
21.564,137721,174,198974
21.569,137736,174,198978
21.574,137748,173,198950
21.579,137737,174,198962
21.584,137728,173,198954
21.589,137712,174,198911
21.594,137709,172,198940
21.599,137694,173,198905
21.604,137662,176,198886
21.609,137653,177,198915
21.614,137639,176,198887
21.619,137630,172,198869
21.624,137614,171,198855
21.629,137598,172,198829
21.634,137579,170,198813
21.639,137560,171,198805
21.644,137556,171,198780
21.649,137530,172,198768
21.654,137525,173,198757
21.659,137512,174,198736
21.664,137511,174,198728
21.669,137496,174,198740
21.674,137487,173,198711
21.679,137468,174,198710
21.684,137465,174,198696
21.689,137455,173,198688
21.694,137436,172,198674
21.699,137440,173,198656
21.704,137425,175,198639
21.709,137418,175,198624
21.714,137390,174,198604
21.719,137403,174,198616
21.724,137389,174,198604
21.729,137370,174,198589
21.734,137354,174,198572
21.739,137332,174,198546
21.744,137330,174,198525
21.749,137311,174,198504
21.754,137289,176,198500
21.759,137280,176,198467
21.764,137263,177,198445
21.769,137238,176,198445
21.774,137238,176,198429
21.779,137221,176,198414
21.784,137211,176,198426
21.789,137209,175,198425
21.794,137186,175,198402
21.799,137186,174,198412
21.804,137187,172,198387
21.809,137154,171,198398
21.814,137162,172,198380
21.819,137158,171,198395
21.824,137153,172,198370
21.829,137152,172,198374
21.834,137139,172,198360
21.839,137138,171,198375
21.844,137122,172,198363
21.849,137125,173,198369
21.854,137128,174,198362
21.859,137117,175,198327
21.864,137095,177,198326
21.869,137081,176,198322
21.874,137088,175,198324
21.879,137089,175,198316
21.884,137080,176,198308
21.889,137063,175,198297
21.894,137071,175,198290
21.899,137083,172,198291
21.904,137055,175,198302
21.909,137045,174,198286
21.914,137045,174,198283
21.919,137038,174,198287
21.924,137033,175,198275
21.929,137032,174,198264
21.934,137024,174,198244
21.939,137014,173,198257
21.944,137018,175,198235
21.949,137000,171,198224
21.954,136990,178,198228
21.959,136991,171,198201
21.964,136994,172,198188
21.969,136959,171,198173
21.974,136966,171,198176
21.979,136955,171,198162
21.984,136958,172,198152
21.989,136954,171,198142
21.994,136960,172,198142
21.999,136941,174,198125
22.004,136940,174,198116
22.009,136942,175,198124
22.014,136931,174,198118
22.019,136924,174,198093
22.024,136933,176,198083
22.029,136931,176,198081
22.034,136925,177,198074
22.039,136938,175,198083
22.044,136946,172,198094
22.049,136925,172,198110
22.054,136941,172,198105
22.059,136944,172,198107
22.064,136950,173,198107
22.069,136944,172,198100
22.074,136949,172,198070
22.079,136943,172,198093
22.084,136938,173,198088
22.089,136935,173,198088
22.094,136964,176,198096
22.099,136945,175,198095
22.104,136948,177,198098
22.109,136931,177,198077
22.114,136940,176,198103
22.119,136934,175,198097
22.124,136944,176,198092
22.129,136939,175,198076
22.134,136926,175,198070
22.139,136936,174,198045
22.144,136922,172,198035
22.149,136922,171,198027
22.154,136917,172,198029
22.159,136913,170,198012
22.164,136905,178,197998
22.169,136901,177,198006
22.174,136916,177,198014
22.179,136915,176,198026
22.184,136911,178,198010
22.189,136915,171,198008
22.194,136902,176,198033
22.199,136914,171,198006
22.204,136916,172,198017
22.209,136919,171,198015
22.214,136918,171,198019
22.219,136920,171,198025
22.224,136933,172,198024
22.229,136951,172,198044
22.234,136950,173,198000
22.239,136949,172,197994
22.244,136941,172,197973
22.249,136953,172,197971
22.254,136951,173,197978
22.259,136966,172,197978
22.264,136987,173,197988
22.269,136992,173,198006
22.274,136989,173,198010
22.279,137011,172,198016
22.284,136990,174,198012
22.289,136965,174,197962
22.294,136956,174,197913
22.299,136927,176,197847
22.304,136887,171,197807
22.309,136864,171,197758
22.314,136829,172,197690
22.319,136795,171,197669
22.324,136767,173,197644
22.329,136762,173,197602
22.334,136719,174,197577
22.339,136739,175,197550
22.344,136669,171,197503
22.349,136634,171,197454
22.354,136606,172,197387
22.359,136565,171,197338
22.364,136535,172,197274
22.369,136516,172,197237
22.374,136504,172,197196
22.379,136491,172,197173
22.384,136475,173,197138
22.389,136490,176,197147
22.394,136498,176,197122
22.399,136513,175,197134
22.404,136516,176,197113
22.409,136518,176,197126
22.414,136518,176,197097
22.419,136507,176,197080
22.424,136490,175,197020
22.429,136478,175,196993
22.434,136444,175,196961
22.439,136439,171,196933
22.444,136440,171,196900
22.449,136409,172,196879
22.454,136403,171,196828
22.459,136392,171,196816
22.464,136381,171,196793
22.469,136362,171,196791
22.474,136367,178,196777
22.479,136360,177,196795
22.484,136352,175,196787
22.489,136359,173,196818
22.494,136364,172,196811
22.499,136369,172,196823
22.504,136360,171,196835
22.509,136372,172,196823
22.514,136373,171,196835
22.519,136382,171,196838
22.524,136395,171,196839
22.529,136398,172,196869
22.534,136403,171,196870
22.539,136434,173,196893
22.544,136436,173,196921
22.549,136446,174,196946
22.554,136445,173,196970
22.559,136461,173,196983
22.564,136471,173,197008
22.569,136480,174,197014
22.574,136473,173,197037
22.579,136472,173,197040
22.584,136488,177,197035
22.589,136473,173,197056
22.594,136484,172,197052
22.599,136490,173,197070
22.604,136485,172,197097
22.609,136491,173,197081
22.614,136502,172,197111
22.619,136493,172,197107
22.624,136497,172,197128
22.629,136505,174,197114
22.634,136507,176,197124
22.639,136501,172,197150
22.644,136514,172,197145
22.649,136506,173,197151
22.654,136515,172,197166
22.659,136535,173,197175
22.664,136548,172,197193
22.669,136566,174,197209
22.674,136572,173,197245
22.679,136575,173,197246
22.684,136592,175,197277
22.689,136607,176,197302
22.694,136621,175,197329
22.699,136626,175,197341
22.704,136632,175,197365
22.709,136657,176,197372
22.714,136651,175,197400
22.719,136676,176,197416
22.724,136679,175,197435
22.729,136693,178,197453
22.734,136711,173,197487
22.739,136711,173,197504
22.744,136722,172,197551
22.749,136744,173,197566
22.754,136757,173,197609
22.759,136768,172,197624
22.764,136790,172,197635
22.769,136798,173,197654
22.774,136795,173,197679
22.779,136808,172,197682
22.784,136826,174,197711
22.789,136842,177,197734
22.794,136873,176,197772
22.799,136878,176,197798
22.804,136886,176,197801
22.809,136913,177,197868
22.814,136909,177,197891
22.819,136949,177,197909
22.824,136968,176,197935
22.829,136983,171,197980
22.834,136997,174,197995
22.839,137020,174,198025
22.844,137030,173,198042
22.849,137040,175,198063
22.854,137057,173,198066
22.859,137063,174,198108
22.864,137070,172,198110
22.869,137090,173,198127
22.874,137097,172,198146
22.879,137124,176,198197
22.884,137132,175,198244
22.889,137169,176,198259
22.894,137181,175,198284
22.899,137200,174,198318
22.904,137209,173,198356
22.909,137233,174,198371
22.914,137257,173,198383
22.919,137256,173,198389
22.924,137268,171,198434
22.929,137284,175,198466
22.934,137313,174,198506
22.939,137334,174,198539
22.944,137366,173,198562
22.949,137378,175,198608
22.954,137416,175,198668
22.959,137428,176,198677
22.964,137448,175,198714
22.969,137460,176,198734
22.974,137477,175,198769
22.979,137486,171,198792
22.984,137492,170,198787
22.989,137500,171,198814
22.994,137498,170,198813
22.999,137522,171,198811
23.004,137507,171,198819
23.009,137519,171,198805
23.014,137531,171,198807
23.019,137524,172,198799
23.024,137516,171,198793
23.029,137539,177,198797
23.034,137529,177,198796
23.039,137551,176,198789
23.044,137535,176,198778
23.049,137547,176,198767
23.054,137538,176,198748
23.059,137499,176,198722
23.064,137486,175,198699
23.069,137473,176,198672
23.074,137430,177,198621
23.079,137409,174,198570
23.084,137366,174,198533
23.089,137340,174,198494
23.094,137302,174,198439
23.099,137260,175,198369
23.104,137228,175,198322
23.109,137204,177,198278
23.114,137157,177,198174
23.119,137118,177,198158
23.124,137095,173,198130
23.129,137062,175,198087
23.134,137046,175,198051
23.139,137023,175,198001
23.144,137013,175,198012
23.149,137006,175,197988
23.154,136979,175,197937
23.159,136951,175,197936
23.164,136943,175,197882
23.169,136929,175,197842
23.174,136911,172,197801
23.179,136888,172,197776
23.184,136866,172,197753
23.189,136864,172,197726
23.194,136837,174,197700
23.199,136821,173,197671
23.204,136815,173,197670
23.209,136795,172,197649
23.214,136785,174,197647
23.219,136770,173,197612
23.224,136755,176,197601
23.229,136746,175,197587
23.234,136736,176,197554
23.239,136707,176,197518
23.244,136700,176,197526
23.249,136681,174,197493
23.254,136659,177,197497
23.259,136665,176,197484
23.264,136651,176,197486
23.269,136645,176,197498
23.274,136644,173,197482
23.279,136660,172,197491
23.284,136650,172,197527
23.289,136650,173,197529
23.294,136666,174,197574
23.299,136664,173,197557
23.304,136676,173,197591
23.309,136680,173,197598
23.314,136691,175,197637
23.319,136710,174,197708
23.324,136744,173,197728
23.329,136765,173,197778
23.334,136789,174,197842
23.339,136818,173,197901
23.344,136850,174,197931
23.349,136875,174,197989
23.354,136907,176,198046
23.359,136945,175,198125
23.364,136973,175,198202
23.369,136990,169,198282
23.374,137045,172,198366
23.379,137076,171,198418
23.384,137114,171,198510
23.389,137136,171,198559
23.394,137182,172,198643
23.399,137205,171,198701
23.404,137226,172,198752
23.409,137262,171,198822
23.414,137282,173,198858
23.419,137299,175,198884
23.424,137297,176,198904
23.429,137309,175,198917
23.434,137319,176,198947
23.439,137313,175,198955
23.444,137336,176,198951
23.449,137322,174,198969
23.454,137337,176,198971
23.459,137323,176,198963
23.464,137315,176,198952
23.469,137313,172,198955
23.474,137312,173,198946
23.479,137298,172,198940
23.484,137298,173,198933
23.489,137280,171,198922
23.494,137276,173,198893
23.499,137279,173,198874
23.504,137264,173,198848
23.509,137235,172,198814
23.514,137206,173,198758
23.519,137173,175,198723
23.524,137157,176,198638
23.529,137137,174,198587
23.534,137092,176,198540
23.539,137067,175,198483
23.544,137037,175,198406
23.549,137010,175,198378
23.554,136974,175,198332
23.559,136957,175,198284
23.564,136931,176,198228
23.569,136909,171,198188
23.574,136883,172,198158
23.579,136876,172,198111
23.584,136854,172,198084
23.589,136847,171,198053
23.594,136836,172,198036
23.599,136817,173,197995
23.604,136809,172,197972
23.609,136791,172,197935
23.614,136765,180,197905
23.619,136759,175,197863
23.624,136756,175,197847
23.629,136743,173,197817
23.634,136747,174,197794
23.639,136733,172,197769
23.644,136744,173,197779
23.649,136767,171,197772
23.654,136758,172,197777
23.659,136751,171,197782
23.664,136759,174,197776
23.669,136767,172,197789
23.674,136779,173,197802
23.679,136795,173,197805
23.684,136797,173,197819
23.689,136819,173,197815
23.694,136827,173,197839
23.699,136827,173,197848
23.704,136832,173,197841
23.709,136848,172,197841
23.714,136870,171,197809
23.719,136872,174,197866
23.724,136881,175,197866
23.729,136886,173,197873
23.734,136895,174,197874
23.739,136907,174,197875
23.744,136903,174,197893
23.749,136903,173,197891
23.754,136894,173,197867
23.759,136903,173,197845
23.764,136894,175,197849
23.769,136890,175,197810
23.774,136872,175,197800
23.779,136862,174,197773
23.784,136851,174,197731
23.789,136843,173,197712
23.794,136853,173,197694
23.799,136834,173,197663
23.804,136826,173,197631
23.809,136815,173,197584
23.814,136816,175,197579
23.819,136801,176,197568
23.824,136796,176,197523
23.829,136781,176,197511
23.834,136764,175,197489
23.839,136744,176,197463
23.844,136746,176,197413
23.849,136712,176,197360
23.854,136705,176,197324
23.859,136656,174,197239
23.864,136642,172,197229
23.869,136607,172,197175
23.874,136580,172,197143
23.879,136556,173,197105
23.884,136521,172,197071
23.889,136490,172,197023
23.894,136462,171,196976
23.899,136453,172,196927
23.904,136413,171,196911
23.909,136402,173,196842
23.914,136361,173,196810
23.919,136325,173,196751
23.924,136295,173,196708
23.929,136293,173,196643
23.934,136263,172,196621
23.939,136257,173,196565
23.944,136223,173,196548
23.949,136201,173,196499
23.954,136184,173,196452
23.959,136179,177,196421
23.964,136148,176,196388
23.969,136133,176,196358
23.974,136128,175,196323
23.979,136126,177,196324
23.984,136116,176,196311
23.989,136116,176,196283
23.994,136097,176,196266
23.999,136075,172,196242
24.004,136080,171,196220
24.009,136085,175,196215
24.014,136074,174,196200
24.019,136082,176,196173
24.024,136076,174,196186
24.029,136066,174,196181
24.034,136066,174,196173
24.039,136075,176,196172
24.044,136082,175,196183
24.049,136083,175,196216
24.054,136102,174,196213
24.059,136089,171,196207
24.064,136095,171,196202
24.069,136090,171,196225
24.074,136092,170,196239
24.079,136079,171,196240
24.084,136102,170,196255
24.089,136114,171,196283
24.094,136116,170,196297
24.099,136140,172,196312
24.104,136133,172,196320
24.109,136161,173,196356
24.114,136145,172,196375
24.119,136155,173,196387
24.124,136192,172,196407
24.129,136202,172,196428
24.134,136209,172,196454
24.139,136243,173,196485
24.144,136246,172,196509
24.149,136264,173,196522
24.154,136289,175,196543
24.159,136286,173,196554
24.164,136311,172,196576
24.169,136312,172,196592
24.174,136342,171,196618
24.179,136339,172,196644
24.184,136364,171,196652
24.189,136372,171,196689
24.194,136396,170,196718
24.199,136402,171,196718
24.204,136412,173,196730
24.209,136400,177,196727
24.214,136412,176,196729
24.219,136409,177,196738
24.224,136421,176,196735
24.229,136427,176,196748
24.234,136432,175,196745
24.239,136434,177,196756
24.244,136434,176,196761
24.249,136431,177,196765
24.254,136440,172,196754
24.259,136462,173,196765
24.264,136464,173,196761
24.269,136476,173,196768
24.274,136485,173,196790
24.279,136502,174,196804
24.284,136519,173,196831
24.289,136528,174,196849
24.294,136555,173,196851
24.299,136579,173,196862
24.304,136585,173,196891
24.309,136591,173,196908
24.314,136617,173,196937
24.319,136659,174,196959
24.324,136661,174,196977
24.329,136692,175,197013
24.334,136713,174,197022
24.339,136724,176,197053
24.344,136751,176,197060
24.349,136776,177,197090
24.354,136780,174,197122
24.359,136794,176,197151
24.364,136827,176,197168
24.369,136840,176,197204
24.374,136853,175,197234
24.379,136881,177,197239
24.384,136898,177,197287
24.389,136919,171,197276
24.394,136933,170,197307
24.399,136953,174,197334
24.404,136951,170,197351
24.409,136967,177,197373
24.414,136982,176,197392
24.419,136987,177,197406
24.424,137005,177,197437
24.429,137017,171,197435
24.434,137017,170,197439
24.439,137036,171,197467
24.444,137042,171,197478
24.449,137051,173,197488
24.454,137068,175,197505
24.459,137068,176,197508
24.464,137079,176,197528
24.469,137080,176,197545
24.474,137090,176,197539
24.479,137102,176,197543
24.484,137100,176,197554
24.489,137113,177,197565
24.494,137114,176,197570
24.499,137142,173,197582
24.504,137121,176,197574
24.509,137139,176,197587
24.514,137132,176,197581
24.519,137136,176,197571
24.524,137141,176,197569
24.529,137131,175,197571
24.534,137125,174,197568
24.539,137138,175,197573
24.544,137130,176,197555
24.549,137130,171,197549
24.554,137113,172,197536
24.559,137111,172,197533
24.564,137085,173,197514
24.569,137065,172,197476
24.574,137067,172,197449
24.579,137051,173,197440
24.584,137052,173,197444
24.589,137029,172,197429
24.594,137030,172,197395
24.599,137012,174,197398
24.604,137009,176,197383
24.609,137014,175,197374
24.614,137007,174,197375
24.619,137006,174,197380
24.624,137017,175,197392
24.629,137022,174,197386
24.634,137018,175,197391
24.639,137018,175,197409
24.644,137014,177,197394
24.649,137029,171,197399
24.654,137044,171,197416
24.659,137038,171,197408
24.664,137072,173,197442
24.669,137074,172,197460
24.674,137086,171,197467
24.679,137093,172,197466
24.684,137105,173,197473
24.689,137121,172,197511
24.694,137149,174,197514
24.699,137143,173,197488
24.704,137133,174,197500
24.709,137131,173,197510
24.714,137129,173,197505
24.719,137132,171,197522
24.724,137144,173,197518
24.729,137152,172,197549
24.734,137154,172,197531
24.739,137163,171,197539
24.744,137149,175,197535
24.749,137149,173,197525
24.754,137131,173,197504
24.759,137110,172,197484
24.764,137092,173,197471
24.769,137073,172,197456
24.774,137070,172,197450
24.779,137048,171,197446
24.784,137034,173,197421
24.789,137006,171,197410
24.794,136988,174,197393
24.799,136967,173,197353
24.804,136966,174,197341
24.809,136949,173,197348
24.814,136948,172,197345
24.819,136933,172,197359
24.824,136923,172,197336
24.829,136925,171,197342
24.834,136900,171,197345
24.839,136905,176,197339
24.844,136914,176,197339
24.849,136912,174,197357
24.854,136912,174,197364
24.859,136919,173,197384
24.864,136918,174,197399
24.869,136930,173,197420
24.874,136920,173,197447
24.879,136952,172,197457
24.884,136955,174,197479
24.889,136941,174,197534
24.894,136980,176,197561
24.899,136977,175,197581
24.904,136977,177,197610
24.909,137010,176,197644
24.914,137021,177,197691
24.919,137032,170,197728
24.924,137032,171,197788
24.929,137048,171,197798
24.934,137048,171,197832
24.939,137059,176,197873
24.944,137059,175,197890
24.949,137078,175,197901
24.954,137078,174,197940
24.959,137076,173,197972
24.964,137090,174,198001
24.969,137090,174,198024
24.974,137098,174,198058
24.979,137114,173,198103
24.984,137145,175,198139
24.989,137145,171,198185
24.994,137157,171,198212
24.999,137168,170,198277
25.004,137173,171,198304
25.009,137181,171,198329
25.014,137186,172,198346
25.019,137187,171,198372
25.024,137204,173,198396
25.029,137205,172,198417
25.034,137216,173,198439
25.039,137215,174,198463
25.044,137222,175,198484
25.049,137239,174,198512
25.054,137242,174,198543
25.059,137269,172,198576
25.064,137278,173,198623
25.069,137295,172,198654
25.074,137297,171,198681
25.079,137315,171,198705
25.084,137336,171,198753
25.089,137341,173,198766
25.094,137361,172,198831
25.099,137378,172,198845
25.104,137366,171,198871
25.109,137373,171,198880
25.114,137375,171,198890
25.119,137385,176,198906
25.124,137382,176,198911
25.129,137390,175,198916
25.134,137394,175,198952
25.139,137415,174,198986
25.144,137421,174,199015
25.149,137441,173,199017
25.154,137434,173,199044
25.159,137449,173,199066
25.164,137442,172,199082
25.169,137461,173,199097
25.174,137465,172,199117
25.179,137454,172,199103
25.184,137472,171,199116
25.189,137450,175,199096
25.194,137452,175,199103
25.199,137461,174,199104
25.204,137451,173,199112
25.209,137443,173,199079
25.214,137453,173,199098
25.219,137442,172,199100
25.224,137437,172,199076
25.229,137442,172,199096
25.234,137441,173,199084
25.239,137429,173,199085
25.244,137423,173,199073
25.249,137434,174,199073
25.254,137429,174,199080
25.259,137433,173,199081
25.264,137432,173,199099
25.269,137433,174,199084
25.274,137427,173,199054
25.279,137409,173,199055
25.284,137400,171,199060
25.289,137408,171,199044
25.294,137398,171,199025
25.299,137407,177,199036
25.304,137391,176,199012
25.309,137379,178,198991
25.314,137382,177,198976
25.319,137373,177,198964
25.324,137358,170,198948
25.329,137357,172,198956
25.334,137340,176,198938
25.339,137336,171,198930
25.344,137351,170,198913
25.349,137344,171,198912
25.354,137335,176,198906
25.359,137337,176,198885
25.364,137335,175,198862
25.369,137321,176,198847
25.374,137315,175,198839
25.379,137307,175,198819
25.384,137304,171,198804
25.389,137301,172,198781
25.394,137296,171,198781
25.399,137289,172,198753
25.404,137281,171,198745
25.409,137269,172,198721
25.414,137262,171,198699
25.419,137255,172,198669
25.424,137239,171,198658
25.429,137233,172,198636
25.434,137226,173,198623
25.439,137229,173,198584
25.444,137213,173,198589
25.449,137233,174,198609
25.454,137244,172,198590
25.459,137235,173,198581
25.464,137235,172,198573
25.469,137247,173,198590
25.474,137248,172,198598
25.479,137260,174,198594
25.484,137263,173,198597
25.489,137255,174,198592
25.494,137267,174,198557
25.499,137246,173,198562
25.504,137243,172,198538
25.509,137239,174,198520
25.514,137229,172,198509
25.519,137233,173,198481
25.524,137239,172,198482
25.529,137224,171,198457
25.534,137206,172,198461
25.539,137208,172,198414
25.544,137205,171,198402
25.549,137198,172,198369
25.554,137194,171,198368
25.559,137176,171,198327
25.564,137162,170,198296
25.569,137155,171,198238
25.574,137139,170,198226
25.579,137132,175,198184
25.584,137124,174,198170
25.589,137117,175,198119
25.594,137122,174,198119
25.599,137096,174,198076
25.604,137087,173,198051
25.609,137076,174,198016
25.614,137073,174,197981
25.619,137068,173,197934
25.624,137053,173,197913
25.629,137050,172,197875
25.634,137040,171,197847
25.639,137032,171,197823
25.644,137014,171,197793
25.649,137024,173,197764
25.654,137009,172,197767
25.659,137002,172,197723
25.664,136996,171,197694
25.669,136986,173,197653
25.674,136978,174,197663
25.679,136971,172,197626
25.684,136969,171,197599
25.689,136949,171,197561
25.694,136923,171,197527
25.699,136904,172,197487
25.704,136873,171,197454
25.709,136849,171,197419
25.714,136836,171,197398
25.719,136800,171,197383
25.724,136758,171,197334
25.729,136757,173,197322
25.734,136736,173,197291
25.739,136712,173,197244
25.744,136692,172,197237
25.749,136670,173,197192
25.754,136656,172,197178
25.759,136637,173,197167
25.764,136638,172,197167
25.769,136620,173,197151
25.774,136612,175,197158
25.779,136625,175,197163
25.784,136633,174,197181
25.789,136632,174,197204
25.794,136661,174,197224
25.799,136657,174,197288
25.804,136692,173,197319
25.809,136727,174,197395
25.814,136766,174,197484
25.819,136799,175,197574
25.824,136869,173,197673
25.829,136892,175,197773
25.834,136958,175,197886
25.839,136996,175,197995
25.844,137043,175,198090
25.849,137090,175,198207
25.854,137137,175,198313
25.859,137190,175,198410
25.864,137238,175,198508
25.869,137261,175,198569
25.874,137297,171,198659
25.879,137323,170,198713
25.884,137316,170,198739
25.889,137338,170,198759
25.894,137336,171,198765
25.899,137322,177,198775
25.904,137309,177,198777
25.909,137295,176,198760
25.914,137288,177,198757
25.919,137272,177,198742
25.924,137269,172,198743
25.929,137257,172,198728
25.934,137242,173,198735
25.939,137248,172,198736
25.944,137225,172,198712
25.949,137200,171,198712
25.954,137206,172,198682
25.959,137204,172,198680
25.964,137185,172,198653
25.969,137167,174,198636
25.974,137173,172,198638
25.979,137167,171,198627
25.984,137150,171,198617
25.989,137147,170,198594
25.994,137136,172,198592
25.999,137150,171,198594
26.004,137130,170,198582
26.009,137141,177,198584
26.014,137143,177,198576
26.019,137129,172,198563
26.024,137121,173,198570
26.029,137116,172,198560
26.034,137094,173,198541
26.039,137096,172,198506
26.044,137074,172,198508
26.049,137076,171,198480
26.054,137055,172,198457
26.059,137040,171,198419
26.064,137015,171,198417
26.069,137000,173,198369
26.074,136989,174,198311
26.079,136949,173,198271
26.084,136924,173,198221
26.089,136898,173,198163
26.094,136890,174,198132
26.099,136868,173,198085
26.104,136849,173,198054
26.109,136839,173,198044
26.114,136854,177,198055
26.119,136824,172,198026
26.124,136826,172,198026
26.129,136811,171,198021
26.134,136815,173,198018
26.139,136838,172,198026
26.144,136825,173,198020
26.149,136847,172,198047
26.154,136868,172,198075
26.159,136878,171,198105
26.164,136884,171,198119
26.169,136913,173,198161
26.174,136931,174,198197
26.179,136958,173,198238
26.184,136959,173,198290
26.189,136999,171,198333
26.194,137022,173,198387
26.199,137046,172,198418
26.204,137077,172,198476
26.209,137097,171,198517
26.214,137128,173,198511
26.219,137146,174,198586
26.224,137164,173,198585
26.229,137166,172,198652
26.234,137192,173,198667
26.239,137207,172,198683
26.244,137202,172,198712
26.249,137215,170,198727
26.254,137227,171,198747
26.259,137255,177,198761
26.264,137273,172,198784
26.269,137278,173,198828
26.274,137292,174,198824
26.279,137319,173,198862
26.284,137327,172,198897
26.289,137345,171,198906
26.294,137360,172,198940
26.299,137372,171,198960
26.304,137377,171,198980
26.309,137406,175,199013
26.314,137407,172,199003
26.319,137416,171,199031
26.324,137413,171,199042
26.329,137409,170,199037
26.334,137423,177,199044
26.339,137422,176,199048
26.344,137429,175,199032
26.349,137421,174,199035
26.354,137420,173,199065
26.359,137409,172,199064
26.364,137407,174,199055
26.369,137410,173,199054
26.374,137408,173,199036
26.379,137426,172,199046
26.384,137421,172,199076
26.389,137433,170,199109
26.394,137455,171,199129
26.399,137481,171,199203
26.404,137528,171,199261
26.409,137557,170,199321
26.414,137571,173,199366
26.419,137605,173,199424
26.424,137622,173,199437
26.429,137642,171,199460
26.434,137661,172,199496
26.439,137695,171,199525
26.444,137705,171,199574
26.449,137728,171,199615
26.454,137734,172,199661
26.459,137774,173,199709
26.464,137803,174,199753
26.469,137813,173,199781
26.474,137831,174,199803
26.479,137844,174,199806
26.484,137860,175,199831
26.489,137874,174,199856
26.494,137898,174,199900
26.499,137918,174,199935
26.504,137931,174,199971
26.509,137941,173,199981
26.514,137976,176,200031
26.519,137984,176,200044
26.524,138003,175,200076
26.529,138018,174,200081
26.534,138041,174,200121
26.539,138050,174,200137
26.544,138049,173,200145
26.549,138080,172,200177
26.554,138093,172,200226
26.559,138100,175,200251
26.564,138114,174,200277
26.569,138127,174,200275
26.574,138107,173,200285
26.579,138114,173,200300
26.584,138090,173,200282
26.589,138112,172,200297
26.594,138102,172,200330
26.599,138100,172,200361
26.604,138104,171,200374
26.609,138100,174,200389
26.614,138100,173,200406
26.619,138084,173,200399
26.624,138089,172,200405
26.629,138082,171,200403
26.634,138082,170,200423
26.639,138070,172,200430
26.644,138068,170,200428
26.649,138067,170,200421
26.654,138058,170,200424
26.659,138053,177,200436
26.664,138044,176,200413
26.669,138053,176,200411
26.674,138019,174,200413
26.679,138021,176,200403
26.684,138008,174,200409
26.689,138018,173,200399
26.694,137999,172,200383
26.699,137986,173,200357
26.704,137980,172,200364
26.709,137962,177,200325
26.714,137957,175,200322
26.719,137951,176,200306
26.724,137929,175,200290
26.729,137921,175,200275
26.734,137900,174,200248
26.739,137892,175,200242
26.744,137874,174,200213
26.749,137869,173,200199
26.754,137875,171,200196
26.759,137854,177,200177
26.764,137846,175,200196
26.769,137835,174,200187
26.774,137820,173,200180
26.779,137810,174,200160
26.784,137795,172,200150
26.789,137800,172,200141
26.794,137777,171,200131
26.799,137776,171,200118
26.804,137769,171,200105
26.809,137768,171,200120
26.814,137748,170,200103
26.819,137750,176,200100
26.824,137754,173,200081
26.829,137740,173,200088
26.834,137739,171,200095
26.839,137744,171,200103
26.844,137750,177,200108
26.849,137755,175,200106
26.854,137754,170,200139
26.859,137752,177,200107
26.864,137758,175,200120
26.869,137758,174,200106
26.874,137766,172,200101
26.879,137755,173,200111
26.884,137756,172,200111
26.889,137754,172,200116
26.894,137749,170,200113
26.899,137753,172,200113
26.904,137749,173,200115
26.909,137745,173,200124
26.914,137742,171,200125
26.919,137748,173,200096
26.924,137739,172,200097
26.929,137726,173,200080
26.934,137740,172,200110
26.939,137730,173,200075
26.944,137719,172,200070
26.949,137713,172,200056
26.954,137697,173,200050
26.959,137706,175,200042
26.964,137697,174,200040
26.969,137695,175,200017
26.974,137689,173,200015
26.979,137676,174,200008
26.984,137686,173,199973
26.989,137689,173,199978
26.994,137687,173,199980
26.999,137687,177,199943
27.004,137676,171,199949
27.009,137663,171,199943
27.014,137670,170,199922
27.019,137659,172,199900
27.024,137654,172,199894
27.029,137657,173,199875
27.034,137658,171,199871
27.039,137660,173,199867
27.044,137653,173,199864
27.049,137651,175,199857
27.054,137649,174,199854
27.059,137647,170,199857
27.064,137640,170,199854
27.069,137649,171,199828
27.074,137645,170,199837
27.079,137640,172,199828
27.084,137642,171,199823
27.089,137647,172,199819
27.094,137650,171,199805
27.099,137650,177,199786
27.104,137646,171,199797
27.109,137644,171,199816
27.114,137644,171,199788
27.119,137646,171,199772
27.124,137641,172,199756
27.129,137641,172,199747
27.134,137630,171,199759
27.139,137635,172,199714
27.144,137627,173,199730
27.149,137638,175,199732
27.154,137629,174,199724
27.159,137628,174,199710
27.164,137619,174,199680
27.169,137621,174,199686
27.174,137628,173,199663
27.179,137621,173,199656
27.184,137618,174,199650
27.189,137617,174,199636
27.194,137614,174,199619
27.199,137615,171,199611
27.204,137605,171,199591
27.209,137621,171,199570
27.214,137606,171,199580
27.219,137611,171,199558
27.224,137610,171,199549
27.229,137615,171,199539
27.234,137602,171,199543
27.239,137602,171,199528
27.244,137622,172,199503
27.249,137616,173,199530
27.254,137601,173,199530
27.259,137612,173,199530
27.264,137626,174,199524
27.269,137621,173,199517
27.274,137619,174,199523
27.279,137636,174,199496
27.284,137657,175,199520
27.289,137640,175,199530
27.294,137684,171,199511
27.299,137658,171,199524
27.304,137659,172,199511
27.309,137658,172,199511
27.314,137657,172,199513
27.319,137665,172,199514
27.324,137661,173,199491
27.329,137662,173,199506
27.334,137661,172,199509
27.339,137668,173,199505
27.344,137687,172,199499
27.349,137683,170,199498
27.354,137680,170,199521
27.359,137696,170,199508
27.364,137709,178,199531
27.369,137700,176,199529
27.374,137708,176,199531
27.379,137735,175,199546
27.384,137722,176,199556
27.389,137727,175,199552
27.394,137736,171,199552
27.399,137751,171,199567
27.404,137767,172,199566
27.409,137753,172,199555
27.414,137768,172,199564
27.419,137757,171,199565
27.424,137760,173,199573
27.429,137777,172,199572
27.434,137762,172,199580
27.439,137755,171,199549
27.444,137756,176,199532
27.449,137728,175,199541
27.454,137716,176,199514
27.459,137696,176,199496
27.464,137684,177,199462
27.469,137660,170,199457
27.474,137627,170,199422
27.479,137601,170,199396
27.484,137585,171,199403
27.489,137560,171,199384
27.494,137538,173,199330
27.499,137519,173,199334
27.504,137499,174,199301
27.509,137470,173,199263
27.514,137462,173,199245
27.519,137445,172,199243
27.524,137433,174,199218
27.529,137406,173,199208
27.534,137388,174,199201
27.539,137408,172,199194
27.544,137376,171,199188
27.549,137352,171,199169
27.554,137351,172,199141
27.559,137338,171,199149
27.564,137332,173,199134
27.569,137317,173,199125
27.574,137304,173,199092
27.579,137288,172,199081
27.584,137280,173,199080
27.589,137254,176,199057
27.594,137246,176,199055
27.599,137231,176,199045
27.604,137232,171,199027
27.609,137223,170,199017
27.614,137212,170,199003
27.619,137198,170,198997
27.624,137194,172,199004
27.629,137173,172,199007
27.634,137175,172,198994
27.639,137172,174,198962
27.644,137147,176,198961
27.649,137155,175,198956
27.654,137136,176,198950
27.659,137133,175,198936
27.664,137113,177,198932
27.669,137111,175,198914
27.674,137099,176,198915
27.679,137096,175,198908
27.684,137100,171,198891
27.689,137077,172,198896
27.694,137084,173,198874
27.699,137067,173,198874
27.704,137069,174,198865
27.709,137058,174,198861
27.714,137047,175,198844
27.719,137050,174,198821
27.724,137030,175,198809
27.729,137043,175,198804
27.734,137030,176,198766
27.739,137015,171,198755
27.744,137004,173,198687
27.749,136992,172,198646
27.754,136953,172,198575
27.759,136920,172,198491
27.764,136885,173,198412
27.769,136863,173,198335
27.774,136817,174,198274
27.779,136794,173,198198
27.784,136767,174,198140
27.789,136727,173,198085
27.794,136692,173,198043
27.799,136689,173,198002
27.804,136671,175,197969
27.809,136660,176,197960
27.814,136642,176,197920
27.819,136621,176,197915
27.824,136612,170,197885
27.829,136593,171,197848
27.834,136587,174,197840
27.839,136574,170,197806
27.844,136562,171,197772
27.849,136557,171,197759
27.854,136533,171,197704
27.859,136512,171,197675
27.864,136498,172,197623
27.869,136492,172,197649
27.874,136489,173,197633
27.879,136471,173,197628
27.884,136470,171,197627
27.889,136464,171,197643
27.894,136464,171,197640
27.899,136461,172,197644
27.904,136433,174,197629
27.909,136428,175,197629
27.914,136433,176,197622
27.919,136427,170,197622
27.924,136419,171,197637
27.929,136422,172,197606
27.934,136426,171,197591
27.939,136425,171,197606
27.944,136406,171,197596
27.949,136422,172,197599
27.954,136415,172,197615
27.959,136413,173,197628
27.964,136419,172,197629
27.969,136425,173,197620
27.974,136438,172,197649
27.979,136424,172,197666
27.984,136421,174,197665
27.989,136418,175,197661
27.994,136412,174,197645
27.999,136416,174,197631
28.004,136409,173,197608
28.009,136393,175,197586
28.014,136380,174,197592
28.019,136386,173,197597
28.024,136386,173,197590
28.029,136367,177,197577
28.034,136378,175,197608
28.039,136386,176,197624
28.044,136374,175,197619
28.049,136380,176,197595
28.054,136371,175,197602
28.059,136381,175,197607
28.064,136379,174,197585
28.069,136362,175,197588
28.074,136355,174,197584
28.079,136367,170,197587
28.084,136364,171,197597
28.089,136350,172,197599
28.094,136369,172,197587
28.099,136339,173,197566
28.104,136339,173,197525
28.109,136336,175,197518
28.114,136334,174,197492
28.119,136325,174,197473
28.124,136316,173,197459
28.129,136322,171,197478
28.134,136310,176,197459
28.139,136319,177,197470
28.144,136322,176,197495
28.149,136327,171,197479
28.154,136334,171,197495
28.159,136326,171,197474
28.164,136321,171,197459
28.169,136326,172,197443
28.174,136323,170,197462
28.179,136311,175,197455
28.184,136331,174,197440
28.189,136328,175,197474
28.194,136346,174,197473
28.199,136347,175,197490
28.204,136343,174,197506
28.209,136355,176,197512
28.214,136356,175,197486
28.219,136340,176,197474
28.224,136347,176,197452
28.229,136359,177,197451
28.234,136332,171,197434
28.239,136338,171,197444
28.244,136345,171,197441
28.249,136352,172,197461
28.254,136358,171,197488
28.259,136387,172,197489
28.264,136394,171,197516
28.269,136398,173,197559
28.274,136402,173,197545
28.279,136430,176,197587
28.284,136415,175,197606
28.289,136421,176,197611
28.294,136433,176,197617
28.299,136447,171,197655
28.304,136466,170,197661
28.309,136467,172,197674
28.314,136477,171,197679
28.319,136475,173,197703
28.324,136493,175,197662
28.329,136447,177,197658
28.334,136440,170,197612
28.339,136417,171,197588
28.344,136396,170,197556
28.349,136389,172,197538
28.354,136355,171,197531
28.359,136333,171,197515
28.364,136311,171,197515
28.369,136285,172,197516
28.374,136269,174,197487
28.379,136261,174,197475
28.384,136241,173,197459
28.389,136213,175,197459
28.394,136196,174,197405
28.399,136192,175,197393
28.404,136183,173,197374
28.409,136144,176,197351
28.414,136136,175,197322
28.419,136118,176,197321
28.424,136110,171,197325
28.429,136115,173,197309
28.434,136091,172,197316
28.439,136088,173,197330
28.444,136080,172,197316
28.449,136059,173,197329
28.454,136060,172,197333
28.459,136046,173,197309
28.464,136050,172,197299
28.469,136033,173,197305
28.474,136035,171,197309
28.479,136042,171,197326
28.484,136032,170,197319
28.489,136028,171,197302
28.494,136025,171,197312
28.499,136011,171,197309
28.504,136008,170,197304
28.509,136008,170,197303
28.514,135997,170,197294
28.519,135987,171,197306
28.524,135987,175,197289
28.529,135967,177,197289
28.534,135961,176,197296
28.539,135951,170,197306
28.544,135960,176,197297
28.549,135954,170,197306
28.554,135959,176,197300
28.559,135948,176,197282
28.564,135942,175,197287
28.569,135944,169,197279
28.574,135947,171,197271
28.579,135931,171,197265
28.584,135934,170,197268
28.589,135927,171,197263
28.594,135923,171,197270
28.599,135932,171,197261
28.604,135938,171,197284
28.609,135936,171,197291
28.614,135954,171,197293
28.619,135951,174,197305
28.624,135958,173,197290
28.629,135954,173,197287
28.634,135965,173,197288
28.639,135957,173,197282
28.644,135951,172,197297
28.649,135962,172,197298
28.654,135980,172,197313
28.659,135968,172,197311
28.664,135988,172,197335
28.669,135979,174,197338
28.674,135979,174,197341
28.679,135982,173,197355
28.684,136000,173,197362
28.689,135993,173,197367
28.694,135997,173,197369
28.699,136002,172,197386
28.704,136006,172,197397
28.709,136014,172,197402
28.714,136016,173,197411
28.719,136016,175,197412
28.724,136016,174,197426
28.729,136014,174,197421
28.734,136047,175,197444
28.739,136060,174,197462
28.744,136062,174,197492
28.749,136080,173,197525
28.754,136088,175,197539
28.759,136112,174,197580
28.764,136105,174,197583
28.769,136122,170,197621
28.774,136126,171,197624
28.779,136130,170,197642
28.784,136145,170,197640
28.789,136141,176,197648
28.794,136150,177,197653
28.799,136163,176,197663
28.804,136166,177,197685
28.809,136193,170,197699
28.814,136186,170,197687
28.819,136199,175,197720
28.824,136221,174,197741
28.829,136213,173,197754
28.834,136226,174,197769
28.839,136232,173,197777
28.844,136252,172,197794
28.849,136258,171,197811
28.854,136261,173,197826
28.859,136273,171,197855
28.864,136288,174,197879
28.869,136301,173,197875
28.874,136308,175,197884
28.879,136321,173,197907
28.884,136317,173,197910
28.889,136317,172,197936
28.894,136342,173,197936
28.899,136345,173,197971
28.904,136356,173,197974
28.909,136361,171,198000
28.914,136392,177,198013
28.919,136397,171,198010
28.924,136402,171,198021
28.929,136426,170,198011
28.934,136420,171,198024
28.939,136431,171,198017
28.944,136439,171,198039
28.949,136434,170,198038
28.954,136448,171,198048
28.959,136451,170,198061
28.964,136463,173,198079
28.969,136460,172,198082
28.974,136482,173,198109
28.979,136503,172,198129
28.984,136496,172,198138
28.989,136521,171,198134
28.994,136524,172,198149
28.999,136543,171,198154
29.004,136538,172,198158
29.009,136556,170,198183
29.014,136570,175,198178
29.019,136560,174,198211
29.024,136575,174,198200
29.029,136590,173,198201
29.034,136585,173,198212
29.039,136606,172,198211
29.044,136596,172,198212
29.049,136619,171,198247
29.054,136633,172,198236
29.059,136628,174,198284
29.064,136639,174,198263
29.069,136652,173,198288
29.074,136660,175,198305
29.079,136681,174,198308
29.084,136670,174,198335
29.089,136698,173,198335
29.094,136706,174,198333
29.099,136703,174,198362
29.104,136712,173,198347
29.109,136709,179,198358
29.114,136716,171,198363
29.119,136726,170,198375
29.124,136744,176,198373
29.129,136749,174,198399
29.134,136749,174,198396
29.139,136774,173,198412
29.144,136761,172,198424
29.149,136767,171,198407
29.154,136776,172,198400
29.159,136794,175,198427
29.164,136799,174,198439
29.169,136814,172,198459
29.174,136831,173,198479
29.179,136820,173,198482
29.184,136843,172,198485
29.189,136845,171,198500
29.194,136856,171,198504
29.199,136848,171,198527
29.204,136855,171,198487
29.209,136837,172,198485
29.214,136835,173,198473
29.219,136811,172,198451
29.224,136800,172,198444
29.229,136787,171,198441
29.234,136768,172,198410
29.239,136755,171,198404
29.244,136717,172,198392
29.249,136722,171,198360
29.254,136696,171,198361
29.259,136679,174,198368
29.264,136662,174,198346
29.269,136648,173,198314
29.274,136631,173,198321
29.279,136621,173,198306
29.284,136609,173,198266
29.289,136587,172,198284
29.294,136588,171,198286
29.299,136574,171,198266
29.304,136572,172,198287
29.309,136570,174,198264
29.314,136564,174,198255
29.319,136555,174,198263
29.324,136540,174,198241
29.329,136525,173,198250
29.334,136533,173,198252
29.339,136530,173,198240
29.344,136524,172,198244
29.349,136510,171,198238
29.354,136523,173,198246
29.359,136506,171,198248
29.364,136497,171,198253
29.369,136509,171,198268
29.374,136510,170,198271
29.379,136495,171,198275
29.384,136496,171,198293
29.389,136503,171,198308
29.394,136523,171,198321
29.399,136527,172,198345
29.404,136510,174,198350
29.409,136520,174,198360
29.414,136507,174,198368
29.419,136525,175,198370
29.424,136511,174,198382
29.429,136511,174,198380
29.434,136506,174,198402
29.439,136504,177,198399
29.444,136511,176,198397
29.449,136496,170,198411
29.454,136501,172,198394
29.459,136505,173,198418
29.464,136504,172,198409
29.469,136507,172,198431
29.474,136526,171,198450
29.479,136525,173,198478
29.484,136529,171,198471
29.489,136536,171,198484
29.494,136542,171,198517
29.499,136549,172,198516
29.504,136548,174,198509
29.509,136554,174,198512
29.514,136564,174,198546
29.519,136553,175,198529
29.524,136568,174,198539
29.529,136571,174,198567
29.534,136575,174,198583
29.539,136582,175,198608
29.544,136582,174,198610
29.549,136588,174,198620
29.554,136583,170,198627
29.559,136595,177,198639
29.564,136586,176,198629
29.569,136592,175,198637
29.574,136590,173,198636
29.579,136575,176,198640
29.584,136596,175,198643
29.589,136584,174,198656
29.594,136595,173,198652
