df_hash,22ZHK4.1W3XND
device,HZ2X61
project_hash,29R7
project_name,istanbul_aydin_university
person_hash,29R7.Y4CB
person_label,V58
date_time_start,2025-10-31_15-16-19.977000_+03
date_time_start_unix,1761909379.977
date_time_end,2025-10-31_15-24-33.566000_+03
length_difference_noticed,no

time,ppg_ir,ppg_ambient,ppg_red
15.778,154102,639,124872
15.783,154107,637,124865
15.788,154112,638,124864
15.793,154125,636,124874
15.798,154124,637,124879
15.803,154128,636,124902
15.808,154134,632,124906
15.812,154150,633,124909
15.817,154142,634,124934
15.822,154159,632,124945
15.827,154155,634,124940
15.832,154147,633,124945
15.837,154145,632,124947
15.842,154144,631,124938
15.847,154158,632,124954
15.852,154124,623,124955
15.857,154144,626,124954
15.862,154116,625,124968
15.867,154108,626,124959
15.872,154107,625,124968
15.877,154103,627,124959
15.882,154098,626,124963
15.887,154083,627,124963
15.892,154089,619,124953
15.897,154082,619,124960
15.902,154062,617,124967
15.907,154065,621,124949
15.912,154052,621,124941
15.917,154045,619,124951
15.922,154041,618,124944
15.927,154029,620,124931
15.932,154021,620,124932
15.937,154017,620,124930
15.942,153996,619,124926
15.947,154006,621,124913
15.952,153993,613,124923
15.957,153986,615,124916
15.961,153978,614,124922
15.966,153973,615,124919
15.971,153966,615,124924
15.976,153947,613,124917
15.981,153942,612,124910
15.986,153934,613,124917
15.991,153941,613,124909
15.996,153924,611,124908
16.001,153919,609,124911
16.006,153915,608,124905
16.011,153908,610,124901
16.016,153908,607,124903
16.021,153900,608,124900
16.026,153900,606,124898
16.031,153872,608,124899
16.036,153879,606,124892
16.041,153869,606,124885
16.046,153864,606,124873
16.051,153858,611,124869
16.056,153862,604,124883
16.061,153848,604,124897
16.066,153868,603,124889
16.071,153842,605,124878
16.076,153858,601,124889
16.081,153854,603,124893
16.086,153836,602,124877
16.091,153841,602,124875
16.096,153828,600,124883
16.101,153820,603,124861
16.106,153836,602,124870
16.110,153828,606,124862
16.115,153826,602,124866
16.120,153810,604,124857
16.125,153815,603,124866
16.130,153815,605,124867
16.135,153811,602,124870
16.140,153813,602,124863
16.145,153820,601,124884
16.150,153807,598,124875
16.155,153808,597,124863
16.160,153809,597,124880
16.165,153799,597,124862
16.170,153788,598,124864
16.175,153811,597,124867
16.180,153805,598,124862
16.185,153791,597,124849
16.190,153777,601,124863
16.195,153790,591,124854
16.200,153796,594,124866
16.205,153793,595,124862
16.210,153798,597,124847
16.215,153787,595,124861
16.220,153788,597,124867
16.225,153794,595,124852
16.230,153793,598,124865
16.235,153787,595,124853
16.240,153791,597,124863
16.245,153786,593,124916
16.250,153795,596,124843
16.255,153789,586,124857
16.259,153787,586,124841
16.264,153787,585,124851
16.269,153781,589,124855
16.274,153801,585,124856
16.279,153805,588,124853
16.284,153805,586,124869
16.289,153794,589,124865
16.294,153778,589,124869
16.299,153795,591,124862
16.304,153800,588,124867
16.309,153811,593,124870
16.314,153816,589,124866
16.319,153806,583,124866
16.324,153811,580,124860
16.329,153797,584,124874
16.334,153811,580,124878
16.339,153812,582,124864
16.344,153820,581,124868
16.349,153819,585,124858
16.354,153819,582,124878
16.359,153823,583,124868
16.364,153848,346,124880
16.369,153830,375,124894
16.374,153833,389,124888
16.379,153829,399,124894
16.384,153833,405,124881
16.389,153846,414,124888
16.394,153840,423,124890
16.399,153838,429,124895
16.404,153832,432,124888
16.408,153839,438,124888
16.413,153839,439,124882
16.418,153842,442,124893
16.423,153850,444,124887
16.428,153848,448,124905
16.433,153850,448,124894
16.438,153856,452,124899
16.443,153875,446,124906
16.448,153860,449,124899
16.453,153874,449,124899
16.458,153872,451,124899
16.463,153881,450,124899
16.468,153873,718,124899
16.473,153876,675,124902
16.478,153891,659,124907
16.483,153897,642,124906
16.488,153895,639,124909
16.493,153902,632,124915
16.498,153907,629,124911
16.503,153914,623,124918
16.508,153921,622,124930
16.513,153920,608,124918
16.518,153921,607,124916
16.523,153918,602,124910
16.528,153930,604,124920
16.533,153924,600,124940
16.538,153918,596,124931
16.543,153942,597,124928
16.548,153947,601,124937
16.553,153946,595,124936
16.557,153965,595,124937
16.562,153949,591,124943
16.567,153964,593,124937
16.572,153961,590,124942
16.577,153976,590,124954
16.582,153967,586,124932
16.587,153980,583,124934
16.592,153990,580,124947
16.597,153973,580,124943
16.602,153979,577,124951
16.607,153981,579,124952
16.612,153991,576,124951
16.617,154003,577,124950
16.622,154008,575,124951
16.627,153993,577,124961
16.632,154003,575,124955
16.637,154007,567,124925
16.642,154011,575,124958
16.647,154028,576,124970
16.652,154032,575,124964
16.657,154055,575,124972
16.662,154042,573,124969
16.667,154048,575,124976
16.672,154053,571,124972
16.677,154071,572,124978
16.682,154061,575,124977
16.687,154067,570,124992
16.692,154071,569,124987
16.697,154070,571,124977
16.702,154068,571,124971
16.707,154074,572,124982
16.711,154089,573,124967
16.716,154082,566,124994
16.721,154098,564,124991
16.726,154113,567,124997
16.731,154109,565,124997
16.736,154114,569,125012
16.741,154111,568,125009
16.746,154113,570,125002
16.751,154131,569,125002
16.756,154132,568,125019
16.761,154143,568,125017
16.766,154156,569,125032
16.771,154154,568,125043
16.776,154152,568,125049
16.781,154188,560,125076
16.786,154182,561,125069
16.791,154182,561,125087
16.796,154190,560,125091
16.801,154176,559,125084
16.806,154177,560,125092
16.811,154175,561,125091
16.816,154173,559,125099
16.821,154168,558,125096
16.826,154150,557,125097
16.831,154144,561,125103
16.836,154137,559,125105
16.841,154151,557,125115
16.846,154144,557,125113
16.851,154128,558,125105
16.856,154125,555,125112
16.860,154109,557,125104
16.865,154104,557,125084
16.870,154103,557,125089
16.875,154079,555,125095
16.880,154091,558,125087
16.885,154079,558,125087
16.890,154074,558,125083
16.895,154062,556,125074
16.900,154052,556,125077
16.905,154053,556,125075
16.910,154043,555,125076
16.915,154037,553,125076
16.920,154021,551,125067
16.925,154016,551,125056
16.930,154007,558,125066
16.935,154014,556,125063
16.940,154018,554,125072
16.945,154008,553,125064
16.950,154001,556,125060
16.955,154002,553,125080
16.960,154002,554,125066
16.965,153981,552,125057
16.970,153995,554,125040
16.975,153961,551,125060
16.980,153941,551,125051
16.985,153954,549,125050
16.990,153952,552,125053
16.995,153963,551,125058
17.000,153943,550,125053
17.005,153933,549,125035
17.009,153938,552,125044
17.014,153932,548,125027
17.019,153938,551,125042
17.024,153931,556,125118
17.029,153933,554,125060
17.034,153960,552,125070
17.039,153957,552,125061
17.044,153942,551,125017
17.049,153923,552,125044
17.054,153927,550,125044
17.059,153919,550,125051
17.064,153919,548,125041
17.069,153906,551,125032
17.074,153920,549,125020
17.079,153915,551,125023
17.084,153909,549,125035
17.089,153910,552,125033
17.094,153895,549,125043
17.099,153898,549,125031
17.104,153913,549,125038
17.109,153906,550,125048
17.114,153890,547,125037
17.119,153905,548,125043
17.124,153903,541,125048
17.129,153909,544,125035
17.134,153901,543,125046
17.139,153901,543,125035
17.144,153898,542,125035
17.149,153892,546,125040
17.154,153884,542,125021
17.158,153893,543,125038
17.163,153901,540,125038
17.168,153899,543,125049
17.173,153898,545,125039
17.178,153894,545,125020
17.183,153910,545,125042
17.188,153891,548,125044
17.193,153916,545,125036
17.198,153908,547,125043
17.203,153899,545,125050
17.208,153900,547,125046
17.213,153908,545,125038
17.218,153920,545,125042
17.223,153912,537,125034
17.228,153908,540,125041
17.233,153909,537,125038
17.238,153904,538,125036
17.243,153911,536,125027
17.248,153904,540,125044
17.253,153911,535,125050
17.258,153914,538,125042
17.263,153912,536,125052
17.268,153925,539,125049
17.273,153922,539,125061
17.278,153932,542,125056
17.283,153942,539,125066
17.288,153920,542,125056
17.293,153931,539,125058
17.298,153945,541,125060
17.303,153944,538,125054
17.307,153932,541,125060
17.312,153946,538,125065
17.317,153960,537,125065
17.322,153958,540,125054
17.327,153962,543,125052
17.332,153952,540,125066
17.337,153957,541,125066
17.342,153956,537,125068
17.347,153970,541,125070
17.352,153968,539,125073
17.357,153968,540,125080
17.362,153974,311,125076
17.367,153977,339,125082
17.372,153977,357,125072
17.377,153975,368,125075
17.382,153976,374,125079
17.387,153982,381,125069
17.392,153993,385,125085
17.397,154003,390,125081
17.402,154004,392,125091
17.407,153990,396,125100
17.412,154012,398,125097
17.417,154006,405,125103
17.422,154004,405,125092
17.427,154023,411,125095
17.432,154016,411,125099
17.437,154029,415,125089
17.442,154019,415,125093
17.447,154027,419,125106
17.452,154015,419,125095
17.456,154048,421,125106
17.461,154046,421,125108
17.466,154049,419,125109
17.471,154053,658,125109
17.476,154039,626,125103
17.481,154056,606,125120
17.486,154048,597,125102
17.491,154068,586,125121
17.496,154062,581,125112
17.501,154066,575,125109
17.506,154073,572,125119
17.511,154078,567,125114
17.516,154079,567,125120
17.521,154096,563,125110
17.526,154084,561,125127
17.531,154090,559,125126
17.536,154103,557,125130
17.541,154115,554,125135
17.546,154114,553,125126
17.551,154111,552,125139
17.556,154118,549,125149
17.561,154132,548,125148
17.566,154143,551,125140
17.571,154142,550,125147
17.576,154135,549,125155
17.581,154148,549,125169
17.586,154151,547,125150
17.591,154152,547,125154
17.596,154165,545,125146
17.601,154169,545,125148
17.605,154175,545,125169
17.610,154175,549,125150
17.615,154186,543,125185
17.620,154185,542,125173
17.625,154204,542,125179
17.630,154198,541,125171
17.635,154205,541,125179
17.640,154211,540,125194
17.645,154224,539,125199
17.650,154219,540,125192
17.655,154228,539,125196
17.660,154217,542,125179
17.665,154218,543,125184
17.670,154228,543,125188
17.675,154238,541,125195
17.680,154259,540,125212
17.685,154258,540,125213
17.690,154258,541,125215
17.695,154275,539,125213
17.700,154253,537,125202
17.705,154281,537,125215
17.710,154272,542,125204
17.715,154289,540,125231
17.720,154298,539,125225
17.725,154310,536,125238
17.730,154299,538,125254
17.735,154316,536,125269
17.740,154335,536,125250
17.745,154328,535,125279
17.750,154348,536,125290
17.754,154332,534,125287
17.759,154337,538,125303
17.764,154327,537,125304
17.769,154339,538,125311
17.774,154334,535,125319
17.779,154342,536,125320
17.784,154324,533,125318
17.789,154322,536,125315
17.794,154316,533,125316
17.799,154305,536,125318
17.804,154296,534,125281
17.809,154289,531,125312
17.814,154291,527,125312
17.819,154274,527,125310
17.824,154277,525,125313
17.829,154258,528,125298
17.834,154249,526,125298
17.839,154245,526,125298
17.844,154242,525,125285
17.849,154229,526,125297
17.854,154287,527,125279
17.859,154227,529,125281
17.864,154211,526,125291
17.869,154219,528,125285
17.874,154204,526,125282
17.879,154204,527,125266
17.884,154202,526,125276
17.889,154194,529,125280
17.894,154196,526,125268
17.899,154184,527,125279
17.903,154190,528,125277
17.908,154180,530,125272
17.913,154172,526,125277
17.918,154154,527,125274
17.923,154158,525,125264
17.928,154160,528,125275
17.933,154157,526,125264
17.938,154156,526,125278
17.943,154149,524,125266
17.948,154136,527,125245
17.953,154141,528,125257
17.958,154134,530,125240
17.963,154134,528,125249
17.968,154138,531,125244
17.973,154132,527,125253
17.978,154128,529,125256
17.983,154137,527,125262
17.988,154135,528,125264
17.993,154134,526,125263
17.998,154132,522,125259
18.003,154128,520,125254
18.008,154119,522,125246
18.013,154105,518,125241
18.018,154105,521,125242
18.023,154112,517,125250
18.028,154097,520,125235
18.033,154109,527,125233
18.038,154114,528,125233
18.043,154110,525,125241
18.048,154106,528,125234
18.052,154109,523,125236
18.057,154112,524,125239
18.062,154104,522,125241
18.067,154117,525,125244
18.072,154118,522,125245
18.077,154111,523,125245
18.082,154095,519,125250
18.087,154099,522,125236
18.092,154094,519,125234
18.097,154097,533,125230
18.102,154100,517,125232
18.107,154115,519,125226
18.112,154094,516,125233
18.117,154104,516,125240
18.122,154111,524,125240
18.127,154093,526,125230
18.132,154095,523,125226
18.137,154097,525,125226
18.142,154103,522,125237
18.147,154096,520,125236
18.152,154095,517,125224
18.157,154111,520,125237
18.162,154102,516,125231
18.167,154090,519,125249
18.172,154085,516,125240
18.177,154104,517,125224
18.182,154101,514,125226
18.187,154113,518,125228
18.192,154101,515,125228
18.197,154113,520,125229
18.202,154108,517,125228
18.206,154124,520,125230
18.211,154108,518,125235
18.216,154123,519,125244
18.221,154117,515,125245
18.226,154116,518,125242
18.231,154113,515,125239
18.236,154125,517,125220
18.241,154124,515,125243
18.246,154131,520,125248
18.251,154128,519,125239
18.256,154118,519,125229
18.261,154134,517,125238
18.266,154127,518,125231
18.271,154136,517,125237
18.276,154139,515,125226
18.281,154129,512,125239
18.286,154143,513,125238
18.291,154148,521,125235
18.296,154153,514,125238
18.301,154134,513,125241
18.306,154148,514,125238
18.311,154166,511,125242
18.316,154154,521,125248
18.321,154165,518,125240
18.326,154166,518,125230
18.331,154177,517,125243
18.336,154168,516,125234
18.341,154173,518,125253
18.346,154176,518,125236
18.351,154191,516,125245
18.355,154173,517,125228
18.360,154196,276,125253
18.365,154182,319,125253
18.370,154171,337,125240
18.375,154200,349,125237
18.380,154189,356,125245
18.385,154210,361,125242
18.390,154189,371,125251
18.395,154208,373,125247
18.400,154196,374,125248
18.405,154213,379,125258
18.410,154213,392,125256
18.415,154218,393,125260
18.420,154221,393,125248
18.425,154232,394,125267
18.430,154223,396,125256
18.435,154235,396,125264
18.440,154236,402,125263
18.445,154232,402,125266
18.450,154249,404,125270
18.455,154245,404,125269
18.460,154269,406,125273
18.465,154460,723,125266
18.470,154272,629,125276
18.475,154283,601,125279
18.480,154285,584,125299
18.485,154281,575,125283
18.490,154287,566,125287
18.495,154297,562,125277
18.500,154300,557,125292
18.504,154309,553,125284
18.509,154299,552,125292
18.514,154311,549,125296
18.519,154308,547,125305
18.524,154311,543,125305
18.529,154319,545,125300
18.534,154336,541,125315
18.539,154332,535,125311
18.544,154343,533,125310
18.549,154337,534,125298
18.554,154345,531,125312
18.559,154346,529,125302
18.564,154351,536,125300
18.569,154359,537,125307
18.574,154374,532,125319
18.579,154377,530,125329
18.584,154384,529,125345
18.589,154379,533,125330
18.594,154391,529,125331
18.599,154384,528,125328
18.604,154407,526,125332
18.609,154400,526,125332
18.614,154408,524,125335
18.619,154419,523,125354
18.624,154425,521,125366
18.629,154437,522,125383
18.634,154463,517,125400
18.639,154450,521,125409
18.644,154450,518,125399
18.649,154453,528,125408
18.653,154441,525,125403
18.658,154453,524,125416
18.663,154448,520,125425
18.668,154450,522,125428
18.673,154450,518,125435
18.678,154428,518,125436
18.683,154434,519,125436
18.688,154406,521,125431
18.693,154419,517,125444
18.698,154419,518,125441
18.703,154410,515,125433
18.708,154388,517,125432
18.713,154375,511,125451
18.718,154379,514,125441
18.723,154369,521,125430
18.728,154375,524,125437
18.733,154362,512,125437
18.738,154362,515,125430
18.743,154357,512,125411
18.748,154348,516,125422
18.753,154347,512,125423
18.758,154340,513,125424
18.763,154346,509,125422
18.768,154332,522,125419
18.773,154338,518,125431
18.778,154326,521,125445
18.783,154321,516,125421
18.788,154322,516,125427
18.793,154309,514,125427
18.798,154304,517,125415
18.802,154295,514,125417
18.807,154308,517,125419
18.812,154296,517,125409
18.817,154275,517,125405
18.822,154268,516,125398
18.827,154278,518,125397
18.832,154275,511,125408
18.837,154266,512,125403
18.842,154260,510,125386
18.847,154260,513,125379
18.852,154239,510,125382
18.857,154237,512,125356
18.862,154237,511,125380
18.867,154244,513,125378
18.872,154247,511,125392
18.877,154249,523,125390
18.882,154266,505,125400
18.887,154254,507,125397
18.892,154248,504,125395
18.897,154237,506,125398
18.902,154243,505,125396
18.907,154228,508,125382
18.912,154222,506,125372
18.917,154231,508,125358
18.922,154230,504,125382
18.927,154212,510,125362
18.932,154218,508,125372
18.937,154218,509,125370
18.942,154208,506,125360
18.947,154212,509,125366
18.951,154211,506,125369
18.956,154209,507,125369
18.961,154213,504,125369
18.966,154214,508,125363
18.971,154206,504,125371
18.976,154215,510,125358
18.981,154211,510,125367
18.986,154202,514,125385
18.991,154212,501,125369
18.996,154204,504,125355
19.001,154214,501,125367
19.006,154203,513,125365
19.011,154202,512,125368
19.016,154196,512,125366
19.021,154201,511,125369
19.026,154199,506,125363
19.031,154217,504,125377
19.036,154201,505,125376
19.041,154226,502,125383
19.046,154203,504,125357
19.051,154193,503,125366
19.056,154206,504,125382
19.061,154214,502,125370
19.066,154199,503,125369
19.071,154214,503,125367
19.076,154215,507,125351
19.081,154211,506,125346
19.086,154207,505,125351
19.091,154196,504,125352
19.096,154205,506,125376
19.100,154200,503,125360
19.105,154219,506,125376
19.110,154215,503,125364
19.115,154220,503,125368
19.120,154215,501,125355
19.125,154219,507,125359
19.130,154213,504,125370
19.135,154223,505,125369
19.140,154225,504,125360
19.145,154214,505,125366
19.150,154243,504,125376
19.155,154245,505,125364
19.160,154237,503,125367
19.165,154234,505,125370
19.170,154239,508,125370
19.175,154233,504,125377
19.180,154254,501,125367
19.185,154252,505,125361
19.190,154254,504,125376
19.195,154252,503,125371
19.200,154253,504,125382
19.205,154249,503,125365
19.210,154251,502,125383
19.215,154261,501,125369
19.220,154271,505,125372
19.225,154262,504,125376
19.230,154263,506,125378
19.235,154279,504,125374
19.240,154271,503,125366
19.245,154278,504,125376
19.249,154288,506,125373
19.254,154270,505,125365
19.259,154279,505,125370
19.264,154288,504,125375
19.269,154293,498,125387
19.274,154285,507,125384
19.279,154296,508,125382
19.284,154294,505,125376
19.289,154294,506,125376
19.294,154308,503,125395
19.299,154320,504,125376
19.304,154305,504,125391
19.309,154317,504,125387
19.314,154312,505,125396
19.319,154320,508,125394
19.324,154335,506,125390
19.329,154319,509,125388
19.334,154332,505,125413
19.339,154331,505,125395
19.344,154342,503,125403
19.349,154336,504,125397
19.354,154344,502,125399
19.359,154355,490,125432
19.364,154367,302,125416
19.369,154358,333,125411
19.374,154376,344,125411
19.379,154372,353,125407
19.384,154369,357,125403
19.389,154388,363,125413
19.394,154372,365,125414
19.398,154384,367,125413
19.403,154382,368,125410
19.408,154386,370,125426
19.413,154378,378,125415
19.418,154411,380,125427
19.423,154399,381,125417
19.428,154415,384,125413
19.433,154403,382,125421
19.438,154418,385,125425
19.443,154421,386,125425
19.448,154415,389,125420
19.453,154433,388,125411
19.458,154419,391,125416
19.463,154420,394,125412
19.468,154417,627,125399
19.473,154411,589,125400
19.478,154434,573,125402
19.483,154441,559,125396
19.488,154447,554,125408
19.493,154457,546,125427
19.498,154455,542,125409
19.503,154458,536,125423
19.508,154470,536,125415
19.513,154464,534,125415
19.518,154463,534,125429
19.523,154484,529,125431
19.528,154476,530,125430
19.533,154489,525,125450
19.538,154500,524,125454
19.543,154506,520,125473
19.547,154523,519,125487
19.552,154527,517,125475
19.557,154516,517,125476
19.562,154532,512,125488
19.567,154519,516,125498
19.572,154515,513,125498
19.577,154512,513,125513
19.582,154514,510,125509
19.587,154506,512,125506
19.592,154506,510,125505
19.597,154498,511,125516
19.602,154488,508,125517
19.607,154480,510,125514
19.612,154467,506,125519
19.617,154468,507,125516
19.622,154466,504,125510
19.627,154457,509,125502
19.632,154433,506,125496
19.637,154419,508,125496
19.642,154421,505,125503
19.647,154414,507,125498
19.652,154416,505,125491
19.657,154419,514,125540
19.662,154412,507,125480
19.667,154398,510,125485
19.672,154384,506,125476
19.677,154388,508,125481
19.682,154380,504,125477
19.687,154371,506,125469
19.692,154374,503,125443
19.697,154377,505,125471
19.701,154359,501,125470
19.706,154357,507,125461
19.711,154347,506,125462
19.716,154337,508,125468
19.721,154328,504,125464
19.726,154336,509,125471
19.731,154327,505,125455
19.736,154316,508,125440
19.741,154306,505,125448
19.746,154313,508,125458
19.751,154313,506,125456
19.756,154314,501,125447
19.761,154286,500,125442
19.766,154299,503,125445
19.771,154280,502,125430
19.776,154275,502,125427
19.781,154280,502,125427
19.786,154255,504,125430
19.791,154279,503,125443
19.796,154285,505,125437
19.801,154279,495,125463
19.806,154274,501,125440
19.811,154273,500,125434
19.816,154267,501,125452
19.821,154271,501,125446
19.826,154277,504,125437
19.831,154250,504,125429
19.836,154265,495,125429
19.841,154260,494,125429
19.846,154257,497,125438
19.850,154256,496,125426
19.855,154256,496,125428
19.860,154262,494,125435
19.865,154260,497,125442
19.870,154268,495,125433
19.875,154258,497,125435
19.880,154258,494,125432
19.885,154263,498,125446
19.890,154260,495,125438
19.895,154248,497,125431
19.900,154261,495,125460
19.905,154255,500,125430
19.910,154259,498,125430
19.915,154243,501,125428
19.920,154239,499,125433
19.925,154251,500,125429
19.930,154238,500,125434
19.935,154253,501,125437
19.940,154244,501,125428
19.945,154248,492,125421
19.950,154224,490,125431
19.955,154256,495,125441
19.960,154257,496,125439
19.965,154252,497,125435
19.970,154253,497,125429
19.975,154236,498,125422
19.980,154244,498,125429
19.985,154260,498,125434
19.990,154260,498,125432
19.995,154272,497,125434
19.999,154261,492,125436
20.004,154267,493,125437
20.009,154254,493,125430
20.014,154251,493,125434
20.019,154248,491,125439
20.024,154264,491,125435
20.029,154255,492,125437
20.034,154262,491,125441
20.039,154262,492,125440
20.044,154265,492,125431
20.049,154272,498,125435
20.054,154267,496,125445
20.059,154275,496,125439
20.064,154266,497,125446
20.069,154275,496,125431
20.074,154290,495,125441
20.079,154285,495,125452
20.084,154289,494,125446
20.089,154292,495,125446
20.094,154291,500,125443
20.099,154285,499,125439
20.104,154299,497,125455
20.109,154290,489,125450
20.114,154302,490,125454
20.119,154294,490,125443
20.124,154314,490,125459
20.129,154309,492,125448
20.134,154303,492,125453
20.139,154319,493,125456
20.144,154300,491,125457
20.148,154330,498,125455
20.153,154326,497,125450
20.158,154317,489,125459
20.163,154342,488,125456
20.168,154325,491,125460
20.173,154345,489,125462
20.178,154334,490,125462
20.183,154352,489,125454
20.188,154336,492,125460
20.193,154349,489,125459
20.198,154363,495,125456
20.203,154363,492,125460
20.208,154363,496,125460
20.213,154358,495,125474
20.218,154363,496,125470
20.223,154377,494,125473
20.228,154384,498,125468
20.233,154384,496,125479
20.238,154380,486,125470
20.243,154385,489,125483
20.248,154409,491,125492
20.253,154415,490,125484
20.258,154398,492,125473
20.263,154393,490,125474
20.268,154408,493,125470
20.273,154405,490,125491
20.278,154414,491,125482
20.283,154417,492,125492
20.288,154415,492,125487
20.293,154447,487,125492
20.297,154436,489,125490
20.302,154430,488,125496
20.307,154448,491,125503
20.312,154445,488,125504
20.317,154453,489,125495
20.322,154467,488,125506
20.327,154455,490,125492
20.332,154462,489,125506
20.337,154461,490,125500
20.342,154460,492,125502
20.347,154487,495,125516
20.352,154478,493,125517
20.357,154478,494,125511
20.362,154491,294,125519
20.367,154487,322,125531
20.372,154508,334,125518
20.377,154497,346,125519
20.382,154493,352,125525
20.387,154515,361,125539
20.392,154510,354,125539
20.397,154527,359,125547
20.402,154532,360,125546
20.407,154533,366,125545
20.412,154539,366,125538
20.417,154537,370,125533
20.422,154544,369,125538
20.427,154540,374,125546
20.432,154553,373,125549
20.437,154557,381,125555
20.442,154581,380,125575
20.446,154596,385,125589
20.451,154585,384,125598
20.456,154594,386,125610
20.461,154595,385,125613
20.466,154602,627,125605
20.471,154610,581,125614
20.476,154613,563,125625
20.481,154578,549,125620
20.486,154605,537,125615
20.491,154585,535,125629
20.496,154593,531,125630
20.501,154583,520,125635
20.506,154573,524,125631
20.511,154577,524,125626
20.516,154554,517,125631
20.521,154567,511,125629
20.526,154541,513,125629
20.531,154538,508,125622
20.536,154531,508,125630
20.541,154540,511,125628
20.546,154525,511,125615
20.551,154513,508,125617
20.556,154514,508,125613
20.561,154506,505,125612
20.566,154495,507,125612
20.571,154503,504,125591
20.576,154495,505,125604
20.581,154485,501,125602
20.586,154482,498,125590
20.591,154471,499,125594
20.595,154466,500,125589
20.600,154471,496,125589
20.605,154477,500,125588
20.610,154460,496,125591
20.615,154460,497,125592
20.620,154442,496,125583
20.625,154457,498,125581
20.630,154453,496,125593
20.635,154438,502,125583
20.640,154424,500,125577
20.645,154423,493,125579
20.650,154420,490,125577
20.655,154429,491,125583
20.660,154424,499,125574
20.665,154415,502,125571
20.670,154385,498,125556
20.675,154408,500,125561
20.680,154404,498,125584
20.685,154410,492,125570
20.690,154405,491,125570
20.695,154405,491,125583
20.700,154426,489,125588
20.705,154411,492,125578
20.710,154405,492,125578
20.715,154403,491,125582
20.720,154391,490,125569
20.725,154397,492,125567
20.730,154364,489,125561
20.735,154385,497,125566
20.740,154389,496,125565
20.744,154390,497,125561
20.749,154384,486,125555
20.754,154384,497,125552
20.759,154388,486,125562
20.764,154386,487,125563
20.769,154382,487,125562
20.774,154392,486,125563
20.779,154385,491,125567
20.784,154393,491,125560
20.789,154381,491,125564
20.794,154395,492,125560
20.799,154389,491,125561
20.804,154383,491,125557
20.809,154368,490,125540
20.814,154381,491,125549
20.819,154385,490,125549
20.824,154367,491,125529
20.829,154369,486,125546
20.834,154366,485,125539
20.839,154379,485,125542
20.844,154368,485,125532
20.849,154373,486,125541
20.854,154367,485,125529
20.859,154378,484,125544
20.864,154368,485,125538
20.869,154368,485,125535
20.874,154366,492,125541
20.879,154370,489,125537
20.884,154382,489,125533
20.889,154361,491,125529
20.893,154378,490,125517
20.898,154367,490,125523
20.903,154391,490,125528
20.908,154375,491,125535
20.913,154385,490,125524
20.918,154383,490,125532
20.923,154376,489,125528
20.928,154383,484,125526
20.933,154391,483,125537
20.938,154391,482,125541
20.943,154387,482,125538
20.948,154379,484,125540
20.953,154399,483,125547
20.958,154394,484,125533
20.963,154393,482,125527
20.968,154408,485,125538
20.973,154402,478,125534
20.978,154406,481,125543
20.983,154421,480,125557
20.988,154411,484,125537
20.993,154410,481,125540
20.998,154407,481,125548
21.003,154422,480,125544
21.008,154426,482,125546
21.013,154437,479,125548
21.018,154426,480,125536
21.023,154430,482,125539
21.028,154438,486,125541
21.033,154444,484,125545
21.038,154434,484,125550
21.043,154439,484,125548
21.047,154439,485,125547
21.052,154450,484,125553
21.057,154467,487,125558
21.062,154471,485,125566
21.067,154457,486,125548
21.072,154490,481,125548
21.077,154475,484,125555
21.082,154468,483,125560
21.087,154471,486,125560
21.092,154474,484,125564
21.097,154479,484,125561
21.102,154471,483,125566
21.107,154489,485,125553
21.112,154488,483,125563
21.117,154489,485,125553
21.122,154513,478,125561
21.127,154497,481,125560
21.132,154502,478,125569
21.137,154483,480,125562
21.142,154514,478,125573
21.147,154505,481,125581
21.152,154517,477,125559
21.157,154512,480,125585
21.162,154531,478,125590
21.167,154524,482,125579
21.172,154533,485,125583
21.177,154542,478,125581
21.182,154555,477,125582
21.187,154549,480,125588
21.192,154547,479,125576
21.196,154538,481,125589
21.201,154570,478,125572
21.206,154568,481,125587
21.211,154573,478,125594
21.216,154575,485,125560
21.221,154581,482,125584
21.226,154583,484,125611
21.231,154593,482,125602
21.236,154598,483,125593
21.241,154602,482,125600
21.246,154615,486,125594
21.251,154607,483,125600
21.256,154604,485,125591
21.261,154603,484,125595
21.266,154608,480,125599
21.271,154632,478,125605
21.276,154619,481,125620
21.281,154646,480,125623
21.286,154651,482,125611
21.291,154640,479,125622
21.296,154653,480,125627
21.301,154668,479,125625
21.306,154647,484,125624
21.311,154670,482,125629
21.316,154682,480,125647
21.321,154697,477,125653
21.326,154683,481,125657
21.331,154699,478,125659
21.336,154704,483,125677
21.341,154702,481,125686
21.345,154698,486,125685
21.350,154708,483,125688
21.355,154719,474,125703
21.360,154719,473,125700
21.365,154717,483,125698
21.370,154690,281,125710
21.375,154701,310,125715
21.380,154699,323,125716
21.385,154697,337,125717
21.390,154694,341,125716
21.395,154682,348,125708
21.400,154683,353,125719
21.405,154666,358,125713
21.410,154676,361,125711
21.415,154647,363,125701
21.420,154641,365,125705
21.425,154645,370,125701
21.430,154635,371,125696
21.435,154628,375,125701
21.440,154627,376,125683
21.445,154615,368,125684
21.450,154617,369,125675
21.455,154631,373,125675
21.460,154597,374,125676
21.465,154596,381,125677
21.470,154593,383,125677
21.475,154590,627,125670
21.480,154601,577,125679
21.485,154592,558,125675
21.490,154604,544,125668
21.494,154595,537,125679
21.499,154580,521,125684
21.504,154587,518,125671
21.509,154575,502,125666
21.514,154582,515,125687
21.519,154567,511,125676
21.524,154579,511,125671
21.529,154577,508,125665
21.534,154576,508,125637
21.539,154545,505,125641
21.544,154550,507,125649
21.549,154557,504,125635
21.554,154555,505,125665
21.559,154557,495,125656
21.564,154556,497,125678
21.569,154559,496,125678
21.574,154559,495,125671
21.579,154568,493,125673
21.584,154559,493,125668
21.589,154554,491,125667
21.594,154557,492,125662
21.599,154553,492,125654
21.604,154552,492,125653
21.609,154554,496,125649
21.614,154546,496,125656
21.619,154532,494,125647
21.624,154545,494,125647
21.629,154558,494,125652
21.634,154556,494,125670
21.639,154546,484,125663
21.643,154539,486,125678
21.648,154552,486,125688
21.653,154568,488,125674
21.658,154547,484,125675
21.663,154539,484,125657
21.668,154554,485,125669
21.673,154542,484,125664
21.678,154559,484,125669
21.683,154566,484,125665
21.688,154558,483,125659
21.693,154544,482,125664
21.698,154560,483,125684
21.703,154553,482,125671
21.708,154558,486,125675
21.713,154558,487,125667
21.718,154578,485,125668
21.723,154547,486,125656
21.728,154558,488,125669
21.733,154557,487,125668
21.738,154560,488,125659
21.743,154574,487,125662
21.748,154571,489,125663
21.753,154572,497,125664
21.758,154566,481,125666
21.763,154582,480,125658
21.768,154579,483,125662
21.773,154580,481,125668
21.778,154556,481,125645
21.783,154565,483,125655
21.788,154582,485,125669
21.792,154579,481,125676
21.797,154577,481,125679
21.802,154593,486,125667
21.807,154599,478,125682
21.812,154602,478,125677
21.817,154601,479,125687
21.822,154588,479,125678
21.827,154606,481,125680
21.832,154608,480,125689
21.837,154612,480,125678
21.842,154601,479,125684
21.847,154610,481,125687
21.852,154616,483,125690
21.857,154621,484,125689
21.862,154625,482,125696
21.867,154622,485,125689
21.872,154625,483,125697
21.877,154634,483,125689
21.882,154622,480,125700
21.887,154639,484,125700
21.892,154645,480,125701
21.897,154639,482,125689
21.902,154655,473,125701
21.907,154641,475,125703
21.912,154653,474,125706
21.917,154641,474,125718
21.922,154658,472,125704
21.927,154668,486,125712
21.932,154651,483,125712
21.937,154673,484,125705
21.941,154672,481,125722
21.946,154665,483,125718
21.951,154682,475,125725
21.956,154684,474,125731
21.961,154682,473,125730
21.966,154695,485,125724
21.971,154677,483,125729
21.976,154686,483,125701
21.981,154713,480,125730
21.986,154706,482,125733
21.991,154707,480,125730
21.996,154698,484,125705
22.001,154717,477,125724
22.006,154697,479,125738
22.011,154723,478,125736
22.016,154718,479,125745
22.021,154719,477,125751
22.026,154745,481,125730
22.031,154724,478,125735
22.036,154730,480,125722
22.041,154737,476,125737
22.046,154755,475,125742
22.051,154750,476,125736
22.056,154754,477,125767
22.061,154756,473,125745
22.066,154744,477,125752
22.071,154769,474,125760
22.076,154787,476,125750
22.081,154777,473,125761
22.086,154783,476,125763
22.090,154799,472,125775
22.095,154811,481,125779
22.100,154816,471,125785
22.105,154804,474,125802
22.110,154820,470,125805
22.115,154813,473,125818
22.120,154816,470,125809
22.125,154809,473,125807
22.130,154821,469,125810
22.135,154818,472,125820
22.140,154807,469,125810
22.145,154810,476,125829
22.150,154797,471,125821
22.155,154803,474,125830
22.160,154801,471,125827
22.165,154776,475,125825
22.170,154788,472,125826
22.175,154775,474,125824
22.180,154772,471,125819
22.185,154755,474,125818
22.190,154751,471,125827
22.195,154773,477,125815
22.200,154745,474,125824
22.205,154727,476,125824
22.210,154726,472,125820
22.215,154719,474,125799
22.220,154708,472,125799
22.225,154711,475,125795
22.230,154691,472,125780
22.235,154691,473,125779
22.239,154692,471,125810
22.244,154687,476,125782
22.249,154689,476,125778
22.254,154681,475,125776
22.259,154689,474,125772
22.264,154657,476,125774
22.269,154664,473,125780
22.274,154661,474,125781
22.279,154673,471,125775
22.284,154651,474,125764
22.289,154613,470,125768
22.294,154651,477,125768
22.299,154637,475,125774
22.304,154639,477,125772
22.309,154634,474,125772
22.314,154629,475,125760
22.319,154618,473,125745
22.324,154614,473,125736
22.329,154619,471,125754
22.334,154610,473,125742
22.339,154629,466,125747
22.344,154609,472,125755
22.349,154614,469,125753
22.354,154625,470,125765
22.359,154636,250,125771
22.364,154617,291,125767
22.369,154611,308,125757
22.374,154604,319,125767
22.379,154627,326,125754
22.384,154608,334,125747
22.388,154611,342,125745
22.393,154589,347,125753
22.398,154596,350,125740
22.403,154586,354,125739
22.408,154584,356,125751
22.413,154589,358,125733
22.418,154598,360,125742
22.423,154593,362,125738
22.428,154596,364,125736
22.433,154595,370,125742
22.438,154582,373,125740
22.443,154583,374,125754
22.448,154590,375,125742
22.453,154587,375,125749
22.458,154603,377,125751
22.463,154572,779,125725
22.468,154581,579,125743
22.473,154590,552,125726
22.478,154595,537,125723
22.483,154595,527,125733
22.488,154590,515,125733
22.493,154602,509,125734
22.498,154594,504,125743
22.503,154604,501,125731
22.508,154608,499,125743
22.513,154595,496,125736
22.518,154580,493,125740
22.523,154600,502,125747
22.528,154591,501,125734
22.533,154607,484,125703
22.538,154601,491,125745
22.542,154600,490,125736
22.547,154597,490,125737
22.552,154589,487,125729
22.557,154603,485,125735
22.562,154607,485,125722
22.567,154590,485,125737
22.572,154604,484,125733
22.577,154609,483,125744
22.582,154628,488,125743
22.587,154603,481,125738
22.592,154624,480,125750
22.597,154625,481,125747
22.602,154625,480,125753
22.607,154623,479,125753
22.612,154625,478,125739
22.617,154621,477,125751
22.622,154607,476,125748
22.627,154634,478,125745
22.632,154609,480,125750
22.637,154629,480,125751
22.642,154638,478,125753
22.647,154637,481,125752
22.652,154642,479,125752
22.657,154637,480,125758
22.662,154654,479,125755
22.667,154663,481,125762
22.672,154656,478,125755
22.677,154667,477,125752
22.682,154664,481,125759
22.687,154661,483,125760
22.691,154647,479,125756
22.696,154674,481,125760
22.701,154678,479,125759
22.706,154665,482,125766
22.711,154664,479,125755
22.716,154682,481,125757
22.721,154694,480,125766
22.726,154701,483,125774
22.731,154692,473,125773
22.736,154697,476,125775
22.741,154698,474,125776
22.746,154711,474,125778
22.751,154694,473,125777
22.756,154713,475,125783
22.761,154715,473,125793
22.766,154716,477,125770
22.771,154721,476,125773
22.776,154721,484,125806
22.781,154712,475,125784
22.786,154731,478,125783
22.791,154737,476,125787
22.796,154737,476,125792
22.801,154739,476,125797
22.806,154737,478,125781
22.811,154755,477,125791
22.816,154747,478,125782
22.821,154752,467,125781
22.826,154751,473,125791
22.831,154782,472,125798
22.836,154775,473,125806
22.840,154797,472,125803
22.845,154796,475,125811
22.850,154788,472,125803
22.855,154793,473,125798
22.860,154802,472,125803
22.865,154800,476,125821
22.870,154812,465,125815
22.875,154799,472,125824
22.880,154807,470,125836
22.885,154834,473,125854
22.890,154816,475,125859
22.895,154841,476,125855
22.900,154847,474,125866
22.905,154832,468,125860
22.910,154823,464,125865
22.915,154819,476,125871
22.920,154819,473,125880
22.925,154825,469,125866
22.930,154804,466,125876
22.935,154804,469,125881
22.940,154786,466,125882
22.945,154788,469,125876
22.950,154789,466,125871
22.955,154787,469,125877
22.960,154766,466,125868
22.965,154755,470,125868
22.970,154762,468,125876
22.975,154760,474,125871
22.980,154746,472,125853
22.985,154725,475,125872
22.989,154726,472,125861
22.994,154727,473,125850
22.999,154726,472,125847
23.004,154711,474,125852
23.009,154727,472,125835
23.014,154695,472,125835
23.019,154708,470,125848
23.024,154699,464,125836
23.029,154680,463,125831
23.034,154677,474,125824
23.039,154677,473,125811
23.044,154673,473,125832
23.049,154653,472,125831
23.054,154644,473,125826
23.059,154644,471,125826
23.064,154657,472,125819
23.069,154621,458,125819
23.074,154616,466,125832
23.079,154628,465,125807
23.084,154618,469,125824
23.089,154602,467,125816
23.094,154607,469,125814
23.099,154608,465,125818
23.104,154596,468,125809
23.109,154579,465,125800
23.114,154580,468,125799
23.119,154593,470,125791
23.124,154570,473,125791
23.129,154578,472,125800
23.134,154568,471,125796
23.138,154583,470,125799
23.143,154581,472,125808
23.148,154572,470,125807
23.153,154578,472,125808
23.158,154581,469,125803
23.163,154575,471,125788
23.168,154563,462,125787
23.173,154562,463,125788
23.178,154556,462,125797
23.183,154570,464,125777
23.188,154535,462,125781
23.193,154563,463,125788
23.198,154535,462,125775
23.203,154542,460,125778
23.208,154539,470,125788
23.213,154549,471,125787
23.218,154543,466,125776
23.223,154545,467,125787
23.228,154555,466,125792
23.233,154542,466,125792
23.238,154535,464,125779
23.243,154532,463,125774
23.248,154546,463,125779
23.253,154551,462,125786
23.258,154537,462,125779
23.263,154539,464,125771
23.268,154531,468,125787
23.273,154527,467,125781
23.278,154535,467,125770
23.283,154519,467,125787
23.287,154518,467,125781
23.292,154529,468,125773
23.297,154535,467,125780
23.302,154533,466,125784
23.307,154531,467,125794
23.312,154522,469,125767
23.317,154534,460,125778
23.322,154538,460,125775
23.327,154536,460,125778
23.332,154530,471,125779
23.337,154544,469,125769
23.342,154535,470,125780
23.347,154547,470,125771
23.352,154536,469,125768
23.357,154537,468,125594
23.362,154538,281,125776
23.367,154527,302,125789
23.372,154538,313,125777
23.377,154545,322,125781
23.382,154547,330,125780
23.387,154549,334,125778
23.392,154543,338,125786
23.397,154546,341,125780
23.402,154546,343,125798
23.407,154561,346,125786
23.412,154574,351,125777
23.417,154551,353,125792
23.422,154552,355,125788
23.427,154567,355,125790
23.432,154566,356,125774
23.436,154561,357,125785
23.441,154567,357,125800
23.446,154559,373,125790
23.451,154578,372,125786
23.456,154565,372,125810
23.461,154591,371,125846
23.466,154581,580,125795
23.471,154587,546,125787
23.476,154592,528,125788
23.481,154589,518,125801
23.486,154592,512,125783
23.491,154591,505,125800
23.496,154584,501,125795
23.501,154605,497,125808
23.506,154598,496,125798
23.511,154610,497,125804
23.516,154617,487,125808
23.521,154618,484,125821
23.526,154617,485,125822
23.531,154622,482,125819
23.536,154630,480,125800
23.541,154636,478,125809
23.546,154619,480,125826
23.551,154646,476,125813
23.556,154640,480,125874
23.561,154648,479,125811
23.566,154643,482,125821
23.571,154645,478,125800
23.576,154660,478,125817
23.581,154673,475,125829
23.585,154662,480,125818
23.590,154665,475,125822
23.595,154669,477,125831
23.600,154675,474,125829
23.605,154640,480,125832
23.610,154679,476,125841
23.615,154690,476,125841
23.620,154684,473,125840
23.625,154684,475,125842
23.630,154692,472,125840
23.635,154711,472,125842
23.640,154716,470,125852
23.645,154701,473,125862
23.650,154725,469,125842
23.655,154704,474,125842
23.660,154724,473,125839
23.665,154713,474,125842
23.670,154722,471,125844
23.675,154741,472,125853
23.680,154741,471,125861
23.685,154753,474,125877
23.690,154758,471,125863
23.695,154759,471,125879
23.700,154763,469,125868
23.705,154775,475,125877
23.710,154773,473,125887
23.715,154784,472,125890
23.720,154779,468,125894
23.725,154785,472,125884
23.730,154789,470,125912
23.734,154804,472,125925
23.739,154815,469,125934
23.744,154815,471,125937
23.749,154819,467,125952
23.754,154821,463,125953
23.759,154816,461,125955
23.764,154811,472,125961
23.769,154800,469,125959
23.774,154805,472,125958
23.779,154803,469,125957
23.784,154796,471,125967
23.789,154766,470,125972
23.794,154782,470,125952
23.799,154776,467,125966
23.804,154773,462,125964
23.809,154761,460,125962
23.814,154759,471,125966
23.819,154757,467,125970
23.824,154738,470,125966
23.829,154748,467,125953
23.834,154738,468,125949
23.839,154717,465,125945
23.844,154726,468,125950
23.849,154737,463,125955
23.854,154717,462,125941
23.859,154715,457,125951
23.864,154704,463,125943
23.869,154697,460,125937
23.874,154690,462,125939
23.879,154681,459,125937
23.884,154681,461,125945
23.888,154688,458,125940
23.893,154662,459,125932
23.898,154669,463,125941
23.903,154659,471,125928
23.908,154678,468,125934
23.913,154654,459,125935
23.918,154643,456,125954
23.923,154637,459,125927
23.928,154635,458,125923
23.933,154621,459,125926
23.938,154629,459,125931
23.943,154626,460,125926
23.948,154622,466,125921
23.953,154616,458,125910
23.958,154612,468,125914
23.963,154601,468,125907
23.968,154596,465,125907
23.973,154617,466,125914
23.978,154613,465,125926
23.983,154616,465,125936
23.988,154609,463,125924
23.993,154614,466,125937
23.998,154599,457,125934
24.003,154600,460,125921
24.008,154605,459,125918
24.013,154608,460,125924
24.018,154603,459,125915
24.023,154599,461,125929
24.028,154601,461,125914
24.033,154597,463,125911
24.037,154600,464,125911
24.042,154593,466,125912
24.047,154582,465,125914
24.052,154584,457,125923
24.057,154591,456,125916
24.062,154600,458,125920
24.067,154586,458,125921
24.072,154574,459,125934
24.077,154574,459,125919
24.082,154593,461,125921
24.087,154604,462,125934
24.092,154575,455,125923
24.097,154602,458,125929
24.102,154589,460,125915
24.107,154597,459,125924
24.112,154593,460,125928
24.117,154599,459,125928
24.122,154595,461,125923
24.127,154595,460,125926
24.132,154584,461,125930
24.137,154598,459,125946
24.142,154582,453,125929
24.147,154593,455,125940
24.152,154603,455,125929
24.157,154597,454,125933
24.162,154594,455,125923
24.167,154600,457,125933
24.172,154588,455,125933
24.177,154603,456,125933
24.182,154607,455,125933
24.186,154610,458,125925
24.191,154606,461,125922
24.196,154602,462,125931
24.201,154616,462,125929
24.206,154605,465,125922
24.211,154618,464,125924
24.216,154615,465,125935
24.221,154612,454,125940
24.226,154591,456,125944
24.231,154619,454,125933
24.236,154617,454,125951
24.241,154620,457,125926
24.246,154636,459,125933
24.251,154641,458,125931
24.256,154617,459,125937
24.261,154641,458,125940
24.266,154629,460,125952
24.271,154623,459,125934
24.276,154656,457,125953
24.281,154645,458,125949
24.286,154624,459,125940
24.291,154641,453,125937
24.296,154643,453,125951
24.301,154654,453,125959
24.306,154660,455,125946
24.311,154674,454,125956
24.316,154650,454,125938
24.321,154664,454,125948
24.326,154665,457,125952
24.331,154669,455,125962
24.335,154668,458,125977
24.340,154679,456,125952
24.345,154675,458,125973
24.350,154690,455,125955
24.355,154692,457,125958
24.360,154693,271,125972
24.365,154688,297,125972
24.370,154691,308,125964
24.375,154702,319,125976
24.380,154719,323,125975
24.385,154666,335,125970
24.390,154714,337,125969
24.395,154690,341,125977
24.400,154724,341,125979
24.405,154717,347,125979
24.410,154730,347,125974
24.415,154743,350,125972
24.420,154734,355,125987
24.425,154747,361,125979
24.430,154735,363,125989
24.435,154759,358,125985
24.440,154744,360,125990
24.445,154752,366,126000
24.450,154756,355,125989
24.455,154743,362,126003
24.460,154767,364,126002
24.465,154774,590,125997
24.470,154791,540,126003
24.475,154794,524,126010
24.480,154794,514,126012
24.484,154797,505,126007
24.489,154795,498,126005
24.494,154805,497,126008
24.499,154824,494,126013
24.504,154815,486,126017
24.509,154826,483,126012
24.514,154814,485,126007
24.519,154845,483,126026
24.524,154832,485,126028
24.529,154830,483,126028
24.534,154846,477,126028
24.539,154842,477,126039
24.544,154843,480,126036
24.549,154858,469,126031
24.554,154869,470,126048
24.559,154875,470,126053
24.564,154886,473,126048
24.569,154887,471,126040
24.574,154887,475,126057
24.579,154888,474,126069
24.584,154890,474,126038
24.589,154890,473,126064
24.594,154899,464,126053
24.599,154908,463,126045
24.604,154894,469,126067
24.609,154924,466,126066
24.614,154921,469,126059
24.619,154926,469,126047
24.624,154919,464,126060
24.629,154973,463,126053
24.633,154947,467,126071
24.638,154952,465,126084
24.643,154960,470,126075
24.648,154965,458,126092
24.653,154955,461,126085
24.658,154967,461,126072
24.663,154970,466,126070
24.668,154983,464,126084
24.673,154983,466,126091
24.678,154997,459,126102
24.683,155002,464,126101
24.688,155009,463,126127
24.693,155019,466,126131
24.698,155028,455,126153
24.703,155030,459,126153
24.708,155033,459,126153
24.713,155029,463,126159
24.718,155019,463,126157
24.723,155029,458,126166
24.728,155020,461,126172
24.733,155037,464,126163
24.738,155011,464,126178
24.743,155001,457,126177
24.748,155028,457,126176
24.753,155012,460,126184
24.758,154999,459,126172
24.763,154995,466,126175
24.768,154983,454,126182
24.773,154968,456,126173
24.778,154985,459,126177
24.782,154972,463,126172
24.787,154970,451,126170
24.792,154967,457,126165
24.797,154949,454,126172
24.802,154958,460,126163
24.807,154971,459,126158
24.812,154948,463,126156
24.817,154939,452,126155
24.822,154927,457,126182
24.827,154941,460,126146
24.832,154918,453,126160
24.837,154922,452,126138
24.842,154917,457,126147
24.847,154914,456,126147
24.852,154919,461,126149
24.857,154906,461,126153
24.862,154896,454,126158
24.867,154899,453,126139
24.872,154860,454,126161
24.877,154890,460,126147
24.882,154895,452,126148
24.887,154872,452,126132
24.892,154878,454,126138
24.897,154862,456,126136
24.902,154874,459,126126
24.907,154866,449,126141
24.912,154851,453,126120
24.917,154850,453,126123
24.922,154852,461,126126
24.927,154859,451,126138
24.931,154858,454,126138
24.936,154862,453,126139
24.941,154865,458,126143
24.946,154871,458,126131
24.951,154868,451,126139
24.956,154854,450,126142
24.961,154858,455,126129
24.966,154847,456,126130
24.971,154861,441,126123
24.976,154838,457,126124
24.981,154843,451,126110
24.986,154853,452,126121
24.991,154841,456,126111
24.996,154837,456,126116
25.001,154839,461,126113
25.006,154845,450,126129
25.011,154846,454,126125
25.016,154841,454,126135
25.021,154882,456,126121
25.026,154833,450,126141
25.031,154829,454,126123
25.036,154847,457,126129
25.041,154844,461,126136
25.046,154842,450,126129
25.051,154838,452,126121
25.056,154835,454,126110
25.061,154842,457,126131
25.066,154840,460,126119
25.071,154842,454,126114
25.076,154841,456,126112
25.080,154834,458,126119
25.085,154835,450,126122
25.090,154842,450,126136
25.095,154847,452,126123
25.100,154838,454,126127
25.105,154836,459,126116
25.110,154842,448,126124
25.115,154794,454,126131
25.120,154841,459,126126
25.125,154847,450,126124
25.130,154833,451,126112
25.135,154853,454,126102
25.140,154843,456,126127
25.145,154849,460,126111
25.150,154851,450,126108
25.155,154848,452,126119
25.160,154857,454,126124
25.165,154855,450,126115
25.170,154864,452,126111
25.175,154856,454,126122
25.180,154860,457,126126
25.185,154858,449,126130
25.190,154853,450,126121
25.195,154864,451,126114
25.200,154880,454,126127
25.205,154859,456,126122
25.210,154888,459,126117
25.215,154868,451,126119
25.220,154855,455,126118
25.225,154878,449,126131
25.229,154888,450,126129
25.234,154874,452,126128
25.239,154885,452,126124
25.244,154888,455,126128
25.249,154881,455,126124
25.254,154891,448,126133
25.259,154900,447,126124
25.264,154892,458,126134
25.269,154898,458,126119
25.274,154905,448,126126
25.279,154897,448,126132
25.284,154886,453,126139
25.289,154902,453,126146
25.294,154903,457,126137
25.299,154902,447,126127
25.304,154919,453,126133
25.309,154915,452,126131
25.314,154904,451,126128
25.319,154918,453,126130
25.324,154926,458,126139
25.329,154926,457,126132
25.334,154932,448,126142
25.339,154930,449,126137
25.344,154936,452,126137
25.349,154935,452,126140
25.354,154943,455,126127
25.359,154924,265,126148
25.364,154940,298,126141
25.369,154949,315,126145
25.374,154949,313,126131
25.379,154941,322,126147
25.383,154946,330,126144
25.388,154956,335,126154
25.393,154964,344,126155
25.398,154955,335,126143
25.403,154963,342,126140
25.408,154959,350,126150
25.413,154967,343,126141
25.418,154967,346,126136
25.423,154975,352,126135
25.428,154977,354,126130
25.433,154982,359,126133
25.438,154984,349,126143
25.443,154976,355,126133
25.448,154981,357,126127
25.453,154987,362,126144
25.458,154987,356,126130
25.463,154990,583,126128
25.468,154993,538,126145
25.473,154995,523,126136
25.478,155008,512,126142
25.483,155005,499,126145
25.488,155011,492,126142
25.493,155023,490,126141
25.498,155017,485,126143
25.503,155027,485,126124
25.508,155024,479,126135
25.513,155049,480,126134
25.518,155031,478,126145
25.523,155050,481,126145
25.528,155041,466,126163
25.532,155053,472,126136
25.537,155061,470,126148
25.542,155042,474,126132
25.547,155064,474,126144
25.552,155058,466,126150
25.557,155059,463,126147
25.562,155064,467,126146
25.567,155073,465,126170
25.572,155078,467,126172
25.577,155091,467,126185
25.582,155100,471,126180
25.587,155090,460,126185
25.592,155098,463,126184
25.597,155095,463,126190
25.602,155095,458,126190
25.607,155087,461,126197
25.612,155087,465,126204
25.617,155079,455,126197
25.622,155076,460,126206
25.627,155075,462,126201
25.632,155064,466,126208
25.637,155059,456,126197
25.642,155047,461,126182
25.647,155039,461,126189
25.652,155035,458,126187
25.657,155031,457,126176
25.662,155031,463,126189
25.667,155027,462,126195
25.672,155012,456,126198
25.677,155004,457,126174
25.681,154992,462,126171
25.686,154995,451,126173
25.691,154987,457,126168
25.696,154981,457,126154
25.701,154980,451,126151
25.706,154967,459,126154
25.711,154950,454,126146
25.716,154960,453,126145
25.721,154950,461,126137
25.726,154947,460,126145
25.731,154939,453,126144
25.736,154932,453,126122
25.741,154920,459,126149
25.746,154922,454,126136
25.751,154925,453,126122
25.756,154915,454,126133
25.761,154913,458,126129
25.766,154917,459,126121
25.771,154910,451,126128
25.776,154899,451,126124
25.781,154904,456,126130
25.786,154899,456,126123
25.791,154891,460,126093
25.796,154890,450,126105
25.801,154888,459,126104
25.806,154870,447,126101
25.811,154871,453,126096
25.816,154879,454,126116
25.821,154866,460,126109
25.826,154894,451,126121
25.830,154882,454,126113
25.835,154867,456,126112
25.840,154877,462,126105
25.845,154870,448,126111
25.850,154865,458,126099
25.855,154869,446,126100
25.860,154850,452,126097
25.865,154850,453,126085
25.870,154859,457,126081
25.875,154865,457,126069
25.880,154839,451,126086
25.885,154825,450,126086
25.890,154832,455,126088
25.895,154843,449,126088
25.900,154840,455,126089
25.905,154849,455,126089
25.910,154842,449,126078
25.915,154852,449,126084
25.920,154834,455,126088
25.925,154835,455,126074
25.930,154844,448,126089
25.935,154842,447,126082
25.940,154834,452,126074
25.945,154835,448,126092
25.950,154823,451,126076
25.955,154841,451,126089
25.960,154846,455,126079
25.965,154852,457,126087
25.970,154826,449,126076
25.975,154854,448,126084
25.979,154835,453,126083
25.984,154844,454,126082
25.989,154837,444,126087
25.994,154846,451,126078
25.999,154840,455,126086
26.004,154849,456,126088
26.009,154836,447,126084
26.014,154837,448,126086
26.019,154829,453,126076
26.024,154852,454,126075
26.029,154854,446,126075
26.034,154846,448,126075
26.039,154857,455,126077
26.044,154856,449,126071
26.049,154841,452,126077
26.054,154865,455,126061
26.059,154845,449,126078
26.064,154854,451,126078
26.069,154860,455,126083
26.074,154849,447,126079
26.079,154871,452,126080
26.084,154861,443,126102
26.089,154837,451,126117
26.094,154868,444,126084
26.099,154869,447,126084
26.104,154891,451,126091
26.109,154880,455,126078
26.114,154867,446,126090
26.119,154898,449,126080
26.124,154902,454,126102
26.128,154880,445,126096
26.133,154893,447,126092
26.138,154902,455,126090
26.143,154901,452,126099
26.148,154887,443,126093
26.153,154897,446,126089
26.158,154892,450,126104
26.163,154906,455,126102
26.168,154909,445,126099
26.173,154917,448,126103
26.178,154918,452,126105
26.183,154913,446,126108
26.188,154927,450,126097
26.193,154923,454,126107
26.198,154938,446,126098
26.203,154932,449,126105
26.208,154937,450,126104
26.213,154940,453,126101
26.218,154941,445,126101
26.223,154947,449,126119
26.228,154940,451,126103
26.233,154960,443,126110
26.238,154971,449,126114
26.243,154957,454,126125
26.248,154965,444,126117
26.253,154967,446,126115
26.258,154960,449,126122
26.263,154962,453,126123
26.268,154982,442,126114
26.273,154977,445,126108
26.277,154979,447,126127
26.282,154987,452,126135
26.287,154984,445,126125
26.292,154990,447,126127
26.297,154989,449,126129
26.302,155001,453,126140
26.307,155002,443,126133
26.312,155006,447,126141
26.317,155012,448,126139
26.322,155018,454,126142
26.327,155022,443,126130
26.332,155006,443,126144
26.337,155032,452,126142
26.342,155035,445,126144
26.347,155038,445,126143
26.352,155046,447,126137
26.357,155043,269,126156
26.362,155038,298,126143
26.367,155042,299,126147
26.372,155054,311,126154
26.377,155052,321,126149
26.382,155069,324,126151
26.387,155050,332,126151
26.392,155075,341,126161
26.397,155087,334,126153
26.402,155082,343,126157
26.407,155084,347,126162
26.412,155084,342,126165
26.417,155090,347,126170
26.422,155091,356,126176
26.426,155102,344,126158
26.431,155112,353,126163
26.436,155105,348,126167
26.441,155097,354,126164
26.446,155103,357,126172
26.451,155127,349,126174
26.456,155124,355,126188
26.461,155116,577,126187
26.466,155135,536,126172
26.471,155135,510,126177
26.476,155146,501,126188
26.481,155152,494,126187
26.486,155158,491,126185
26.491,155160,490,126197
26.496,155171,477,126212
26.501,155185,478,126234
26.506,155184,478,126236
26.511,155201,469,126246
26.516,155186,469,126253
26.521,155181,473,126252
26.526,155182,472,126286
26.531,155203,467,126257
26.536,155204,467,126275
26.541,155191,472,126264
26.546,155178,460,126276
26.551,155183,462,126271
26.556,155180,460,126274
26.561,155166,467,126273
26.566,155150,466,126267
26.571,155153,458,126274
26.575,155155,459,126274
26.580,155137,467,126270
26.585,155127,454,126268
26.590,155124,458,126264
26.595,155125,457,126262
26.600,155109,463,126265
26.605,155105,451,126262
26.610,155114,455,126260
26.615,155109,454,126251
26.620,155087,461,126246
26.625,155094,452,126235
26.630,155081,456,126231
26.635,155085,458,126228
26.640,155081,451,126260
26.645,155063,450,126225
26.650,155049,451,126238
26.655,155054,450,126237
26.660,155038,454,126227
26.665,155045,452,126242
26.670,155039,453,126240
26.675,155040,456,126229
26.680,155022,450,126230
26.685,155021,450,126226
26.690,155015,452,126210
26.695,154996,452,126227
26.700,155001,455,126207
26.705,154996,455,126221
26.710,154987,458,126215
26.715,154993,446,126204
26.720,154986,450,126211
26.725,154974,453,126213
26.729,154980,456,126202
26.734,154970,455,126196
26.739,154977,457,126196
26.744,154971,455,126194
26.749,154974,457,126211
26.754,154972,455,126206
26.759,154967,447,126208
26.764,154967,445,126199
26.769,154948,448,126205
26.774,154961,449,126211
26.779,154957,452,126207
26.784,154945,450,126199
26.789,154949,452,126193
26.794,154943,451,126192
26.799,154940,455,126192
26.804,154943,453,126182
26.809,154925,456,126177
26.814,154941,443,126182
26.819,154936,452,126179
26.824,154934,443,126180
26.829,154925,447,126181
26.834,154935,443,126191
26.839,154923,446,126175
26.844,154934,444,126187
26.849,154933,446,126196
26.854,154916,444,126175
26.859,154923,448,126181
26.864,154938,446,126187
26.869,154930,453,126175
26.874,154939,452,126179
26.878,154905,456,126183
26.883,154918,453,126183
26.888,154933,445,126181
26.893,154930,442,126174
26.898,154927,444,126175
26.903,154916,443,126178
26.908,154924,443,126173
26.913,154926,443,126184
26.918,154923,449,126179
26.923,154934,448,126173
26.928,154906,450,126171
26.933,154908,449,126166
26.938,154911,451,126168
26.943,154920,450,126181
26.948,154912,452,126173
26.953,154923,452,126178
26.958,154907,453,126172
26.963,154927,451,126176
26.968,154915,445,126170
26.973,154922,444,126169
26.978,154924,446,126164
26.983,154920,446,126165
26.988,154926,447,126185
26.993,154931,447,126185
26.998,154935,448,126178
27.003,154930,448,126165
27.008,154932,449,126173
27.013,154935,447,126179
27.018,154936,453,126178
27.023,154944,452,126180
27.027,154951,453,126175
27.032,154947,452,126178
27.037,154934,451,126184
27.042,154946,450,126177
27.047,154948,450,126174
27.052,154946,450,126173
27.057,154962,449,126194
27.062,154945,435,126188
27.067,154961,445,126183
27.072,154973,444,126178
27.077,154963,446,126188
27.082,154971,447,126181
27.087,154962,446,126183
27.092,154977,446,126173
27.097,154987,447,126184
27.102,154990,447,126196
27.107,154982,447,126188
27.112,154998,441,126197
27.117,154991,433,126190
27.122,154996,444,126191
27.127,154986,443,126190
27.132,154976,443,126192
27.137,154992,445,126196
27.142,155009,446,126194
27.147,154998,446,126202
27.152,155010,445,126199
27.157,155007,447,126211
27.162,154998,442,126201
27.167,155007,442,126206
27.172,155017,442,126197
27.176,155024,443,126199
27.181,155019,445,126201
27.186,155021,443,126205
27.191,155043,446,126198
27.196,155033,443,126221
27.201,155029,448,126203
27.206,155042,446,126208
27.211,155055,441,126211
27.216,155043,440,126208
27.221,155046,443,126218
27.226,155065,442,126222
27.231,155067,442,126210
27.236,155061,441,126227
27.241,155063,443,126217
27.246,155086,442,126217
27.251,155083,443,126233
27.256,155102,441,126224
27.261,155088,449,126241
27.266,155080,448,126243
27.271,155090,447,126229
27.276,155100,447,126230
27.281,155102,449,126236
27.286,155100,448,126233
27.291,155105,449,126236
27.296,155123,447,126240
27.301,155116,452,126237
27.306,155116,440,126224
27.311,155115,441,126245
27.316,155136,440,126251
27.321,155124,442,126246
27.325,155143,441,126251
27.330,155154,442,126252
27.335,155150,439,126256
27.340,155154,445,126239
27.345,155153,443,126265
27.350,155155,444,126259
27.355,155194,268,126257
27.360,155180,286,126266
27.365,155171,298,126268
27.370,155182,308,126267
27.375,155186,315,126273
27.380,155188,323,126266
27.385,155202,327,126271
27.390,155197,331,126278
27.395,155196,333,126280
27.400,155199,338,126270
27.405,155213,344,126269
27.410,155208,347,126280
27.415,155227,348,126277
27.420,155235,353,126292
27.425,155236,353,126293
27.430,155238,344,126298
27.435,155237,345,126291
27.440,155247,349,126291
27.445,155244,348,126302
27.450,155270,350,126297
27.455,155262,357,126306
27.460,155270,587,126317
27.465,155292,534,126333
27.470,155283,515,126339
27.474,155305,500,126347
27.479,155291,496,126359
27.484,155303,489,126356
27.489,155288,486,126357
27.494,155295,482,126377
27.499,155310,471,126381
27.504,155296,474,126378
27.509,155304,465,126384
27.514,155296,462,126393
27.519,155293,464,126390
27.524,155282,460,126399
27.529,155280,461,126387
27.534,155266,458,126380
27.539,155269,461,126385
27.544,155257,457,126402
27.549,155251,459,126382
27.554,155262,461,126383
27.559,155236,463,126379
27.564,155242,460,126385
27.569,155231,460,126382
27.574,155231,459,126370
27.579,155218,463,126385
27.584,155211,458,126375
27.589,155201,451,126368
27.594,155222,449,126370
27.599,155201,453,126369
27.604,155189,453,126358
27.609,155208,455,126361
27.614,155204,451,126367
27.619,155173,456,126358
27.623,155171,452,126351
27.628,155160,454,126356
27.633,155176,451,126363
27.638,155169,455,126355
27.643,155163,453,126357
27.648,155153,448,126366
27.653,155161,445,126367
27.658,155166,450,126356
27.663,155137,447,126355
27.668,155136,449,126358
27.673,155127,447,126353
27.678,155133,451,126364
27.683,155135,448,126349
27.688,155126,450,126345
27.693,155125,448,126335
27.698,155124,444,126334
27.703,155109,442,126341
27.708,155116,445,126334
27.713,155116,443,126346
27.718,155123,448,126355
27.723,155114,447,126356
27.728,155127,449,126352
27.733,155099,448,126341
27.738,155101,451,126343
27.743,155113,447,126333
27.748,155100,444,126344
27.753,155101,441,126345
27.758,155082,445,126336
27.763,155108,443,126338
27.768,155105,444,126343
27.772,155103,442,126342
27.777,155097,444,126339
27.782,155100,442,126333
27.787,155094,444,126343
27.792,155071,444,126337
27.797,155078,451,126341
27.802,155095,440,126347
27.807,155081,440,126337
27.812,155088,440,126351
27.817,155081,442,126341
27.822,155080,443,126337
27.827,155081,442,126342
27.832,155091,443,126336
27.837,155078,445,126338
27.842,155093,460,126343
27.847,155088,449,126334
27.852,155085,437,126340
27.857,155087,449,126344
27.862,155088,449,126334
27.867,155099,438,126340
27.872,155096,438,126346
27.877,155077,441,126340
27.882,155080,439,126340
27.887,155090,439,126343
27.892,155097,443,126336
27.897,155078,445,126345
27.902,155090,443,126339
27.907,155093,445,126341
27.912,155106,446,126346
27.917,155093,445,126338
27.921,155089,447,126350
27.926,155096,445,126332
27.931,155102,446,126332
27.936,155100,446,126339
27.941,155102,443,126361
27.946,155092,438,126351
27.951,155092,439,126349
27.956,155108,438,126341
27.961,155115,438,126353
27.966,155096,436,126355
27.971,155112,436,126346
27.976,155131,438,126346
27.981,155120,439,126348
27.986,155126,438,126354
27.991,155126,442,126350
27.996,155112,441,126338
28.001,155123,441,126347
28.006,155133,441,126353
28.011,155132,440,126352
28.016,155130,439,126349
28.021,155142,440,126358
28.026,155136,440,126373
28.031,155163,440,126361
28.036,155146,440,126366
28.041,155148,438,126358
28.046,155159,437,126368
28.051,155144,437,126371
28.056,155153,437,126358
28.061,155169,439,126366
28.066,155157,438,126374
28.070,155165,437,126378
28.075,155171,437,126380
28.080,155180,438,126372
28.085,155177,444,126388
28.090,155170,442,126383
28.095,155188,444,126380
28.100,155180,446,126383
28.105,155180,434,126385
28.110,155190,435,126386
28.115,155196,435,126393
28.120,155198,437,126391
28.125,155193,436,126392
28.130,155198,437,126387
28.135,155211,441,126408
28.140,155218,444,126388
28.145,155203,441,126394
28.150,155216,441,126393
28.155,155200,440,126393
28.160,155231,442,126398
28.165,155224,441,126395
28.170,155234,441,126407
28.175,155239,440,126407
28.180,155231,442,126406
28.185,155242,437,126396
28.190,155253,440,126410
28.195,155252,439,126409
28.200,155245,440,126411
28.205,155252,439,126406
28.210,155270,440,126419
28.215,155251,439,126418
28.220,155266,440,126412
28.224,155266,439,126410
28.229,155291,440,126440
28.234,155285,433,126431
28.239,155291,436,126425
28.244,155287,435,126422
28.249,155306,436,126435
28.254,155300,433,126439
28.259,155314,437,126442
28.264,155307,434,126437
28.269,155306,436,126440
28.274,155337,436,126435
28.279,155298,441,126451
28.284,155324,432,126458
28.289,155334,434,126446
28.294,155351,433,126447
28.299,155333,436,126458
28.304,155353,434,126453
28.309,155359,437,126468
28.314,155345,439,126459
28.319,155354,442,126461
28.324,155361,441,126462
28.329,155362,434,126468
28.334,155372,436,126463
28.339,155358,439,126454
28.344,155382,437,126459
28.349,155383,439,126459
28.354,155399,249,126467
28.359,155377,285,126474
28.364,155396,299,126479
28.369,155406,313,126474
28.373,155409,319,126475
28.378,155379,318,126470
28.383,155416,322,126475
28.388,155412,328,126488
28.393,155417,329,126480
28.398,155428,336,126494
28.403,155432,337,126495
28.408,155432,342,126518
28.413,155461,343,126517
28.418,155448,349,126528
28.423,155447,349,126537
28.428,155461,345,126529
28.433,155453,344,126541
28.438,155444,350,126526
28.443,155442,350,126530
28.448,155455,355,126541
28.453,155455,345,126551
28.458,155459,350,126554
28.463,155452,540,126549
28.468,155443,512,126547
28.473,155419,496,126556
28.478,155425,485,126556
28.483,155426,476,126548
28.488,155418,474,126543
28.493,155411,468,126535
28.498,155390,469,126532
28.503,155396,463,126531
28.508,155372,464,126526
28.513,155372,462,126537
28.518,155362,463,126523
28.522,155351,459,126516
28.527,155353,457,126505
28.532,155350,454,126513
28.537,155331,456,126515
28.542,155319,454,126500
28.547,155321,454,126492
28.552,155321,453,126491
28.557,155311,456,126496
28.562,155318,454,126486
28.567,155315,455,126489
28.572,155309,444,126515
28.577,155313,449,126483
28.582,155289,447,126496
28.587,155293,447,126497
28.592,155285,446,126478
28.597,155275,448,126479
28.602,155282,447,126480
28.607,155267,449,126481
28.612,155278,446,126483
28.617,155266,449,126465
28.622,155246,451,126451
28.627,155254,448,126444
28.632,155246,446,126439
28.637,155250,447,126444
28.642,155224,446,126451
28.647,155260,448,126457
28.652,155244,446,126454
28.657,155242,449,126474
28.662,155247,448,126442
28.667,155239,450,126459
28.671,155236,439,126465
28.676,155238,442,126453
28.681,155238,440,126454
28.686,155249,441,126459
28.691,155227,438,126440
28.696,155235,440,126440
28.701,155231,440,126433
28.706,155227,441,126430
28.711,155222,439,126429
28.716,155222,442,126418
28.721,155220,445,126426
28.726,155212,447,126443
28.731,155217,446,126403
28.736,155218,447,126425
28.741,155211,446,126441
28.746,155209,446,126420
28.751,155211,445,126425
28.756,155207,447,126431
28.761,155201,445,126426
28.766,155203,453,126435
28.771,155208,437,126431
28.776,155213,438,126435
28.781,155192,437,126430
28.786,155210,437,126422
28.791,155212,435,126422
28.796,155211,446,126417
28.801,155197,446,126417
28.806,155229,446,126422
28.811,155197,443,126423
28.816,155207,445,126416
28.820,155207,436,126416
28.825,155215,435,126425
28.830,155211,435,126423
28.835,155210,434,126412
28.840,155196,435,126423
28.845,155194,435,126417
28.850,155207,433,126420
28.855,155191,445,126411
28.860,155191,445,126411
28.865,155209,436,126401
28.870,155205,436,126400
28.875,155197,436,126411
28.880,155186,437,126411
28.885,155216,433,126410
28.890,155210,433,126418
28.895,155210,432,126419
28.900,155204,445,126410
28.905,155199,444,126406
28.910,155227,444,126409
28.915,155201,435,126414
28.920,155213,438,126407
28.925,155226,436,126418
28.930,155219,435,126417
28.935,155207,435,126418
28.940,155222,437,126422
28.945,155208,435,126407
28.950,155219,436,126411
28.955,155238,435,126415
28.960,155228,438,126412
28.965,155246,441,126414
28.969,155233,442,126417
28.974,155247,441,126426
28.979,155237,446,126414
28.984,155234,431,126411
28.989,155244,443,126413
28.994,155250,442,126419
28.999,155237,444,126412
29.004,155254,443,126429
29.009,155236,433,126440
29.014,155270,429,126417
29.019,155274,433,126424
29.024,155267,431,126429
29.029,155266,432,126440
29.034,155278,431,126430
29.039,155268,434,126433
29.044,155281,431,126443
29.049,155281,432,126449
29.054,155282,430,126443
29.059,155294,433,126438
29.064,155298,435,126442
29.069,155302,439,126442
29.074,155312,436,126442
29.079,155303,441,126450
29.084,155299,437,126457
29.089,155295,439,126460
29.094,155307,437,126458
29.099,155307,441,126453
29.104,155328,439,126453
29.109,155330,446,126495
29.114,155320,431,126460
29.118,155339,435,126467
29.123,155335,432,126456
29.128,155351,434,126461
29.133,155339,431,126463
29.138,155364,433,126460
29.143,155351,431,126478
29.148,155349,434,126475
29.153,155339,429,126465
29.158,155322,435,126497
29.163,155369,439,126475
29.168,155371,441,126469
29.173,155365,439,126459
29.178,155391,441,126469
29.183,155376,438,126462
29.188,155383,439,126478
29.193,155384,438,126484
29.198,155390,441,126482
29.203,155390,441,126492
29.208,155407,434,126475
29.213,155401,432,126475
29.218,155395,435,126477
29.223,155414,433,126478
29.228,155414,436,126468
29.233,155429,432,126486
29.238,155429,435,126490
29.243,155429,431,126485
29.248,155432,432,126511
29.253,155433,431,126501
29.258,155437,440,126485
29.263,155458,437,126501
29.267,155450,441,126494
29.272,155464,438,126515
29.277,155455,442,126516
29.282,155471,438,126534
29.287,155479,430,126538
29.292,155476,427,126548
29.297,155488,432,126549
29.302,155467,429,126557
29.307,155482,440,126558
29.312,155495,427,126570
29.317,155480,430,126571
29.322,155490,427,126575
29.327,155496,429,126575
29.332,155482,428,126585
29.337,155480,430,126592
29.342,155468,429,126574
29.347,155464,432,126576
29.352,155457,203,126617
29.357,155436,271,126590
29.362,155448,288,126581
29.367,155440,301,126580
29.372,155417,307,126579
29.377,155413,314,126561
29.382,155410,318,126565
29.387,155403,322,126566
29.392,155379,324,126567
29.397,155381,329,126557
29.402,155345,334,126562
29.407,155386,341,126556
29.412,155354,341,126548
29.416,155372,347,126541
29.421,155357,332,126550
29.426,155358,337,126533
29.431,155350,338,126552
29.436,155352,342,126536
29.441,155347,343,126541
29.446,155331,345,126538
29.451,155289,353,126561
29.456,155313,347,126536
29.461,155315,533,126531
29.466,155316,506,126527
29.471,155309,489,126521
29.476,155309,483,126522
29.481,155297,474,126524
29.486,155285,470,126524
29.491,155285,467,126525
29.496,155298,465,126523
29.501,155276,466,126520
29.506,155276,465,126504
29.511,155268,461,126503
29.516,155275,461,126499
29.521,155252,459,126494
29.526,155275,458,126503
29.531,155272,457,126503
29.536,155259,458,126516
29.541,155265,445,126513
29.546,155263,445,126515
29.551,155263,448,126505
29.556,155261,449,126497
29.561,155252,446,126498
29.565,155240,449,126484
29.570,155235,448,126501
29.575,155242,451,126484
29.580,155238,449,126489
29.585,155247,450,126482
29.590,155225,450,126482
29.595,155238,451,126472
29.600,155233,443,126487
29.605,155232,442,126500
29.610,155236,441,126496
29.615,155237,443,126493
29.620,155225,442,126494
29.625,155226,444,126500
29.630,155227,443,126486
29.635,155220,447,126480
29.640,155228,446,126484
29.645,155211,454,126478
29.650,155221,437,126470
29.655,155212,438,126477
29.660,155229,438,126476
29.665,155222,438,126476
29.670,155212,438,126482
29.675,155221,439,126473
29.680,155219,440,126474
29.685,155216,440,126484
29.690,155222,439,126477
29.695,155210,434,126474
29.700,155219,433,126489
29.705,155210,433,126488
29.710,155214,433,126474
29.715,155224,434,126479
29.719,155216,434,126489
29.724,155223,434,126468
29.729,155220,434,126467
29.734,155211,434,126468
29.739,155203,435,126471
29.744,155229,442,126460
29.749,155223,434,126474
29.754,155208,435,126462
29.759,155217,437,126474
29.764,155215,435,126475
29.769,155225,435,126474
29.774,155234,436,126468
29.779,155217,439,126470
29.784,155227,438,126466
29.789,155226,438,126468
29.794,155229,430,126482
29.799,155237,432,126472
29.804,155223,431,126466
29.809,155243,431,126483
29.814,155227,429,126466
29.819,155237,433,126477
29.824,155234,430,126473
29.829,155240,431,126471
29.834,155234,431,126466
29.839,155250,435,126479
29.844,155251,439,126464
29.849,155244,439,126475
29.854,155253,440,126472
29.859,155239,442,126461
29.864,155244,440,126472
29.868,155247,442,126466
29.873,155260,429,126467
29.878,155259,431,126479
29.883,155269,429,126476
29.888,155258,440,126479
29.893,155266,434,126488
29.898,155270,437,126483
29.903,155277,434,126479
29.908,155271,435,126477
29.913,155288,435,126472
29.918,155284,438,126472
29.923,155276,436,126472
29.928,155275,439,126485
29.933,155291,437,126489
29.938,155286,433,126480
29.943,155289,431,126486
29.948,155295,434,126482
29.953,155296,431,126487
29.958,155302,434,126487
29.963,155294,432,126492
29.968,155304,435,126488
29.973,155309,434,126487
29.978,155312,436,126509
29.983,155322,436,126484
29.988,155322,433,126442
29.993,155328,435,126482
29.998,155320,439,126485
30.003,155337,438,126496
30.008,155319,439,126489
30.013,155341,426,126501
30.017,155351,430,126510
30.022,155354,428,126499
30.027,155354,429,126499
30.032,155347,428,126510
30.037,155363,428,126502
30.042,155360,426,126495
30.047,155377,428,126513
30.052,155358,427,126507
30.057,155366,431,126512
30.062,155376,430,126502
30.067,155387,432,126503
30.072,155377,432,126508
30.077,155393,436,126521
30.082,155385,434,126513
30.087,155401,432,126513
30.092,155405,432,126529
30.097,155401,435,126521
30.102,155400,433,126511
30.107,155395,433,126511
30.112,155411,433,126514
30.117,155428,436,126524
30.122,155423,434,126510
30.127,155432,437,126526
30.132,155422,427,126517
30.137,155450,433,126540
30.142,155443,431,126531
30.147,155446,433,126541
30.152,155452,432,126517
30.157,155466,435,126525
30.162,155446,433,126539
30.166,155474,435,126548
30.171,155489,433,126543
30.176,155490,436,126571
30.181,155545,436,126589
30.186,155488,427,126584
30.191,155498,425,126584
30.196,155498,430,126604
30.201,155507,427,126595
30.206,155504,431,126609
30.211,155510,430,126604
30.216,155509,433,126613
30.221,155490,430,126633
30.226,155488,432,126622
30.231,155488,435,126614
30.236,155481,429,126624
30.241,155478,426,126613
30.246,155475,427,126631
30.251,155471,425,126628
30.256,155463,428,126638
30.261,155465,426,126630
30.266,155432,428,126623
30.271,155439,426,126622
30.276,155428,430,126611
30.281,155427,432,126612
30.286,155414,435,126608
30.291,155423,434,126596
30.296,155424,426,126605
30.301,155402,424,126597
30.306,155410,427,126603
30.311,155403,423,126586
30.315,155383,427,126597
30.320,155400,424,126585
30.325,155377,425,126585
30.330,155372,431,126587
30.335,155359,433,126587
30.340,155362,431,126593
30.345,155355,433,126593
30.350,155365,431,126580
30.355,155346,275,126577
30.360,155345,282,126576
30.365,155334,294,126591
30.370,155333,300,126582
30.375,155331,309,126578
30.380,155317,317,126581
30.385,155320,322,126576
30.390,155316,325,126589
30.395,155323,329,126583
30.400,155295,331,126560
30.405,155304,334,126548
30.410,155297,336,126563
30.415,155285,339,126559
30.420,155307,341,126554
30.425,155316,337,126570
30.430,155294,341,126573
30.435,155300,345,126571
30.440,155290,346,126566
30.445,155287,348,126572
30.450,155282,349,126563
30.455,155288,351,126566
30.460,155267,544,126541
30.464,155272,513,126544
30.469,155277,486,126539
30.474,155273,481,126539
30.479,155278,474,126535
30.484,155270,469,126547
30.489,155260,466,126550
30.494,155268,464,126540
30.499,155276,461,126544
30.504,155294,459,126542
30.509,155273,458,126541
30.514,155270,458,126551
30.519,155284,446,126536
30.524,155253,449,126549
30.529,155261,448,126540
30.534,155268,449,126541
30.539,155264,451,126546
30.544,155275,451,126544
30.549,155268,451,126546
30.554,155269,439,126539
30.559,155271,441,126548
30.564,155268,440,126545
30.569,155261,440,126546
30.574,155270,445,126545
30.579,155252,446,126552
30.584,155272,445,126541
30.589,155283,445,126554
30.594,155294,446,126548
30.599,155271,435,126555
30.604,155266,433,126546
30.609,155275,446,126544
30.613,155277,445,126548
30.618,155275,434,126539
30.623,155276,438,126533
30.628,155278,438,126545
30.633,155273,439,126532
30.638,155259,440,126539
30.643,155269,439,126523
30.648,155273,440,126534
30.653,155280,439,126540
30.658,155275,442,126530
30.663,155281,441,126526
30.668,155287,430,126533
30.673,155291,432,126542
30.678,155294,435,126540
30.683,155289,433,126535
30.688,155309,433,126550
30.693,155298,432,126558
30.698,155280,436,126545
30.703,155294,433,126545
30.708,155311,433,126550
30.713,155295,432,126541
30.718,155297,439,126548
30.723,155310,438,126550
30.728,155300,439,126558
30.733,155315,439,126550
30.738,155310,429,126547
30.743,155319,430,126556
30.748,155317,432,126553
30.753,155322,432,126565
30.758,155315,434,126548
30.762,155316,433,126555
30.767,155336,427,126559
30.772,155341,428,126565
30.777,155333,431,126557
30.782,155332,430,126560
30.787,155336,431,126570
30.792,155350,430,126568
30.797,155347,432,126567
30.802,155356,431,126564
30.807,155346,432,126565
30.812,155367,432,126574
30.817,155363,428,126561
30.822,155370,426,126572
30.827,155368,428,126572
30.832,155366,426,126571
30.837,155365,430,126568
30.842,155372,429,126578
30.847,155372,431,126576
30.852,155372,428,126580
30.857,155382,433,126573
30.862,155389,431,126563
30.867,155393,429,126579
30.872,155393,427,126586
30.877,155399,431,126575
30.882,155403,428,126587
30.887,155410,429,126590
30.892,155417,427,126589
30.897,155413,432,126580
30.902,155418,429,126584
30.907,155418,431,126583
30.911,155431,437,126642
30.916,155427,432,126602
30.921,155436,428,126588
30.926,155447,431,126597
30.931,155442,428,126604
30.936,155440,431,126596
30.941,155445,428,126586
30.946,155444,429,126593
30.951,155455,425,126617
30.956,155458,431,126602
30.961,155453,433,126602
30.966,155473,426,126617
30.971,155482,425,126609
30.976,155480,427,126629
30.981,155489,425,126601
30.986,155496,428,126618
30.991,155489,425,126613
30.996,155499,430,126622
31.001,155500,429,126626
31.006,155517,432,126631
31.011,155532,423,126615
31.016,155523,429,126626
31.021,155521,425,126611
31.026,155508,427,126622
31.031,155541,427,126625
31.036,155530,429,126624
31.041,155545,429,126643
31.046,155547,431,126649
31.051,155552,429,126637
31.056,155555,433,126648
31.061,155580,427,126664
31.065,155560,434,126651
31.070,155582,421,126650
31.075,155583,425,126641
31.080,155573,423,126658
31.085,155585,426,126668
31.090,155606,425,126690
31.095,155602,429,126692
31.100,155608,428,126707
31.105,155624,430,126713
31.110,155623,426,126719
31.115,155623,430,126714
31.120,155643,429,126704
31.125,155628,432,126721
31.130,155628,431,126736
31.135,155619,434,126737
31.140,155616,421,126749
31.145,155626,422,126743
31.150,155604,421,126749
31.155,155611,425,126738
31.160,155596,426,126742
31.165,155602,431,126742
31.170,155587,431,126742
31.175,155581,434,126751
31.180,155572,421,126733
31.185,155565,423,126740
31.190,155583,421,126736
31.195,155563,425,126741
31.200,155565,421,126740
31.205,155554,413,126704
31.210,155551,427,126731
31.214,155541,430,126721
31.219,155537,427,126723
31.224,155538,429,126718
31.229,155539,426,126717
31.234,155512,430,126713
31.239,155528,429,126707
31.244,155511,429,126716
31.249,155503,427,126720
31.254,155495,424,126708
31.259,155497,422,126710
31.264,155505,425,126716
31.269,155500,423,126723
31.274,155507,426,126709
31.279,155489,425,126714
31.284,155490,427,126703
31.289,155485,425,126714
31.294,155488,429,126713
31.299,155490,429,126706
31.304,155478,422,126716
31.309,155474,421,126697
31.314,155450,422,126693
31.319,155467,421,126680
31.324,155459,423,126685
31.329,155454,422,126706
31.334,155481,423,126689
31.339,155473,422,126709
31.344,155472,423,126718
31.349,155476,418,126721
31.354,155467,263,126710
31.359,155469,285,126718
31.363,155453,298,126709
31.368,155470,304,126728
31.373,155438,314,126688
31.378,155461,319,126701
31.383,155448,323,126703
31.388,155442,327,126698
31.393,155441,319,126709
31.398,155434,321,126695
31.403,155435,328,126699
31.408,155446,332,126703
31.413,155446,336,126705
31.418,155434,339,126718
31.423,155453,339,126723
31.428,155456,343,126728
31.433,155451,344,126705
31.438,155429,333,126721
31.443,155448,336,126721
31.448,155432,358,126717
31.453,155431,344,126731
31.458,155424,552,126718
31.463,155429,508,126717
31.468,155418,492,126720
31.473,155437,480,126710
31.478,155431,476,126714
31.483,155420,460,126701
31.488,155430,455,126708
31.493,155425,452,126697
31.498,155403,455,126746
31.503,155431,448,126702
31.508,155435,445,126705
31.512,155429,444,126691
31.517,155420,445,126703
31.522,155410,443,126697
31.527,155414,443,126699
31.532,155410,440,126684
31.537,155414,443,126689
31.542,155414,440,126687
31.547,155420,435,126686
31.552,155427,436,126689
31.557,155423,437,126689
31.562,155427,436,126690
31.567,155414,435,126693
31.572,155430,435,126694
31.577,155432,435,126687
31.582,155417,433,126692
31.587,155434,434,126699
31.592,155430,432,126696
31.597,155432,438,126683
31.602,155430,439,126672
31.607,155441,439,126676
31.612,155437,427,126682
31.617,155430,430,126681
31.622,155432,428,126676
31.627,155438,428,126680
31.632,155433,427,126661
31.637,155432,429,126672
31.642,155439,427,126672
31.647,155447,432,126659
31.652,155427,430,126645
31.657,155440,433,126660
31.661,155421,430,126644
31.666,155427,433,126639
31.671,155442,431,126631
31.676,155422,435,126636
31.681,155426,432,126631
31.686,155429,434,126614
31.691,155425,425,126607
31.696,155427,426,126599
31.701,155423,424,126602
31.706,155440,425,126585
31.711,155428,423,126584
31.716,155433,426,126581
31.721,155441,424,126587
31.726,155440,425,126575
31.731,155461,423,126559
31.736,155438,426,126565
31.741,155416,428,126546
31.746,155442,429,126561
31.751,155457,427,126545
31.756,155449,430,126542
31.761,155461,428,126546
31.766,155460,430,126542
31.771,155469,427,126546
31.776,155448,431,126548
31.781,155464,428,126556
31.786,155470,430,126559
31.791,155468,421,126557
31.796,155465,425,126549
31.801,155470,422,126547
31.806,155474,425,126564
31.810,155487,423,126548
31.815,155471,426,126543
31.820,155490,423,126561
31.825,155479,426,126555
31.830,155491,425,126548
31.835,155497,429,126563
31.840,155487,422,126547
31.845,155502,425,126540
31.850,155487,422,126547
31.855,155494,427,126543
31.860,155500,424,126558
31.865,155498,425,126547
31.870,155513,425,126545
31.875,155513,428,126536
31.880,155514,426,126542
31.885,155510,429,126558
31.890,155522,419,126550
31.895,155526,424,126541
31.900,155530,422,126553
31.905,155533,426,126549
31.910,155530,424,126560
31.915,155525,428,126541
31.920,155532,426,126564
31.925,155536,427,126572
31.930,155539,426,126583
31.935,155560,420,126569
31.940,155571,419,126596
31.945,155550,421,126612
31.950,155571,419,126602
31.955,155569,423,126612
31.959,155558,422,126609
31.964,155546,424,126621
31.969,155552,424,126614
31.974,155550,428,126624
31.979,155551,426,126621
31.984,155545,421,126617
31.989,155541,420,126617
31.994,155511,424,126627
31.999,155508,423,126614
32.004,155494,426,126613
32.009,155491,425,126624
32.014,155504,428,126619
32.019,155476,415,126614
32.024,155477,417,126628
32.029,155468,415,126623
32.034,155476,421,126626
32.039,155468,422,126614
32.044,155460,424,126613
32.049,155469,424,126621
32.054,155457,427,126615
32.059,155441,427,126611
32.064,155439,415,126622
32.069,155438,417,126591
32.074,155438,419,126592
32.079,155430,418,126588
32.084,155433,424,126585
32.089,155436,423,126593
32.094,155409,426,126594
32.099,155410,425,126591
32.104,155412,427,126596
32.108,155407,426,126594
32.113,155398,416,126588
32.118,155394,416,126575
32.123,155386,418,126569
32.128,155387,417,126590
32.133,155375,426,126587
32.138,155382,426,126589
32.143,155382,428,126582
32.148,155372,415,126576
32.153,155363,416,126568
32.158,155358,416,126575
32.163,155364,417,126575
32.168,155354,415,126566
32.173,155358,417,126582
32.178,155371,416,126583
32.183,155370,422,126598
32.188,155360,424,126597
32.193,155374,425,126604
32.198,155350,424,126601
32.203,155354,425,126614
32.208,155349,426,126601
32.213,155360,428,126590
32.218,155335,426,126593
32.223,155347,415,126593
32.228,155361,419,126592
32.233,155343,427,126588
32.238,155340,415,126599
32.243,155345,416,126591
32.248,155339,416,126578
32.253,155354,417,126592
32.257,155341,418,126591
32.262,155334,419,126597
32.267,155331,419,126612
32.272,155334,419,126596
32.277,155326,425,126602
32.282,155342,424,126593
32.287,155346,425,126606
32.292,155346,425,126614
32.297,155340,426,126620
32.302,155342,427,126625
32.307,155355,426,126639
32.312,155355,415,126629
32.317,155354,417,126618
32.322,155352,417,126621
32.327,155355,423,126633
32.332,155360,423,126633
32.337,155356,425,126621
32.342,155362,423,126625
32.347,155356,425,126632
32.352,155373,253,126638
32.357,155362,281,126632
32.362,155365,293,126641
32.367,155352,302,126625
32.372,155357,313,126627
32.377,155371,306,126625
32.382,155360,311,126640
32.387,155362,315,126632
32.392,155359,317,126635
32.397,155370,323,126638
32.402,155362,324,126644
32.406,155378,327,126623
32.411,155364,329,126617
32.416,155373,333,126645
32.421,155380,335,126626
32.426,155372,334,126624
32.431,155376,335,126623
32.436,155374,339,126627
32.441,155379,340,126642
32.446,155378,343,126644
32.451,155393,331,126630
32.456,155375,561,126644
32.461,155378,503,126630
32.466,155389,484,126627
32.471,155406,474,126624
32.476,155389,466,126638
32.481,155406,460,126647
32.486,155408,457,126637
32.491,155407,453,126635
32.496,155403,452,126639
32.501,155406,449,126645
32.506,155417,450,126631
32.511,155411,447,126648
32.516,155412,449,126630
32.521,155424,438,126632
32.526,155427,439,126651
32.531,155423,437,126642
32.536,155433,439,126638
32.541,155408,437,126650
32.546,155425,440,126642
32.551,155428,439,126647
32.556,155425,431,126642
32.560,155429,427,126640
32.565,155440,430,126646
32.570,155445,432,126649
32.575,155434,435,126650
32.580,155441,432,126663
32.585,155452,435,126651
32.590,155445,433,126644
32.595,155444,436,126646
32.600,155456,433,126645
32.605,155469,436,126648
32.610,155461,423,126650
32.615,155444,426,126653
32.620,155457,429,126636
32.625,155476,428,126644
32.630,155469,427,126659
32.635,155474,429,126652
32.640,155483,427,126658
32.645,155472,428,126654
32.650,155488,427,126667
32.655,155482,431,126654
32.660,155492,430,126665
32.665,155502,432,126664
32.670,155504,428,126661
32.675,155493,431,126654
32.680,155503,430,126660
32.685,155510,432,126664
32.690,155526,430,126668
32.695,155510,432,126661
32.700,155515,429,126668
32.705,155516,419,126673
32.709,155511,417,126669
32.714,155530,431,126658
32.719,155526,424,126656
32.724,155528,426,126662
32.729,155540,424,126665
32.734,155548,428,126660
32.739,155553,427,126665
32.744,155557,427,126680
32.749,155568,428,126687
32.754,155565,431,126681
32.759,155563,416,126697
32.764,155590,407,126682
32.769,155574,424,126680
32.774,155569,427,126680
32.779,155578,426,126694
32.784,155587,430,126714
32.789,155603,427,126715
32.794,155599,431,126721
32.799,155602,417,126740
32.804,155601,424,126738
32.809,155603,423,126736
32.814,155602,420,126751
32.819,155619,420,126742
32.824,155607,426,126736
32.829,155594,414,126742
32.834,155596,420,126742
32.839,155570,421,126744
32.844,155587,426,126745
32.849,155567,414,126741
32.854,155561,421,126745
32.858,155560,420,126752
32.863,155541,417,126736
32.868,155549,416,126731
32.873,155542,423,126735
32.878,155528,422,126735
32.883,155505,426,126731
32.888,155528,415,126726
32.893,155518,418,126716
32.898,155522,419,126729
32.903,155503,424,126726
32.908,155505,414,126725
32.913,155481,426,126721
32.918,155471,415,126707
32.923,155466,418,126716
32.928,155475,419,126702
32.933,155468,424,126707
32.938,155461,426,126707
32.943,155448,417,126701
32.948,155462,420,126696
32.953,155453,425,126691
32.958,155440,418,126643
32.963,155435,421,126695
32.968,155417,422,126680
32.973,155421,415,126684
32.978,155409,416,126689
32.983,155407,418,126688
32.988,155395,419,126672
32.993,155394,426,126656
32.998,155383,414,126668
33.003,155382,418,126675
33.007,155379,423,126670
33.012,155369,420,126638
33.017,155361,421,126654
33.022,155372,415,126634
33.027,155346,416,126631
33.032,155341,420,126633
33.037,155347,420,126649
33.042,155346,414,126648
33.047,155349,415,126644
33.052,155355,423,126642
33.057,155345,414,126640
33.062,155335,420,126641
33.067,155321,423,126636
33.072,155332,417,126628
33.077,155323,418,126627
33.082,155337,423,126629
33.087,155313,412,126627
33.092,155331,417,126613
33.097,155306,418,126617
33.102,155304,421,126633
33.107,155306,415,126609
33.112,155309,419,126621
33.117,155297,422,126624
33.122,155303,414,126626
33.127,155307,416,126616
33.132,155310,420,126606
33.137,155302,422,126597
33.142,155293,412,126599
33.147,155292,416,126605
33.152,155298,420,126599
33.156,155287,414,126599
33.161,155284,417,126598
33.166,155295,419,126596
33.171,155282,423,126593
33.176,155271,412,126585
33.181,155265,416,126578
33.186,155263,419,126582
33.191,155264,423,126583
33.196,155278,414,126588
33.201,155272,421,126522
33.206,155283,420,126580
33.211,155291,424,126586
33.216,155280,413,126592
33.221,155279,414,126582
33.226,155270,415,126576
33.231,155279,418,126594
33.236,155283,421,126594
33.241,155276,413,126596
33.246,155280,414,126600
33.251,155279,420,126593
33.256,155295,422,126604
33.261,155292,414,126598
33.266,155286,415,126597
33.271,155287,417,126603
33.276,155280,421,126604
33.281,155282,422,126596
33.286,155285,413,126603
33.291,155304,414,126599
33.296,155302,420,126608
33.301,155294,414,126607
33.305,155296,417,126605
33.310,155290,420,126589
33.315,155296,410,126609
33.320,155290,414,126598
33.325,155294,416,126615
33.330,155301,419,126614
33.335,155285,423,126607
33.340,155309,412,126615
33.345,155314,417,126636
33.350,155332,232,126638
33.355,155298,278,126628
33.360,155331,280,126619
33.365,155314,292,126624
33.370,155319,301,126628
33.375,155313,311,126628
33.380,155316,317,126626
33.385,155324,309,126636
33.390,155322,314,126641
33.395,155339,322,126637
33.400,155334,319,126644
33.405,155337,325,126640
33.410,155344,329,126640
33.415,155345,335,126636
33.420,155344,324,126640
33.425,155345,328,126647
33.430,155360,332,126648
33.435,155352,337,126649
33.440,155348,326,126658
33.445,155350,333,126604
33.450,155372,338,126651
33.454,155340,574,126647
33.459,155370,497,126678
33.464,155368,479,126673
33.469,155379,471,126678
33.474,155397,468,126677
33.479,155396,451,126680
33.484,155405,450,126687
33.489,155402,448,126686
33.494,155407,443,126695
33.499,155406,441,126689
33.504,155409,444,126687
33.509,155421,445,126705
33.514,155419,436,126709
33.519,155441,434,126714
33.524,155438,438,126725
33.529,155436,438,126724
33.534,155441,430,126736
33.539,155453,428,126738
33.544,155460,435,126741
33.549,155471,436,126747
33.554,155483,428,126768
33.559,155478,427,126775
33.564,155482,432,126782
33.569,155494,431,126786
33.574,155511,435,126805
33.579,155533,421,126821
33.584,155544,426,126827
33.589,155540,426,126854
33.594,155546,426,126854
33.599,155551,423,126868
33.603,155568,428,126873
33.608,155574,427,126869
33.613,155588,420,126898
33.618,155605,421,126909
33.623,155623,425,126925
33.628,155628,426,126943
33.633,155636,419,126944
33.638,155646,420,126955
33.643,155656,428,126971
33.648,155659,416,126969
33.653,155673,422,126960
33.658,155671,422,126970
33.663,155691,428,126984
33.668,155701,416,127005
33.673,155715,421,127028
33.678,155714,422,127066
33.683,155736,426,127064
33.688,155757,418,127052
33.693,155757,425,127079
33.698,155766,415,127080
33.703,155754,419,127086
33.708,155756,421,127085
33.713,155757,427,127079
33.718,155759,415,127100
33.723,155744,421,127099
33.728,155740,422,127094
33.733,155735,415,127110
33.738,155741,419,127099
33.743,155724,426,127100
33.748,155722,414,127105
33.752,155708,419,127088
33.757,155718,420,127088
33.762,155699,423,127088
33.767,155702,411,127090
33.772,155698,417,127089
33.777,155680,416,127087
33.782,155678,421,127090
33.787,155695,415,127065
33.792,155676,423,127078
33.797,155655,422,127087
33.802,155678,413,127081
33.807,155646,414,127068
33.812,155639,419,127078
33.817,155635,419,127068
33.822,155631,423,127055
33.827,155631,411,127060
33.832,155630,415,127076
33.837,155626,420,127063
33.842,155621,423,127073
33.847,155621,411,127065
33.852,155620,416,127061
33.857,155602,416,127061
33.862,155605,419,127056
33.867,155584,420,127060
33.872,155597,412,127081
33.877,155586,413,127065
33.882,155584,419,127059
33.887,155585,416,127066
33.892,155576,420,127065
33.897,155564,423,127064
33.902,155576,413,127056
33.906,155558,412,127042
33.911,155554,418,127048
33.916,155548,417,127049
33.921,155556,422,127046
33.926,155562,409,127059
33.931,155568,417,127087
33.936,155581,409,127097
33.941,155584,412,127110
33.946,155589,412,127125
33.951,155587,417,127134
33.956,155603,417,127153
33.961,155599,421,127163
33.966,155607,408,127173
33.971,155602,414,127174
33.976,155606,414,127197
33.981,155614,423,127196
33.986,155603,409,127208
33.991,155616,413,127213
33.996,155629,415,127222
34.001,155622,418,127229
34.006,155630,418,127235
34.011,155631,410,127258
34.016,155633,410,127264
34.021,155644,414,127262
34.026,155648,414,127278
34.031,155660,413,127297
34.036,155663,416,127291
34.041,155646,419,127289
34.046,155662,409,127294
34.051,155654,411,127284
34.055,155645,412,127296
34.060,155650,414,127293
34.065,155655,415,127297
34.070,155647,419,127296
34.075,155630,420,127291
34.080,155632,413,127288
34.085,155640,415,127282
34.090,155629,420,127285
34.095,155634,410,127280
34.100,155640,413,127271
34.105,155630,415,127268
34.110,155632,419,127270
34.115,155622,420,127269
34.120,155618,409,127255
34.125,155613,410,127277
34.130,155613,418,127256
34.135,155622,408,127266
34.140,155627,410,127261
34.145,155620,412,127255
34.150,155617,413,127265
34.155,155614,416,127246
34.160,155621,416,127259
34.165,155621,418,127251
34.170,155611,409,127257
34.175,155621,414,127305
34.180,155613,420,127244
34.185,155630,407,127250
34.190,155624,410,127253
34.195,155626,411,127248
34.200,155611,412,127244
34.204,155605,414,127239
34.209,155632,417,127238
34.214,155627,420,127233
34.219,155613,409,127226
34.224,155608,413,127223
34.229,155617,417,127212
34.234,155611,419,127207
34.239,155623,408,127214
34.244,155628,409,127210
34.249,155609,414,127207
34.254,155607,418,127198
34.259,155623,407,127199
34.264,155615,411,127197
34.269,155619,414,127187
34.274,155604,410,127176
34.279,155604,413,127173
34.284,155614,419,127158
34.289,155619,410,127165
34.294,155605,414,127165
34.299,155598,417,127137
34.304,155596,409,127135
34.309,155591,410,127131
34.314,155606,415,127118
34.319,155594,417,127109
34.324,155597,412,127105
34.329,155589,414,127098
34.334,155590,418,127098
34.339,155582,406,127081
34.344,155570,409,127073
34.349,155601,241,127063
34.353,155571,275,127049
34.358,155574,291,127038
34.363,155557,288,127030
34.368,155546,297,127012
34.373,155567,312,127012
34.378,155578,303,127004
34.383,155555,310,126994
34.388,155552,317,126989
34.393,155558,311,126988
34.398,155575,315,126981
34.403,155550,322,126990
34.408,155566,325,126976
34.413,155581,319,126975
34.418,155575,326,126971
34.423,155577,331,126972
34.428,155556,320,126964
34.433,155566,329,126970
34.438,155574,332,126958
34.443,155565,337,126953
34.448,155577,328,126949
34.453,155519,568,126953
34.458,155577,502,126946
34.463,155595,472,126949
34.468,155590,468,126934
34.473,155586,458,126942
34.478,155580,452,126945
34.483,155599,451,126940
34.488,155596,438,126936
34.493,155596,440,126932
34.498,155596,439,126921
34.502,155605,440,126912
34.507,155601,429,126924
34.512,155613,432,126934
34.517,155624,426,126918
34.522,155622,432,126928
34.527,155626,432,126938
34.532,155617,424,126934
34.537,155620,424,126924
34.542,155636,427,126917
34.547,155642,428,126937
34.552,155639,422,126939
34.557,155638,422,126940
34.562,155644,427,126960
34.567,155646,423,126951
34.572,155662,430,126956
34.577,155662,419,126977
34.582,155657,423,126966
34.587,155670,427,126953
34.592,155660,420,126968
34.597,155671,420,126972
34.602,155662,426,126967
34.607,155668,415,126966
34.612,155650,420,126981
34.617,155660,417,126979
34.622,155657,422,126980
34.627,155617,412,126969
34.632,155633,417,126964
34.637,155623,418,126968
34.642,155618,424,126969
34.647,155616,412,126963
34.651,155600,419,126954
34.656,155584,419,126952
34.661,155588,413,126926
34.666,155598,411,126909
34.671,155575,424,126932
34.676,155565,411,126930
34.681,155565,415,126924
34.686,155564,417,126923
34.691,155561,424,126911
34.696,155538,411,126901
34.701,155520,417,126910
34.706,155529,421,126901
34.711,155482,432,126960
34.716,155523,409,126907
34.721,155520,413,126903
34.726,155514,414,126906
34.731,155518,422,126913
34.736,155509,408,126901
34.741,155519,414,126904
34.746,155517,415,126904
34.751,155506,423,126899
34.756,155493,412,126891
34.761,155515,411,126902
34.766,155504,413,126902
34.771,155503,419,126898
34.776,155481,407,126875
34.781,155471,412,126864
34.786,155471,413,126856
34.791,155463,419,126856
34.796,155461,408,126871
34.800,155478,411,126876
34.805,155464,413,126863
34.810,155477,411,126880
34.815,155466,413,126891
34.820,155465,418,126883
34.825,155474,407,126871
34.830,155483,414,126860
34.835,155471,416,126862
34.840,155459,407,126861
34.845,155453,408,126859
34.850,155434,414,126843
34.855,155442,415,126855
34.860,155436,411,126840
34.865,155442,411,126832
34.870,155428,408,126834
34.875,155432,409,126837
34.880,155445,414,126841
34.885,155441,404,126843
34.890,155438,411,126835
34.895,155440,412,126837
34.900,155437,417,126838
34.905,155438,412,126834
34.910,155432,416,126830
34.915,155438,405,126831
34.920,155450,410,126828
34.925,155431,411,126817
34.930,155420,418,126820
34.935,155427,407,126828
34.940,155422,413,126815
34.945,155433,415,126820
34.949,155422,410,126814
34.954,155419,414,126816
34.959,155433,408,126814
34.964,155424,410,126808
34.969,155418,418,126821
34.974,155412,407,126810
34.979,155418,411,126798
34.984,155432,412,126809
34.989,155414,407,126794
34.994,155434,408,126809
34.999,155423,415,126799
35.004,155431,407,126803
35.009,155423,413,126813
35.014,155436,415,126801
35.019,155436,408,126799
35.024,155439,410,126813
35.029,155432,415,126808
35.034,155437,405,126816
35.039,155440,409,126817
35.044,155446,411,126814
35.049,155446,418,126817
35.054,155453,410,126828
35.059,155455,417,126822
35.064,155448,406,126825
35.069,155453,411,126828
35.074,155453,413,126841
35.079,155460,406,126839
35.084,155445,409,126839
35.089,155448,415,126843
35.094,155471,405,126826
35.098,155469,409,126847
35.103,155465,405,126844
35.108,155474,409,126844
35.113,155472,412,126850
35.118,155469,418,126839
35.123,155461,406,126848
35.128,155485,412,126854
35.133,155475,415,126844
35.138,155476,407,126859
35.143,155484,408,126849
35.148,155479,402,126838
35.153,155486,404,126854
35.158,155502,409,126863
35.163,155488,410,126851
35.168,155502,417,126849
35.173,155510,405,126854
35.178,155525,410,126863
35.183,155515,413,126870
35.188,155507,405,126855
35.193,155511,408,126853
35.198,155515,405,126865
35.203,155521,406,126862
35.208,155516,411,126865
35.213,155524,413,126864
35.218,155530,405,126872
35.223,155540,407,126870
35.228,155528,412,126871
35.233,155536,416,126864
35.238,155551,405,126875
35.243,155547,407,126865
35.247,155552,415,126869
35.252,155555,405,126872
35.257,155549,408,126864
35.262,155549,410,126873
35.267,155554,403,126855
35.272,155561,406,126875
35.277,155555,410,126881
35.282,155572,416,126877
35.287,155584,405,126887
35.292,155591,409,126895
35.297,155586,402,126888
35.302,155599,404,126889
35.307,155597,407,126884
35.312,155600,410,126879
35.317,155608,414,126888
35.322,155596,404,126909
35.327,155608,408,126902
35.332,155622,411,126896
35.337,155615,413,126928
35.342,155637,403,126937
35.347,155647,245,126936
35.352,155627,277,126943
35.357,155640,278,126932
35.362,155619,291,126944
35.367,155619,301,126951
35.372,155622,296,126943
35.377,155624,304,126948
35.382,155618,313,126951
35.387,155613,306,126961
35.392,155611,311,126971
35.397,155607,315,126963
35.401,155595,323,126961
35.406,155584,316,126948
35.411,155583,323,126954
35.416,155586,331,126959
35.421,155569,322,126960
35.426,155555,327,126952
35.431,155560,335,126958
35.436,155552,326,126944
35.441,155544,336,126956
35.446,155545,326,126938
35.451,155526,548,126937
35.456,155529,495,126943
35.461,155532,468,126932
35.466,155518,459,126924
35.471,155515,458,126928
35.476,155511,442,126925
35.481,155506,441,126923
35.486,155511,440,126913
35.491,155494,436,126913
35.496,155484,436,126922
35.501,155484,439,126918
35.506,155467,427,126909
35.511,155479,432,126923
35.516,155481,432,126919
35.521,155454,423,126920
35.526,155454,425,126923
35.531,155443,430,126909
35.536,155448,430,126903
35.541,155437,423,126918
35.546,155430,426,126901
35.550,155434,418,126901
35.555,155425,419,126889
35.560,155417,422,126880
35.565,155423,424,126875
35.570,155421,416,126891
35.575,155421,416,126894
35.580,155419,420,126908
35.585,155435,422,126916
35.590,155438,423,126907
35.595,155430,412,126905
35.600,155430,415,126903
35.605,155422,418,126912
35.610,155415,424,126893
35.615,155413,412,126901
35.620,155414,416,126889
35.625,155406,419,126894
35.630,155406,412,126873
35.635,155413,432,126878
35.640,155425,411,126888
35.645,155410,412,126895
35.650,155410,418,126888
35.655,155408,420,126895
35.660,155423,413,126891
35.665,155417,416,126915
35.670,155413,410,126905
35.675,155419,412,126909
35.680,155412,417,126895
35.685,155404,410,126900
35.690,155415,418,126904
35.695,155412,420,126894
35.699,155402,412,126891
35.704,155394,414,126881
35.709,155401,421,126893
35.714,155414,408,126904
35.719,155406,413,126889
35.724,155411,416,126898
35.729,155399,409,126886
35.734,155398,413,126899
35.739,155409,418,126891
35.744,155415,406,126900
35.749,155419,411,126896
35.754,155419,411,126897
35.759,155404,418,126896
35.764,155409,407,126880
35.769,155418,413,126900
35.774,155411,413,126894
35.779,155406,423,126899
35.784,155425,411,126891
35.789,155414,418,126899
35.794,155413,407,126904
35.799,155418,411,126895
35.804,155424,410,126892
35.809,155428,417,126891
35.814,155425,405,126887
35.819,155420,409,126899
35.824,155418,412,126893
35.829,155412,419,126883
35.834,155432,411,126890
35.839,155415,416,126877
35.844,155428,406,126890
35.848,155435,413,126887
35.853,155417,414,126893
35.858,155436,408,126889
35.863,155435,411,126888
35.868,155451,406,126886
35.873,155441,407,126899
35.878,155442,411,126964
35.883,155449,409,126900
35.888,155451,417,126899
35.893,155455,404,126908
35.898,155446,409,126897
35.903,155466,411,126903
35.908,155456,407,126905
35.913,155468,408,126902
35.918,155480,416,126898
35.923,155467,406,126901
35.928,155455,418,126900
35.933,155485,405,126908
35.938,155477,413,126914
35.943,155498,402,126909
35.948,155491,408,126914
35.953,155494,410,126905
35.958,155483,406,126912
35.963,155488,408,126917
35.968,155483,416,126905
35.973,155501,406,126912
35.978,155504,406,126930
35.983,155508,410,126922
35.988,155510,405,126919
35.993,155520,407,126924
35.997,155505,413,126917
36.002,155529,404,126925
36.007,155535,411,126912
36.012,155538,413,126917
36.017,155536,405,126922
36.022,155554,403,126924
36.027,155548,406,126941
36.032,155551,408,126937
36.037,155550,413,126923
36.042,155553,404,126936
36.047,155559,413,126940
36.052,155574,402,126942
36.057,155572,407,126949
36.062,155578,409,126942
36.067,155567,405,126932
36.072,155579,407,126930
36.077,155573,406,126941
36.082,155578,406,126950
36.087,155597,415,126948
36.092,155604,403,126955
36.097,155608,407,126965
36.102,155610,410,126956
36.107,155619,405,126960
36.112,155616,405,126971
36.117,155612,412,126960
36.122,155598,398,126952
36.127,155645,412,126980
36.132,155651,400,126995
36.137,155654,407,127012
36.142,155664,410,127021
36.146,155673,406,127024
36.151,155669,408,127037
36.156,155672,414,127031
36.161,155686,404,127038
36.166,155685,410,127047
36.171,155668,403,127035
36.176,155674,409,127055
36.181,155676,412,127056
36.186,155664,403,127053
36.191,155645,406,127049
36.196,155652,411,127061
36.201,155649,401,127068
36.206,155646,406,127050
36.211,155623,410,127060
36.216,155630,403,127059
36.221,155621,409,127063
36.226,155601,403,127054
36.231,155603,408,127048
36.236,155591,401,127064
36.241,155585,405,127037
36.246,155583,411,127048
36.251,155572,402,127036
36.256,155580,407,127044
36.261,155563,411,127036
36.266,155566,404,127035
36.271,155525,398,127027
36.276,155564,410,127030
36.281,155554,399,127034
36.286,155547,404,127028
36.291,155533,406,127011
36.295,155543,412,127021
36.300,155535,402,127026
36.305,155533,407,127022
36.310,155519,409,127022
36.315,155520,403,127011
36.320,155511,409,127020
36.325,155506,402,127001
36.330,155495,405,127008
36.335,155493,411,126996
36.340,155477,402,127001
36.345,155505,253,127023
36.350,155470,268,127025
36.355,155489,287,127000
36.360,155478,285,126990
36.365,155472,300,126982
36.370,155466,296,126986
36.375,155468,303,126988
36.380,155456,313,126967
36.385,155462,307,126999
36.390,155455,316,126996
36.395,155468,322,126995
36.400,155467,313,126996
36.405,155460,319,126981
36.410,155447,326,126987
36.415,155436,321,126974
36.420,155432,330,126968
36.425,155440,322,126965
36.430,155425,331,126968
36.435,155422,323,126960
36.440,155423,329,126955
36.444,155414,323,126958
36.449,155409,525,126946
36.454,155407,485,126950
36.459,155407,469,126953
36.464,155397,456,126959
36.469,155411,452,126960
36.474,155426,439,126951
36.479,155423,435,126954
36.484,155412,436,126943
36.489,155396,439,126947
36.494,155412,429,126943
36.499,155392,429,126943
36.504,155404,433,126951
36.509,155403,424,126940
36.514,155394,428,126952
36.519,155395,418,126943
36.524,155401,421,126950
36.529,155399,423,126949
36.534,155405,425,126940
36.539,155401,415,126950
36.544,155401,418,126947
36.549,155391,423,126943
36.554,155401,412,126934
36.559,155400,417,126949
36.564,155400,413,126940
36.569,155402,418,126937
36.574,155403,420,126930
36.579,155403,412,126949
36.584,155406,414,126949
36.589,155392,421,126925
36.593,155410,410,126951
36.598,155403,415,126926
36.603,155411,418,126949
36.608,155422,413,126945
36.613,155411,416,126950
36.618,155427,407,126960
36.623,155432,409,126951
36.628,155421,415,126958
36.633,155406,416,126957
36.638,155414,408,126948
36.643,155423,410,126958
36.648,155424,417,126958
36.653,155434,405,126965
36.658,155424,414,126962
36.663,155432,405,126957
36.668,155432,410,126957
36.673,155443,411,126960
36.678,155446,417,126946
36.683,155440,407,126958
36.688,155449,414,126961
36.693,155469,416,126964
36.698,155458,407,126974
36.703,155453,411,126979
36.708,155464,409,126960
36.713,155458,411,126973
36.718,155466,416,126970
36.723,155472,405,126982
36.728,155462,412,126976
36.733,155466,402,126968
36.738,155474,408,126984
36.742,155465,412,126970
36.747,155473,406,126980
36.752,155485,407,126975
36.757,155472,404,126973
36.762,155474,408,126984
36.767,155484,416,126966
36.772,155491,404,126974
36.777,155502,409,126971
36.782,155500,411,126988
36.787,155501,405,126978
36.792,155503,406,126983
36.797,155502,415,126978
36.802,155501,406,126954
36.807,155508,413,126982
36.812,155516,403,126997
36.817,155523,408,126981
36.822,155512,413,126984
36.827,155533,406,126992
36.832,155526,409,126992
36.837,155524,415,126991
36.842,155533,404,126991
36.847,155531,412,126998
36.852,155549,404,126997
36.857,155541,410,127001
36.862,155553,402,127004
36.867,155542,407,126993
36.872,155556,410,126996
36.877,155555,403,126994
36.882,155546,407,126987
36.887,155552,413,126999
36.892,155569,403,127017
36.896,155564,408,127008
36.901,155576,405,127007
36.906,155586,413,127016
36.911,155568,400,127005
36.916,155589,406,127013
36.921,155603,409,127012
36.926,155594,404,127019
36.931,155606,403,127030
36.936,155607,411,127031
36.941,155626,400,127039
36.946,155636,406,127033
36.951,155652,402,127063
36.956,155639,413,127066
36.961,155649,401,127075
36.966,155631,406,127068
36.971,155631,406,127069
36.976,155625,411,127079
36.981,155624,399,127071
36.986,155622,406,127087
36.991,155630,408,127087
36.996,155623,400,127092
37.001,155617,404,127097
37.006,155616,412,127099
37.011,155605,400,127101
37.016,155594,406,127109
37.021,155593,408,127105
37.026,155584,402,127098
37.031,155575,404,127093
37.036,155578,410,127097
37.041,155566,398,127094
37.045,155557,406,127103
37.050,155570,410,127087
37.055,155567,403,127104
37.060,155569,404,127096
37.065,155560,400,127096
37.070,155536,402,127095
37.075,155547,408,127075
37.080,155538,398,127079
37.085,155538,406,127084
37.090,155528,407,127072
37.095,155534,402,127083
37.100,155523,404,127082
37.105,155518,401,127082
37.110,155510,401,127081
37.115,155498,407,127068
37.120,155516,397,127083
37.125,155494,404,127069
37.130,155488,405,127063
37.135,155477,399,127064
37.140,155494,400,127070
37.145,155484,400,127062
37.150,155483,401,127060
37.155,155479,408,127045
37.160,155466,397,127027
37.165,155454,404,127027
37.170,155448,406,127031
37.175,155466,400,127053
37.180,155458,403,127045
37.185,155470,399,127041
37.190,155463,400,127054
37.194,155472,398,127053
37.199,155464,399,127064
37.204,155456,407,127057
37.209,155451,396,127053
37.214,155449,400,127034
37.219,155444,404,127029
37.224,155438,410,127030
37.229,155432,398,127024
37.234,155433,403,127018
37.239,155439,405,127015
37.244,155424,402,127021
37.249,155432,405,127027
37.254,155425,398,127028
37.259,155421,400,127035
37.264,155421,406,127031
37.269,155445,408,127030
37.274,155427,402,127033
37.279,155438,403,127023
37.284,155420,412,127031
37.289,155422,397,127023
37.294,155404,409,127025
37.299,155418,398,127023
37.304,155428,405,127030
37.309,155418,406,127038
37.314,155418,399,127027
37.319,155408,401,127023
37.324,155429,408,127017
37.329,155431,397,127016
37.334,155430,402,127023
37.339,155428,394,127024
37.343,155427,248,127049
37.348,155440,271,127049
37.353,155428,289,127039
37.358,155428,283,127024
37.363,155431,294,127026
37.368,155418,302,127035
37.373,155429,298,127035
37.378,155440,304,127022
37.383,155424,313,127026
37.388,155435,309,127027
37.393,155440,316,127032
37.398,155436,320,127023
37.403,155451,312,127036
37.408,155419,316,127027
37.413,155435,323,127029
37.418,155426,328,127023
37.423,155440,319,127036
37.428,155439,323,127040
37.433,155443,330,127028
37.438,155452,328,127026
37.443,155452,321,127036
37.448,155458,513,127024
37.453,155462,479,127030
37.458,155461,465,127024
37.463,155457,449,127031
37.468,155479,443,127028
37.473,155468,445,127040
37.478,155477,430,127048
37.483,155467,433,127031
37.488,155479,427,127037
37.492,155486,431,127029
37.497,155494,420,127041
37.502,155484,423,127035
37.507,155484,423,127042
37.512,155497,426,127038
37.517,155495,415,127046
37.522,155491,420,127037
37.527,155496,422,127035
37.532,155502,410,127029
37.537,155509,419,127039
37.542,155496,412,127027
37.547,155523,415,127052
37.552,155502,419,127040
37.557,155509,410,127046
37.562,155529,411,127054
37.567,155519,417,127050
37.572,155527,407,127052
37.577,155517,410,127063
37.582,155537,407,127045
37.587,155523,413,127050
37.592,155531,417,127051
37.597,155534,406,127049
37.602,155534,411,127054
37.607,155537,414,127049
37.612,155548,405,127052
37.617,155546,408,127052
37.622,155557,411,127062
37.627,155578,404,127060
37.632,155573,400,127047
37.637,155558,406,127058
37.641,155562,410,127060
37.646,155565,415,127068
37.651,155568,407,127061
37.656,155583,409,127053
37.661,155579,414,127067
37.666,155575,406,127072
37.671,155600,410,127070
37.676,155588,413,127067
37.681,155620,412,127067
37.686,155598,404,127085
37.691,155613,406,127072
37.696,155619,411,127082
37.701,155617,403,127095
37.706,155627,407,127075
37.711,155627,410,127084
37.716,155636,402,127086
37.721,155617,405,127070
37.726,155630,410,127064
37.731,155639,402,127062
37.736,155628,406,127073
37.741,155661,410,127086
37.746,155646,403,127088
37.751,155672,405,127095
37.756,155663,410,127091
37.761,155660,401,127100
37.766,155679,406,127092
37.771,155691,409,127108
37.776,155696,400,127116
37.781,155685,407,127097
37.786,155685,401,127115
37.790,155702,402,127130
37.795,155721,407,127149
37.800,155721,400,127154
37.805,155738,405,127159
37.810,155720,410,127155
37.815,155729,402,127160
37.820,155721,406,127174
37.825,155721,403,127173
37.830,155706,403,127171
37.835,155714,410,127157
37.840,155715,399,127179
37.845,155707,405,127173
37.850,155691,407,127174
37.855,155672,399,127176
37.860,155676,402,127178
37.865,155654,409,127168
37.870,155666,398,127173
37.875,155663,406,127164
37.880,155648,396,127171
37.885,155635,402,127172
37.890,155634,403,127162
37.895,155622,397,127156
37.900,155624,400,127166
37.905,155626,407,127158
37.910,155590,398,127150
37.915,155601,404,127152
37.920,155599,405,127147
37.925,155585,404,127139
37.930,155592,406,127146
37.935,155581,398,127132
37.939,155575,400,127131
37.944,155572,406,127140
37.949,155571,396,127125
37.954,155560,399,127123
37.959,155548,403,127132
37.964,155533,410,127130
37.969,155548,399,127133
37.974,155536,409,127125
37.979,155519,398,127119
37.984,155529,405,127122
37.989,155530,396,127124
37.994,155519,402,127117
37.999,155504,403,127120
38.004,155502,398,127123
38.009,155489,401,127121
38.014,155487,407,127113
38.019,155468,397,127108
38.024,155471,409,127091
38.029,155464,399,127089
38.034,155466,403,127094
38.039,155457,396,127107
38.044,155472,401,127116
38.049,155465,406,127096
38.054,155476,399,127103
38.059,155468,402,127097
38.064,155443,409,127086
38.069,155469,404,127091
38.074,155449,402,127088
38.079,155435,404,127098
38.084,155450,399,127076
38.088,155441,400,127070
38.093,155434,408,127069
38.098,155434,398,127072
38.103,155441,405,127076
38.108,155444,394,127072
38.113,155416,400,127079
38.118,155441,395,127086
38.123,155418,402,127080
38.128,155434,404,127079
38.133,155437,398,127074
38.138,155428,401,127083
38.143,155416,409,127085
38.148,155429,397,127073
38.153,155425,403,127070
38.158,155409,394,127065
38.163,155421,401,127072
38.168,155418,394,127077
38.173,155424,399,127069
38.178,155410,402,127068
38.183,155417,396,127071
38.188,155424,400,127060
38.193,155415,406,127054
38.198,155413,396,127054
38.203,155397,403,127053
38.208,155425,393,127059
38.213,155420,399,127059
38.218,155410,404,127058
38.223,155409,399,127054
38.228,155411,401,127059
38.233,155394,394,127061
38.238,155420,397,127055
38.242,155407,404,127048
38.247,155398,394,127057
38.252,155398,401,127051
38.257,155404,403,127055
38.262,155389,402,127059
38.267,155413,403,127052
38.272,155410,396,127044
38.277,155399,397,127058
38.282,155424,405,127053
38.287,155415,394,127052
38.292,155412,399,127059
38.297,155432,399,127052
38.302,155435,408,127054
38.307,155416,394,127052
38.312,155407,403,127052
38.317,155424,391,127050
38.322,155417,398,127064
38.327,155442,400,127056
38.332,155426,405,127047
38.337,155434,393,127045
38.342,155454,255,127066
38.347,155437,277,127063
38.352,155436,277,127057
38.357,155437,285,127047
38.362,155442,292,127050
38.367,155441,300,127060
38.372,155451,296,127041
38.377,155442,301,127060
38.382,155454,310,127062
38.387,155455,314,127064
38.391,155465,305,127073
38.396,155460,309,127063
38.401,155472,318,127069
38.406,155439,309,127068
38.411,155475,320,127066
38.416,155475,325,127059
38.421,155473,317,127075
38.426,155486,321,127057
38.431,155482,329,127078
38.436,155501,318,127069
38.441,155495,327,127071
38.446,155492,507,127061
38.451,155503,466,127065
38.456,155508,456,127098
38.461,155500,440,127075
38.466,155508,437,127056
38.471,155516,438,127074
38.476,155515,423,127073
38.481,155520,426,127077
38.486,155524,425,127084
38.491,155521,428,127087
38.496,155527,416,127081
38.501,155527,422,127074
38.506,155548,413,127089
38.511,155547,421,127087
38.516,155543,410,127092
38.521,155566,415,127087
38.526,155553,416,127093
38.531,155568,419,127106
38.536,155570,406,127108
38.540,155565,411,127106
38.545,155573,413,127112
38.550,155571,417,127104
38.555,155570,411,127105
38.560,155580,406,127113
38.565,155579,408,127116
38.570,155575,412,127111
38.575,155594,403,127110
38.580,155598,408,127107
38.585,155610,412,127115
38.590,155619,404,127118
38.595,155612,407,127128
38.600,155610,412,127122
38.605,155626,405,127133
38.610,155625,411,127118
38.615,155630,401,127128
38.620,155638,405,127127
38.625,155632,408,127115
38.630,155636,413,127112
38.635,155644,400,127121
38.640,155647,404,127127
38.645,155664,404,127122
38.650,155666,405,127134
38.655,155677,399,127145
38.660,155679,400,127144
38.665,155668,400,127132
38.670,155691,401,127143
38.675,155676,401,127140
38.680,155680,403,127141
38.685,155688,403,127154
38.689,155699,404,127166
38.694,155713,404,127170
38.699,155703,410,127229
38.704,155716,399,127178
38.709,155716,401,127194
38.714,155724,403,127191
38.719,155708,404,127188
38.724,155731,407,127198
38.729,155712,408,127205
38.734,155705,397,127213
38.739,155717,399,127210
38.744,155694,403,127220
38.749,155683,408,127217
38.754,155682,401,127211
38.759,155687,403,127204
38.764,155653,406,127220
38.769,155671,408,127202
38.774,155670,397,127196
38.779,155633,397,127201
38.784,155634,399,127197
38.789,155629,400,127198
38.794,155628,402,127184
38.799,155616,397,127209
38.804,155620,402,127195
38.809,155597,402,127176
38.814,155590,402,127178
38.819,155588,402,127173
38.824,155583,405,127166
38.829,155575,405,127167
38.834,155578,407,127183
38.838,155575,395,127174
38.843,155567,397,127162
38.848,155566,400,127178
38.853,155549,400,127163
38.858,155563,399,127178
38.863,155541,399,127179
38.868,155538,399,127158
38.873,155532,400,127162
38.878,155527,399,127159
38.883,155507,402,127155
38.888,155516,402,127149
38.893,155506,405,127150
38.898,155503,397,127152
38.903,155495,402,127145
38.908,155503,401,127144
38.913,155486,402,127130
38.918,155463,404,127119
38.923,155469,406,127128
38.928,155464,405,127122
38.933,155473,395,127124
38.938,155486,395,127131
38.943,155475,400,127130
38.948,155481,395,127141
38.953,155471,396,127140
38.958,155488,396,127131
38.963,155475,399,127138
38.968,155477,398,127137
38.973,155471,400,127129
38.978,155466,399,127125
38.983,155450,402,127116
38.987,155437,401,127108
38.992,155486,394,127108
38.997,155454,395,127125
39.002,155434,399,127100
39.007,155449,399,127113
39.012,155446,402,127108
39.017,155461,401,127119
39.022,155440,408,127103
39.027,155451,394,127125
39.032,155438,398,127128
39.037,155429,399,127117
39.042,155449,395,127128
39.047,155447,396,127115
39.052,155455,399,127129
39.057,155442,399,127123
39.062,155438,403,127124
39.067,155449,403,127115
39.072,155438,393,127115
39.077,155448,392,127133
39.082,155444,397,127107
39.087,155428,396,127126
39.092,155439,402,127124
39.097,155451,402,127122
39.102,155426,405,127121
39.107,155443,393,127117
39.112,155448,394,127105
39.117,155458,394,127112
39.122,155443,397,127125
39.127,155441,396,127126
39.132,155448,399,127127
39.136,155445,398,127118
39.141,155457,395,127117
39.146,155454,393,127121
39.151,155435,395,127109
39.156,155462,393,127129
39.161,155438,400,127126
39.166,155443,399,127121
39.171,155452,402,127126
39.176,155457,402,127110
39.181,155456,405,127108
39.186,155467,391,127120
39.191,155449,404,127107
39.196,155468,402,127121
39.201,155464,405,127127
39.206,155469,391,127126
39.211,155473,394,127126
39.216,155483,392,127124
39.221,155463,396,127115
39.226,155474,393,127127
39.231,155483,396,127124
39.236,155473,400,127112
39.241,155480,397,127127
39.246,155474,396,127128
39.251,155484,400,127123
39.256,155490,400,127121
39.261,155472,404,127114
39.266,155514,392,127128
39.271,155501,394,127124
39.276,155509,394,127121
39.281,155509,399,127120
39.285,155511,392,127129
39.290,155516,398,127139
39.295,155521,401,127124
39.300,155512,393,127128
39.305,155511,392,127143
39.310,155536,396,127141
39.315,155527,396,127146
39.320,155526,400,127133
39.325,155545,401,127145
39.330,155546,404,127144
39.335,155541,401,127161
39.340,155564,245,127153
39.345,155533,269,127141
39.350,155556,284,127155
39.355,155542,291,127157
39.360,155553,300,127147
39.365,155570,289,127155
39.370,155568,297,127151
39.375,155572,299,127143
39.380,155580,301,127151
39.385,155569,315,127153
39.390,155592,305,127167
39.395,155575,307,127153
39.400,155560,312,127164
39.405,155575,313,127174
39.410,155597,318,127161
39.415,155589,319,127167
39.420,155599,324,127157
39.425,155607,326,127161
39.430,155606,317,127188
39.434,155613,323,127175
39.439,155616,328,127175
39.444,155624,328,127175
39.449,155627,482,127173
39.454,155647,456,127177
39.459,155647,447,127179
39.464,155639,440,127200
39.469,155651,436,127190
39.474,155659,433,127194
39.479,155657,421,127193
39.484,155680,429,127195
39.489,155671,418,127191
39.494,155684,416,127199
39.499,155677,417,127219
39.504,155674,417,127201
39.509,155689,419,127207
39.514,155693,419,127205
39.519,155704,408,127211
39.524,155699,412,127203
39.529,155710,406,127218
39.534,155721,408,127214
39.539,155725,413,127220
39.544,155719,405,127228
39.549,155731,408,127210
