df_hash,22ZHK4.XMLDE7
device,HZ2X61
project_hash,29R7
project_name,istanbul_aydin_university
person_hash,29R7.LYXY
person_label,v138
date_time_start,2026-04-14_15-48-30.092000_+03
date_time_start_unix,1776163710.092
date_time_end,2026-04-14_15-56-41.793000_+03
length_difference_noticed,no

time,ppg_med
6.280,477
6.305,548
6.330,661
6.355,722
6.380,698
6.405,674
6.430,739
6.455,859
6.480,905
6.505,832
6.530,753
6.555,795
6.580,905
6.605,912
6.630,755
6.655,587
6.680,578
6.705,661
6.730,601
6.755,320
6.780,26
6.805,-57
6.830,-20
6.855,-168
6.880,-606
6.905,-1057
6.930,-1228
6.955,-1235
6.980,-1479
7.005,-2089
7.030,-2706
7.055,-2952
7.080,-2976
7.105,-3291
7.130,-4060
7.155,-4821
7.180,-5093
7.205,-5066
7.230,-5389
7.255,-6266
7.280,-7112
7.305,-7319
7.330,-7128
7.355,-7354
7.380,-8250
7.405,-9084
7.430,-9094
7.455,-8583
7.480,-8569
7.505,-9369
7.530,-10068
7.555,-9718
7.580,-8699
7.605,-8279
7.630,-8858
7.655,-9295
7.680,-8409
7.705,-6674
7.730,-5680
7.755,-5932
7.780,-6005
7.805,-4416
7.830,-1759
7.855,-44
7.880,77
7.905,407
7.930,2838
7.955,6618
7.980,9159
8.005,9600
8.030,10262
8.055,13636
8.080,18757
8.105,22182
8.130,22705
8.155,23439
8.180,27845
8.205,32767
8.230,32767
8.255,32767
8.280,32767
8.305,32767
8.330,32767
8.355,32767
8.380,32767
8.405,32767
8.430,32767
8.455,32767
8.480,32767
8.505,32767
8.530,12868
8.555,-32768
8.580,-32768
8.605,-32768
8.630,-32768
8.655,-32768
8.680,-32768
8.705,-32768
8.730,-32768
8.755,-32768
8.780,-32768
8.805,-32768
8.830,-32768
8.855,-32768
8.880,-30556
8.905,-24687
8.930,-22663
8.955,-22556
8.980,-20394
9.005,-15544
9.030,-11120
9.055,-9510
9.080,-9360
9.105,-7746
9.130,-4158
9.155,-908
9.180,179
9.205,114
9.230,1130
9.255,3634
9.280,5842
9.305,6335
9.330,5905
9.355,6313
9.380,7887
9.405,9222
9.430,9203
9.455,8467
9.480,8421
9.505,9321
9.530,10039
9.555,9685
9.580,8786
9.605,8483
9.630,8977
9.655,9345
9.680,8850
9.705,7905
9.730,7426
9.755,7582
9.780,7639
9.805,7012
9.830,6042
9.855,5472
9.880,5447
9.905,5378
9.930,4791
9.955,3939
9.980,3405
10.005,3302
10.030,3173
10.055,2649
10.080,1936
10.105,1490
10.130,1395
10.155,1288
10.180,878
10.205,334
10.230,25
10.255,33
10.280,75
10.305,-95
10.330,-381
10.355,-524
10.380,-464
10.405,-403
10.430,-512
10.455,-712
10.480,-804
10.505,-737
10.530,-651
10.555,-668
10.580,-736
10.605,-724
10.630,-613
10.655,-517
10.680,-526
10.705,-590
10.730,-598
10.755,-520
10.780,-436
10.805,-421
10.830,-452
10.855,-448
10.880,-375
10.905,-272
10.930,-185
10.955,-109
10.980,-6
11.005,120
11.030,226
11.055,276
11.080,294
11.105,314
11.130,312
11.155,311
11.180,318
11.205,332
11.230,345
11.255,345
11.280,331
11.305,307
11.330,284
11.355,263
11.380,238
11.405,198
11.430,141
11.455,85
11.480,55
11.505,72
11.530,130
11.555,202
11.580,256
11.605,274
11.630,263
11.655,239
11.680,217
11.705,198
11.730,185
11.755,182
11.780,191
11.805,210
11.830,228
11.855,234
11.880,222
11.905,196
11.930,166
11.955,140
11.980,117
12.005,89
12.030,50
12.055,4
12.080,-28
12.105,-22
12.130,26
12.155,102
12.180,177
12.205,234
12.230,274
12.255,310
12.280,341
12.305,360
12.330,358
12.355,341
12.380,323
12.405,314
12.430,311
12.455,305
12.480,292
12.505,274
12.530,255
12.555,234
12.580,207
12.605,177
12.630,147
12.655,116
12.680,78
12.705,39
12.730,14
12.755,22
12.780,65
12.805,121
12.830,165
12.855,190
12.880,205
12.905,223
12.930,241
12.955,246
12.980,238
13.005,228
13.030,228
13.055,240
13.080,250
13.105,247
13.130,235
13.155,221
13.180,209
13.205,199
13.230,186
13.255,173
13.280,163
13.305,154
13.330,140
13.355,126
13.380,127
13.405,158
13.430,215
13.455,277
13.480,322
13.505,339
13.530,335
13.555,320
13.580,305
13.605,296
13.630,296
13.655,302
13.680,299
13.705,271
13.730,219
13.755,161
13.780,121
13.805,106
13.830,99
13.855,79
13.880,39
13.905,-4
13.930,-33
13.955,-47
13.980,-60
14.005,-83
14.030,-106
14.055,-107
14.080,-73
14.105,-11
14.130,54
14.155,103
14.180,131
14.205,148
14.230,162
14.255,171
14.280,165
14.305,140
14.330,105
14.355,77
14.380,65
14.405,67
14.430,73
14.455,80
14.480,94
14.505,125
14.530,170
14.555,214
14.580,241
14.605,249
14.630,249
14.655,251
14.680,251
14.705,242
14.730,225
14.755,220
14.780,247
14.805,305
14.830,373
14.855,427
14.880,460
14.905,487
14.930,519
14.955,545
14.980,542
15.005,494
15.030,413
15.055,330
15.080,266
15.105,221
15.130,183
15.155,147
15.180,121
15.205,113
15.230,112
15.255,99
15.280,59
15.305,2
15.330,-46
15.355,-74
15.380,-94
15.405,-128
15.430,-185
15.455,-243
15.480,-271
15.505,-250
15.530,-194
15.555,-132
15.580,-83
15.605,-44
15.630,3
15.655,67
15.680,139
15.705,203
15.730,257
15.755,308
15.780,365
15.805,425
15.830,481
15.855,527
15.880,565
15.905,598
15.930,621
15.955,629
15.980,625
16.005,621
16.030,620
16.055,612
16.080,575
16.105,503
16.130,422
16.155,374
16.180,388
16.205,453
16.230,529
16.255,577
16.280,589
16.305,583
16.330,582
16.355,594
16.380,610
16.405,620
16.430,623
16.455,622
16.480,620
16.505,606
16.530,564
16.555,483
16.580,368
16.605,245
16.630,154
16.655,114
16.680,113
16.705,106
16.730,52
16.755,-55
16.780,-180
16.805,-279
16.830,-331
16.855,-351
16.880,-369
16.905,-397
16.930,-426
16.955,-445
16.980,-454
17.005,-461
17.030,-461
17.055,-438
17.080,-382
17.105,-304
17.130,-239
17.155,-213
17.180,-226
17.205,-259
17.230,-296
17.255,-334
17.280,-375
17.305,-410
17.330,-422
17.355,-409
17.380,-386
17.405,-370
17.430,-359
17.455,-330
17.480,-260
17.505,-155
17.530,-39
17.555,64
17.580,160
17.605,266
17.630,393
17.655,531
17.680,647
17.705,721
17.730,751
17.755,753
17.780,749
17.805,747
17.830,744
17.855,731
17.880,705
17.905,669
17.930,630
17.955,587
17.980,530
18.005,452
18.030,366
18.055,303
18.080,296
18.105,348
18.130,429
18.155,500
18.180,543
18.205,570
18.230,598
18.255,631
18.280,650
18.305,642
18.330,611
18.355,574
18.380,542
18.405,510
18.430,468
18.455,414
18.480,359
18.505,310
18.530,267
18.555,219
18.580,163
18.605,96
18.630,18
18.655,-70
18.680,-160
18.705,-230
18.730,-258
18.755,-244
18.780,-212
18.805,-191
18.830,-195
18.855,-214
18.880,-234
18.905,-252
18.930,-276
18.955,-306
18.980,-325
19.005,-306
19.030,-244
19.055,-157
19.080,-78
19.105,-16
19.130,43
19.155,124
19.180,228
19.205,333
19.230,411
19.255,459
19.280,502
19.305,573
19.330,685
19.355,824
19.380,962
19.405,1077
19.430,1158
19.455,1200
19.480,1199
19.505,1156
19.530,1082
19.555,996
19.580,904
19.605,798
19.630,655
19.655,464
19.680,242
19.705,28
19.730,-132
19.755,-208
19.780,-201
19.805,-145
19.830,-87
19.855,-59
19.880,-50
19.905,-16
19.930,78
19.955,215
19.980,324
20.005,340
20.030,250
20.055,110
20.080,-15
20.105,-106
20.130,-183
20.155,-268
20.180,-348
20.205,-391
20.230,-396
20.255,-406
20.280,-465
20.305,-570
20.330,-659
20.355,-674
20.380,-615
20.405,-537
20.430,-496
20.455,-498
20.480,-500
20.505,-458
20.530,-367
20.555,-249
20.580,-131
20.605,-19
20.630,92
20.655,202
20.680,301
20.705,386
20.730,460
20.755,532
20.780,602
20.805,659
20.830,690
20.855,693
20.880,676
20.905,653
20.930,634
20.955,624
20.980,614
21.005,598
21.030,572
21.055,549
21.080,543
21.105,559
21.130,580
21.155,584
21.180,560
21.205,521
21.230,492
21.255,478
21.280,466
21.305,440
21.330,403
21.355,376
21.380,378
21.405,396
21.430,398
21.455,360
21.480,287
21.505,206
21.530,139
21.555,85
21.580,32
21.605,-27
21.630,-78
21.655,-104
21.680,-98
21.705,-78
21.730,-64
21.755,-62
21.780,-61
21.805,-48
21.830,-28
21.855,-18
21.880,-32
21.905,-58
21.930,-66
21.955,-34
21.980,30
22.005,98
22.030,150
22.055,198
22.080,269
22.105,372
22.130,485
22.155,569
22.180,610
22.205,628
22.230,653
22.255,686
22.280,697
22.305,660
22.330,581
22.355,488
22.380,393
22.405,277
22.430,112
22.455,-91
22.480,-285
22.505,-417
22.530,-471
22.555,-472
22.580,-444
22.605,-390
22.630,-296
22.655,-158
22.680,0
22.705,141
22.730,244
22.755,312
22.780,365
22.805,426
22.830,508
22.855,609
22.880,705
22.905,769
22.930,787
22.955,773
22.980,760
23.005,764
23.030,775
23.055,768
23.080,731
23.105,675
23.130,613
23.155,538
23.180,441
23.205,323
23.230,208
23.255,104
23.280,-6
23.305,-155
23.330,-335
23.355,-492
23.380,-562
23.405,-528
23.430,-433
23.455,-335
23.480,-259
23.505,-188
23.530,-98
23.555,13
23.580,132
23.605,254
23.630,380
23.655,499
23.680,577
23.705,582
23.730,513
23.755,400
23.780,270
23.805,126
23.830,-42
23.855,-223
23.880,-375
23.905,-455
23.930,-448
23.955,-373
23.980,-256
24.005,-123
24.030,0
24.055,79
24.080,92
24.105,52
24.130,4
24.155,-3
24.180,41
24.205,112
24.230,180
24.255,236
24.280,284
24.305,323
24.330,337
24.355,316
24.380,274
24.405,237
24.430,220
24.455,211
24.480,196
24.505,186
24.530,211
24.555,291
24.580,407
24.605,516
24.630,585
24.655,615
24.680,628
24.705,640
24.730,649
24.755,651
24.780,649
24.805,660
24.830,688
24.855,724
24.880,750
24.905,762
24.930,768
24.955,777
24.980,786
25.005,780
25.030,747
25.055,694
25.080,634
25.105,577
25.130,520
25.155,456
25.180,380
25.205,292
25.230,195
25.255,94
25.280,-3
25.305,-84
25.330,-136
25.355,-160
25.380,-168
25.405,-175
25.430,-188
25.455,-201
25.480,-207
25.505,-204
25.530,-198
25.555,-192
25.580,-184
25.605,-169
25.630,-147
25.655,-117
25.680,-73
25.705,-9
25.730,75
25.755,168
25.780,244
25.805,284
25.830,288
25.855,273
25.880,250
25.905,222
25.930,184
25.955,139
25.980,103
26.005,84
26.030,78
26.055,68
26.080,47
26.105,18
26.130,-5
26.155,-30
26.180,-70
26.205,-135
26.230,-210
26.255,-259
26.280,-259
26.305,-218
26.330,-170
26.355,-146
26.380,-156
26.405,-188
26.430,-222
26.455,-239
26.480,-220
26.505,-144
26.530,0
26.555,198
26.580,415
26.605,607
26.630,748
26.655,836
26.680,884
26.705,905
26.730,896
26.755,853
26.780,776
26.805,681
26.830,597
26.855,548
26.880,540
26.905,558
26.930,572
26.955,560
26.980,517
27.005,460
27.030,406
27.055,362
27.080,320
27.105,274
27.130,227
27.155,191
27.180,172
27.205,161
27.230,143
27.255,111
27.280,74
27.305,44
27.330,20
27.355,-13
27.380,-70
27.405,-141
27.430,-191
27.455,-186
27.480,-122
27.505,-27
27.530,57
27.555,112
27.580,142
27.605,164
27.630,185
27.655,198
27.680,196
27.705,186
27.730,187
27.755,207
27.780,240
27.805,271
27.830,289
27.855,295
27.880,299
27.905,303
27.930,309
27.955,311
27.980,307
28.005,298
28.030,287
28.055,290
28.080,333
28.105,434
28.130,579
28.155,724
28.180,821
28.205,855
28.230,850
28.255,838
28.280,827
28.305,791
28.330,708
28.355,587
28.380,458
28.405,345
28.430,250
28.455,159
28.480,72
28.505,1
28.530,-52
28.555,-104
28.580,-171
28.605,-244
28.630,-300
28.655,-328
28.680,-355
28.705,-416
28.730,-509
28.755,-582
28.780,-574
28.805,-471
28.830,-316
28.855,-167
28.880,-46
28.905,58
28.930,161
28.955,249
28.980,296
29.005,299
29.030,280
29.055,267
29.080,266
29.105,263
29.130,251
29.155,239
29.180,232
29.205,221
29.230,190
29.255,138
29.280,85
29.305,42
29.330,0
29.355,-53
29.380,-101
29.405,-93
29.430,9
29.455,185
29.480,355
29.505,451
29.530,469
29.555,471
29.580,513
29.605,599
29.630,679
29.655,706
29.680,677
29.705,625
29.730,585
29.755,563
29.780,546
29.805,520
29.830,480
29.855,427
29.880,362
29.905,288
29.930,214
29.955,146
29.980,86
30.005,26
30.030,-32
30.055,-81
30.080,-110
30.105,-120
30.130,-125
30.155,-135
30.180,-146
30.205,-144
30.230,-124
30.255,-95
30.280,-65
30.305,-33
30.330,13
30.355,74
30.380,130
30.405,157
30.430,153
30.455,142
30.480,151
30.505,182
30.530,211
30.555,219
30.580,214
30.605,225
30.630,274
30.655,353
30.680,439
30.705,512
30.730,571
30.755,622
30.780,660
30.805,672
30.830,652
30.855,609
30.880,566
30.905,535
30.930,518
30.955,503
30.980,481
31.005,448
31.030,410
31.055,376
31.080,358
31.105,353
31.130,339
31.155,283
31.180,170
31.205,19
31.230,-121
31.255,-206
31.280,-225
31.305,-202
31.330,-172
31.355,-151
31.380,-139
31.405,-129
31.430,-119
31.455,-106
31.480,-84
31.505,-55
31.530,-33
31.555,-44
31.580,-104
31.605,-194
31.630,-271
31.655,-294
31.680,-254
31.705,-176
31.730,-95
31.755,-25
31.780,45
31.805,141
31.830,267
31.855,400
31.880,504
31.905,561
31.930,581
31.955,601
31.980,645
32.005,708
32.030,765
32.055,796
32.080,816
32.105,849
32.130,902
32.155,943
32.180,927
32.205,836
32.230,705
32.255,589
32.280,521
32.305,486
32.330,445
32.355,380
32.380,313
32.405,281
32.430,291
32.455,301
32.480,246
32.505,94
32.530,-120
32.555,-318
32.580,-432
32.605,-448
32.630,-397
32.655,-316
32.680,-217
32.705,-100
32.730,10
32.755,68
32.780,42
32.805,-45
32.830,-123
32.855,-131
32.880,-66
32.905,15
32.930,59
32.955,44
32.980,-12
33.005,-90
33.030,-176
33.055,-247
33.080,-260
33.105,-180
33.130,-23
33.155,137
33.180,224
33.205,222
33.230,189
33.255,194
33.280,258
33.305,338
33.330,377
33.355,367
33.380,348
33.405,367
33.430,434
33.455,507
33.480,528
33.505,468
33.530,338
33.555,191
33.580,81
33.605,45
33.630,85
33.655,172
33.680,270
33.705,355
33.730,423
33.755,480
33.780,530
33.805,575
33.830,617
33.855,659
33.880,706
33.905,746
33.930,765
33.955,752
33.980,721
34.005,692
34.030,674
34.055,636
34.080,532
34.105,334
34.130,68
34.155,-189
34.180,-365
34.205,-434
34.230,-426
34.255,-385
34.280,-332
34.305,-261
34.330,-161
34.355,-45
34.380,51
34.405,102
34.430,103
34.455,68
34.480,15
34.505,-37
34.530,-66
34.555,-43
34.580,43
34.605,179
34.630,330
34.655,467
34.680,580
34.705,679
34.730,773
34.755,858
34.780,916
34.805,906
34.830,781
34.855,515
34.880,150
34.905,-201
34.930,-409
34.955,-411
34.980,-264
35.005,-93
35.030,3
35.055,22
35.080,24
35.105,60
35.130,119
35.155,160
35.180,162
35.205,143
35.230,129
35.255,127
35.280,121
35.305,101
35.330,70
35.355,36
35.380,-9
35.405,-80
35.430,-165
35.455,-227
35.480,-226
35.505,-154
35.530,-46
35.555,48
35.580,105
35.605,139
35.630,188
35.655,279
35.680,396
35.705,497
35.730,553
35.755,582
35.780,641
35.805,771
35.830,956
35.855,1132
35.880,1244
35.905,1286
35.930,1274
35.955,1189
35.980,972
36.005,592
36.030,123
36.055,-271
36.080,-458
36.105,-434
36.130,-318
36.155,-243
36.180,-253
36.205,-305
36.230,-338
36.255,-320
36.280,-239
36.305,-76
36.330,172
36.355,461
36.380,704
36.405,846
36.430,911
36.455,961
36.480,1000
36.505,938
36.530,671
36.555,201
36.580,-322
36.605,-698
36.630,-817
36.655,-721
36.680,-544
36.705,-400
36.730,-314
36.755,-255
36.780,-196
36.805,-157
36.830,-175
36.855,-260
36.880,-362
36.905,-393
36.930,-298
36.955,-91
36.980,149
37.005,354
37.030,508
37.055,644
37.080,787
37.105,921
37.130,1012
37.155,1058
37.180,1090
37.205,1118
37.230,1095
37.255,943
37.280,641
37.305,268
37.330,-50
37.355,-237
37.380,-306
37.405,-314
37.430,-299
37.455,-258
37.480,-184
37.505,-91
37.530,-1
37.555,76
37.580,145
37.605,199
37.630,220
37.655,208
37.680,201
37.705,251
37.730,363
37.755,490
37.780,577
37.805,631
37.830,711
37.855,860
37.880,1029
37.905,1094
37.930,945
37.955,582
37.980,116
38.005,-300
38.030,-575
38.055,-708
38.080,-764
38.105,-802
38.130,-833
38.155,-826
38.180,-757
38.205,-631
38.230,-472
38.255,-288
38.280,-63
38.305,215
38.330,517
38.355,775
38.380,936
38.405,999
38.430,1008
38.455,1002
38.480,984
38.505,951
38.530,918
38.555,917
38.580,941
38.605,918
38.630,756
38.655,432
38.680,34
38.705,-298
38.730,-482
38.755,-544
38.780,-575
38.805,-635
38.830,-708
38.855,-734
38.880,-682
38.905,-583
38.930,-490
38.955,-421
38.980,-325
39.005,-126
39.030,200
39.055,600
39.080,964
39.105,1205
39.130,1310
39.155,1321
39.180,1288
39.205,1230
39.230,1152
39.255,1075
39.280,1027
39.305,1005
39.330,952
39.355,792
39.380,509
39.405,175
39.430,-106
39.455,-287
39.480,-407
39.505,-537
39.530,-696
39.555,-835
39.580,-895
39.605,-879
39.630,-842
39.655,-818
39.680,-754
39.705,-546
39.730,-138
39.755,405
39.780,924
39.805,1275
39.830,1416
39.855,1415
39.880,1363
39.905,1309
39.930,1241
39.955,1124
39.980,938
40.005,676
40.030,345
40.055,-30
40.080,-397
40.105,-689
40.130,-874
40.155,-970
40.180,-1021
40.205,-1040
40.230,-1007
40.255,-916
40.280,-820
40.305,-788
40.330,-807
40.355,-750
40.380,-472
40.405,35
40.430,613
40.455,1054
40.480,1267
40.505,1320
40.530,1329
40.555,1332
40.580,1294
40.605,1196
40.630,1080
40.655,990
40.680,888
40.705,674
40.730,307
40.755,-128
40.780,-481
40.805,-670
40.830,-729
40.855,-739
40.880,-734
40.905,-696
40.930,-611
40.955,-498
40.980,-355
41.005,-125
41.030,245
41.055,715
41.080,1139
41.105,1378
41.130,1423
41.155,1383
41.180,1360
41.205,1363
41.230,1339
41.255,1273
41.280,1198
41.305,1125
41.330,983
41.355,683
41.380,232
41.405,-237
41.430,-577
41.455,-746
41.480,-816
41.505,-868
41.530,-909
41.555,-895
41.580,-819
41.605,-728
41.630,-668
41.655,-631
41.680,-570
41.705,-454
41.730,-282
41.755,-49
41.780,261
41.805,640
41.830,1003
41.855,1228
41.880,1262
41.905,1174
41.930,1082
41.955,1041
41.980,1011
42.005,944
42.030,870
42.055,867
42.080,937
42.105,962
42.130,802
42.155,445
42.180,31
42.205,-276
42.230,-438
42.255,-539
42.280,-665
42.305,-802
42.330,-868
42.355,-829
42.380,-748
42.405,-709
42.430,-725
42.455,-738
42.480,-710
42.505,-676
42.530,-697
42.555,-762
42.580,-761
42.605,-579
42.630,-212
42.655,227
42.680,597
42.705,826
42.730,937
42.755,984
42.780,1002
42.805,999
42.830,982
42.855,967
42.880,969
42.905,987
42.930,1018
42.955,1056
42.980,1093
43.005,1111
43.030,1088
43.055,1029
43.080,957
43.105,890
43.130,815
43.155,704
43.180,567
43.205,462
43.230,440
43.255,474
43.280,456
43.305,284
43.330,-41
43.355,-412
43.380,-702
43.405,-867
43.430,-954
43.455,-1029
43.480,-1108
43.505,-1164
43.530,-1173
43.555,-1142
43.580,-1097
43.605,-1049
43.630,-995
43.655,-938
43.680,-894
43.705,-869
43.730,-843
43.755,-787
43.780,-683
43.805,-534
43.830,-335
43.855,-58
43.880,319
43.905,764
43.930,1182
43.955,1475
43.980,1617
44.005,1669
44.030,1719
44.055,1801
44.080,1883
44.105,1917
44.130,1910
44.155,1922
44.180,1999
44.205,2098
44.230,2086
44.255,1822
44.280,1265
44.305,522
44.330,-196
44.355,-696
44.380,-904
44.405,-896
44.430,-824
44.455,-822
44.480,-934
44.505,-1101
44.530,-1198
44.555,-1089
44.580,-688
44.605,-17
44.630,781
44.655,1498
44.680,1973
44.705,2187
44.730,2240
44.755,2220
44.780,2092
44.805,1713
44.830,981
44.855,-28
44.880,-1073
44.905,-1906
44.930,-2433
44.955,-2722
44.980,-2874
45.005,-2888
45.030,-2655
45.055,-2066
45.080,-1138
45.105,-26
45.130,1051
45.155,1915
45.180,2482
45.205,2771
45.230,2867
45.255,2863
45.280,2792
45.305,2593
45.330,2164
45.355,1475
45.380,644
45.405,-91
45.430,-539
45.455,-680
45.480,-667
45.505,-671
45.530,-725
45.555,-721
45.580,-551
45.605,-252
45.630,9
45.655,88
45.680,0
45.705,-96
45.730,-32
45.755,225
45.780,571
45.805,849
45.830,950
45.855,835
45.880,525
45.905,94
45.930,-339
45.955,-654
45.980,-791
46.005,-786
46.030,-737
46.055,-711
46.080,-705
46.105,-676
46.130,-612
46.155,-544
46.180,-505
46.205,-485
46.230,-452
46.255,-399
46.280,-356
46.305,-358
46.330,-412
46.355,-506
46.380,-630
46.405,-781
46.430,-935
46.455,-1046
46.480,-1093
46.505,-1107
46.530,-1144
46.555,-1203
46.580,-1207
46.605,-1080
46.630,-843
46.655,-587
46.680,-334
46.705,57
46.730,799
46.755,1940
46.780,3235
46.805,4276
46.830,4790
46.855,4824
46.880,4639
46.905,4436
46.930,4189
46.955,3742
46.980,3038
47.005,2210
47.030,1448
47.055,799
47.080,147
47.105,-605
47.130,-1384
47.155,-1989
47.180,-2313
47.205,-2454
47.230,-2599
47.255,-2815
47.280,-3008
47.305,-3081
47.330,-3070
47.355,-3064
47.380,-3019
47.405,-2743
47.430,-2119
47.455,-1300
47.480,-596
47.505,-154
47.530,181
47.555,630
47.580,1155
47.605,1489
47.630,1504
47.655,1427
47.680,1580
47.705,1932
47.730,2076
47.755,1721
47.780,1095
47.805,668
47.830,477
47.855,-58
47.880,-1452
47.905,-3318
47.930,-4458
47.955,-3936
47.980,-2012
48.005,111
48.030,1444
48.055,1987
48.080,2377
48.105,3007
48.130,3715
48.155,4272
48.180,4825
48.205,5635
48.230,6579
48.255,7262
48.280,7712
48.305,8575
48.330,10236
48.355,11768
48.380,11253
48.405,7590
48.430,2047
48.455,-2314
48.480,-3041
48.505,-266
48.530,3605
48.555,5979
48.580,5846
48.605,3854
48.630,1225
48.655,-1091
48.680,-2549
48.705,-2965
48.730,-2750
48.755,-2929
48.780,-4437
48.805,-7154
48.830,-9806
48.855,-11061
48.880,-10737
48.905,-9826
48.930,-9378
48.955,-9562
48.980,-9872
49.005,-9994
49.030,-10149
49.055,-10604
49.080,-11183
49.105,-11505
49.130,-11540
49.155,-11516
49.180,-11185
49.205,-9517
49.230,-5595
49.255,76
49.280,5449
49.305,8428
49.330,8591
49.355,7360
49.380,6509
49.405,6639
49.430,7114
49.455,7209
49.480,6991
49.505,7019
49.530,7482
49.555,7931
49.580,7857
49.605,7296
49.630,6713
49.655,6403
49.680,6191
49.705,5749
49.730,5039
49.755,4322
49.780,3785
49.805,3331
49.830,2771
49.855,2115
49.880,1563
49.905,1233
49.930,1006
49.955,687
49.980,248
50.005,-159
50.030,-419
50.055,-581
50.080,-770
50.105,-998
50.130,-1145
50.155,-1111
50.180,-933
50.205,-734
50.230,-595
50.255,-516
50.280,-482
50.305,-519
50.330,-646
50.355,-819
50.380,-951
50.405,-993
50.430,-976
50.455,-961
50.480,-981
50.505,-1029
50.530,-1105
50.555,-1224
50.580,-1379
50.605,-1518
50.630,-1572
50.655,-1519
50.680,-1397
50.705,-1255
50.730,-1112
50.755,-961
50.780,-800
50.805,-637
50.830,-471
50.855,-282
50.880,-60
50.905,166
50.930,344
50.955,448
50.980,509
51.005,585
51.030,708
51.055,864
51.080,1014
51.105,1125
51.130,1182
51.155,1173
51.180,1095
51.205,961
51.230,802
51.255,648
51.280,510
51.305,389
51.330,286
51.355,204
51.380,145
51.405,94
51.430,34
51.455,-34
51.480,-101
51.505,-162
51.530,-233
51.555,-332
51.580,-439
51.605,-497
51.630,-442
51.655,-259
51.680,7
51.705,287
51.730,528
51.755,715
51.780,855
51.805,945
51.830,981
51.855,967
51.880,931
51.905,901
51.930,887
51.955,870
51.980,824
52.005,739
52.030,623
52.055,484
52.080,308
52.105,80
52.130,-191
52.155,-455
52.180,-644
52.205,-716
52.230,-678
52.255,-579
52.280,-469
52.305,-373
52.330,-297
52.355,-233
52.380,-183
52.405,-151
52.430,-142
52.455,-162
52.480,-206
52.505,-255
52.530,-279
52.555,-248
52.580,-159
52.605,-42
52.630,60
52.655,121
52.680,139
52.705,139
52.730,151
52.755,195
52.780,280
52.805,402
52.830,544
52.855,684
52.880,804
52.905,893
52.930,946
52.955,953
52.980,894
53.005,760
53.030,574
53.055,385
53.080,237
53.105,142
53.130,81
53.155,27
53.180,-26
53.205,-70
53.230,-103
53.255,-137
53.280,-186
53.305,-235
53.330,-251
53.355,-209
53.380,-117
53.405,-8
53.430,92
53.455,188
53.480,294
53.505,409
53.530,513
53.555,583
53.580,617
53.605,641
53.630,676
53.655,726
53.680,772
53.705,801
53.730,816
53.755,828
53.780,839
53.805,827
53.830,763
53.855,631
53.880,445
53.905,245
53.930,75
53.955,-38
53.980,-99
54.005,-131
54.030,-159
54.055,-195
54.080,-232
54.105,-254
54.130,-249
54.155,-215
54.180,-157
54.205,-86
54.230,-23
54.255,0
54.280,-41
54.305,-152
54.330,-298
54.355,-425
54.380,-494
54.405,-506
54.430,-493
54.455,-479
54.480,-457
54.505,-394
54.530,-269
54.555,-96
54.580,88
54.605,254
54.630,398
54.655,530
54.680,655
54.705,758
54.730,823
54.755,854
54.780,870
54.805,877
54.830,855
54.855,772
54.880,616
54.905,417
54.930,230
54.955,96
54.980,21
55.005,-20
55.030,-53
55.055,-78
55.080,-76
55.105,-31
55.130,49
55.155,127
55.180,157
55.205,111
55.230,0
55.255,-126
55.280,-215
55.305,-233
55.330,-183
55.355,-90
55.380,21
55.405,139
55.430,257
55.455,372
55.480,479
55.505,576
55.530,658
55.555,711
55.580,720
55.605,683
55.630,630
55.655,605
55.680,639
55.705,722
55.730,815
55.755,872
55.780,869
55.805,806
55.830,696
55.855,558
55.880,413
55.905,283
55.930,183
55.955,111
55.980,56
56.005,10
56.030,-25
56.055,-57
56.080,-100
56.105,-174
56.130,-289
56.155,-437
56.180,-602
56.205,-769
56.230,-912
56.255,-994
56.280,-970
56.305,-817
56.330,-566
56.355,-287
56.380,-57
56.405,86
56.430,155
56.455,187
56.480,218
56.505,267
56.530,336
56.555,408
56.580,465
56.605,494
56.630,500
56.655,500
56.680,503
56.705,503
56.730,489
56.755,469
56.780,474
56.805,534
56.830,639
56.855,737
56.880,777
56.905,744
56.930,668
56.955,594
56.980,544
57.005,513
57.030,486
57.055,458
57.080,436
57.105,416
57.130,387
57.155,329
57.180,230
57.205,91
57.230,-72
57.255,-234
57.280,-360
57.305,-419
57.330,-399
57.355,-318
57.380,-209
57.405,-107
57.430,-22
57.455,51
57.480,125
57.505,198
57.530,258
57.555,293
57.580,302
57.605,298
57.630,299
57.655,313
57.680,336
57.705,356
57.730,365
57.755,363
57.780,354
57.805,333
57.830,291
57.855,219
57.880,128
57.905,44
57.930,-1
57.955,1
57.980,42
58.005,97
58.030,148
58.055,185
58.080,197
58.105,177
58.130,119
58.155,39
58.180,-32
58.205,-67
58.230,-60
58.255,-26
58.280,16
58.305,62
58.330,114
58.355,165
58.380,194
58.405,182
58.430,134
58.455,87
58.480,84
58.505,142
58.530,247
58.555,364
58.580,467
58.605,546
58.630,599
58.655,622
58.680,605
58.705,552
58.730,482
58.755,424
58.780,400
58.805,405
58.830,416
58.855,396
58.880,320
58.905,186
58.930,22
58.955,-129
58.980,-237
59.005,-292
59.030,-309
59.055,-304
59.080,-272
59.105,-196
59.130,-67
59.155,90
59.180,238
59.205,347
59.230,423
59.255,495
59.280,573
59.305,635
59.330,641
59.355,581
59.380,484
59.405,399
59.430,351
59.455,327
59.480,301
59.505,262
59.530,221
59.555,186
59.580,143
59.605,66
59.630,-47
59.655,-169
59.680,-260
59.705,-304
59.730,-317
59.755,-314
59.780,-288
59.805,-213
59.830,-77
59.855,97
59.880,269
59.905,404
59.930,497
59.955,562
59.980,614
60.005,659
60.030,700
60.055,734
60.080,749
60.105,724
60.130,648
60.155,535
60.180,417
60.205,328
60.230,274
60.255,240
60.280,209
60.305,166
60.330,99
60.355,-4
60.380,-147
60.405,-297
60.430,-404
60.455,-431
60.480,-385
60.505,-309
60.530,-244
60.555,-191
60.580,-121
60.605,-11
60.630,130
60.655,271
60.680,380
60.705,452
60.730,497
60.755,528
60.780,548
60.805,561
60.830,570
60.855,578
60.880,578
60.905,553
60.930,487
60.955,375
60.980,239
61.005,115
61.030,34
61.055,3
61.080,-5
61.105,-31
61.130,-92
61.155,-174
61.180,-241
61.205,-273
61.230,-275
61.255,-260
61.280,-227
61.305,-163
61.330,-63
61.355,51
61.380,150
61.405,215
61.430,254
61.455,283
61.480,310
61.505,337
61.530,381
61.555,463
61.580,579
61.605,678
61.630,698
61.655,615
61.680,473
61.705,342
61.730,255
61.755,195
61.780,133
61.805,79
61.830,68
61.855,111
61.880,162
61.905,159
61.930,81
61.955,-20
61.980,-77
62.005,-59
62.030,5
62.055,79
62.080,148
62.105,230
62.130,333
62.155,439
62.180,517
62.205,553
62.230,557
62.255,553
62.280,559
62.305,582
62.330,618
62.355,645
62.380,632
62.405,553
62.430,419
62.455,278
62.480,184
62.505,157
62.530,177
62.555,207
62.580,232
62.605,256
62.630,278
62.655,275
62.680,218
62.705,104
62.730,-27
62.755,-129
62.780,-180
62.805,-195
62.830,-200
62.855,-203
62.880,-194
62.905,-160
62.930,-109
62.955,-61
62.980,-36
63.005,-35
63.030,-42
63.055,-29
63.080,24
63.105,124
63.130,248
63.155,359
63.180,422
63.205,426
63.230,383
63.255,319
63.280,255
63.305,202
63.330,169
63.355,165
63.380,188
63.405,223
63.430,250
63.455,258
63.480,251
63.505,236
63.530,206
63.555,135
63.580,11
63.605,-142
63.630,-271
63.655,-324
63.680,-283
63.705,-174
63.730,-42
63.755,82
63.780,188
63.805,279
63.830,351
63.855,395
63.880,407
63.905,396
63.930,385
63.955,401
63.980,448
64.005,505
64.030,532
64.055,505
64.080,431
64.105,351
64.130,301
64.155,285
64.180,277
64.205,252
64.230,214
64.255,192
64.280,198
64.305,213
64.330,208
64.355,174
64.380,136
64.405,125
64.430,150
64.455,193
64.480,240
64.505,291
64.530,354
64.555,420
64.580,471
64.605,495
64.630,504
64.655,519
64.680,546
64.705,564
64.730,542
64.755,463
64.780,332
64.805,169
64.830,5
64.855,-123
64.880,-187
64.905,-191
64.930,-173
64.955,-180
64.980,-221
65.005,-260
65.030,-240
65.055,-140
65.080,11
65.105,168
65.130,299
65.155,400
65.180,480
65.205,543
65.230,589
65.255,624
65.280,648
65.305,650
65.330,607
65.355,512
65.380,381
65.405,243
65.430,116
65.455,1
65.480,-103
65.505,-183
65.530,-218
65.555,-203
65.580,-153
65.605,-90
65.630,-23
65.655,47
65.680,120
65.705,183
65.730,227
65.755,253
65.780,267
65.805,270
65.830,258
65.855,230
65.880,191
65.905,140
65.930,71
65.955,-19
65.980,-111
66.005,-164
66.030,-152
66.055,-91
66.080,-23
66.105,23
66.130,56
66.155,99
66.180,157
66.205,211
66.230,241
66.255,252
66.280,267
66.305,295
66.330,324
66.355,333
66.380,318
66.405,289
66.430,259
66.455,235
66.480,224
66.505,234
66.530,256
66.555,264
66.580,221
66.605,119
66.630,-10
66.655,-118
66.680,-174
66.705,-175
66.730,-135
66.755,-69
66.780,15
66.805,110
66.830,209
66.855,318
66.880,445
66.905,588
66.930,716
66.955,800
66.980,830
67.005,827
67.030,807
67.055,763
67.080,675
67.105,547
67.130,423
67.155,354
67.180,353
67.205,380
67.230,382
67.255,335
67.280,253
67.305,170
67.330,112
67.355,90
67.380,99
67.405,125
67.430,150
67.455,171
67.480,206
67.505,275
67.530,366
67.555,425
67.580,396
67.605,277
67.630,124
67.655,10
67.680,-40
67.705,-64
67.730,-103
67.755,-164
67.780,-220
67.805,-244
67.830,-243
67.855,-233
67.880,-212
67.905,-161
67.930,-68
67.955,44
67.980,138
68.005,187
68.030,195
68.055,187
68.080,184
68.105,206
68.130,267
68.155,369
68.180,484
68.205,560
68.230,551
68.255,450
68.280,298
68.305,158
68.330,66
68.355,23
68.380,2
68.405,-18
68.430,-44
68.455,-65
68.480,-66
68.505,-42
68.530,-7
68.555,19
68.580,23
68.605,26
68.630,74
68.655,204
68.680,410
68.705,627
68.730,776
68.755,813
68.780,750
68.805,639
68.830,525
68.855,431
68.880,363
68.905,326
68.930,321
68.955,331
68.980,322
69.005,266
69.030,167
69.055,66
69.080,10
69.105,14
69.130,55
69.155,94
69.180,109
69.205,105
69.230,100
69.255,103
69.280,112
69.305,123
69.330,138
69.355,156
69.380,172
69.405,172
69.430,148
69.455,111
69.480,78
69.505,59
69.530,47
69.555,28
69.580,0
69.605,-20
69.630,-9
69.655,41
69.680,116
69.705,189
69.730,241
69.755,274
69.780,297
69.805,318
69.830,335
69.855,344
69.880,346
69.905,349
69.930,359
69.955,375
69.980,386
70.005,384
70.030,373
70.055,359
70.080,351
70.105,341
70.130,319
70.155,279
70.180,231
70.205,201
70.230,205
70.255,242
70.280,291
70.305,326
70.330,336
70.355,325
70.380,301
70.405,269
70.430,229
70.455,183
70.480,142
70.505,114
70.530,96
70.555,78
70.580,47
70.605,4
70.630,-40
70.655,-77
70.680,-106
70.705,-138
70.730,-185
70.755,-244
70.780,-297
70.805,-319
70.830,-296
70.855,-236
70.880,-166
70.905,-108
70.930,-63
70.955,-14
70.980,57
71.005,158
71.030,281
71.055,418
71.080,563
71.105,705
71.130,819
71.155,875
71.180,860
71.205,796
71.230,723
71.255,667
71.280,621
71.305,562
71.330,476
71.355,381
71.380,305
71.405,268
71.430,275
71.455,315
71.480,372
71.505,422
71.530,435
71.555,390
71.580,292
71.605,173
71.630,65
71.655,-9
71.680,-49
71.705,-58
71.730,-46
71.755,-38
71.780,-74
71.805,-179
71.830,-323
71.855,-427
71.880,-415
71.905,-281
71.930,-97
71.955,51
71.980,138
72.005,203
72.030,302
72.055,436
72.080,558
72.105,620
72.130,624
72.155,618
72.180,638
72.205,670
72.230,671
72.255,608
72.280,499
72.305,388
72.330,307
72.355,257
72.380,213
72.405,159
72.430,103
72.455,63
72.480,46
72.505,33
72.530,0
72.555,-64
72.580,-144
72.605,-203
72.630,-215
72.655,-178
72.680,-107
72.705,-22
72.730,66
72.755,155
72.780,236
72.805,295
72.830,322
72.855,323
72.880,319
72.905,333
72.930,367
72.955,406
72.980,429
73.005,425
73.030,398
73.055,361
73.080,327
73.105,291
73.130,242
73.155,169
73.180,80
73.205,-1
73.230,-43
73.255,-30
73.280,25
73.305,95
73.330,149
73.355,175
73.380,177
73.405,166
73.430,152
73.455,138
73.480,127
73.505,122
73.530,120
73.555,116
73.580,105
73.605,90
73.630,76
73.655,69
73.680,66
73.705,58
73.730,40
73.755,13
73.780,-8
73.805,-8
73.830,28
73.855,104
73.880,208
73.905,312
73.930,393
73.955,441
73.980,467
74.005,485
74.030,500
74.055,505
74.080,497
74.105,481
74.130,471
74.155,466
74.180,451
74.205,412
74.230,353
74.255,294
74.280,250
74.305,212
74.330,161
74.355,93
74.380,30
74.405,4
74.430,28
74.455,85
74.480,151
74.505,211
74.530,263
74.555,311
74.580,352
74.605,381
74.630,396
74.655,399
74.680,384
74.705,352
74.730,310
74.755,273
74.780,244
74.805,209
74.830,147
74.855,56
74.880,-44
74.905,-141
74.930,-246
74.955,-372
74.980,-502
75.005,-572
75.030,-519
75.055,-342
75.080,-113
75.105,81
75.130,216
75.155,326
75.180,458
75.205,612
75.230,742
75.255,807
75.280,808
75.305,784
75.330,774
75.355,792
75.380,823
75.405,836
75.430,788
75.455,648
75.480,422
75.505,164
75.530,-56
75.555,-204
75.580,-290
75.605,-349
75.630,-388
75.655,-392
75.680,-361
75.705,-336
75.730,-363
75.755,-431
75.780,-461
75.805,-375
75.830,-171
75.855,74
75.880,273
75.905,396
75.930,475
75.955,547
75.980,610
76.005,648
76.030,662
76.055,676
76.080,703
76.105,724
76.130,712
76.155,665
76.180,612
76.205,565
76.230,502
76.255,387
76.280,227
76.305,81
76.330,13
76.355,26
76.380,63
76.405,58
76.430,-2
76.455,-88
76.480,-157
76.505,-187
76.530,-172
76.555,-106
76.580,10
76.605,149
76.630,260
76.655,313
76.680,324
76.705,342
76.730,385
76.755,417
76.780,374
76.805,241
76.830,65
76.855,-77
76.880,-142
76.905,-138
76.930,-89
76.955,-9
76.980,95
77.005,206
77.030,293
77.055,343
77.080,369
77.105,381
77.130,351
77.155,233
77.180,24
77.205,-195
77.230,-310
77.255,-270
77.280,-137
77.305,-22
77.330,16
77.355,23
77.380,78
77.405,212
77.430,380
77.455,519
77.480,611
77.505,680
77.530,740
77.555,762
77.580,709
77.605,589
77.630,465
77.655,399
77.680,405
77.705,445
77.730,474
77.755,477
77.780,469
77.805,469
77.830,480
77.855,489
77.880,477
77.905,431
77.930,342
77.955,215
77.980,67
78.005,-76
78.030,-202
78.055,-301
78.080,-364
78.105,-374
78.130,-318
78.155,-208
78.180,-81
78.205,26
78.230,101
78.255,156
78.280,209
78.305,256
78.330,280
78.355,272
78.380,245
78.405,221
78.430,209
78.455,201
78.480,185
78.505,163
78.530,147
78.555,143
78.580,149
78.605,150
78.630,140
78.655,123
78.680,116
78.705,134
78.730,186
78.755,264
78.780,348
78.805,414
78.830,443
78.855,437
78.880,405
78.905,362
78.930,317
78.955,278
78.980,252
79.005,242
79.030,241
79.055,234
79.080,212
79.105,177
79.130,137
79.155,96
79.180,50
79.205,-6
79.230,-68
79.255,-114
79.280,-124
79.305,-93
79.330,-34
79.355,33
79.380,97
79.405,148
79.430,182
79.455,198
79.480,202
79.505,203
79.530,206
79.555,212
79.580,223
79.605,240
79.630,266
79.655,298
79.680,329
79.705,357
79.730,391
79.755,441
79.780,501
79.805,547
79.830,554
79.855,531
79.880,511
79.905,531
79.930,595
79.955,675
79.980,737
80.005,770
80.030,780
80.055,769
80.080,719
80.105,601
80.130,406
80.155,159
80.180,-88
80.205,-284
80.230,-390
80.255,-398
80.280,-330
80.305,-227
80.330,-131
80.355,-71
80.380,-48
80.405,-51
80.430,-63
80.455,-78
80.480,-94
80.505,-115
80.530,-145
80.555,-181
80.580,-211
80.605,-211
80.630,-161
80.655,-63
80.680,51
80.705,144
80.730,195
80.755,212
80.780,220
80.805,230
80.830,235
80.855,233
80.880,233
80.905,250
80.930,285
80.955,318
80.980,335
81.005,342
81.030,367
81.055,431
81.080,521
81.105,602
81.130,647
81.155,661
81.180,670
81.205,691
81.230,713
81.255,703
81.280,631
81.305,495
81.330,330
81.355,184
81.380,94
81.405,66
81.430,73
81.455,81
81.480,71
81.505,48
81.530,18
81.555,-23
81.580,-96
81.605,-203
81.630,-310
81.655,-361
81.680,-313
81.705,-180
81.730,-18
81.755,112
81.780,197
81.805,263
81.830,344
81.855,431
81.880,482
81.905,470
81.930,423
81.955,411
81.980,483
82.005,608
82.030,689
82.055,645
82.080,476
82.105,265
82.130,103
82.155,24
82.180,0
82.205,-6
82.230,-5
82.255,7
82.280,12
82.305,-33
82.330,-149
82.355,-287
82.380,-356
82.405,-294
82.430,-120
82.455,85
82.480,251
82.505,358
82.530,426
82.555,470
82.580,491
82.605,496
82.630,520
82.655,603
82.680,744
82.705,879
82.730,923
82.755,832
82.780,636
82.805,413
82.830,229
82.855,112
82.880,51
82.905,31
82.930,47
82.955,86
82.980,118
83.005,99
83.030,7
83.055,-135
83.080,-265
83.105,-320
83.130,-290
83.155,-215
83.180,-149
83.205,-105
83.230,-45
83.255,84
83.280,291
83.305,526
83.330,713
83.355,813
83.380,842
83.405,847
83.430,860
83.455,881
83.480,890
83.505,872
83.530,822
83.555,737
83.580,610
83.605,440
83.630,246
83.655,60
83.680,-84
83.705,-178
83.730,-237
83.755,-283
83.780,-333
83.805,-384
83.830,-423
83.855,-444
83.880,-450
83.905,-455
83.930,-465
83.955,-475
83.980,-465
84.005,-418
84.030,-340
84.055,-255
84.080,-195
84.105,-173
84.130,-171
84.155,-159
84.180,-123
84.205,-77
84.230,-42
84.255,-20
84.280,17
84.305,111
84.330,271
84.355,464
84.380,634
84.405,746
84.430,800
84.455,816
84.480,809
84.505,774
84.530,707
84.555,621
84.580,547
84.605,508
84.630,498
84.655,491
84.680,466
84.705,427
84.730,388
84.755,353
84.780,307
84.805,238
84.830,158
84.855,106
84.880,115
84.905,176
84.930,246
84.955,280
84.980,273
85.005,263
85.030,300
85.055,405
85.080,548
85.105,673
85.130,736
85.155,731
85.180,689
85.205,650
85.230,634
85.255,632
85.280,615
85.305,551
85.330,426
85.355,252
85.380,64
85.405,-93
85.430,-191
85.455,-231
85.480,-238
85.505,-249
85.530,-287
85.555,-351
85.580,-424
85.605,-489
85.630,-534
85.655,-549
85.680,-521
85.705,-435
85.730,-286
85.755,-89
85.780,122
85.805,314
85.830,467
85.855,578
85.880,653
85.905,702
85.930,730
85.955,748
85.980,764
86.005,776
86.030,763
86.055,691
86.080,543
86.105,331
86.130,102
86.155,-94
86.180,-222
86.205,-270
86.230,-240
86.255,-147
86.280,-21
86.305,99
86.330,184
86.355,233
86.380,264
86.405,287
86.430,285
86.455,228
86.480,113
86.505,-17
86.530,-110
86.555,-139
86.580,-122
86.605,-88
86.630,-40
86.655,43
86.680,168
86.705,305
86.730,406
86.755,458
86.780,492
86.805,539
86.830,585
86.855,575
86.880,471
86.905,299
86.930,138
86.955,59
86.980,71
87.005,129
87.030,187
87.055,232
87.080,279
87.105,330
87.130,357
87.155,321
87.180,209
87.205,55
87.230,-83
87.255,-169
87.280,-208
87.305,-231
87.330,-251
87.355,-242
87.380,-154
87.405,29
87.430,279
87.455,532
87.480,736
87.505,870
87.530,928
87.555,897
87.580,762
87.605,544
87.630,309
87.655,138
87.680,68
87.705,73
87.730,100
87.755,114
87.780,117
87.805,118
87.830,102
87.855,46
87.880,-48
87.905,-145
87.930,-201
87.955,-208
87.980,-184
88.005,-144
88.030,-70
88.055,67
88.080,265
88.105,480
88.130,655
88.155,763
88.180,815
88.205,826
88.230,793
88.255,699
88.280,546
88.305,370
88.330,222
88.355,133
88.380,95
88.405,79
88.430,63
88.455,42
88.480,27
88.505,23
88.530,21
88.555,4
88.580,-36
88.605,-96
88.630,-159
88.655,-207
88.680,-230
88.705,-225
88.730,-188
88.755,-108
88.780,21
88.805,188
88.830,365
88.855,526
88.880,654
88.905,748
88.930,805
88.955,819
88.980,778
89.005,688
89.030,564
89.055,428
89.080,294
89.105,176
89.130,87
89.155,37
89.180,20
89.205,9
89.230,-15
89.255,-55
89.280,-89
89.305,-104
89.330,-110
89.355,-134
89.380,-184
89.405,-235
89.430,-246
89.455,-197
89.480,-102
89.505,7
89.530,117
89.555,233
89.580,359
89.605,487
89.630,596
89.655,673
89.680,725
89.705,771
89.730,819
89.755,857
89.780,859
89.805,795
89.830,657
89.855,462
89.880,255
89.905,85
89.930,-19
89.955,-70
89.980,-99
90.005,-130
90.030,-166
90.055,-196
90.080,-218
90.105,-239
90.130,-259
90.155,-259
90.180,-211
90.205,-102
90.230,50
90.255,217
90.280,375
90.305,513
90.330,624
90.355,693
90.380,702
90.405,644
90.430,532
90.455,394
90.480,268
90.505,186
90.530,161
90.555,182
90.580,215
90.605,230
90.630,224
90.655,211
90.680,199
90.705,160
90.730,66
90.755,-75
90.780,-209
90.805,-268
90.830,-236
90.855,-155
90.880,-76
90.905,-4
90.930,97
90.955,258
90.980,456
91.005,631
91.030,731
91.055,742
91.080,672
91.105,537
91.130,360
91.155,187
91.180,73
91.205,41
91.230,64
91.255,83
91.280,62
91.305,19
91.330,-6
91.355,11
91.380,66
91.405,144
91.430,237
91.455,336
91.480,421
91.505,467
91.530,470
91.555,454
91.580,441
91.605,415
91.630,339
91.655,201
91.680,44
91.705,-60
91.730,-75
91.755,-34
91.780,0
91.805,-6
91.830,-35
91.855,-43
91.880,-13
91.905,35
91.930,79
91.955,114
91.980,153
92.005,203
92.030,252
92.055,288
92.080,314
92.105,342
92.130,366
92.155,360
92.180,294
92.205,174
92.230,50
92.255,-9
92.280,40
92.305,197
92.330,412
92.355,625
92.380,790
92.405,890
92.430,928
92.455,910
92.480,838
92.505,714
92.530,552
92.555,376
92.580,214
92.605,81
92.630,-29
92.655,-129
92.680,-223
92.705,-297
92.730,-336
92.755,-340
92.780,-326
92.805,-315
92.830,-309
92.855,-288
92.880,-227
92.905,-120
92.930,8
92.955,119
92.980,188
93.005,216
93.030,225
93.055,237
93.080,257
93.105,284
93.130,317
93.155,369
93.180,447
93.205,546
93.230,636
93.255,686
93.280,685
93.305,647
93.330,598
93.355,544
93.380,471
93.405,359
93.430,213
93.455,71
93.480,-18
93.505,-36
93.530,0
93.555,50
93.580,85
93.605,98
93.630,104
93.655,113
93.680,124
93.705,130
93.730,128
93.755,123
93.780,121
93.805,125
93.830,130
93.855,128
93.880,110
93.905,72
93.930,21
93.955,-28
93.980,-62
94.005,-80
94.030,-89
94.055,-91
94.080,-63
94.105,29
94.130,206
94.155,434
94.180,644
94.205,773
94.230,808
94.255,791
94.280,770
94.305,758
94.330,724
94.355,637
94.380,506
94.405,377
94.430,291
94.455,247
94.480,213
94.505,155
94.530,76
94.555,0
94.580,-64
94.605,-126
94.630,-203
94.655,-289
94.680,-348
94.705,-345
94.730,-277
94.755,-178
94.780,-86
94.805,-19
94.830,26
94.855,63
94.880,91
94.905,104
94.930,102
94.955,91
94.980,79
95.005,82
95.030,114
95.055,191
95.080,312
95.105,456
95.130,585
95.155,668
95.180,698
95.205,681
95.230,627
95.255,540
95.280,438
95.305,353
95.330,318
95.355,329
95.380,345
95.405,325
95.430,266
95.455,206
95.480,184
95.505,195
95.530,201
95.555,173
95.580,122
95.605,87
95.630,91
95.655,123
95.680,153
95.705,168
95.730,180
95.755,196
95.780,212
95.805,210
95.830,188
95.855,154
95.880,113
95.905,54
95.930,-29
95.955,-120
95.980,-182
96.005,-183
96.030,-130
96.055,-55
96.080,15
96.105,89
96.130,183
96.155,302
96.180,429
96.205,539
96.230,627
96.255,700
96.280,758
96.305,783
96.330,755
96.355,672
96.380,551
96.405,415
96.430,276
96.455,147
96.480,41
96.505,-25
96.530,-52
96.555,-58
96.580,-65
96.605,-75
96.630,-68
96.655,-26
96.680,40
96.705,96
96.730,110
96.755,72
96.780,0
96.805,-85
96.830,-161
96.855,-210
96.880,-213
96.905,-155
96.930,-41
96.955,101
96.980,238
97.005,346
97.030,427
97.055,492
97.080,555
97.105,615
97.130,665
97.155,694
97.180,689
97.205,636
97.230,530
97.255,377
97.280,202
97.305,45
97.330,-51
97.355,-67
97.380,-10
97.405,81
97.430,167
97.455,225
97.480,254
97.505,262
97.530,250
97.555,203
97.580,121
97.605,24
97.630,-49
97.655,-73
97.680,-50
97.705,-4
97.730,48
97.755,111
97.780,191
97.805,286
97.830,375
97.855,442
97.880,486
97.905,513
97.930,515
97.955,470
97.980,362
98.005,212
98.030,75
98.055,5
98.080,20
98.105,93
98.130,181
98.155,254
98.180,309
98.205,351
98.230,383
98.255,398
98.280,391
98.305,365
98.330,328
98.355,285
98.380,239
98.405,190
98.430,146
98.455,115
98.480,95
98.505,78
98.530,54
98.555,19
98.580,-17
98.605,-47
98.630,-68
98.655,-91
98.680,-127
98.705,-171
98.730,-202
98.755,-195
98.780,-141
98.805,-55
98.830,41
98.855,138
98.880,242
98.905,362
98.930,492
98.955,611
98.980,699
99.005,755
99.030,787
99.055,794
99.080,752
99.105,641
99.130,470
99.155,291
99.180,166
99.205,123
99.230,137
99.255,165
99.280,178
99.305,182
99.330,185
99.355,174
99.380,125
99.405,35
99.430,-57
99.455,-102
99.480,-77
99.505,-9
99.530,56
99.555,108
99.580,170
99.605,271
99.630,404
99.655,529
99.680,610
99.705,648
99.730,663
99.755,662
99.780,625
99.805,532
99.830,394
99.855,251
99.880,144
99.905,81
99.930,46
99.955,18
99.980,-4
100.005,-21
100.030,-41
100.055,-76
100.080,-128
100.105,-175
100.130,-195
100.155,-186
100.180,-170
100.205,-165
100.230,-169
100.255,-163
100.280,-133
100.305,-82
100.330,-23
100.355,36
100.380,104
100.405,182
100.430,268
100.455,353
100.480,435
100.505,516
100.530,584
100.555,617
100.580,590
100.605,502
100.630,375
100.655,247
100.680,142
100.705,68
100.730,24
100.755,11
100.780,28
100.805,68
100.830,112
100.855,143
100.880,150
100.905,139
100.930,123
100.955,114
100.980,114
101.005,120
101.030,129
101.055,138
101.080,152
101.105,182
101.130,239
101.155,321
101.180,414
101.205,496
101.230,552
101.255,586
101.280,614
101.305,644
101.330,670
101.355,666
101.380,614
101.405,518
101.430,405
101.455,311
101.480,254
101.505,234
101.530,237
101.555,251
101.580,271
101.605,292
101.630,305
101.655,296
101.680,261
101.705,203
101.730,130
101.755,45
101.780,-52
101.805,-163
101.830,-271
101.855,-345
101.880,-354
101.905,-291
101.930,-178
101.955,-56
101.980,36
102.005,85
102.030,107
102.055,130
102.080,181
102.105,269
102.130,384
102.155,502
102.180,590
102.205,626
102.230,603
102.255,536
102.280,454
102.305,384
102.330,334
102.355,295
102.380,257
102.405,217
102.430,182
102.455,155
102.480,130
102.505,97
102.530,59
102.555,26
102.580,6
102.605,-9
102.630,-38
102.655,-83
102.680,-125
102.705,-136
102.730,-102
102.755,-39
102.780,24
102.805,69
102.830,90
102.855,92
102.880,81
102.905,66
102.930,60
102.955,79
102.980,137
103.005,229
103.030,339
103.055,441
103.080,514
103.105,553
103.130,565
103.155,563
103.180,553
103.205,520
103.230,438
103.255,299
103.280,133
103.305,0
103.330,-54
103.355,-19
103.380,65
103.405,155
103.430,225
103.455,279
103.480,330
103.505,375
103.530,404
103.555,409
103.580,389
103.605,347
103.630,285
103.655,216
103.680,162
103.705,139
103.730,149
103.755,176
103.780,207
103.805,236
103.830,263
103.855,278
103.880,273
103.905,256
103.930,262
103.955,315
103.980,398
104.005,450
104.030,421
104.055,315
104.080,190
104.105,104
104.130,73
104.155,70
104.180,68
104.205,68
104.230,79
104.255,99
104.280,113
104.305,113
104.330,109
104.355,111
104.380,109
104.405,81
104.430,23
104.455,-44
104.480,-96
104.505,-129
104.530,-157
104.555,-187
104.580,-192
104.605,-139
104.630,-18
104.655,137
104.680,284
104.705,401
104.730,491
104.755,554
104.780,567
104.805,505
104.830,368
104.855,194
104.880,33
104.905,-83
104.930,-149
104.955,-172
104.980,-155
105.005,-101
105.030,-19
105.055,68
105.080,142
105.105,197
105.130,245
105.155,305
105.180,392
105.205,506
105.230,636
105.255,756
105.280,844
105.305,888
105.330,895
105.355,882
105.380,865
105.405,848
105.430,820
105.455,767
105.480,672
105.505,530
105.530,353
105.555,171
105.580,16
105.605,-98
105.630,-178
105.655,-237
105.680,-281
105.705,-305
105.730,-311
105.755,-314
105.780,-328
105.805,-344
105.830,-329
105.855,-262
105.880,-156
105.905,-53
105.930,18
105.955,67
105.980,125
106.005,199
106.030,258
106.055,271
106.080,250
106.105,257
106.130,348
106.155,522
106.180,714
106.205,844
106.230,876
106.255,829
106.280,745
106.305,648
106.330,535
106.355,396
106.380,229
106.405,50
106.430,-121
106.455,-271
106.480,-383
106.505,-441
106.530,-430
106.555,-358
106.580,-251
106.605,-139
106.630,-37
106.655,58
106.680,149
106.705,220
106.730,251
106.755,238
106.780,212
106.805,217
106.830,278
106.855,375
106.880,461
106.905,505
106.930,503
106.955,474
106.980,428
107.005,371
107.030,309
107.055,266
107.080,269
107.105,321
107.130,396
107.155,452
107.180,460
107.205,412
107.230,323
107.255,219
107.280,126
107.305,61
107.330,27
107.355,9
107.380,-7
107.405,-27
107.430,-43
107.455,-55
107.480,-76
107.505,-115
107.530,-153
107.555,-152
107.580,-84
107.605,32
107.630,140
107.655,193
107.680,196
107.705,196
107.730,236
107.755,320
107.780,416
107.805,487
107.830,516
107.855,502
107.880,449
107.905,367
107.930,277
107.955,202
107.980,153
108.005,126
108.030,110
108.055,101
108.080,102
108.105,110
108.130,109
108.155,88
108.180,49
108.205,9
108.230,-24
108.255,-60
108.280,-96
108.305,-105
108.330,-41
108.355,116
108.380,338
108.405,556
108.430,709
108.455,781
108.480,800
108.505,802
108.530,806
108.555,811
108.580,803
108.605,764
108.630,676
108.655,537
108.680,373
108.705,223
108.730,118
108.755,58
108.780,23
108.805,0
108.830,-3
108.855,22
108.880,60
108.905,80
108.930,66
108.955,51
108.980,82
109.005,162
109.030,224
109.055,178
109.080,-3
109.105,-247
109.130,-421
109.155,-440
109.180,-316
109.205,-133
109.230,34
109.255,173
109.280,307
109.305,452
109.330,584
109.355,667
109.380,682
109.405,637
109.430,551
109.455,430
109.480,282
109.505,127
109.530,2
109.555,-61
109.580,-58
109.605,-13
109.630,33
109.655,53
109.680,30
109.705,-34
109.730,-120
109.755,-191
109.780,-212
109.805,-168
109.830,-74
109.855,50
109.880,193
109.905,354
109.930,522
109.955,666
109.980,746
110.005,744
110.030,670
110.055,543
110.080,375
110.105,182
110.130,-2
110.155,-123
110.180,-146
110.205,-87
110.230,-8
110.255,30
110.280,16
110.305,-21
110.330,-46
110.355,-41
110.380,0
110.405,91
110.430,243
110.455,441
110.480,635
110.505,767
110.530,811
110.555,780
110.580,703
110.605,592
110.630,444
110.655,264
110.680,76
110.705,-86
110.730,-201
110.755,-260
110.780,-259
110.805,-200
110.830,-97
110.855,16
110.880,110
110.905,173
110.930,210
110.955,223
110.980,195
111.005,114
111.030,0
111.055,-89
111.080,-98
111.105,-14
111.130,132
111.155,301
111.180,472
111.205,644
111.230,797
111.255,894
111.280,902
111.305,822
111.330,691
111.355,552
111.380,423
111.405,304
111.430,199
111.455,125
111.480,99
111.505,119
111.530,163
111.555,200
111.580,204
111.605,162
111.630,69
111.655,-61
111.680,-195
111.705,-285
111.730,-299
111.755,-234
111.780,-115
111.805,25
111.830,172
111.855,318
111.880,455
111.905,554
111.930,582
111.955,524
111.980,398
112.005,250
112.030,129
112.055,65
112.080,61
112.105,93
112.130,127
112.155,133
112.180,96
112.205,27
112.230,-40
112.255,-64
112.280,-9
112.305,127
112.330,318
112.355,520
112.380,693
112.405,819
112.430,894
112.455,917
112.480,875
112.505,757
112.530,565
112.555,334
112.580,115
112.605,-44
112.630,-128
112.655,-148
112.680,-134
112.705,-108
112.730,-85
112.755,-65
112.780,-50
112.805,-39
112.830,-32
112.855,-36
112.880,-64
112.905,-121
112.930,-193
112.955,-240
112.980,-214
113.005,-96
113.030,81
113.055,256
113.080,380
113.105,449
113.130,495
113.155,541
113.180,570
113.205,539
113.230,420
113.255,232
113.280,35
113.305,-112
113.330,-181
113.355,-179
113.380,-136
113.405,-82
113.430,-36
113.455,-4
113.480,19
113.505,42
113.530,70
113.555,105
113.580,149
113.605,200
113.630,248
113.655,274
113.680,267
113.705,239
113.730,232
113.755,285
113.780,395
113.805,509
113.830,562
113.855,533
113.880,459
113.905,407
113.930,416
113.955,470
113.980,523
114.005,534
114.030,489
114.055,404
114.080,304
114.105,215
114.130,159
114.155,140
114.180,151
114.205,185
114.230,248
114.255,353
114.280,496
114.305,634
114.330,714
114.355,708
114.380,645
114.405,584
114.430,555
114.455,536
114.480,475
114.505,344
114.530,169
114.555,4
114.580,-104
114.605,-147
114.630,-137
114.655,-98
114.680,-45
114.705,4
114.730,40
114.755,56
114.780,56
114.805,46
114.830,30
114.855,2
114.880,-44
114.905,-116
114.930,-204
114.955,-284
114.980,-322
115.005,-287
115.030,-180
115.055,-34
115.080,105
115.105,212
115.130,293
115.155,371
115.180,449
115.205,498
115.230,480
115.255,381
115.280,230
115.305,77
115.330,-41
115.355,-117
115.380,-158
115.405,-179
115.430,-194
115.455,-218
115.480,-270
115.505,-349
115.530,-418
115.555,-415
115.580,-286
115.605,-33
115.630,282
115.655,570
115.680,768
115.705,873
115.730,925
115.755,961
115.780,976
115.805,940
115.830,832
115.855,680
115.880,538
115.905,455
115.930,433
115.955,442
115.980,446
116.005,436
116.030,420
116.055,408
116.080,394
116.105,365
116.130,314
116.155,250
116.180,189
116.205,139
116.230,94
116.255,40
116.280,-29
116.305,-98
116.330,-130
116.355,-88
116.380,35
116.405,206
116.430,371
116.455,493
116.480,573
116.505,628
116.530,658
116.555,631
116.580,513
116.605,311
116.630,87
116.655,-82
116.680,-159
116.705,-167
116.730,-157
116.755,-164
116.780,-190
116.805,-223
116.830,-270
116.855,-342
116.880,-423
116.905,-456
116.930,-372
116.955,-153
116.980,145
117.005,429
117.030,634
117.055,765
117.080,854
117.105,903
117.130,864
117.155,693
117.180,413
117.205,121
117.230,-85
117.255,-174
117.280,-192
117.305,-203
117.330,-228
117.355,-248
117.380,-249
117.405,-248
117.430,-274
117.455,-325
117.480,-371
117.505,-380
117.530,-353
117.555,-310
117.580,-256
117.605,-172
117.630,-35
117.655,139
117.680,312
117.705,456
117.730,579
117.755,720
117.780,900
117.805,1102
117.830,1287
117.855,1413
117.880,1452
117.905,1387
117.930,1217
117.955,972
117.980,716
118.005,522
118.030,429
118.055,421
118.080,447
118.105,461
118.130,448
118.155,413
118.180,361
118.205,293
118.230,219
118.255,172
118.280,187
118.305,260
118.330,335
118.355,340
118.380,246
118.405,98
118.430,-15
118.455,-39
118.480,2
118.505,32
118.530,-19
118.555,-157
118.580,-335
118.605,-496
118.630,-608
118.655,-659
118.680,-646
118.705,-581
118.730,-511
118.755,-499
118.780,-562
118.805,-630
118.830,-581
118.855,-339
118.880,51
118.905,445
118.930,702
118.955,784
118.980,758
119.005,724
119.030,726
119.055,733
119.080,675
119.105,513
119.130,269
119.155,21
119.180,-144
119.205,-186
119.230,-135
119.255,-58
119.280,-5
119.305,26
119.330,68
119.355,125
119.380,171
119.405,191
119.430,228
119.455,360
119.480,609
119.505,894
119.530,1080
119.555,1094
119.580,980
119.605,841
119.630,740
119.655,653
119.680,520
119.705,323
119.730,99
119.755,-98
119.780,-241
119.805,-326
119.830,-351
119.855,-321
119.880,-261
119.905,-210
119.930,-178
119.955,-136
119.980,-47
120.005,74
120.030,168
120.055,187
120.080,166
120.105,194
120.130,338
120.155,568
120.180,784
120.205,897
120.230,895
120.255,828
120.280,752
120.305,689
120.330,628
120.355,543
120.380,414
120.405,236
120.430,26
120.455,-174
120.480,-319
120.505,-382
120.530,-370
120.555,-310
120.580,-223
120.605,-114
120.630,6
120.655,122
120.680,209
120.705,256
120.730,263
120.755,241
120.780,206
120.805,180
120.830,198
120.855,285
120.880,434
120.905,594
120.930,701
120.955,720
120.980,665
121.005,581
121.030,505
121.055,433
121.080,332
121.105,174
121.130,-27
121.155,-219
121.180,-343
121.205,-382
121.230,-367
121.255,-341
121.280,-310
121.305,-241
121.330,-110
121.355,51
121.380,164
121.405,178
121.430,124
121.455,106
121.480,210
121.505,425
121.530,653
121.555,787
121.580,789
121.605,707
121.630,617
121.655,564
121.680,531
121.705,462
121.730,318
121.755,106
121.780,-113
121.805,-275
121.830,-340
121.855,-319
121.880,-243
121.905,-128
121.930,16
121.955,169
121.980,274
122.005,284
122.030,217
122.055,171
122.080,255
122.105,491
122.130,779
122.155,974
122.180,998
122.205,883
122.230,731
122.255,620
122.280,558
122.305,507
122.330,433
122.355,331
122.380,227
122.405,148
122.430,108
122.455,110
122.480,140
122.505,180
122.530,214
122.555,236
122.580,245
122.605,244
122.630,233
122.655,214
122.680,186
122.705,135
122.730,43
122.755,-97
122.780,-262
122.805,-399
122.830,-472
122.855,-483
122.880,-460
122.905,-415
122.930,-326
122.955,-165
122.980,57
123.005,277
123.030,416
123.055,437
123.080,367
123.105,269
123.130,198
123.155,176
123.180,192
123.205,217
123.230,220
123.255,195
123.280,158
123.305,138
123.330,145
123.355,158
123.380,154
123.405,134
123.430,124
123.455,133
123.480,124
123.505,43
123.530,-112
123.555,-265
123.580,-316
123.605,-232
123.630,-73
123.655,63
123.680,141
123.705,204
123.730,317
123.755,488
123.780,657
123.805,759
123.830,782
123.855,763
123.880,739
123.905,713
123.930,668
123.955,599
123.980,520
124.005,447
124.030,378
124.055,297
124.080,197
124.105,93
124.130,13
124.155,-23
124.180,-16
124.205,20
124.230,69
124.255,116
124.280,149
124.305,164
124.330,162
124.355,147
124.380,126
124.405,107
124.430,96
124.455,96
124.480,101
124.505,100
124.530,91
124.555,80
124.580,78
124.605,81
124.630,73
124.655,45
124.680,12
124.705,8
124.730,60
124.755,158
124.780,272
124.805,381
124.830,487
124.855,602
124.880,711
124.905,777
124.930,773
124.955,711
124.980,632
125.005,569
125.030,516
125.055,442
125.080,337
125.105,222
125.130,131
125.155,74
125.180,33
125.205,-13
125.230,-58
125.255,-70
125.280,-27
125.305,59
125.330,157
125.355,239
125.380,301
125.405,345
125.430,371
125.455,369
125.480,343
125.505,321
125.530,337
125.555,399
125.580,480
125.605,535
125.630,541
125.655,511
125.680,471
125.705,436
125.730,393
125.755,324
125.780,231
125.805,143
125.830,91
125.855,83
125.880,98
125.905,114
125.930,125
125.955,144
125.980,182
126.005,229
126.030,256
126.055,246
126.080,211
126.105,181
126.130,179
126.155,204
126.180,232
126.205,245
126.230,238
126.255,223
126.280,209
126.305,192
126.330,165
126.355,120
126.380,63
126.405,-2
126.430,-75
126.455,-156
126.480,-235
126.505,-296
126.530,-325
126.555,-326
126.580,-323
126.605,-338
126.630,-374
126.655,-413
126.680,-437
126.705,-442
126.730,-444
126.755,-447
126.780,-439
126.805,-402
126.830,-337
126.855,-268
126.880,-222
126.905,-193
126.930,-135
126.955,7
126.980,266
127.005,614
127.030,979
127.055,1271
127.080,1422
127.105,1414
127.130,1290
127.155,1124
127.180,968
127.205,819
127.230,634
127.255,385
127.280,101
127.305,-147
127.330,-309
127.355,-388
127.380,-425
127.405,-444
127.430,-436
127.455,-380
127.480,-280
127.505,-157
127.530,-7
127.555,206
127.580,505
127.605,840
127.630,1102
127.655,1203
127.680,1151
127.705,1041
127.730,961
127.755,925
127.780,879
127.805,777
127.830,629
127.855,488
127.880,388
127.905,319
127.930,254
127.955,186
127.980,128
128.005,88
128.030,55
128.055,18
128.080,-15
128.105,-16
128.130,28
128.155,102
128.180,166
128.205,194
128.230,192
128.255,176
128.280,151
128.305,106
128.330,34
128.355,-48
128.380,-106
128.405,-109
128.430,-52
128.455,43
128.480,150
128.505,246
128.530,322
128.555,369
128.580,373
128.605,322
128.630,225
128.655,115
128.680,33
128.705,-2
128.730,-5
128.755,-7
128.780,-20
128.805,-26
128.830,-2
128.855,51
128.880,103
128.905,115
128.930,79
128.955,26
128.980,-9
129.005,-10
129.030,18
129.055,75
129.080,160
129.105,274
129.130,392
129.155,479
129.180,515
129.205,507
129.230,477
129.255,444
129.280,408
129.305,373
129.330,354
129.355,375
129.380,441
129.405,530
129.430,611
129.455,665
129.480,686
129.505,674
129.530,617
129.555,514
129.580,388
129.605,293
129.630,275
129.655,343
129.680,458
129.705,558
129.730,595
129.755,549
129.780,426
129.805,250
129.830,60
129.855,-99
129.880,-194
129.905,-222
129.930,-222
129.955,-257
129.980,-375
130.005,-574
130.030,-791
130.055,-937
130.080,-942
130.105,-801
130.130,-570
130.155,-325
130.180,-115
130.205,56
130.230,202
130.255,316
130.280,363
130.305,319
130.330,204
130.355,86
130.380,39
130.405,91
130.430,215
130.455,355
130.480,467
130.505,539
130.530,576
130.555,585
130.580,562
130.605,505
130.630,426
130.655,352
130.680,312
130.705,322
130.730,373
130.755,439
130.780,495
130.805,530
130.830,542
130.855,525
130.880,461
130.905,342
130.930,190
130.955,61
130.980,9
131.005,45
131.030,129
131.055,202
131.080,236
131.105,242
131.130,245
131.155,247
131.180,229
131.205,178
131.230,102
131.255,33
131.280,-6
131.305,-9
131.330,22
131.355,88
131.380,178
131.405,267
131.430,315
131.455,299
131.480,230
131.505,152
131.530,96
131.555,60
131.580,21
131.605,-34
131.630,-87
131.655,-103
131.680,-62
131.705,18
131.730,100
131.755,150
131.780,158
131.805,136
131.830,98
131.855,61
131.880,40
131.905,51
131.930,95
131.955,157
131.980,213
132.005,243
132.030,249
132.055,248
132.080,264
132.105,314
132.130,409
132.155,547
132.180,713
132.205,867
132.230,958
132.255,954
132.280,867
132.305,760
132.330,703
132.355,732
132.380,821
132.405,904
132.430,931
132.455,896
132.480,833
132.505,769
132.530,696
132.555,577
132.580,383
132.605,132
132.630,-115
132.655,-298
132.680,-391
132.705,-412
132.730,-401
132.755,-386
132.780,-374
132.805,-367
132.830,-380
132.855,-435
132.880,-537
132.905,-661
132.930,-758
132.955,-783
132.980,-719
133.005,-580
133.030,-399
133.055,-206
133.080,-20
133.105,154
133.130,328
133.155,498
133.180,640
133.205,707
133.230,658
133.255,507
133.280,323
133.305,197
133.330,174
133.355,232
133.380,306
133.405,350
133.430,364
133.455,368
133.480,371
133.505,353
133.530,301
133.555,232
133.580,186
133.605,186
133.630,216
133.655,243
133.680,254
133.705,269
133.730,316
133.755,395
133.780,477
133.805,525
133.830,526
133.855,489
133.880,429
133.905,356
133.930,282
133.955,226
133.980,211
134.005,240
134.030,290
134.055,325
134.080,322
134.105,280
134.130,208
134.155,114
134.180,-2
134.205,-131
134.230,-244
134.255,-297
134.280,-257
134.305,-128
134.330,51
134.355,232
134.380,373
134.405,459
134.430,490
134.455,477
134.480,425
134.505,344
134.530,248
134.555,163
134.580,115
134.605,110
134.630,123
134.655,104
134.680,16
134.705,-138
134.730,-308
134.755,-425
134.780,-445
134.805,-368
134.830,-216
134.855,-10
134.880,233
134.905,486
134.930,695
134.955,805
134.980,804
135.005,742
135.030,696
135.055,708
135.080,758
135.105,784
135.130,742
135.155,638
135.180,514
135.205,407
135.230,323
135.255,253
135.280,192
135.305,150
135.330,138
135.355,150
135.380,164
135.405,150
135.430,93
135.455,-3
135.480,-124
135.505,-239
135.530,-310
135.555,-300
135.580,-188
135.605,16
135.630,274
135.655,527
135.680,726
135.705,843
135.730,865
135.755,788
135.780,621
135.805,392
135.830,156
135.855,-27
135.880,-121
135.905,-134
135.930,-107
135.955,-74
135.980,-47
136.005,-21
136.030,3
136.055,14
136.080,-6
136.105,-59
136.130,-133
136.155,-217
136.180,-300
136.205,-354
136.230,-333
136.255,-189
136.280,76
136.305,407
136.330,713
136.355,930
136.380,1041
136.405,1055
136.430,980
136.455,815
136.480,575
136.505,310
136.530,84
136.555,-59
136.580,-119
136.605,-124
136.630,-110
136.655,-101
136.680,-109
136.705,-136
136.730,-168
136.755,-185
136.780,-177
136.805,-151
136.830,-119
136.855,-76
136.880,6
136.905,155
136.930,358
136.955,562
136.980,716
137.005,803
137.030,847
137.055,874
137.080,879
137.105,827
137.130,692
137.155,487
137.180,262
137.205,70
137.230,-62
137.255,-147
137.280,-208
137.305,-257
137.330,-286
137.355,-278
137.380,-232
137.405,-164
137.430,-95
137.455,-21
137.480,87
137.505,251
137.530,454
137.555,647
137.580,788
137.605,876
137.630,937
137.655,980
137.680,976
137.705,882
137.730,694
137.755,463
137.780,256
137.805,103
137.830,-11
137.855,-114
137.880,-209
137.905,-278
137.930,-313
137.955,-323
137.980,-322
138.005,-309
138.030,-270
138.055,-205
138.080,-125
138.105,-37
138.130,74
138.155,226
138.180,408
138.205,586
138.230,725
138.255,826
138.280,900
138.305,938
138.330,903
138.355,764
138.380,542
138.405,303
138.430,108
138.455,-31
138.480,-148
138.505,-263
138.530,-364
138.555,-414
138.580,-394
138.605,-312
138.630,-193
138.655,-65
138.680,51
138.705,136
138.730,183
138.755,198
138.780,196
138.805,180
138.830,143
138.855,91
138.880,57
138.905,73
138.930,133
138.955,189
138.980,204
139.005,198
139.030,237
139.055,356
139.080,512
139.105,622
139.130,649
139.155,648
139.180,698
139.205,804
139.230,877
139.255,812
139.280,596
139.305,315
139.330,81
139.355,-58
139.380,-126
139.405,-165
139.430,-191
139.455,-201
139.480,-194
139.505,-172
139.530,-115
139.555,9
139.580,211
139.605,433
139.630,582
139.655,603
139.680,530
139.705,458
139.730,457
139.755,517
139.780,564
139.805,530
139.830,402
139.855,222
139.880,47
139.905,-85
139.930,-163
139.955,-193
139.980,-191
140.005,-174
140.030,-150
140.055,-121
140.080,-87
140.105,-58
140.130,-52
140.155,-75
140.180,-115
140.205,-139
140.230,-117
140.255,-33
140.280,109
140.305,297
140.330,502
140.355,692
140.380,841
140.405,948
140.430,1026
140.455,1086
140.480,1112
140.505,1070
140.530,940
140.555,743
140.580,533
140.605,361
140.630,243
140.655,164
140.680,105
140.705,62
140.730,37
140.755,29
140.780,25
140.805,11
140.830,-17
140.855,-56
140.880,-92
140.905,-114
140.930,-106
140.955,-60
140.980,17
141.005,107
141.030,181
141.055,224
141.080,244
141.105,254
141.130,262
141.155,262
141.180,248
141.205,224
141.230,202
141.255,187
141.280,172
141.305,142
141.330,90
141.355,25
141.380,-37
141.405,-91
141.430,-144
141.455,-206
141.480,-275
141.505,-335
141.530,-364
141.555,-350
141.580,-303
141.605,-241
141.630,-182
141.655,-136
141.680,-107
141.705,-96
141.730,-97
141.755,-94
141.780,-64
141.805,14
141.830,149
141.855,331
141.880,530
141.905,712
141.930,846
141.955,918
141.980,943
142.005,948
142.030,958
142.055,970
142.080,955
142.105,886
142.130,769
142.155,640
142.180,540
142.205,484
142.230,450
142.255,402
142.280,321
142.305,216
142.330,109
142.355,22
142.380,-40
142.405,-86
142.430,-123
142.455,-158
142.480,-194
142.505,-237
142.530,-282
142.555,-313
142.580,-297
142.605,-209
142.630,-54
142.655,121
142.680,256
142.705,313
142.730,310
142.755,302
142.780,333
142.805,401
142.830,465
142.855,482
142.880,444
142.905,371
142.930,291
142.955,215
142.980,142
143.005,78
143.030,31
143.055,11
143.080,15
143.105,32
143.130,50
143.155,68
143.180,97
143.205,152
143.230,249
143.255,387
143.280,537
143.305,657
143.330,719
143.355,732
143.380,735
143.405,756
143.430,785
143.455,781
143.480,716
143.505,599
143.530,463
143.555,334
143.580,218
143.605,117
143.630,47
143.655,28
143.680,55
143.705,97
143.730,120
143.755,106
143.780,58
143.805,-27
143.830,-162
143.855,-342
143.880,-522
143.905,-636
143.930,-637
143.955,-530
143.980,-352
144.005,-140
144.030,93
144.055,335
144.080,557
144.105,716
144.130,786
144.155,773
144.180,697
144.205,572
144.230,404
144.255,214
144.280,48
144.305,-45
144.330,-59
144.355,-30
144.380,-19
144.405,-61
144.430,-147
144.455,-239
144.480,-298
144.505,-303
144.530,-249
144.555,-142
144.580,12
144.605,204
144.630,414
144.655,615
144.680,771
144.705,851
144.730,840
144.755,751
144.780,614
144.805,461
144.830,314
144.855,189
144.880,100
144.905,54
144.930,45
144.955,52
144.980,61
145.005,71
145.030,92
145.055,123
145.080,145
145.105,131
145.130,85
145.155,39
145.180,27
145.205,46
145.230,57
145.255,17
145.280,-76
145.305,-187
145.330,-264
145.355,-274
145.380,-216
145.405,-104
145.430,49
145.455,230
145.480,420
145.505,596
145.530,741
145.555,843
145.580,901
145.605,910
145.630,865
145.655,765
145.680,613
145.705,427
145.730,236
145.755,82
145.780,4
145.805,21
145.830,118
145.855,246
145.880,349
145.905,385
145.930,347
145.955,260
145.980,167
146.005,111
146.030,119
146.055,190
146.080,301
146.105,423
146.130,535
146.155,627
146.180,695
146.205,727
146.230,713
146.255,645
146.280,522
146.305,345
146.330,122
146.355,-122
146.380,-337
146.405,-463
146.430,-472
146.455,-385
146.480,-261
146.505,-148
146.530,-58
146.555,16
146.580,80
146.605,120
146.630,124
146.655,104
146.680,84
146.705,72
146.730,53
146.755,3
146.780,-77
146.805,-161
146.830,-210
146.855,-196
146.880,-113
146.905,26
146.930,200
146.955,367
146.980,496
147.005,577
147.030,630
147.055,677
147.080,708
147.105,682
147.130,575
147.155,409
147.180,249
147.205,150
147.230,117
147.255,111
147.280,100
147.305,84
147.330,85
147.355,115
147.380,158
147.405,190
147.430,201
147.455,197
147.480,186
147.505,166
147.530,127
147.555,61
147.580,-29
147.605,-126
147.630,-190
147.655,-171
147.680,-36
147.705,198
147.730,467
147.755,690
147.780,824
147.805,876
147.830,879
147.855,846
147.880,766
147.905,625
147.930,438
147.955,247
147.980,93
148.005,0
148.030,-39
148.055,-42
148.080,-37
148.105,-57
148.130,-123
148.155,-213
148.180,-265
148.205,-217
148.230,-62
148.255,144
148.280,330
148.305,462
148.330,564
148.355,659
148.380,726
148.405,701
148.430,553
148.455,320
148.480,93
148.505,-60
148.530,-138
148.555,-173
148.580,-185
148.605,-165
148.630,-107
148.655,-37
148.680,1
148.705,8
148.730,31
148.755,129
148.780,301
148.805,481
148.830,590
148.855,600
148.880,541
148.905,465
148.930,401
148.955,357
148.980,343
149.005,366
149.030,420
149.055,466
149.080,461
149.105,390
149.130,276
149.155,158
149.180,53
149.205,-38
149.230,-116
149.255,-168
149.280,-186
149.305,-179
149.330,-169
149.355,-165
149.380,-150
149.405,-94
149.430,14
149.455,155
149.480,283
149.505,358
149.530,357
149.555,291
149.580,202
149.605,147
149.630,162
149.655,243
149.680,344
149.705,419
149.730,453
149.755,465
149.780,477
149.805,492
149.830,496
149.855,484
149.880,466
149.905,449
149.930,425
149.955,374
149.980,289
150.005,189
150.030,94
150.055,14
150.080,-56
150.105,-118
150.130,-164
150.155,-192
150.180,-212
150.205,-234
150.230,-236
150.255,-169
150.280,0
150.305,251
150.330,510
150.355,697
150.380,783
150.405,791
150.430,763
150.455,728
150.480,697
150.505,676
150.530,666
150.555,651
150.580,598
150.605,482
150.630,312
150.655,128
150.680,-31
150.705,-152
150.730,-238
150.755,-294
150.780,-318
150.805,-309
150.830,-285
150.855,-269
150.880,-268
150.905,-264
150.930,-225
150.955,-128
150.980,29
151.005,225
151.030,421
151.055,569
151.080,631
151.105,609
151.130,546
151.155,499
151.180,493
151.205,504
151.230,481
151.255,396
151.280,262
151.305,117
151.330,-16
151.355,-143
151.380,-274
151.405,-405
151.430,-516
151.455,-595
151.480,-645
151.505,-661
151.530,-620
151.555,-486
151.580,-248
151.605,54
151.630,354
151.655,589
151.680,738
151.705,816
151.730,851
151.755,865
151.780,877
151.805,897
151.830,919
151.855,920
151.880,868
151.905,749
151.930,582
151.955,410
151.980,266
152.005,154
152.030,55
152.055,-47
152.080,-151
152.105,-232
152.130,-266
152.155,-246
152.180,-188
152.205,-121
152.230,-68
152.255,-28
152.280,20
152.305,97
152.330,200
152.355,304
152.380,384
152.405,440
152.430,498
152.455,576
152.480,657
152.505,703
152.530,689
152.555,629
152.580,560
152.605,513
152.630,494
152.655,502
152.680,555
152.705,675
152.730,852
152.755,1032
152.780,1136
152.805,1126
152.830,1026
152.855,894
152.880,773
152.905,662
152.930,542
152.955,411
152.980,284
153.005,166
153.030,37
153.055,-123
153.080,-308
153.105,-464
153.130,-543
153.155,-546
153.180,-534
153.205,-578
153.230,-698
153.255,-848
153.280,-966
153.305,-1040
153.330,-1119
153.355,-1253
153.380,-1419
153.405,-1508
153.430,-1397
153.455,-1044
153.480,-536
153.505,-30
153.530,349
153.555,578
153.580,704
153.605,776
153.630,794
153.655,720
153.680,544
153.705,312
153.730,107
153.755,-10
153.780,-31
153.805,12
153.830,90
153.855,191
153.880,308
153.905,427
153.930,527
153.955,605
153.980,678
154.005,768
154.030,867
154.055,947
154.080,985
154.105,990
154.130,995
154.155,1016
154.180,1038
154.205,1029
154.230,984
154.255,925
154.280,870
154.305,813
154.330,739
154.355,668
154.380,648
154.405,710
154.430,822
154.455,913
154.480,935
154.505,900
154.530,845
154.555,771
154.580,648
154.605,466
154.630,264
154.655,92
154.680,-68
154.705,-297
154.730,-642
154.755,-1060
154.780,-1458
154.805,-1814
154.830,-2195
154.855,-2641
154.880,-3016
154.905,-3054
154.930,-2577
154.955,-1695
154.980,-765
155.005,-119
155.030,167
155.055,273
155.080,414
155.105,658
155.130,933
155.155,1159
155.180,1343
155.205,1538
155.230,1759
155.255,1963
155.280,2105
155.305,2190
155.330,2249
155.355,2292
155.380,2289
155.405,2209
155.430,2057
155.455,1869
155.480,1678
155.505,1488
155.530,1286
155.555,1059
155.580,810
155.605,561
155.630,348
155.655,197
155.680,95
155.705,-26
155.730,-243
155.755,-560
155.780,-875
155.805,-1039
155.830,-963
155.855,-699
155.880,-395
155.905,-197
155.930,-161
155.955,-252
155.980,-402
156.005,-562
156.030,-721
156.055,-893
156.080,-1096
156.105,-1333
156.130,-1574
156.155,-1757
156.180,-1821
156.205,-1746
156.230,-1575
156.255,-1389
156.280,-1258
156.305,-1209
156.330,-1220
156.355,-1234
156.380,-1190
156.405,-1048
156.430,-811
156.455,-513
156.480,-195
156.505,130
156.530,478
156.555,856
156.580,1235
156.605,1560
156.630,1799
156.655,1963
156.680,2085
156.705,2177
156.730,2227
156.755,2231
156.780,2221
156.805,2240
156.830,2291
156.855,2326
156.880,2294
156.905,2196
156.930,2078
156.955,1976
156.980,1874
157.005,1726
157.030,1520
157.055,1301
157.080,1125
157.105,993
157.130,853
157.155,656
157.180,409
157.205,165
157.230,-30
157.255,-187
157.280,-340
157.305,-503
157.330,-643
157.355,-717
157.380,-721
157.405,-707
157.430,-742
157.455,-860
157.480,-1041
157.505,-1238
157.530,-1416
157.555,-1561
157.580,-1671
157.605,-1729
157.630,-1710
157.655,-1598
157.680,-1411
157.705,-1191
157.730,-977
157.755,-786
157.780,-605
157.805,-411
157.830,-175
157.855,118
157.880,457
157.905,789
157.930,1035
157.955,1142
157.980,1129
158.005,1087
158.030,1095
158.055,1141
158.080,1128
158.105,969
158.130,688
158.155,404
158.180,221
158.205,130
158.230,28
158.255,-152
158.280,-364
158.305,-481
158.330,-426
158.355,-232
158.380,6
158.405,243
158.430,501
158.455,809
158.480,1119
158.505,1331
158.530,1380
158.555,1304
158.580,1205
158.605,1154
158.630,1145
158.655,1133
158.680,1104
158.705,1090
158.730,1116
158.755,1151
158.780,1130
158.805,1020
158.830,856
158.855,714
158.880,643
158.905,626
158.930,612
158.955,584
158.980,584
159.005,667
159.030,808
159.055,871
159.080,682
159.105,183
159.130,-466
159.155,-971
159.180,-1101
159.205,-887
159.230,-601
159.255,-536
159.280,-755
159.305,-1052
159.330,-1161
159.355,-1045
159.380,-973
159.405,-1300
159.430,-2130
159.455,-3147
159.480,-3792
159.505,-3654
159.530,-2766
159.555,-1576
159.580,-619
159.605,-164
159.630,-98
159.655,-123
159.680,-40
159.705,126
159.730,232
159.755,197
159.780,70
159.805,-56
159.830,-141
159.855,-171
159.880,-65
159.905,346
159.930,1188
159.955,2380
159.980,3634
160.005,4615
160.030,5122
160.055,5126
160.080,4699
160.105,3962
160.130,3102
160.155,2376
160.180,1983
160.205,1896
160.230,1839
160.255,1504
160.280,832
160.305,84
160.330,-377
160.355,-391
160.380,-95
160.405,243
160.430,482
160.455,672
160.480,910
160.505,1146
160.530,1174
160.555,829
160.580,213
160.605,-294
160.630,-306
160.655,236
160.680,959
160.705,1321
160.730,1038
160.755,306
160.780,-411
160.805,-802
160.830,-936
160.855,-1094
160.880,-1436
160.905,-1879
160.930,-2281
160.955,-2664
160.980,-3162
161.005,-3803
161.030,-4444
161.055,-4974
161.080,-5512
161.105,-6221
161.130,-6885
161.155,-6794
161.180,-5254
161.205,-2343
161.230,895
161.255,3137
161.280,3768
161.305,3251
161.330,2570
161.355,2354
161.380,2519
161.405,2640
161.430,2512
161.455,2296
161.480,2221
161.505,2298
161.530,2362
161.555,2316
161.580,2230
161.605,2215
161.630,2264
161.655,2275
161.680,2191
161.705,2058
161.730,1944
161.755,1849
161.780,1730
161.805,1582
161.830,1437
161.855,1290
161.880,1065
161.905,699
161.930,250
161.955,-126
161.980,-319
162.005,-358
162.030,-372
162.055,-448
162.080,-562
162.105,-646
162.130,-676
162.155,-688
162.180,-710
162.205,-722
162.230,-682
162.255,-582
162.280,-445
162.305,-289
162.330,-110
162.355,91
162.380,284
162.405,425
162.430,496
162.455,521
162.480,529
162.505,528
162.530,513
162.555,501
162.580,516
162.605,549
162.630,544
162.655,441
162.680,239
162.705,10
162.730,-162
162.755,-258
162.780,-320
162.805,-391
162.830,-468
162.855,-510
162.880,-496
162.905,-447
162.930,-403
162.955,-384
162.980,-375
163.005,-361
163.030,-353
163.055,-382
163.080,-462
163.105,-565
163.130,-628
163.155,-589
163.180,-425
163.205,-160
163.230,153
163.255,459
163.280,716
163.305,901
163.330,1007
163.355,1038
163.380,1013
163.405,965
163.430,921
163.455,885
163.480,832
163.505,722
163.530,546
163.555,332
163.580,137
163.605,-4
163.630,-97
163.655,-177
163.680,-265
163.705,-343
163.730,-365
163.755,-299
163.780,-147
163.805,49
163.830,241
163.855,394
163.880,495
163.905,550
163.930,571
163.955,582
163.980,615
164.005,697
164.030,826
164.055,967
164.080,1067
164.105,1096
164.130,1070
164.155,1025
164.180,976
164.205,887
164.230,701
164.255,394
164.280,22
164.305,-301
164.330,-477
164.355,-482
164.380,-377
164.405,-252
164.430,-167
164.455,-129
164.480,-109
164.505,-88
164.530,-66
164.555,-56
164.580,-63
164.605,-72
164.630,-68
164.655,-48
164.680,-27
164.705,-28
164.730,-51
164.755,-82
164.780,-104
164.805,-121
164.830,-156
164.855,-225
164.880,-304
164.905,-342
164.930,-295
164.955,-167
164.980,-11
165.005,113
165.030,178
165.055,201
165.080,211
165.105,219
165.130,218
165.155,200
165.180,177
165.205,169
165.230,185
165.255,206
165.280,207
165.305,178
165.330,139
165.355,117
165.380,118
165.405,126
165.430,119
165.455,102
165.480,119
165.505,220
165.530,422
165.555,684
165.580,937
165.605,1128
165.630,1247
165.655,1313
165.680,1323
165.705,1243
165.730,1034
165.755,709
165.780,348
165.805,53
165.830,-128
165.855,-226
165.880,-304
165.905,-398
165.930,-487
165.955,-535
165.980,-546
166.005,-565
166.030,-618
166.055,-667
166.080,-620
166.105,-410
166.130,-62
166.155,315
166.180,616
166.205,811
166.230,948
166.255,1080
166.280,1193
166.305,1214
166.330,1083
166.355,822
166.380,527
166.405,301
166.430,179
166.455,121
166.480,65
166.505,-12
166.530,-95
166.555,-156
166.580,-197
166.605,-240
166.630,-298
166.655,-350
166.680,-361
166.705,-306
166.730,-191
166.755,-44
166.780,98
166.805,204
166.830,255
166.855,261
166.880,265
166.905,321
166.930,455
166.955,640
166.980,820
167.005,951
167.030,1032
167.055,1083
167.080,1103
167.105,1058
167.130,908
167.155,653
167.180,339
167.205,31
167.230,-229
167.255,-425
167.280,-550
167.305,-592
167.330,-548
167.355,-444
167.380,-327
167.405,-236
167.430,-183
167.455,-153
167.480,-135
167.505,-129
167.530,-139
167.555,-164
167.580,-186
167.605,-198
167.630,-205
167.655,-220
167.680,-246
167.705,-262
167.730,-244
167.755,-181
167.780,-90
167.805,0
167.830,80
167.855,164
167.880,287
167.905,474
167.930,717
167.955,979
167.980,1214
168.005,1388
168.030,1484
168.055,1486
168.080,1373
168.105,1131
168.130,785
168.155,405
168.180,87
168.205,-107
168.230,-184
168.255,-201
168.280,-220
168.305,-262
168.330,-310
168.355,-341
168.380,-354
168.405,-365
168.430,-373
168.455,-342
168.480,-227
168.505,-8
168.530,293
168.555,627
168.580,944
168.605,1198
168.630,1344
168.655,1334
168.680,1147
168.705,819
168.730,441
168.755,117
168.780,-86
168.805,-173
168.830,-188
168.855,-184
168.880,-188
168.905,-207
168.930,-233
168.955,-261
168.980,-289
169.005,-322
169.030,-374
169.055,-448
169.080,-529
169.105,-576
169.130,-544
169.155,-412
169.180,-192
169.205,84
169.230,381
169.255,664
169.280,904
169.305,1082
169.330,1201
169.355,1285
169.380,1351
169.405,1375
169.430,1297
169.455,1073
169.480,719
169.505,325
169.530,-5
169.555,-222
169.580,-345
169.605,-435
169.630,-534
169.655,-638
169.680,-711
169.705,-716
169.730,-646
169.755,-526
169.780,-401
169.805,-312
169.830,-273
169.855,-251
169.880,-192
169.905,-48
169.930,184
169.955,466
169.980,736
170.005,955
170.030,1112
170.055,1215
170.080,1276
170.105,1293
170.130,1257
170.155,1154
170.180,967
170.205,694
170.230,359
170.255,24
170.280,-233
170.305,-364
170.330,-367
170.355,-292
170.380,-203
170.405,-133
170.430,-86
170.455,-48
170.480,-16
170.505,0
170.530,-11
170.555,-41
170.580,-71
170.605,-86
170.630,-90
170.655,-100
170.680,-129
170.705,-177
170.730,-227
170.755,-257
170.780,-238
170.805,-151
170.830,5
170.855,209
170.880,419
170.905,609
170.930,783
170.955,967
170.980,1171
171.005,1359
171.030,1458
171.055,1407
171.080,1200
171.105,895
171.130,581
171.155,324
171.180,143
171.205,18
171.230,-77
171.255,-157
171.280,-217
171.305,-253
171.330,-275
171.355,-303
171.380,-350
171.405,-407
171.430,-459
171.455,-507
171.480,-575
171.505,-683
171.530,-809
171.555,-872
171.580,-785
171.605,-514
171.630,-106
171.655,336
171.680,726
171.705,1023
171.730,1228
171.755,1356
171.780,1422
171.805,1431
171.830,1381
171.855,1254
171.880,1029
171.905,717
171.930,380
171.955,105
171.980,-58
172.005,-129
172.030,-169
172.055,-217
172.080,-265
172.105,-293
172.130,-311
172.155,-357
172.180,-442
172.205,-519
172.230,-526
172.255,-451
172.280,-350
172.305,-287
172.330,-262
172.355,-208
172.380,-62
172.405,173
172.430,439
172.455,677
172.480,874
172.505,1039
172.530,1168
172.555,1240
172.580,1246
172.605,1194
172.630,1092
172.655,918
172.680,649
172.705,308
172.730,-28
172.755,-283
172.780,-441
172.805,-548
172.830,-645
172.855,-714
172.880,-697
172.905,-575
172.930,-405
172.955,-272
172.980,-211
173.005,-173
173.030,-80
173.055,93
173.080,311
173.105,512
173.130,668
173.155,791
173.180,895
173.205,976
173.230,1018
173.255,1020
173.280,993
173.305,944
173.330,861
173.355,722
173.380,525
173.405,290
173.430,52
173.455,-152
173.480,-292
173.505,-347
173.530,-316
173.555,-231
173.580,-142
173.605,-90
173.630,-81
173.655,-91
173.680,-98
173.705,-101
173.730,-112
173.755,-132
173.780,-146
173.805,-144
173.830,-137
173.855,-146
173.880,-168
173.905,-164
173.930,-93
173.955,49
173.980,216
174.005,353
174.030,435
174.055,487
174.080,554
174.105,660
174.130,797
174.155,935
174.180,1037
174.205,1066
174.230,994
174.255,820
174.280,580
174.305,339
174.330,155
174.355,51
174.380,9
174.405,-4
174.430,-14
174.455,-31
174.480,-54
174.505,-82
174.530,-114
174.555,-154
174.580,-214
174.605,-304
174.630,-412
174.655,-496
174.680,-502
174.705,-404
174.730,-227
174.755,-19
174.780,180
174.805,368
174.830,552
174.855,721
174.880,849
174.905,921
174.930,950
174.955,959
174.980,946
175.005,874
175.030,712
175.055,478
175.080,241
175.105,60
175.130,-50
175.155,-126
175.180,-208
175.205,-299
175.230,-370
175.255,-389
175.280,-341
175.305,-239
175.330,-112
175.355,2
175.380,76
175.405,105
175.430,105
175.455,99
175.480,89
175.505,66
175.530,33
175.555,34
175.580,121
175.605,302
175.630,521
175.655,697
175.680,791
175.705,830
175.730,853
175.755,854
175.780,782
175.805,599
175.830,341
175.855,103
175.880,-34
175.905,-61
175.930,-27
175.955,13
175.980,41
176.005,61
176.030,80
176.055,87
176.080,71
176.105,31
176.130,-16
176.155,-52
176.180,-54
176.205,-6
176.230,97
176.255,241
176.280,392
176.305,519
176.330,609
176.355,657
176.380,644
176.405,542
176.430,341
176.455,93
176.480,-112
176.505,-197
176.530,-160
176.555,-63
176.580,17
176.605,55
176.630,72
176.655,94
176.680,118
176.705,121
176.730,97
176.755,68
176.780,65
176.805,85
176.830,96
176.855,73
176.880,27
176.905,-9
176.930,-23
176.955,-30
176.980,-52
177.005,-74
177.030,-42
177.055,92
177.080,328
177.105,612
177.130,880
177.155,1097
177.180,1247
177.205,1307
177.230,1243
177.255,1042
177.280,749
177.305,453
177.330,233
177.355,111
177.380,55
177.405,27
177.430,6
177.455,-10
177.480,-34
177.505,-78
177.530,-144
177.555,-219
177.580,-289
177.605,-358
177.630,-436
177.655,-511
177.680,-548
177.705,-511
177.730,-407
177.755,-275
177.780,-159
177.805,-68
177.830,19
177.855,130
177.880,270
177.905,432
177.930,602
177.955,769
177.980,921
178.005,1052
178.030,1153
178.055,1208
178.080,1176
178.105,1011
178.130,706
178.155,327
178.180,-7
178.205,-214
178.230,-306
178.255,-362
178.280,-445
178.305,-537
178.330,-567
178.355,-499
178.380,-371
178.405,-258
178.430,-198
178.455,-173
178.480,-139
178.505,-80
178.530,1
178.555,113
178.580,278
178.605,498
178.630,731
178.655,915
178.680,1020
178.705,1066
178.730,1093
178.755,1104
178.780,1062
178.805,923
178.830,684
178.855,383
178.880,74
178.905,-189
178.930,-367
178.955,-429
178.980,-381
179.005,-268
179.030,-156
179.055,-88
179.080,-58
179.105,-39
179.130,-23
179.155,-24
179.180,-47
179.205,-52
179.230,22
179.255,206
179.280,458
179.305,692
179.330,844
179.355,909
179.380,921
179.405,897
179.430,815
179.455,640
179.480,369
179.505,57
179.530,-210
179.555,-373
179.580,-418
179.605,-374
179.630,-288
179.655,-196
179.680,-123
179.705,-80
179.730,-75
179.755,-104
179.780,-152
179.805,-195
179.830,-210
179.855,-175
179.880,-79
179.905,79
179.930,286
179.955,504
179.980,686
180.005,801
180.030,846
180.055,848
180.080,831
180.105,793
180.130,708
180.155,558
180.180,361
180.205,170
180.230,35
180.255,-30
180.280,-52
180.305,-65
180.330,-86
180.355,-111
180.380,-133
180.405,-153
180.430,-177
180.455,-204
180.480,-223
180.505,-225
180.530,-205
180.555,-164
180.580,-97
180.605,5
180.630,143
180.655,293
180.680,422
180.705,504
180.730,539
180.755,551
180.780,570
180.805,615
180.830,683
180.855,754
180.880,793
180.905,768
180.930,668
180.955,511
180.980,337
181.005,185
181.030,70
181.055,-8
181.080,-58
181.105,-83
181.130,-88
181.155,-91
181.180,-109
181.205,-140
181.230,-155
181.255,-121
181.280,-34
181.305,76
181.330,173
181.355,251
181.380,335
181.405,453
181.430,603
181.455,754
181.480,870
181.505,929
181.530,919
181.555,832
181.580,668
181.605,450
181.630,228
181.655,53
181.680,-49
181.705,-97
181.730,-120
181.755,-140
181.780,-159
181.805,-176
181.830,-191
181.855,-210
181.880,-233
181.905,-260
181.930,-294
181.955,-340
181.980,-386
182.005,-408
182.030,-382
182.055,-308
182.080,-210
182.105,-117
182.130,-38
182.155,38
182.180,124
182.205,218
182.230,307
182.255,384
182.280,455
182.305,531
182.330,608
182.355,676
182.380,719
182.405,732
182.430,720
182.455,692
182.480,654
182.505,610
182.530,552
182.555,473
182.580,372
182.605,269
182.630,200
182.655,192
182.680,240
182.705,305
182.730,347
182.755,350
182.780,332
182.805,316
182.830,302
182.855,277
182.880,233
182.905,186
182.930,153
182.955,136
182.980,117
183.005,76
183.030,17
183.055,-39
183.080,-87
183.105,-137
183.130,-206
183.155,-291
183.180,-361
183.205,-386
183.230,-353
183.255,-271
183.280,-147
183.305,19
183.330,220
183.355,427
183.380,600
183.405,719
183.430,793
183.455,846
183.480,875
183.505,857
183.530,769
183.555,624
183.580,466
183.605,328
183.630,215
183.655,109
183.680,6
183.705,-80
183.730,-137
183.755,-176
183.780,-219
183.805,-273
183.830,-315
183.855,-318
183.880,-276
183.905,-203
183.930,-110
183.955,13
183.980,182
184.005,381
184.030,570
184.055,712
184.080,801
184.105,847
184.130,853
184.155,797
184.180,669
184.205,498
184.230,338
184.255,232
184.280,172
184.305,121
184.330,58
184.355,-3
184.380,-41
184.405,-53
184.430,-63
184.455,-89
184.480,-126
184.505,-154
184.530,-173
184.555,-197
184.580,-236
184.605,-264
184.630,-241
184.655,-153
184.680,-30
184.705,75
184.730,137
184.755,168
184.780,197
184.805,244
184.830,309
184.855,389
184.880,488
184.905,603
184.930,715
184.955,793
184.980,826
185.005,827
185.030,815
185.055,786
185.080,716
185.105,584
185.130,401
185.155,204
185.180,18
185.205,-148
185.230,-289
185.255,-382
185.280,-393
185.305,-315
185.330,-186
185.355,-64
185.380,11
185.405,43
185.430,54
185.455,57
185.480,51
185.505,40
185.530,51
185.555,111
185.580,222
185.605,356
185.630,474
185.655,557
185.680,604
185.705,624
185.730,621
185.755,601
185.780,568
185.805,519
185.830,439
185.855,310
185.880,147
185.905,-4
185.930,-90
185.955,-94
185.980,-44
186.005,9
186.030,42
186.055,56
186.080,60
186.105,56
186.130,35
186.155,2
186.180,-18
186.205,-8
186.230,27
186.255,67
186.280,85
186.305,73
186.330,41
186.355,9
186.380,-4
186.405,11
186.430,55
186.455,112
186.480,161
186.505,201
186.530,252
186.555,342
186.580,474
186.605,620
186.630,735
186.655,793
186.680,803
186.705,785
186.730,750
186.755,687
186.780,587
186.805,454
186.830,314
186.855,200
186.880,128
186.905,91
186.930,68
186.955,40
186.980,1
187.005,-41
187.030,-73
187.055,-95
187.080,-122
187.105,-166
187.130,-220
187.155,-254
187.180,-239
187.205,-168
187.230,-69
187.255,20
187.280,79
187.305,106
187.330,113
187.355,106
187.380,93
187.405,92
187.430,124
187.455,203
187.480,319
187.505,442
187.530,539
187.555,596
187.580,619
187.605,623
187.630,616
187.655,595
187.680,548
187.705,466
187.730,350
187.755,223
187.780,117
187.805,58
187.830,54
187.855,87
187.880,129
187.905,155
187.930,160
187.955,149
187.980,134
188.005,119
188.030,105
188.055,90
188.080,76
188.105,67
188.130,58
188.155,42
188.180,11
188.205,-28
188.230,-60
188.255,-68
188.280,-52
188.305,-27
188.330,-4
188.355,24
188.380,83
188.405,190
188.430,336
188.455,489
188.480,615
188.505,700
188.530,750
188.555,766
188.580,744
188.605,673
188.630,558
188.655,419
188.680,290
188.705,191
188.730,126
188.755,82
188.780,43
188.805,4
188.830,-30
188.855,-52
188.880,-64
188.905,-82
188.930,-119
188.955,-167
188.980,-197
189.005,-179
189.030,-111
189.055,-22
189.080,55
189.105,106
189.130,141
189.155,165
189.180,176
189.205,164
189.230,140
189.255,133
189.280,169
189.305,248
189.330,351
189.355,451
189.380,536
189.405,600
189.430,634
189.455,636
189.480,616
189.505,587
189.530,546
189.555,465
189.580,320
189.605,130
189.630,-44
189.655,-137
189.680,-134
189.705,-75
189.730,-14
189.755,25
189.780,55
189.805,93
189.830,138
189.855,176
189.880,200
189.905,217
189.930,236
189.955,254
189.980,262
190.005,254
190.030,229
190.055,184
190.080,120
190.105,53
190.130,11
190.155,12
190.180,44
190.205,75
190.230,94
190.255,127
190.280,211
190.305,353
190.330,507
190.355,621
190.380,677
190.405,703
190.430,722
190.455,719
190.480,654
190.505,512
190.530,329
190.555,166
190.580,57
190.605,-6
190.630,-52
190.655,-90
190.680,-110
190.705,-108
190.730,-102
190.755,-107
190.780,-121
190.805,-126
190.830,-119
190.855,-124
190.880,-162
190.905,-216
190.930,-231
190.955,-156
190.980,9
191.005,212
191.030,388
191.055,506
191.080,577
191.105,620
191.130,644
191.155,650
191.180,643
191.205,637
191.230,636
191.255,623
191.280,570
191.305,466
191.330,325
191.355,175
191.380,42
191.405,-64
191.430,-146
191.455,-212
191.480,-270
191.505,-326
191.530,-375
191.555,-397
191.580,-370
191.605,-285
191.630,-161
191.655,-28
191.680,96
191.705,214
191.730,332
191.755,445
191.780,535
191.805,588
191.830,611
191.855,622
191.880,633
191.905,641
191.930,635
191.955,616
191.980,592
192.005,570
192.030,543
192.055,504
192.080,457
192.105,413
192.130,367
192.155,288
192.180,142
192.205,-65
192.230,-275
192.255,-410
192.280,-434
192.305,-374
192.330,-290
192.355,-221
192.380,-163
192.405,-94
192.430,-15
192.455,44
192.480,57
192.505,30
192.530,8
192.555,31
192.580,107
192.605,218
192.630,342
192.655,467
192.680,585
192.705,680
192.730,733
192.755,739
192.780,715
192.805,678
192.830,617
192.855,502
192.880,316
192.905,95
192.930,-90
192.955,-180
192.980,-168
193.005,-99
193.030,-31
193.055,14
193.080,46
193.105,84
193.130,125
193.155,153
193.180,159
193.205,156
193.230,161
193.255,177
193.280,189
193.305,181
193.330,157
193.355,129
193.380,106
193.405,79
193.430,40
193.455,-4
193.480,-35
193.505,-39
193.530,-28
193.555,-20
193.580,-12
193.605,33
193.630,148
193.655,325
193.680,512
193.705,656
193.730,748
193.755,815
193.780,879
193.805,922
193.830,895
193.855,780
193.880,610
193.905,448
193.930,336
193.955,268
193.980,214
194.005,158
194.030,107
194.055,70
194.080,40
194.105,4
194.130,-38
194.155,-75
194.180,-102
194.205,-136
194.230,-196
194.255,-274
194.280,-333
194.305,-330
194.330,-260
194.355,-157
194.380,-63
194.405,8
194.430,76
194.455,167
194.480,280
194.505,386
194.530,449
194.555,455
194.580,424
194.605,387
194.630,365
194.655,357
194.680,347
194.705,327
194.730,305
194.755,285
194.780,255
194.805,190
194.830,78
194.855,-62
194.880,-191
194.905,-277
194.930,-324
194.955,-348
194.980,-342
195.005,-271
195.030,-102
195.055,146
195.080,410
195.105,611
195.130,716
195.155,743
195.180,734
195.205,717
195.230,700
195.255,681
195.280,667
195.305,670
195.330,694
195.355,726
195.380,738
195.405,697
195.430,585
195.455,407
195.480,194
195.505,-11
195.530,-182
195.555,-313
195.580,-415
195.605,-492
195.630,-540
195.655,-547
195.680,-510
195.705,-427
195.730,-290
195.755,-90
195.780,160
195.805,416
195.830,620
195.855,731
195.880,752
195.905,721
195.930,681
195.955,669
195.980,702
196.005,767
196.030,813
196.055,770
196.080,596
196.105,320
196.130,31
196.155,-185
196.180,-312
196.205,-389
196.230,-458
196.255,-513
196.280,-516
196.305,-446
196.330,-330
196.355,-214
196.380,-129
196.405,-75
196.430,-48
196.455,-51
196.480,-79
196.505,-97
196.530,-51
196.555,95
196.580,323
196.605,568
196.630,763
196.655,871
196.680,900
196.705,882
196.730,844
196.755,787
196.780,684
196.805,504
196.830,249
196.855,-24
196.880,-234
196.905,-323
196.930,-299
196.955,-217
196.980,-126
197.005,-46
197.030,19
197.055,62
197.080,73
197.105,72
197.130,114
197.155,243
197.180,448
197.205,664
197.230,826
197.255,911
197.280,931
197.305,886
197.330,759
197.355,540
197.380,267
197.405,10
197.430,-176
197.455,-291
197.480,-360
197.505,-403
197.530,-413
197.555,-378
197.580,-292
197.605,-152
197.630,42
197.655,282
197.680,529
197.705,728
197.730,844
197.755,882
197.780,870
197.805,818
197.830,709
197.855,530
197.880,308
197.905,99
197.930,-49
197.955,-133
197.980,-175
198.005,-205
198.030,-243
198.055,-311
198.080,-413
198.105,-515
198.130,-539
198.155,-412
198.180,-132
198.205,219
198.230,540
198.255,770
198.280,907
198.305,963
198.330,922
198.355,764
198.380,513
198.405,248
198.430,55
198.455,-29
198.480,-35
198.505,-17
198.530,-12
198.555,-26
198.580,-48
198.605,-66
198.630,-81
198.655,-104
198.680,-152
198.705,-219
198.730,-263
198.755,-214
198.780,-27
198.805,270
198.830,587
198.855,828
198.880,961
198.905,1015
198.930,1022
198.955,967
198.980,810
199.005,550
199.030,254
199.055,15
199.080,-115
199.105,-155
199.130,-160
199.155,-167
199.180,-177
199.205,-177
199.230,-165
199.255,-158
199.280,-174
199.305,-218
199.330,-279
199.355,-328
199.380,-323
199.405,-222
199.430,-11
199.455,273
199.480,556
199.505,765
199.530,872
199.555,903
199.580,906
199.605,905
199.630,886
199.655,809
199.680,652
199.705,427
199.730,177
199.755,-51
199.780,-227
199.805,-338
199.830,-388
199.855,-387
199.880,-354
199.905,-314
199.930,-282
199.955,-242
199.980,-151
200.005,27
200.030,290
200.055,576
200.080,808
200.105,943
200.130,995
200.155,1012
200.180,1017
200.205,992
200.230,897
200.255,718
200.280,487
200.305,265
200.330,102
200.355,11
200.380,-25
200.405,-34
200.430,-32
200.455,-23
200.480,-16
200.505,-28
200.530,-77
200.555,-169
200.580,-289
200.605,-402
200.630,-478
200.655,-498
200.680,-468
200.705,-396
200.730,-286
200.755,-133
200.780,63
200.805,283
200.830,486
200.855,639
200.880,736
200.905,803
200.930,868
200.955,927
200.980,940
201.005,859
201.030,676
201.055,439
201.080,220
201.105,70
201.130,-12
201.155,-65
201.180,-116
201.205,-160
201.230,-168
201.255,-124
201.280,-37
201.305,59
201.330,129
201.355,159
201.380,152
201.405,124
201.430,88
201.455,51
201.480,13
201.505,-25
201.530,-49
201.555,-33
201.580,38
201.605,158
201.630,295
201.655,418
201.680,512
201.705,576
201.730,596
201.755,546
201.780,411
201.805,227
201.830,67
201.855,-4
201.880,18
201.905,81
201.930,121
201.955,112
201.980,70
202.005,27
202.030,6
202.055,24
202.080,96
202.105,230
202.130,403
202.155,570
202.180,686
202.205,745
202.230,767
202.255,770
202.280,734
202.305,624
202.330,424
202.355,165
202.380,-87
202.405,-269
202.430,-345
202.455,-320
202.480,-229
202.505,-118
202.530,-27
202.555,29
202.580,66
202.605,98
202.630,120
202.655,112
202.680,63
202.705,0
202.730,-35
202.755,-14
202.780,57
202.805,154
202.830,262
202.855,377
202.880,486
202.905,557
202.930,562
202.955,507
202.980,430
203.005,371
203.030,332
203.055,285
203.080,210
203.105,117
203.130,33
203.155,-21
203.180,-50
203.205,-62
203.230,-58
203.255,-38
203.280,-6
203.305,31
203.330,85
203.355,171
203.380,296
203.405,433
203.430,536
203.455,584
203.480,589
203.505,577
203.530,556
203.555,511
203.580,442
203.605,377
203.630,350
203.655,361
203.680,371
203.705,337
203.730,259
203.755,175
203.780,120
203.805,93
203.830,69
203.855,32
203.880,-3
203.905,-18
203.930,-10
203.955,0
203.980,-11
204.005,-55
204.030,-115
204.055,-157
204.080,-141
204.105,-42
204.130,122
204.155,286
204.180,376
204.205,373
204.230,331
204.255,334
204.280,409
204.305,502
204.330,525
204.355,444
204.380,304
204.405,182
204.430,114
204.455,81
204.480,52
204.505,16
204.530,-10
204.555,-24
204.580,-35
204.605,-51
204.630,-48
204.655,8
204.680,127
204.705,279
204.730,414
204.755,500
204.780,534
204.805,523
204.830,477
204.855,411
204.880,350
204.905,317
204.930,306
204.955,286
204.980,232
205.005,151
205.030,76
205.055,34
205.080,17
205.105,1
205.130,-25
205.155,-50
205.180,-57
205.205,-48
205.230,-44
205.255,-59
205.280,-79
205.305,-77
205.330,-28
205.355,70
205.380,200
205.405,328
205.430,424
205.455,469
205.480,465
205.505,435
205.530,406
205.555,386
205.580,359
205.605,306
205.630,232
205.655,164
205.680,132
205.705,135
205.730,149
205.755,150
205.780,136
205.805,122
205.830,125
205.855,156
205.880,220
205.905,322
205.930,452
205.955,582
205.980,670
206.005,694
206.030,671
206.055,639
206.080,614
206.105,566
206.130,447
206.155,241
206.180,-5
206.205,-208
206.230,-302
206.255,-283
206.280,-199
206.305,-110
206.330,-44
206.355,5
206.380,49
206.405,84
206.430,95
206.455,77
206.480,46
206.505,29
206.530,33
206.555,43
206.580,36
206.605,12
206.630,1
206.655,38
206.680,127
206.705,243
206.730,349
206.755,432
206.780,496
206.805,545
206.830,567
206.855,544
206.880,478
206.905,391
206.930,311
206.955,250
206.980,204
207.005,170
207.030,153
207.055,156
207.080,170
207.105,175
207.130,168
207.155,161
207.180,172
207.205,202
207.230,233
207.255,249
207.280,249
207.305,240
207.330,221
207.355,183
207.380,124
207.405,57
207.430,-5
207.455,-70
207.480,-151
207.505,-242
207.530,-300
207.555,-270
207.580,-141
207.605,43
207.630,218
207.655,351
207.680,456
207.705,561
207.730,665
207.755,740
207.780,768
207.805,759
207.830,745
207.855,739
207.880,725
207.905,672
207.930,563
207.955,406
207.980,228
208.005,57
208.030,-84
208.055,-188
208.080,-260
208.105,-319
208.130,-374
208.155,-412
208.180,-401
208.205,-323
208.230,-198
208.255,-74
208.280,9
208.305,49
208.330,66
208.355,76
208.380,78
208.405,69
208.430,65
208.455,101
208.480,196
208.505,333
208.530,464
208.555,549
208.580,576
208.605,565
208.630,541
208.655,512
208.680,467
208.705,388
208.730,269
208.755,125
208.780,-10
208.805,-99
208.830,-123
208.855,-93
208.880,-38
208.905,16
208.930,69
208.955,133
208.980,219
209.005,319
209.030,417
209.055,505
209.080,587
209.105,668
209.130,737
209.155,777
209.180,777
209.205,750
209.230,720
209.255,695
209.280,656
209.305,568
209.330,410
209.355,194
209.380,-38
209.405,-240
209.430,-372
209.455,-420
209.480,-389
209.505,-303
209.530,-196
209.555,-103
209.580,-48
209.605,-43
209.630,-81
209.655,-142
209.680,-195
209.705,-204
209.730,-141
209.755,-2
209.780,183
209.805,370
209.830,519
209.855,621
209.880,690
209.905,739
209.930,758
209.955,719
209.980,595
210.005,394
210.030,162
210.055,-37
210.080,-153
210.105,-170
210.130,-110
210.155,-11
210.180,89
210.205,175
210.230,244
210.255,295
210.280,322
210.305,319
210.330,289
210.355,252
210.380,224
210.405,206
210.430,182
210.455,142
210.480,103
210.505,100
210.530,161
210.555,276
210.580,402
210.605,499
210.630,547
210.655,560
210.680,554
210.705,538
210.730,505
210.755,447
210.780,368
210.805,283
210.830,211
210.855,164
210.880,138
210.905,122
210.930,99
210.955,63
210.980,17
211.005,-29
211.030,-73
211.055,-119
211.080,-173
211.105,-238
211.130,-305
211.155,-359
211.180,-383
211.205,-366
211.230,-309
211.255,-232
211.280,-174
211.305,-162
211.330,-186
211.355,-195
211.380,-136
211.405,0
211.430,166
211.455,292
211.480,343
211.505,341
211.530,337
211.555,356
211.580,389
211.605,410
211.630,413
211.655,411
211.680,418
211.705,430
211.730,434
211.755,417
211.780,381
211.805,330
211.830,270
211.855,215
211.880,181
211.905,180
211.930,203
211.955,229
211.980,249
212.005,281
212.030,356
212.055,485
212.080,635
212.105,762
212.130,841
212.155,878
212.180,893
212.205,892
212.230,865
212.255,812
212.280,750
212.305,692
212.330,629
212.355,528
212.380,378
212.405,199
212.430,37
212.455,-86
212.480,-187
212.505,-294
212.530,-411
212.555,-511
212.580,-566
212.605,-582
212.630,-592
212.655,-618
212.680,-636
212.705,-593
212.730,-456
212.755,-237
212.780,4
212.805,214
212.830,361
212.855,449
212.880,491
212.905,503
212.930,495
212.955,485
212.980,489
213.005,514
213.030,546
213.055,562
213.080,538
213.105,468
213.130,365
213.155,248
213.180,132
213.205,18
213.230,-92
213.255,-190
213.280,-255
213.305,-262
213.330,-206
213.355,-106
213.380,6
213.405,107
213.430,190
213.455,265
213.480,346
213.505,433
213.530,517
213.555,584
213.580,624
213.605,635
213.630,620
213.655,583
213.680,532
213.705,474
213.730,419
213.755,373
213.780,330
213.805,272
213.830,181
213.855,58
213.880,-71
213.905,-170
213.930,-210
213.955,-193
213.980,-143
214.005,-84
214.030,-25
214.055,33
214.080,87
214.105,129
214.130,150
214.155,157
214.180,163
214.205,182
214.230,217
214.255,266
214.280,329
214.305,398
214.330,458
214.355,489
214.380,480
214.405,437
214.430,376
214.455,306
214.480,225
214.505,139
214.530,72
214.555,57
214.580,109
214.605,199
214.630,280
214.655,314
214.680,300
214.705,261
214.730,220
214.755,181
214.780,141
214.805,98
214.830,64
214.855,49
214.880,57
214.905,74
214.930,78
214.955,60
214.980,29
215.005,19
215.030,64
215.055,164
215.080,276
215.105,342
215.130,338
215.155,294
215.180,270
215.205,300
215.230,366
215.255,429
215.280,465
215.305,482
215.330,489
215.355,466
215.380,381
215.405,232
215.430,62
215.455,-67
215.480,-130
215.505,-146
215.530,-154
215.555,-170
215.580,-181
215.605,-172
215.630,-140
215.655,-98
215.680,-58
215.705,-26
215.730,-13
215.755,-32
215.780,-80
215.805,-129
215.830,-137
215.855,-91
215.880,-11
215.905,64
215.930,114
215.955,144
215.980,167
216.005,189
216.030,206
216.055,221
216.080,249
216.105,297
216.130,352
216.155,391
216.180,400
216.205,394
216.230,397
216.255,422
216.280,465
216.305,515
216.330,567
216.355,615
216.380,649
216.405,656
216.430,635
216.455,599
216.480,569
216.505,549
216.530,529
216.555,495
216.580,445
216.605,381
216.630,305
216.655,218
216.680,129
216.705,68
216.730,65
216.755,132
216.780,240
216.805,341
216.830,399
216.855,406
216.880,378
216.905,333
216.930,272
216.955,189
216.980,81
217.005,-38
217.030,-142
217.055,-199
217.080,-191
217.105,-124
217.130,-31
217.155,50
217.180,98
217.205,118
217.230,128
217.255,144
217.280,166
217.305,187
217.330,206
217.355,227
217.380,252
217.405,267
217.430,256
217.455,222
217.480,186
217.505,169
217.530,170
217.555,160
217.580,109
217.605,25
217.630,-46
217.655,-54
217.680,18
217.705,135
217.730,239
217.755,290
217.780,290
217.805,268
217.830,253
217.855,252
217.880,259
217.905,266
217.930,274
217.955,281
217.980,284
218.005,273
218.030,244
218.055,206
218.080,170
218.105,139
218.130,102
218.155,46
218.180,-27
218.205,-92
218.230,-115
218.255,-82
218.280,-11
218.305,61
218.330,106
218.355,119
218.380,114
218.405,98
218.430,69
218.455,27
218.480,-7
218.505,-5
218.530,51
218.555,147
218.580,242
218.605,305
218.630,336
218.655,352
218.680,362
218.705,356
218.730,325
218.755,284
218.780,272
218.805,322
218.830,432
218.855,570
218.880,691
218.905,770
218.930,797
218.955,769
218.980,686
219.005,559
219.030,415
219.055,287
219.080,195
219.105,134
219.130,82
219.155,25
219.180,-35
219.205,-88
219.230,-124
219.255,-155
219.280,-195
219.305,-250
219.330,-305
219.355,-329
219.380,-296
219.405,-208
219.430,-95
219.455,8
219.480,81
219.505,132
219.530,183
219.555,252
219.580,334
219.605,413
219.630,477
219.655,523
219.680,554
219.705,571
219.730,572
219.755,559
219.780,538
219.805,514
219.830,487
219.855,447
219.880,387
219.905,312
219.930,241
219.955,187
219.980,156
220.005,140
220.030,132
220.055,125
220.080,121
220.105,120
220.130,115
220.155,100
220.180,77
220.205,56
220.230,45
220.255,39
220.280,26
220.305,-6
220.330,-55
220.355,-109
220.380,-160
220.405,-213
220.430,-280
220.455,-357
220.480,-420
220.505,-433
220.530,-374
220.555,-250
220.580,-91
220.605,69
220.630,211
220.655,332
220.680,436
220.705,527
220.730,608
220.755,680
220.780,746
220.805,803
220.830,847
220.855,867
220.880,852
220.905,796
220.930,704
220.955,585
220.980,452
221.005,312
221.030,174
221.055,51
221.080,-35
221.105,-66
221.130,-35
221.155,35
221.180,113
221.205,174
221.230,212
221.255,232
221.280,236
221.305,220
221.330,183
221.355,140
221.380,112
221.405,118
221.430,158
221.455,220
221.480,291
221.505,361
221.530,423
221.555,466
221.580,486
221.605,483
221.630,452
221.655,381
221.680,258
221.705,94
221.730,-67
221.755,-171
221.780,-190
221.805,-147
221.830,-94
221.855,-61
221.880,-43
221.905,-16
221.930,21
221.955,46
221.980,37
222.005,6
222.030,-12
222.055,0
222.080,25
222.105,30
222.130,0
222.155,-34
222.180,-32
222.205,24
222.230,123
222.255,236
222.280,343
222.305,431
222.330,490
222.355,514
222.380,515
222.405,522
222.430,553
222.455,591
222.480,593
222.505,528
222.530,408
222.555,281
222.580,185
222.605,122
222.630,67
222.655,7
222.680,-48
222.705,-86
222.730,-99
222.755,-88
222.780,-41
222.805,57
222.830,205
222.855,358
222.880,455
222.905,472
222.930,437
222.955,403
222.980,392
223.005,371
223.030,294
223.055,155
223.080,4
223.105,-94
223.130,-116
223.155,-83
223.180,-37
223.205,-3
223.230,20
223.255,42
223.280,60
223.305,60
223.330,33
223.355,-15
223.380,-62
223.405,-80
223.430,-45
223.455,52
223.480,198
223.505,353
223.530,472
223.555,528
223.580,529
223.605,502
223.630,471
223.655,427
223.680,337
223.705,179
223.730,-27
223.755,-223
223.780,-339
223.805,-342
223.830,-257
223.855,-142
223.880,-45
223.905,21
223.930,76
223.955,137
223.980,199
224.005,248
224.030,281
224.055,315
224.080,368
224.105,436
224.130,491
224.155,515
224.180,518
224.205,537
224.230,603
224.255,714
224.280,839
224.305,942
224.330,1011
224.355,1051
224.380,1080
224.405,1111
224.430,1146
224.455,1163
224.480,1117
224.505,964
224.530,695
224.555,360
224.580,43
224.605,-194
224.630,-349
224.655,-460
224.680,-548
224.705,-584
224.730,-524
224.755,-363
224.780,-155
224.805,22
224.830,141
224.855,223
224.880,305
224.905,380
224.930,403
224.955,337
224.980,201
225.005,59
225.030,-26
225.055,-31
225.080,28
225.105,120
225.130,200
225.155,220
225.180,140
225.205,-41
225.230,-282
225.255,-505
225.280,-655
225.305,-715
225.330,-699
225.355,-627
225.380,-512
225.405,-387
225.430,-307
225.455,-310
225.480,-378
225.505,-423
225.530,-351
225.555,-136
225.580,153
225.605,409
225.630,565
225.655,643
225.680,712
225.705,827
225.730,979
225.755,1118
225.780,1188
225.805,1168
225.830,1072
225.855,931
225.880,778
225.905,642
225.930,547
225.955,506
225.980,516
226.005,551
226.030,574
226.055,559
226.080,509
226.105,459
226.130,440
226.155,448
226.180,440
226.205,367
226.230,229
226.255,80
226.280,-10
226.305,-15
226.330,22
226.355,27
226.380,-54
226.405,-223
226.430,-432
226.455,-635
226.480,-806
226.505,-946
226.530,-1066
226.555,-1174
226.580,-1268
226.605,-1331
226.630,-1327
226.655,-1211
226.680,-955
226.705,-579
226.730,-149
226.755,246
226.780,542
226.805,723
226.830,822
226.855,897
226.880,994
226.905,1124
226.930,1259
226.955,1352
226.980,1367
227.005,1300
227.030,1177
227.055,1031
227.080,886
227.105,746
227.130,611
227.155,489
227.180,388
227.205,310
227.230,249
227.255,204
227.280,189
227.305,224
227.330,309
227.355,409
227.380,467
227.405,450
227.430,378
227.455,313
227.480,310
227.505,375
227.530,468
227.555,534
227.580,546
227.605,506
227.630,433
227.655,340
227.680,233
227.705,127
227.730,40
227.755,-17
227.780,-52
227.805,-88
227.830,-137
227.855,-188
227.880,-212
227.905,-198
227.930,-169
227.955,-168
227.980,-225
228.005,-323
228.030,-404
228.055,-416
228.080,-351
228.105,-257
228.130,-198
228.155,-207
228.180,-263
228.205,-318
228.230,-338
228.255,-321
228.280,-283
228.305,-229
228.330,-153
228.355,-54
228.380,50
228.405,136
228.430,198
228.455,247
228.480,295
228.505,332
228.530,344
228.555,349
228.580,406
228.605,567
228.630,822
228.655,1094
228.680,1301
228.705,1412
228.730,1454
228.755,1447
228.780,1362
228.805,1149
228.830,801
228.855,393
228.880,32
228.905,-222
228.930,-386
228.955,-518
228.980,-647
229.005,-747
229.030,-772
229.055,-697
229.080,-542
229.105,-341
229.130,-128
229.155,80
229.180,267
229.205,415
229.230,509
229.255,548
229.280,551
229.305,539
229.330,520
229.355,477
229.380,382
229.405,224
229.430,39
229.455,-95
229.480,-111
229.505,5
229.530,195
229.555,365
229.580,444
229.605,423
229.630,357
229.655,329
229.680,403
229.705,593
229.730,853
229.755,1103
229.780,1276
229.805,1346
229.830,1325
229.855,1238
229.880,1103
229.905,938
229.930,760
229.955,572
229.980,352
230.005,58
230.030,-312
230.055,-698
230.080,-1005
230.105,-1168
230.130,-1200
230.155,-1148
230.180,-1039
230.205,-872
230.230,-661
230.255,-460
230.280,-321
230.305,-221
230.330,-72
230.355,199
230.380,561
230.405,898
230.430,1112
230.455,1191
230.480,1188
230.505,1137
230.530,1011
230.555,768
230.580,414
230.605,41
230.630,-227
230.655,-300
230.680,-182
230.705,29
230.730,204
230.755,269
230.780,260
230.805,274
230.830,369
230.855,498
230.880,571
230.905,551
230.930,478
230.955,378
230.980,199
231.005,-93
231.030,-381
231.055,-402
231.080,8
231.105,703
231.130,1283
231.155,1436
231.180,1185
231.205,788
231.230,432
231.255,89
231.280,-307
231.305,-632
231.330,-616
231.355,-143
231.380,584
231.405,1226
231.430,1599
231.455,1757
231.480,1786
231.505,1657
231.530,1320
231.555,865
231.580,432
231.605,-53
231.630,-913
231.655,-2339
231.680,-4024
231.705,-5333
231.730,-5951
231.755,-6237
231.780,-6764
231.805,-7457
231.830,-7367
231.855,-5512
231.880,-1989
231.905,1832
231.930,4351
231.955,4984
231.980,4428
232.005,3793
232.030,3591
232.055,3573
232.080,3328
232.105,2840
232.130,2412
232.155,2228
232.180,2164
232.205,2017
232.230,1796
232.255,1676
232.280,1742
232.305,1881
232.330,1949
232.355,1956
232.380,2019
232.405,2167
232.430,2272
232.455,2202
232.480,1978
232.505,1728
232.530,1518
232.555,1278
232.580,921
232.605,480
232.630,81
232.655,-206
232.680,-437
232.705,-701
232.730,-995
232.755,-1236
232.780,-1371
232.805,-1433
232.830,-1467
232.855,-1439
232.880,-1256
232.905,-883
232.930,-410
232.955,19
232.980,334
233.005,565
233.030,768
233.055,941
233.080,1034
233.105,1018
233.130,919
233.155,766
233.180,559
233.205,287
233.230,-25
233.255,-315
233.280,-542
233.305,-729
233.330,-922
233.355,-1122
233.380,-1262
233.405,-1277
233.430,-1175
233.455,-1042
233.480,-959
233.505,-935
233.530,-909
233.555,-820
233.580,-653
233.605,-435
233.630,-202
233.655,21
233.680,214
233.705,360
233.730,466
233.755,557
233.780,652
233.805,731
233.830,742
233.855,647
233.880,468
233.905,280
233.930,151
233.955,101
233.980,100
234.005,106
234.030,97
234.055,70
234.080,31
234.105,-6
234.130,-23
234.155,-2
234.180,49
234.205,109
234.230,170
234.255,252
234.280,388
234.305,571
234.330,750
234.355,880
234.380,971
234.405,1082
234.430,1254
234.455,1458
234.480,1617
234.505,1666
234.530,1604
234.555,1458
234.580,1244
234.605,960
234.630,627
234.655,310
234.680,73
234.705,-68
234.730,-166
234.755,-268
234.780,-383
234.805,-484
234.830,-557
234.855,-621
234.880,-681
234.905,-695
234.930,-600
234.955,-376
234.980,-75
235.005,225
235.030,483
235.055,708
235.080,907
235.105,1055
235.130,1111
235.155,1071
235.180,974
235.205,851
235.230,688
235.255,457
235.280,163
235.305,-134
235.330,-382
235.355,-584
235.380,-785
235.405,-997
235.430,-1168
235.455,-1222
235.480,-1146
235.505,-997
235.530,-844
235.555,-698
235.580,-517
235.605,-278
235.630,-10
235.655,238
235.680,453
235.705,653
235.730,843
235.755,974
235.780,989
235.805,888
235.830,742
235.855,625
235.880,547
235.905,452
235.930,300
235.955,121
235.980,-8
236.005,-45
236.030,-18
236.055,9
236.080,3
236.105,-22
236.130,-45
236.155,-65
236.180,-102
236.205,-154
236.230,-189
236.255,-170
236.280,-95
236.305,13
236.330,137
236.355,278
236.380,433
236.405,573
236.430,652
236.455,653
236.480,618
236.505,616
236.530,683
236.555,797
236.580,897
236.605,938
236.630,910
236.655,820
236.680,676
236.705,480
236.730,250
236.755,21
236.780,-170
236.805,-307
236.830,-398
236.855,-449
236.880,-456
236.905,-415
236.930,-335
236.955,-251
236.980,-198
237.005,-187
237.030,-197
237.055,-186
237.080,-121
237.105,4
237.130,168
237.155,324
237.180,431
237.205,464
237.230,427
237.255,343
237.280,247
237.305,160
237.330,94
237.355,46
237.380,12
237.405,-13
237.430,-32
237.455,-48
237.480,-62
237.505,-77
237.530,-90
237.555,-94
237.580,-77
237.605,-32
237.630,42
237.655,141
237.680,269
237.705,433
237.730,630
237.755,826
237.780,961
237.805,988
237.830,902
237.855,747
237.880,580
237.905,439
237.930,330
237.955,248
237.980,189
238.005,152
238.030,131
238.055,121
238.080,131
238.105,178
238.130,262
238.155,362
238.180,448
238.205,526
238.230,634
238.255,796
238.280,977
238.305,1088
238.330,1055
238.355,884
238.380,646
238.405,416
238.430,219
238.455,39
238.480,-126
238.505,-251
238.530,-303
238.555,-293
238.580,-267
238.605,-260
238.630,-263
238.655,-239
238.680,-162
238.705,-40
238.730,106
238.755,275
238.780,469
238.805,663
238.830,796
238.855,801
238.880,660
238.905,416
238.930,146
238.955,-88
238.980,-271
239.005,-408
239.030,-503
239.055,-554
239.080,-560
239.105,-540
239.130,-532
239.155,-564
239.180,-638
239.205,-719
239.230,-769
239.255,-770
239.280,-737
239.305,-702
239.330,-672
239.355,-612
239.380,-475
239.405,-248
239.430,27
239.455,282
239.480,479
239.505,641
239.530,816
239.555,1023
239.580,1232
239.605,1397
239.630,1495
239.655,1543
239.680,1565
239.705,1559
239.730,1504
239.755,1391
239.780,1238
239.805,1071
239.830,891
239.855,684
239.880,455
239.905,255
239.930,150
239.955,159
239.980,223
240.005,243
240.030,160
240.055,-6
240.080,-179
240.105,-288
240.130,-312
240.155,-273
240.180,-202
240.205,-127
240.230,-70
240.255,-51
240.280,-77
240.305,-129
240.330,-175
240.355,-202
240.380,-231
240.405,-286
240.430,-361
240.455,-408
240.480,-379
240.505,-266
240.530,-117
240.555,2
240.580,64
240.605,79
240.630,72
240.655,50
240.680,3
240.705,-68
240.730,-142
240.755,-186
240.780,-191
240.805,-175
240.830,-164
240.855,-159
240.880,-143
240.905,-103
240.930,-49
240.955,-3
240.980,45
241.005,148
241.030,374
241.055,742
241.080,1193
241.105,1615
241.130,1915
241.155,2068
241.180,2106
241.205,2072
241.230,1971
241.255,1782
241.280,1502
241.305,1169
241.330,842
241.355,559
241.380,321
241.405,108
241.430,-81
241.455,-235
241.480,-348
241.505,-439
241.530,-535
241.555,-629
241.580,-680
241.605,-648
241.630,-539
241.655,-412
241.680,-333
241.705,-323
241.730,-358
241.755,-399
241.780,-428
241.805,-449
241.830,-460
241.855,-449
241.880,-415
241.905,-380
241.930,-381
241.955,-433
241.980,-507
242.005,-558
242.030,-557
242.055,-515
242.080,-452
242.105,-372
242.130,-257
242.155,-99
242.180,75
242.205,224
242.230,322
242.255,383
242.280,430
242.305,469
242.330,481
242.355,452
242.380,399
242.405,360
242.430,359
242.455,387
242.480,419
242.505,448
242.530,486
242.555,549
242.580,633
242.605,718
242.630,806
242.655,924
242.680,1100
242.705,1329
242.730,1567
242.755,1767
242.780,1913
242.805,2009
242.830,2053
242.855,2020
242.880,1892
242.905,1701
242.930,1517
242.955,1389
242.980,1298
243.005,1173
243.030,964
243.055,691
243.080,416
243.105,174
243.130,-67
243.155,-358
243.180,-692
243.205,-987
243.230,-1148
243.255,-1153
243.280,-1068
243.305,-987
243.330,-957
243.355,-966
243.380,-982
243.405,-995
243.430,-1011
243.455,-1028
243.480,-1037
243.505,-1029
243.530,-1014
243.555,-998
243.580,-974
243.605,-930
243.630,-877
243.655,-851
243.680,-868
243.705,-889
243.730,-841
243.755,-686
243.780,-466
243.805,-263
243.830,-117
243.855,9
243.880,175
243.905,378
243.930,555
243.955,645
243.980,670
244.005,712
244.030,828
244.055,992
244.080,1124
244.105,1171
244.130,1150
244.155,1105
244.180,1051
244.205,961
244.230,819
244.255,650
244.280,506
244.305,412
244.330,350
244.355,290
244.380,229
244.405,181
244.430,155
244.455,139
244.480,128
244.505,148
244.530,235
244.555,393
244.580,566
244.605,682
244.630,706
244.655,669
244.680,624
244.705,600
244.730,584
244.755,556
244.780,521
244.805,499
244.830,496
244.855,491
244.880,459
244.905,398
244.930,334
244.955,292
244.980,271
245.005,250
245.030,207
245.055,142
245.080,66
245.105,-8
245.130,-78
245.155,-141
245.180,-187
245.205,-207
245.230,-201
245.255,-176
245.280,-135
245.305,-74
245.330,17
245.355,141
245.380,280
245.405,411
245.430,512
245.455,567
245.480,560
245.505,479
245.530,332
245.555,157
245.580,15
245.605,-46
245.630,-30
245.655,10
245.680,17
245.705,-24
245.730,-76
245.755,-72
245.780,22
245.805,193
245.830,392
245.855,581
245.880,748
245.905,887
245.930,978
245.955,975
245.980,845
246.005,606
246.030,330
246.055,102
246.080,-29
246.105,-85
246.130,-130
246.155,-223
246.180,-374
246.205,-550
246.230,-700
246.255,-793
246.280,-828
246.305,-817
246.330,-764
246.355,-663
246.380,-508
246.405,-312
246.430,-107
246.455,72
246.480,207
246.505,301
246.530,370
246.555,427
246.580,470
246.605,493
246.630,501
246.655,521
246.680,592
246.705,732
246.730,906
246.755,1041
246.780,1074
246.805,1007
246.830,910
246.855,869
246.880,914
246.905,991
246.930,1004
246.955,892
246.980,662
247.005,368
247.030,69
247.055,-202
247.080,-432
247.105,-613
247.130,-741
247.155,-832
247.180,-904
247.205,-966
247.230,-1003
247.255,-996
247.280,-942
247.305,-860
247.330,-758
247.355,-615
247.380,-402
247.405,-118
247.430,189
247.455,447
247.480,612
247.505,691
247.530,730
247.555,776
247.580,858
247.605,977
247.630,1111
247.655,1222
247.680,1272
247.705,1253
247.730,1191
247.755,1128
247.780,1082
247.805,1037
247.830,972
247.855,899
247.880,848
247.905,825
247.930,786
247.955,672
247.980,469
248.005,230
248.030,27
248.055,-111
248.080,-217
248.105,-329
248.130,-448
248.155,-546
248.180,-608
248.205,-650
248.230,-693
248.255,-725
248.280,-716
248.305,-656
248.330,-580
248.355,-526
248.380,-492
248.405,-431
248.430,-309
248.455,-145
248.480,10
248.505,131
248.530,228
248.555,321
248.580,392
248.605,401
248.630,335
248.655,232
248.680,152
248.705,112
248.730,86
248.755,47
248.780,5
248.805,-11
248.830,-3
248.855,-9
248.880,-52
248.905,-90
248.930,-40
248.955,144
248.980,418
249.005,673
249.030,831
249.055,897
249.080,932
249.105,982
249.130,1044
249.155,1081
249.180,1069
249.205,1011
249.230,918
249.255,792
249.280,639
249.305,480
249.330,350
249.355,270
249.380,228
249.405,185
249.430,109
249.455,3
249.480,-85
249.505,-94
249.530,12
249.555,218
249.580,447
249.605,611
249.630,655
249.655,600
249.680,520
249.705,489
249.730,522
249.755,570
249.780,562
249.805,449
249.830,233
249.855,-43
249.880,-321
249.905,-549
249.930,-697
249.955,-763
249.980,-772
250.005,-757
250.030,-740
250.055,-718
250.080,-669
250.105,-568
250.130,-399
250.155,-164
250.180,113
250.205,386
250.230,602
250.255,724
250.280,760
250.305,751
250.330,743
250.355,754
250.380,773
250.405,784
250.430,775
250.455,738
250.480,648
250.505,482
250.530,245
250.555,-11
250.580,-220
250.605,-353
250.630,-439
250.655,-524
250.680,-621
250.705,-689
250.730,-682
250.755,-596
250.780,-471
250.805,-345
250.830,-216
250.855,-58
250.880,132
250.905,313
250.930,430
250.955,465
250.980,456
251.005,461
251.030,510
251.055,590
251.080,671
251.105,732
251.130,762
251.155,745
251.180,665
251.205,516
251.230,324
251.255,143
251.280,24
251.305,-13
251.330,13
251.355,69
251.380,127
251.405,175
251.430,213
251.455,241
251.480,254
251.505,252
251.530,249
251.555,273
251.580,344
251.605,442
251.630,513
251.655,505
251.680,417
251.705,301
251.730,226
251.755,213
251.780,225
251.805,213
251.830,172
251.855,148
251.880,189
251.905,286
251.930,373
251.955,386
251.980,315
252.005,203
252.030,101
252.055,28
252.080,-27
252.105,-75
252.130,-104
252.155,-100
252.180,-65
252.205,-26
252.230,-2
252.255,5
252.280,16
252.305,42
252.330,83
252.355,131
252.380,187
252.405,258
252.430,344
252.455,428
252.480,489
252.505,522
252.530,538
252.555,556
252.580,577
252.605,589
252.630,580
252.655,549
252.680,502
252.705,433
252.730,328
252.755,184
252.780,18
252.805,-131
252.830,-243
252.855,-327
252.880,-412
252.905,-508
252.930,-587
252.955,-608
252.980,-550
253.005,-438
253.030,-312
253.055,-189
253.080,-55
253.105,106
253.130,279
253.155,421
253.180,504
253.205,544
253.230,584
253.255,653
253.280,743
253.305,823
253.330,877
253.355,910
253.380,924
253.405,904
253.430,828
253.455,713
253.480,610
253.505,570
253.530,597
253.555,650
253.580,683
253.605,696
253.630,715
253.655,749
253.680,769
253.705,733
253.730,633
253.755,491
253.780,326
253.805,116
253.830,-172
253.855,-528
253.880,-878
253.905,-1137
253.930,-1274
253.955,-1322
253.980,-1327
254.005,-1288
254.030,-1170
254.055,-962
254.080,-712
254.105,-488
254.130,-308
254.155,-127
254.180,105
254.205,378
254.230,618
254.255,759
254.280,806
254.305,819
254.330,844
254.355,877
254.380,879
254.405,825
254.430,723
254.455,583
254.480,400
254.505,172
254.530,-60
254.555,-226
254.580,-273
254.605,-217
254.630,-123
254.655,-45
254.680,18
254.705,97
254.730,194
254.755,270
254.780,289
254.805,263
254.830,252
254.855,301
254.880,395
254.905,476
254.930,497
254.955,462
254.980,409
255.005,358
255.030,296
255.055,200
255.080,72
255.105,-54
255.130,-139
255.155,-165
255.180,-144
255.205,-98
255.230,-43
255.255,20
255.280,92
255.305,165
255.330,231
255.355,289
255.380,346
255.405,414
255.430,498
255.455,595
255.480,690
255.505,767
255.530,813
255.555,818
255.580,781
255.605,719
255.630,664
255.655,654
255.680,699
255.705,766
255.730,799
255.755,753
255.780,634
255.805,487
255.830,357
255.855,259
255.880,175
255.905,92
255.930,21
255.955,-15
255.980,-17
256.005,-14
256.030,-41
256.055,-110
256.080,-197
256.105,-276
256.130,-344
256.155,-411
256.180,-475
256.205,-500
256.230,-444
256.255,-302
256.280,-115
256.305,52
256.330,161
256.355,214
256.380,232
256.405,228
256.430,204
256.455,176
256.480,177
256.505,233
256.530,332
256.555,422
256.580,458
256.605,432
256.630,377
256.655,322
256.680,275
256.705,230
256.730,202
256.755,221
256.780,298
256.805,393
256.830,437
256.855,388
256.880,267
256.905,130
256.930,14
256.955,-81
256.980,-165
257.005,-224
257.030,-233
257.055,-191
257.080,-139
257.105,-119
257.130,-121
257.155,-94
257.180,-3
257.205,127
257.230,232
257.255,276
257.280,287
257.305,328
257.330,429
257.355,563
257.380,680
257.405,754
257.430,788
257.455,783
257.480,722
257.505,592
257.530,415
257.555,246
257.580,130
257.605,71
257.630,31
257.655,-26
257.680,-109
257.705,-190
257.730,-232
257.755,-201
257.780,-92
257.805,72
257.830,240
257.855,358
257.880,404
257.905,407
257.930,414
257.955,443
257.980,466
258.005,431
258.030,315
258.055,146
258.080,-26
258.105,-160
258.130,-237
258.155,-252
258.180,-210
258.205,-137
258.230,-72
258.255,-50
258.280,-63
258.305,-66
258.330,-17
258.355,85
258.380,210
258.405,335
258.430,464
258.455,608
258.480,747
258.505,834
258.530,834
258.555,768
258.580,690
258.605,641
258.630,615
258.655,584
258.680,535
258.705,478
258.730,417
258.755,332
258.780,199
258.805,34
258.830,-110
258.855,-189
258.880,-198
258.905,-178
258.930,-163
258.955,-150
258.980,-120
259.005,-69
259.030,-25
259.055,-13
259.080,-26
