df_hash,22ZHK4.XMLDE7
device,HZ2X61
project_hash,29R7
project_name,istanbul_aydin_university
person_hash,29R7.LYXY
person_label,v138
date_time_start,2026-04-14_15-48-30.092000_+03
date_time_start_unix,1776163710.092
date_time_end,2026-04-14_15-56-41.793000_+03
length_difference_noticed,no

time,ppg_ir,ppg_ambient,ppg_red
5.975,168252,184,208568
5.980,168259,180,208573
5.985,168272,182,208589
5.990,168278,183,208601
5.995,168296,183,208612
6.000,168310,181,208651
6.005,168298,187,208662
6.010,168304,182,208673
6.015,168308,183,208718
6.020,168323,179,208727
6.025,168348,186,208754
6.030,168339,181,208788
6.035,168375,183,208811
6.039,168376,179,208836
6.044,168399,185,208856
6.049,168407,183,208888
6.054,168422,184,208926
6.059,168433,180,208951
6.064,168439,182,208975
6.069,168461,182,209018
6.074,168476,184,209032
6.079,168495,179,209042
6.084,168497,182,209075
6.089,168507,182,209099
6.094,168516,184,209124
6.099,168537,181,209157
6.104,168557,183,209195
6.109,168566,178,209206
6.114,168576,185,209222
6.119,168579,180,209251
6.124,168591,182,209288
6.129,168609,182,209336
6.134,168624,184,209353
6.139,168645,179,209387
6.144,168643,181,209391
6.149,168666,178,209430
6.154,168670,186,209455
6.159,168685,181,209483
6.163,168690,183,209515
6.168,168709,178,209564
6.173,168703,186,209580
6.178,168730,180,209612
6.183,168738,183,209631
6.188,168742,178,209657
6.193,168744,184,209664
6.198,168753,180,209699
6.203,168788,182,209716
6.208,168786,177,209751
6.213,168805,185,209783
6.218,168810,181,209804
6.223,168815,183,209812
6.228,168824,178,209837
6.233,168837,185,209869
6.238,168849,181,209906
6.243,168854,184,209893
6.248,168882,181,209943
6.253,168880,183,209968
6.258,168888,179,209994
6.263,168898,181,210005
6.268,168917,183,210059
6.273,168913,184,210077
6.278,168912,180,210097
6.283,168947,181,210123
6.287,168932,178,210139
6.292,168963,180,210168
6.297,168937,178,210161
6.302,168953,185,210194
6.307,168961,181,210218
6.312,168971,183,210228
6.317,168964,179,210265
6.322,168965,181,210286
6.327,168962,182,210302
6.332,168961,184,210323
6.337,168955,181,210329
6.342,168940,185,210320
6.347,168926,182,210328
6.352,168924,182,210326
6.357,168914,179,210357
6.362,168887,185,210360
6.367,168900,182,210375
6.372,168901,181,210410
6.377,168883,180,210408
6.382,168904,179,210410
6.387,168895,182,210435
6.392,168870,180,210474
6.397,168881,182,210477
6.402,168890,183,210502
6.407,168891,180,210531
6.412,168895,180,210526
6.416,168886,182,210551
6.421,168890,182,210553
6.426,168892,179,210574
6.431,168895,179,210609
6.436,168883,183,210619
6.441,168890,181,210629
6.446,168903,180,210651
6.451,168883,179,210673
6.456,168889,182,210690
6.461,168885,181,210700
6.466,168902,180,210724
6.471,168893,179,210729
6.476,168886,183,210747
6.481,168894,181,210780
6.486,168900,180,210786
6.491,168895,179,210796
6.496,168910,183,210817
6.501,168905,182,210837
6.506,168889,180,210856
6.511,168895,178,210870
6.516,168890,183,210895
6.521,168884,181,210903
6.526,168892,181,210934
6.531,168904,183,210929
6.536,168899,184,210901
6.540,168903,183,210939
6.545,168903,182,210961
6.550,168907,179,210978
6.555,168919,184,211000
6.560,168908,181,211005
6.565,168925,180,211029
6.570,168918,183,211034
6.575,168932,183,211031
6.580,168936,181,211039
6.585,168907,183,211038
6.590,168920,180,211050
6.595,168908,182,211039
6.600,168920,179,211036
6.605,168897,186,211038
6.610,168895,181,211033
6.615,168879,183,211025
6.620,168889,179,211039
6.625,168882,180,211048
6.630,168875,182,211028
6.635,168877,180,211049
6.640,168881,181,211070
6.645,168873,183,211073
6.650,168893,179,211077
6.655,168899,185,211088
6.660,168888,181,211116
6.664,168901,183,211138
6.669,168903,178,211173
6.674,168913,186,211178
6.679,168906,181,211194
6.684,168919,185,211210
6.689,168922,179,211225
6.694,168910,182,211237
6.699,168923,182,211258
6.704,168950,184,211283
6.709,168929,179,211306
6.714,168963,185,211316
6.719,168954,181,211342
6.724,168950,182,211338
6.729,168960,177,211347
6.734,168952,182,211374
6.739,168973,182,211377
6.744,168976,184,211395
6.749,168983,179,211450
6.754,168995,186,211432
6.759,169010,181,211440
6.764,169008,184,211453
6.769,169018,178,211463
6.774,169038,186,211490
6.779,169037,181,211509
6.784,169047,186,211519
6.788,169062,181,211556
6.793,169081,183,211587
6.798,169080,179,211607
6.803,169103,181,211625
6.808,169120,182,211630
6.813,169123,184,211663
6.818,169138,179,211680
6.823,169149,182,211726
6.828,169167,177,211739
6.833,169172,183,211750
6.838,169192,182,211788
6.843,169198,184,211799
6.848,169215,180,211817
6.853,169249,182,211826
6.858,169233,183,211867
6.863,169247,184,211873
6.868,169260,180,211884
6.873,169276,181,211903
6.878,169278,180,211916
6.883,169320,182,211931
6.888,169299,182,211948
6.893,169312,184,211973
6.898,169319,179,211984
6.903,169328,187,211996
6.908,169321,181,212026
6.912,169338,184,212015
6.917,169345,180,212036
6.922,169362,182,212057
6.927,169368,180,212068
6.932,169372,182,212073
6.937,169371,184,212085
6.942,169396,185,212101
6.947,169402,181,212098
6.952,169409,181,212128
6.957,169407,183,212132
6.962,169428,184,212155
6.967,169450,181,212169
6.972,169439,182,212207
6.977,169450,180,212195
6.982,169459,182,212230
6.987,169465,183,212219
6.992,169468,184,212255
6.997,169488,181,212263
7.002,169487,182,212289
7.007,169492,185,212288
7.012,169491,183,212301
7.017,169481,182,212294
7.022,169466,181,212302
7.027,169454,181,212315
7.032,169444,181,212299
7.036,169438,185,212304
7.041,169413,184,212288
7.046,169403,181,212286
7.051,169419,182,212294
7.056,169411,184,212275
7.061,169390,184,212283
7.066,169400,182,212285
7.071,169376,181,212279
7.076,169371,182,212291
7.081,169362,186,212292
7.086,169359,184,212298
7.091,169345,182,212305
7.096,169343,182,212289
7.101,169331,185,212303
7.106,169332,184,212307
7.111,169316,182,212301
7.116,169310,182,212299
7.121,169300,190,212301
7.126,169306,185,212294
7.131,169276,183,212318
7.136,169297,182,212302
7.141,169290,181,212316
7.146,169284,186,212306
7.151,169278,183,212325
7.156,169281,184,212313
7.161,169267,181,212326
7.165,169259,187,212336
7.170,169252,181,212321
7.175,169247,186,212329
7.180,169243,183,212328
7.185,169258,183,212331
7.190,169233,180,212330
7.195,169248,185,212338
7.200,169248,182,212353
7.205,169258,183,212360
7.210,169250,184,212353
7.215,169231,184,212354
7.220,169246,183,212368
7.225,169265,185,212375
7.230,169266,180,212375
7.235,169276,187,212388
7.240,169279,183,212432
7.245,169290,184,212424
7.250,169307,180,212454
7.255,169291,187,212467
7.260,169295,182,212468
7.265,169300,183,212464
7.270,169305,182,212492
7.275,169315,183,212498
7.280,169317,180,212484
7.285,169306,187,212500
7.289,169310,181,212504
7.294,169318,183,212505
7.299,169320,184,212514
7.304,169310,186,212522
7.309,169332,180,212521
7.314,169334,183,212518
7.319,169327,181,212540
7.324,169305,183,212546
7.329,169321,183,212572
7.334,169318,185,212573
7.339,169338,180,212589
7.344,169317,183,212601
7.349,169349,183,212620
7.354,169328,185,212633
7.359,169342,180,212633
7.364,169352,183,212661
7.369,169358,179,212651
7.374,169344,187,212664
7.379,169376,181,212676
7.384,169356,185,212682
7.389,169362,179,212694
7.394,169389,187,212710
7.399,169378,182,212733
7.404,169381,184,212736
7.409,169395,179,212746
7.413,169404,179,212777
7.418,169398,183,212774
7.423,169441,185,212799
7.428,169451,180,212823
7.433,169441,182,212849
7.438,169460,183,212856
7.443,169468,185,212858
7.448,169457,179,212875
7.453,169488,182,212908
7.458,169476,182,212914
7.463,169499,183,212923
7.468,169510,183,212941
7.473,169516,185,212970
7.478,169532,180,212968
7.483,169547,182,213010
7.488,169560,183,212987
7.493,169554,184,213012
7.498,169568,180,213043
7.503,169573,182,213051
7.508,169586,183,213070
7.513,169587,182,213067
7.518,169598,183,213099
7.523,169627,185,213100
7.528,169632,180,213122
7.533,169647,183,213144
7.537,169670,179,213143
7.542,169694,186,213151
7.547,169684,183,213192
7.552,169695,184,213201
7.557,169708,181,213214
7.562,169725,182,213234
7.567,169741,179,213245
7.572,169747,186,213268
7.577,169756,183,213278
7.582,169750,184,213304
7.587,169782,181,213321
7.592,169802,182,213323
7.597,169807,179,213362
7.602,169813,186,213381
7.607,169832,181,213403
7.612,169850,183,213396
7.617,169867,180,213424
7.622,169873,185,213457
7.627,169890,183,213463
7.632,169894,182,213491
7.637,169913,180,213507
7.642,169911,184,213513
7.647,169942,181,213529
7.652,169934,182,213536
7.657,169946,182,213553
7.661,169958,181,213582
7.666,169948,183,213604
7.671,169969,183,213603
7.676,169961,180,213630
7.681,169968,185,213623
7.686,169941,183,213624
7.691,169934,183,213634
7.696,169935,181,213641
7.701,169913,185,213616
7.706,169952,186,213635
7.711,169887,181,213665
7.716,169884,185,213659
7.721,169866,183,213671
7.726,169886,182,213682
7.731,169873,184,213682
7.736,169872,183,213679
7.741,169865,181,213696
7.746,169874,180,213711
7.751,169853,183,213711
7.756,169844,184,213730
7.761,169850,183,213726
7.766,169859,182,213738
7.771,169857,180,213753
7.776,169851,185,213757
7.781,169853,182,213763
7.785,169858,182,213777
7.790,169864,184,213765
7.795,169854,184,213775
7.800,169857,180,213786
7.805,169870,183,213817
7.810,169860,180,213809
7.815,169861,186,213824
7.820,169867,182,213829
7.825,169860,183,213843
7.830,169860,180,213864
7.835,169845,181,213863
7.840,169859,183,213866
7.845,169870,183,213894
7.850,169865,179,213901
7.855,169851,183,213907
7.860,169874,179,213924
7.865,169857,186,213943
7.870,169905,180,213946
7.875,169885,182,213965
7.880,169888,183,213988
7.885,169904,184,213987
7.890,169895,180,213998
7.895,169907,182,214037
7.900,169918,182,214023
7.905,169913,181,214063
7.910,169935,182,214095
7.914,169952,184,214122
7.919,169954,179,214147
7.924,169948,181,214160
7.929,169976,182,214155
7.934,169969,183,214178
7.939,169958,179,214206
7.944,169955,186,214211
7.949,169968,183,214222
7.954,169960,182,214254
7.959,169960,177,214261
7.964,169963,185,214290
7.969,169955,179,214293
7.974,169955,186,214286
7.979,169951,181,214305
7.984,169934,183,214304
7.989,169930,178,214321
7.994,169949,184,214315
7.999,169949,183,214349
8.004,169923,183,214361
8.009,169928,177,214368
8.014,169910,184,214401
8.019,169924,180,214383
8.024,169917,182,214403
8.029,169908,181,214418
8.034,169928,182,214420
8.038,169930,177,214429
8.043,169909,185,214443
8.048,169930,177,214450
8.053,169917,185,214472
8.058,169924,179,214470
8.063,169927,181,214472
8.068,169936,182,214482
8.073,169933,183,214498
8.078,169926,179,214533
8.083,169921,180,214536
8.088,169938,181,214549
8.093,169947,182,214560
8.098,169940,180,214570
8.103,169952,183,214585
8.108,169961,178,214594
8.113,169969,185,214601
8.118,169977,180,214625
8.123,169973,182,214654
8.128,169991,182,214666
8.133,169988,184,214678
8.138,169997,179,214693
8.143,170008,183,214699
8.148,170009,179,214745
8.153,170025,185,214714
8.158,170029,181,214721
8.162,170015,182,214737
8.167,170024,178,214758
8.172,170044,185,214783
8.177,170043,181,214777
8.182,170041,182,214791
8.187,170060,178,214792
8.192,170066,185,214811
8.197,170055,178,214839
8.202,170069,185,214856
8.207,170082,180,214840
8.212,170052,181,214869
8.217,170090,184,214859
8.222,170077,183,214881
8.227,170086,181,214890
8.232,170076,181,214904
8.237,170094,184,214909
8.242,170086,185,214924
8.247,170102,180,214923
8.252,170091,180,214940
8.257,170108,183,214939
8.262,170108,183,214946
8.267,170111,180,214953
8.272,170121,185,214955
8.277,170121,182,214969
8.282,170135,182,214991
8.286,170128,180,215010
8.291,170146,181,215020
8.296,170166,181,215049
8.301,170134,180,215056
8.306,170155,184,215048
8.311,170161,182,215083
8.316,170173,182,215080
8.321,170144,180,215100
8.326,170161,185,215101
8.331,170144,183,215085
8.336,170120,182,215095
8.341,170112,183,215076
8.346,170076,181,215070
8.351,170073,185,215061
8.356,170040,183,215067
8.361,170030,182,215038
8.366,170022,181,215058
8.371,170008,185,215048
8.376,169991,184,215041
8.381,169972,181,215049
8.386,169971,182,215040
8.391,169964,180,215035
8.396,169939,181,215028
8.401,169931,184,215034
8.406,169927,184,215017
8.410,169920,181,215044
8.415,169915,182,215043
8.420,169899,179,215036
8.425,169894,186,215047
8.430,169888,183,215026
8.435,169889,182,215035
8.440,169885,182,215051
8.445,169871,182,215035
8.450,169864,184,215022
8.455,169858,184,215005
8.460,169839,180,215031
8.465,169851,182,215036
8.470,169856,182,215032
8.475,169836,183,215035
8.480,169838,179,215061
8.485,169831,186,215063
8.490,169824,179,215052
8.495,169827,185,215052
8.500,169813,181,215079
8.505,169807,182,215060
8.510,169811,183,215080
8.515,169818,184,215072
8.520,169830,180,215105
8.525,169815,181,215103
8.530,169819,182,215092
8.534,169826,186,215100
8.539,169830,181,215101
8.544,169833,182,215143
8.549,169842,182,215132
8.554,169827,184,215134
8.559,169824,179,215146
8.564,169828,186,215154
8.569,169827,180,215152
8.574,169820,183,215173
8.579,169824,183,215156
8.584,169829,182,215169
8.589,169821,182,215165
8.594,169825,184,215135
8.599,169799,179,215172
8.604,169812,186,215160
8.609,169791,181,215170
8.614,169800,183,215151
8.619,169788,183,215132
8.624,169793,185,215145
8.629,169799,179,215155
8.634,169815,190,215143
8.639,169786,182,215175
8.644,169781,184,215159
8.649,169795,179,215171
8.654,169786,186,215175
8.659,169796,181,215191
8.663,169791,183,215186
8.668,169807,183,215183
8.673,169789,184,215189
8.678,169803,179,215193
8.683,169787,184,215211
8.688,169809,179,215211
8.693,169803,185,215239
8.698,169823,180,215232
8.703,169802,182,215232
8.708,169820,182,215235
8.713,169814,183,215250
8.718,169823,179,215251
8.723,169829,182,215249
8.728,169842,183,215273
8.733,169828,181,215290
8.738,169851,182,215293
8.743,169834,183,215303
8.748,169860,180,215311
8.753,169864,185,215308
8.758,169851,182,215316
8.763,169859,182,215324
8.768,169863,184,215339
8.773,169877,184,215344
8.778,169893,180,215347
8.783,169907,184,215326
8.787,169906,179,215362
8.792,169902,186,215368
8.797,169898,182,215390
8.802,169921,182,215388
8.807,169933,184,215416
8.812,169936,183,215405
8.817,169945,180,215438
8.822,169954,180,215443
8.827,169964,177,215450
8.832,169973,185,215483
8.837,169984,183,215495
8.842,169986,182,215499
8.847,170015,180,215512
8.852,170012,184,215508
8.857,170017,181,215547
8.862,170040,182,215527
8.867,170065,183,215551
8.872,170062,183,215555
8.877,170062,182,215586
8.882,170087,182,215601
8.887,170077,185,215601
8.892,170097,183,215579
8.897,170095,181,215618
8.902,170109,184,215607
8.907,170097,183,215596
8.911,170105,181,215611
8.916,170110,185,215600
8.921,170078,183,215617
8.926,170083,184,215601
8.931,170057,182,215575
8.936,170057,181,215570
8.941,170033,184,215547
8.946,170026,182,215521
8.951,170012,180,215511
8.956,169980,184,215492
8.961,169974,182,215481
8.966,169961,181,215481
8.971,169947,184,215479
8.976,169941,186,215472
8.981,169925,182,215461
8.986,169913,182,215462
8.991,169921,184,215441
8.996,169907,184,215457
9.001,169907,181,215449
9.006,169900,182,215443
9.011,169889,183,215456
9.016,169918,184,215453
9.021,169911,180,215473
9.026,169902,183,215476
9.031,169907,180,215490
9.035,169915,185,215510
9.040,169926,181,215538
9.045,169929,182,215541
9.050,169937,183,215556
9.055,169931,184,215591
9.060,169933,179,215590
9.065,169939,185,215623
9.070,169961,180,215621
9.075,169957,182,215655
9.080,169973,182,215651
9.085,169962,183,215669
9.090,169970,179,215697
9.095,169982,184,215700
9.100,169979,180,215700
9.105,170002,186,215710
9.110,169989,181,215723
9.115,169990,181,215721
9.120,170002,174,215723
9.125,169994,186,215728
9.130,169993,181,215743
9.135,170027,183,215751
9.140,170035,182,215764
9.145,170034,184,215784
9.150,170044,178,215795
9.155,170038,185,215821
9.159,170057,179,215808
9.164,170056,186,215808
9.169,170067,178,215810
9.174,170051,183,215790
9.179,170044,183,215812
9.184,170029,184,215799
9.189,170030,179,215793
9.194,170030,185,215798
9.199,170033,179,215781
9.204,170017,186,215775
9.209,170033,180,215777
9.214,170032,182,215775
9.219,170027,179,215779
9.224,170025,182,215800
9.229,170025,182,215792
9.234,170037,184,215790
9.239,170014,179,215799
9.244,170024,187,215792
9.249,170034,181,215821
9.254,170021,183,215820
9.259,170025,179,215811
9.264,170029,186,215832
9.269,170048,178,215839
9.274,170038,184,215837
9.279,170049,180,215843
9.283,170060,182,215850
9.288,170054,183,215868
9.293,170053,184,215866
9.298,170067,179,215867
9.303,170090,182,215882
9.308,170087,182,215898
9.313,170081,183,215889
9.318,170095,182,215911
9.323,170110,183,215926
9.328,170105,183,215950
9.333,170130,183,215949
9.338,170129,179,215973
9.343,170138,185,215983
9.348,170150,181,216014
9.353,170158,181,216014
9.358,170155,182,216038
9.363,170171,182,216048
9.368,170189,179,216050
9.373,170204,185,216084
9.378,170185,181,216085
9.383,170205,182,216107
9.388,170230,178,216128
9.393,170231,185,216134
9.398,170231,181,216154
9.403,170232,182,216157
9.408,170249,184,216193
9.412,170269,176,216203
9.417,170270,183,216220
9.422,170291,182,216238
9.427,170288,180,216243
9.432,170292,184,216258
9.437,170319,182,216268
9.442,170314,181,216293
9.447,170327,179,216293
9.452,170353,183,216319
9.457,170363,180,216343
9.462,170370,183,216335
9.467,170396,180,216350
9.472,170380,180,216375
9.477,170396,182,216386
9.482,170411,182,216406
9.487,170419,179,216416
9.492,170436,183,216423
9.497,170423,181,216456
9.502,170448,180,216471
9.507,170446,183,216471
9.512,170460,179,216464
9.517,170458,183,216478
9.522,170455,181,216473
9.527,170438,180,216504
9.532,170449,182,216497
9.536,170422,181,216479
9.541,170410,179,216484
9.546,170389,182,216475
9.551,170390,179,216466
9.556,170374,183,216454
9.561,170343,179,216461
9.566,170346,183,216431
9.571,170318,180,216435
9.576,170326,184,216437
9.581,170326,181,216454
9.586,170294,181,216438
9.591,170293,177,216417
9.596,170287,183,216431
9.601,170273,179,216425
9.606,170267,180,216442
9.611,170273,179,216449
9.616,170273,180,216446
9.621,170276,182,216448
9.626,170273,182,216467
9.631,170262,179,216444
9.636,170270,184,216454
9.641,170236,180,216452
9.646,170224,180,216460
9.651,170244,180,216447
9.656,170239,182,216470
9.660,170233,179,216454
9.665,170240,180,216461
9.670,170227,181,216457
9.675,170222,182,216473
9.680,170220,177,216464
9.685,170224,184,216459
9.690,170212,179,216480
9.695,170223,180,216487
9.700,170219,181,216497
9.705,170232,180,216494
9.710,170236,179,216499
9.715,170231,180,216516
9.720,170235,182,216522
9.725,170235,182,216540
9.730,170250,177,216534
9.735,170265,184,216549
9.740,170263,179,216595
9.745,170261,181,216588
9.750,170272,181,216594
9.755,170296,181,216611
9.760,170291,178,216619
9.765,170290,180,216645
9.770,170305,180,216663
9.775,170321,182,216676
9.780,170343,177,216704
9.784,170342,184,216713
9.789,170344,179,216726
9.794,170349,180,216738
9.799,170346,180,216735
9.804,170379,181,216726
9.809,170373,181,216764
9.814,170368,183,216766
9.819,170388,177,216776
9.824,170378,185,216792
9.829,170388,179,216807
9.834,170399,181,216798
9.839,170402,177,216838
9.844,170425,184,216836
9.849,170431,178,216835
9.854,170423,182,216852
9.859,170433,179,216881
9.864,170434,180,216911
9.869,170452,181,216901
9.874,170449,181,216921
9.879,170470,178,216932
9.884,170474,180,216937
9.889,170501,181,216965
9.894,170491,181,216988
9.899,170500,177,216998
9.904,170513,181,217037
9.908,170505,176,217052
9.913,170514,183,217056
9.918,170528,179,217091
9.923,170535,180,217116
9.928,170557,177,217152
9.933,170571,183,217156
9.938,170565,179,217154
9.943,170586,180,217195
9.948,170618,178,217198
9.953,170613,180,217218
9.958,170613,177,217239
9.963,170621,182,217264
9.968,170649,178,217280
9.973,170659,184,217307
9.978,170661,180,217309
9.983,170664,181,217325
9.988,170681,177,217338
9.993,170679,182,217358
9.998,170708,179,217391
10.003,170702,182,217402
10.008,170733,178,217414
10.013,170738,183,217435
10.018,170739,181,217474
10.023,170758,181,217482
10.028,170777,178,217500
10.032,170802,183,217517
10.037,170810,181,217541
10.042,170814,180,217564
10.047,170848,181,217589
10.052,170847,182,217609
10.057,170864,179,217642
10.062,170869,180,217639
10.067,170883,182,217671
10.072,170885,181,217680
10.077,170898,179,217701
10.082,170910,179,217719
10.087,170929,182,217743
10.092,170941,180,217769
10.097,170962,183,217787
10.102,170960,178,217791
10.107,170987,182,217814
10.112,171012,179,217825
10.117,171022,179,217845
10.122,171020,182,217896
10.127,171041,181,217890
10.132,171062,179,217908
10.137,171067,178,217943
10.142,171075,182,217956
10.147,171074,183,217959
10.152,171065,180,217970
10.157,171084,180,217965
10.161,171092,183,217988
10.166,171074,182,218010
10.171,171080,178,218015
10.176,171088,179,218044
10.181,171065,180,218048
10.186,171073,181,218052
10.191,171054,177,218035
10.196,171038,180,218047
10.201,171029,182,218057
10.206,171041,181,218085
10.211,171047,177,218079
10.216,171048,182,218081
10.221,171042,179,218104
10.226,171045,179,218131
10.231,171047,181,218133
10.236,171034,181,218142
10.241,171049,181,218173
10.246,171037,181,218153
10.251,171046,177,218178
10.256,171035,182,218206
10.261,171055,178,218208
10.266,171034,184,218212
10.271,171047,179,218212
10.276,171044,180,218239
10.281,171062,181,218240
10.285,171045,182,218247
10.290,171110,180,218263
10.295,171075,181,218265
10.300,171066,177,218288
10.305,171078,183,218302
10.310,171076,179,218332
10.315,171086,181,218336
10.320,171097,177,218346
10.325,171095,184,218359
10.330,171100,178,218380
10.335,171098,180,218404
10.340,171088,177,218425
10.345,171115,180,218456
10.350,171121,180,218470
10.355,171125,182,218482
10.360,171142,177,218501
10.365,171122,184,218525
10.370,171141,179,218539
10.375,171155,181,218551
10.380,171159,181,218568
10.385,171182,182,218594
10.390,171173,180,218618
10.395,171192,182,218637
10.400,171196,178,218665
10.405,171211,180,218682
10.409,171230,180,218708
10.414,171229,182,218698
10.419,171246,176,218723
10.424,171251,184,218746
10.429,171256,178,218787
10.434,171249,180,218787
10.439,171257,182,218804
10.444,171266,183,218796
10.449,171271,178,218819
10.454,171277,179,218817
10.459,171273,180,218849
10.464,171263,181,218860
10.469,171285,177,218858
10.474,171282,184,218870
10.479,171297,179,218878
10.484,171312,181,218906
10.489,171295,178,218915
10.494,171319,180,218926
10.499,171328,180,218941
10.504,171341,182,218964
10.509,171345,176,218982
10.514,171353,183,218977
10.519,171364,178,219032
10.524,171379,180,219026
10.529,171381,181,219055
10.533,171394,182,219086
10.538,171403,180,219100
10.543,171404,180,219113
10.548,171428,176,219112
10.553,171433,182,219151
10.558,171430,178,219158
10.563,171450,179,219172
10.568,171470,180,219202
10.573,171471,181,219218
10.578,171481,177,219238
10.583,171464,180,219241
10.588,171492,182,219260
10.593,171512,182,219281
10.598,171517,178,219294
10.603,171538,180,219304
10.608,171543,180,219328
10.613,171534,180,219342
10.618,171548,178,219349
10.623,171557,182,219378
10.628,171568,179,219384
10.633,171571,180,219396
10.638,171608,178,219441
10.643,171594,184,219427
10.648,171626,182,219456
10.653,171618,181,219458
10.657,171620,179,219465
10.662,171636,184,219482
10.667,171648,182,219497
10.672,171654,182,219512
10.677,171664,180,219494
10.682,171687,176,219522
10.687,171671,178,219549
10.692,171683,182,219550
10.697,171716,181,219570
10.702,171699,179,219571
10.707,171730,183,219575
10.712,171732,181,219590
10.717,171723,181,219615
10.722,171760,179,219637
10.727,171750,186,219637
10.732,171774,179,219661
10.737,171768,183,219661
10.742,171778,181,219668
10.747,171779,180,219667
10.752,171813,183,219688
10.757,171805,182,219703
10.762,171812,180,219714
10.767,171820,180,219740
10.772,171839,182,219751
10.777,171832,182,219741
10.781,171838,182,219763
10.786,171842,182,219768
10.791,171844,178,219757
10.796,171858,184,219759
10.801,171850,181,219777
10.806,171850,181,219757
10.811,171861,178,219770
10.816,171843,183,219786
10.821,171831,179,219768
10.826,171804,183,219768
10.831,171808,179,219758
10.836,171796,185,219763
10.841,171777,181,219764
10.846,171790,180,219773
10.851,171781,177,219765
10.856,171789,183,219781
10.861,171754,177,219776
10.866,171761,180,219785
10.871,171775,180,219780
10.876,171794,185,219792
10.881,171782,180,219791
10.886,171780,181,219801
10.891,171762,181,219812
10.896,171764,183,219825
10.901,171785,179,219823
10.906,171791,180,219840
10.910,171795,181,219826
10.915,171801,182,219857
10.920,171804,178,219866
10.925,171827,181,219897
10.930,171821,177,219895
10.935,171846,183,219911
10.940,171832,179,219943
10.945,171857,181,219957
10.950,171859,180,219980
10.955,171862,183,219993
10.960,171869,178,220018
10.965,171865,180,220024
10.970,171880,180,220027
10.975,171886,185,220061
10.980,171904,181,220074
10.985,171896,182,220082
10.990,171906,178,220092
10.995,171917,180,220102
11.000,171931,181,220124
11.005,171930,182,220170
11.010,171957,178,220153
11.015,171949,186,220181
11.020,171978,178,220195
11.025,171992,185,220227
11.030,172001,179,220225
11.034,171999,182,220248
11.039,172018,176,220237
11.044,172032,184,220267
11.049,171926,179,220289
11.054,171944,181,220318
11.059,171959,182,220344
11.064,171950,184,220371
11.069,171976,179,220386
11.074,171993,183,220424
11.079,172013,179,220441
11.084,172018,181,220460
11.089,172040,181,220472
11.094,172041,182,220519
11.099,172055,178,220540
11.104,172088,185,220553
11.109,172087,180,220599
11.114,172109,181,220602
11.119,172133,176,220646
11.124,172150,182,220684
11.129,172135,177,220723
11.134,172153,184,220723
11.139,172173,180,220757
11.144,172185,181,220796
11.149,172198,182,220793
11.154,172222,182,220822
11.158,172230,179,220833
11.163,172225,180,220868
11.168,172276,178,220865
11.173,172248,181,220896
11.178,172266,178,220889
11.183,172285,185,220897
11.188,172302,180,220901
11.193,172282,181,220912
11.198,172316,182,220929
11.203,172331,183,220939
11.208,172318,178,220931
11.213,172307,185,220942
11.218,172322,179,220937
11.223,172335,184,220944
11.228,172323,181,220946
11.233,172339,181,220967
11.238,172336,179,220981
11.243,172344,183,220994
11.248,172375,181,220982
11.253,172370,180,221011
11.258,172371,183,221043
11.263,172398,181,221038
11.268,172413,181,221055
11.273,172416,181,221071
11.278,172437,178,221088
11.282,172436,182,221100
11.287,172459,180,221113
11.292,172471,184,221133
11.297,172474,182,221144
11.302,172487,180,221150
11.307,172499,179,221148
11.312,172501,182,221152
11.317,172504,181,221157
11.322,172517,180,221170
11.327,172518,184,221175
11.332,172513,181,221179
11.337,172529,180,221190
11.342,172536,184,221295
11.347,172540,183,221310
11.352,172551,180,221314
11.357,172552,180,221303
11.362,172575,183,221325
11.367,172570,184,221334
11.372,172573,182,221332
11.377,172588,181,221350
11.382,172577,184,221341
11.387,172589,183,221347
11.392,172590,180,221354
11.397,172603,180,221364
11.402,172607,182,221380
11.406,172616,182,221375
11.411,172622,184,221369
11.416,172619,182,221359
11.421,172626,178,221372
11.426,172640,184,221380
11.431,172624,181,221404
11.436,172638,181,221399
11.441,172639,183,221391
11.446,172638,182,221383
11.451,172632,179,221389
11.456,172641,185,221379
11.461,172642,178,221358
11.466,172628,182,221379
11.471,172638,178,221345
11.476,172611,184,221356
11.481,172600,180,221341
11.486,172604,182,221327
11.491,172580,182,221312
11.496,172563,184,221284
11.501,172561,179,221290
11.506,172526,181,221263
11.511,172516,179,221236
11.516,172514,181,221246
11.521,172502,182,221227
11.526,172482,184,221229
11.530,172480,179,221221
11.535,172461,181,221227
11.540,172463,182,221233
11.545,172455,185,221203
11.550,172461,181,221210
11.555,172448,183,221220
11.560,172437,178,221205
11.565,172440,186,221187
11.570,172422,181,221201
11.575,172421,184,221179
11.580,172419,179,221195
11.585,172416,182,221180
11.590,172427,182,221179
11.595,172408,184,221184
11.600,172404,180,221176
11.605,172390,182,221174
11.610,172403,180,221170
11.615,172410,181,221176
11.620,172405,182,221172
11.625,172408,184,221166
11.630,172395,180,221176
11.635,172397,182,221194
11.640,172384,181,221186
11.645,172393,184,221176
11.650,172384,178,221176
11.655,172392,186,221176
11.659,172387,178,221192
11.664,172387,185,221189
11.669,172399,180,221198
11.674,172383,182,221202
11.679,172409,182,221227
11.684,172396,184,221232
11.689,172402,180,221245
11.694,172423,181,221256
11.699,172416,183,221229
11.704,172442,185,221273
11.709,172441,182,221263
11.714,172445,185,221293
11.719,172456,180,221306
11.724,172450,183,221286
11.729,172458,178,221298
11.734,172471,186,221311
11.739,172474,182,221334
11.744,172468,184,221336
11.749,172483,180,221344
11.754,172476,184,221330
11.759,172484,180,221336
11.764,172499,182,221362
11.769,172483,183,221357
11.774,172496,184,221378
11.779,172503,181,221367
11.783,172489,183,221365
11.788,172483,178,221371
11.793,172490,185,221386
11.798,172474,180,221378
11.803,172470,185,221363
11.808,172479,180,221378
11.813,172475,182,221390
11.818,172480,183,221379
11.823,172463,184,221378
11.828,172475,180,221374
11.833,172472,181,221377
11.838,172468,183,221370
11.843,172476,183,221366
11.848,172466,180,221344
11.853,172470,182,221388
11.858,172461,180,221358
11.863,172455,181,221342
11.868,172444,183,221349
11.873,172442,183,221352
11.878,172435,181,221341
11.883,172439,181,221335
11.888,172428,183,221326
11.893,172428,182,221318
11.898,172398,180,221309
11.903,172402,182,221320
11.907,172379,180,221291
11.912,172379,184,221282
11.917,172370,182,221282
11.922,172362,181,221272
11.927,172352,185,221280
11.932,172334,183,221240
11.937,172321,182,221238
11.942,172320,180,221240
11.947,172323,185,221180
11.952,172313,181,221209
11.957,172304,185,221203
11.962,172311,184,221184
11.967,172284,182,221182
11.972,172279,181,221170
11.977,172270,185,221164
11.982,172274,183,221173
11.987,172279,183,221190
11.992,172267,180,221185
11.997,172288,176,221185
12.002,172281,180,221163
12.007,172270,186,221159
12.012,172277,182,221167
12.017,172278,182,221167
12.022,172277,184,221166
12.027,172263,183,221170
12.031,172269,181,221148
12.036,172267,185,221149
12.041,172271,182,221140
12.046,172267,185,221154
12.051,172266,180,221150
12.056,172247,186,221138
12.061,172278,182,221145
12.066,172257,183,221130
12.071,172263,179,221147
12.076,172272,185,221149
12.081,172265,181,221139
12.086,172278,183,221128
12.091,172278,183,221164
12.096,172281,181,221153
12.101,172287,183,221178
12.106,172289,184,221170
12.111,172276,180,221155
12.116,172287,181,221167
12.121,172290,182,221174
12.126,172284,184,221166
12.131,172297,180,221174
12.136,172294,187,221181
12.141,172288,182,221189
12.146,172284,184,221187
12.151,172285,179,221176
12.155,172281,186,221171
12.160,172282,180,221177
12.165,172264,183,221171
12.170,172269,183,221178
12.175,172255,185,221164
12.180,172233,181,221153
12.185,172239,183,221170
12.190,172230,178,221135
12.195,172193,185,221127
12.200,172187,182,221100
12.205,172191,183,221099
12.210,172164,179,221102
12.215,172151,185,221080
12.220,172131,180,221062
12.225,172109,183,221052
12.230,172113,181,221061
12.235,172110,183,221044
12.240,172094,180,221031
12.245,172090,183,221024
12.250,172077,183,221044
12.255,172058,185,221038
12.260,172070,180,221041
12.265,172050,187,221054
12.270,172063,182,221053
12.275,172066,183,221054
12.279,172050,184,221074
12.284,172029,185,221070
12.289,172045,183,221069
12.294,172042,182,221060
12.299,172035,182,221072
12.304,172021,185,221059
12.309,172028,179,221063
12.314,172015,187,221046
12.319,172017,182,221070
12.324,171994,185,221057
12.329,172003,179,221066
12.334,171998,187,221069
12.339,171996,180,221064
12.344,171989,187,221080
12.349,171986,182,221085
12.354,171992,183,221074
12.359,171998,185,221093
12.364,171984,185,221096
12.369,172000,181,221104
12.374,171997,182,221124
12.379,172020,184,221133
12.384,172030,186,221161
12.389,172048,184,221196
12.394,172062,185,221212
12.399,172088,181,221233
12.404,172095,183,221260
12.408,172121,183,221302
12.413,172139,185,221336
12.418,172159,181,221368
12.423,172167,182,221402
12.428,172219,184,221452
12.433,172231,185,221480
12.438,172245,185,221503
12.443,172256,185,221552
12.448,172271,183,221568
12.453,172286,183,221597
12.458,172294,180,221621
12.463,172300,187,221648
12.468,172305,182,221658
12.473,172321,184,221689
12.478,172336,185,221709
12.483,172351,186,221719
12.488,172362,185,221752
12.493,172374,185,221756
12.498,172393,183,221792
12.503,172412,183,221806
12.508,172408,185,221830
12.513,172428,184,221843
12.518,172439,183,221847
12.523,172453,182,221841
12.528,172473,187,221878
12.532,172455,188,221912
12.537,172488,182,221913
12.542,172500,186,221910
12.547,172493,184,221948
12.552,172507,185,221943
12.557,172511,182,221968
12.562,172512,187,221974
12.567,172514,184,221976
12.572,172541,185,221986
12.577,172531,184,221972
12.582,172533,185,222000
12.587,172550,184,222021
12.592,172560,182,222015
12.597,172548,187,222020
12.602,172564,184,222038
12.607,172562,185,222020
12.612,172566,182,222041
12.617,172563,188,222040
12.622,172573,186,222050
12.627,172583,185,222057
12.632,172598,185,222081
12.637,172615,183,222106
12.642,172625,187,222119
12.647,172621,185,222142
12.652,172650,183,222173
12.656,172664,188,222180
12.661,172680,186,222182
12.666,172687,186,222229
12.671,172693,182,222260
12.676,172712,188,222249
12.681,172739,183,222290
12.686,172745,186,222307
12.691,172769,182,222339
12.696,172769,188,222369
12.701,172788,185,222380
12.706,172806,185,222401
12.711,172808,183,222398
12.716,172838,187,222430
12.721,172849,185,222455
12.726,172846,183,222489
12.731,172873,185,222500
12.736,172890,185,222522
12.741,172891,186,222545
12.746,172914,188,222573
12.751,172923,183,222567
12.756,172948,185,222586
12.761,172953,185,222607
12.766,172969,187,222613
12.771,172968,182,222646
12.776,172986,185,222672
12.780,173002,182,222665
12.785,173012,188,222678
12.790,173017,184,222723
12.795,173040,185,222704
12.800,173046,187,222761
12.805,173066,187,222771
12.810,173086,183,222796
12.815,173098,190,222824
12.820,173121,185,222857
12.825,173153,192,222887
12.830,173178,184,222932
12.835,173186,186,222969
12.840,173203,185,223003
12.845,173223,188,223007
12.850,173252,182,223031
12.855,173265,190,223050
12.860,173284,186,223071
12.865,173286,187,223081
12.870,173295,183,223115
12.875,173313,182,223114
12.880,173328,183,223155
12.885,173302,189,223146
12.890,173296,185,223141
12.895,173298,187,223138
12.900,173295,182,223124
12.904,173276,189,223129
12.909,173269,183,223138
12.914,173265,186,223128
12.919,173272,185,223124
12.924,173275,186,223140
12.929,173274,185,223130
12.934,173267,187,223141
12.939,173269,183,223141
12.944,173270,185,223168
12.949,173277,187,223180
12.954,173276,187,223198
12.959,173270,184,223204
12.964,173298,186,223217
12.969,173298,187,223220
12.974,173287,185,223233
12.979,173295,185,223228
12.984,173290,187,223266
12.989,173318,181,223239
12.994,173295,189,223245
12.999,173309,183,223263
13.004,173289,186,223257
13.009,173302,185,223264
13.014,173294,187,223234
13.019,173294,183,223267
13.024,173294,187,223270
13.028,173292,183,223273
13.033,173290,188,223253
13.038,173303,184,223251
13.043,173290,185,223244
13.048,173276,187,223248
13.053,173284,186,223256
13.058,173297,183,223238
13.063,173299,189,223247
13.068,173286,185,223251
13.073,173292,188,223253
13.078,173281,183,223260
13.083,173293,185,223257
13.088,173291,186,223255
13.093,173309,187,223225
13.098,173304,184,223215
13.103,173325,184,223229
13.108,173302,186,223241
13.113,173294,185,223225
13.118,173317,190,223225
13.123,173319,187,223226
13.128,173311,185,223215
13.133,173316,184,223217
13.138,173323,186,223233
13.143,173311,186,223221
13.148,173330,183,223242
13.153,173341,188,223225
13.157,173344,184,223226
13.162,173335,185,223231
13.167,173342,185,223222
13.172,173359,187,223243
13.177,173360,185,223241
13.182,173364,183,223264
13.187,173370,187,223261
13.192,173373,184,223266
13.197,173359,185,223272
13.202,173387,187,223279
13.207,173386,187,223284
13.212,173396,185,223314
13.217,173411,188,223323
13.222,173403,188,223314
13.227,173419,186,223322
13.232,173421,185,223337
13.237,173436,183,223332
13.242,173432,187,223337
13.247,173447,185,223349
13.252,173432,183,223348
13.257,173461,188,223401
13.262,173476,184,223393
13.267,173497,184,223391
13.272,173511,186,223398
13.277,173516,186,223425
13.281,173504,183,223450
13.286,173519,187,223441
13.291,173545,185,223470
13.296,173565,184,223490
13.301,173586,187,223519
13.306,173598,185,223525
13.311,173627,184,223552
13.316,173643,185,223562
13.321,173650,183,223585
13.326,173674,188,223634
13.331,173679,184,223680
13.336,173702,185,223684
13.341,173716,185,223697
13.346,173747,186,223731
13.351,173753,186,223752
13.356,173777,188,223773
13.361,173789,183,223818
13.366,173821,190,223824
13.371,173835,186,223855
13.376,173854,186,223886
13.381,173871,183,223918
13.386,173916,187,223969
13.391,173942,183,224001
13.396,173967,189,224016
13.401,173989,185,224031
13.405,173989,187,224050
13.410,174036,183,224096
13.415,174052,189,224124
13.420,174058,183,224139
13.425,174081,186,224162
13.430,174099,185,224212
13.435,174125,187,224225
13.440,174164,183,224271
13.445,174170,189,224294
13.450,174235,185,224365
13.455,174245,185,224407
13.460,174297,184,224487
13.465,174308,190,224537
13.470,174370,185,224596
13.475,174402,186,224670
13.480,174444,186,224722
13.485,174492,189,224758
13.490,174520,182,224839
13.495,174546,190,224884
13.500,174606,183,224939
13.505,174625,187,224988
13.510,174664,183,225039
13.515,174706,191,225113
13.520,174730,186,225152
13.525,174766,187,225204
13.529,174782,183,225246
13.534,174823,188,225301
13.539,174851,185,225350
13.544,174892,187,225414
13.549,174906,188,225459
13.554,174912,190,225508
13.559,174944,187,225563
13.564,174967,191,225621
13.569,174984,184,225652
13.574,174971,188,225712
13.579,174992,187,225741
13.584,175004,190,225777
13.589,174982,186,225814
13.594,175001,191,225838
13.599,175009,188,225853
13.604,175019,187,225869
13.609,175026,187,225880
13.614,175018,188,225895
13.619,175046,190,225937
13.624,175054,192,226003
13.629,175077,187,226051
13.634,175123,190,226100
13.639,175138,190,226169
13.644,175182,194,226210
13.649,175210,188,226273
13.653,175236,191,226341
13.658,175250,189,226384
13.663,175274,189,226450
13.668,175302,192,226486
13.673,175318,191,226546
13.678,175342,190,226594
13.683,175384,191,226647
13.688,175398,192,226694
13.693,175426,193,226719
13.698,175436,189,226771
13.703,175438,193,226817
13.708,175477,187,226854
13.713,175525,195,226894
13.718,175523,191,226948
13.723,175570,191,227008
13.728,175586,190,227054
13.733,175639,193,227122
13.738,175646,194,227144
13.743,175685,192,227196
13.748,175694,191,227235
13.753,175721,192,227288
13.758,175740,192,227325
13.763,175749,193,227367
13.768,175777,189,227398
13.773,175803,191,227425
13.777,175820,188,227474
13.782,175861,194,227502
13.787,175870,192,227557
13.792,175903,190,227642
13.797,175927,194,227676
13.802,175963,184,227742
13.807,175994,192,227786
13.812,176006,190,227840
13.817,176038,190,227896
13.822,176045,194,227933
13.827,176075,191,227974
13.832,176100,192,228013
13.837,176139,192,228058
13.842,176173,194,228128
13.847,176205,191,228154
13.852,176208,190,228194
13.857,176241,194,228231
13.862,176282,191,228258
13.867,176304,192,228313
13.872,176321,191,228345
13.877,176363,193,228364
13.882,176392,190,228405
13.887,176417,195,228425
13.892,176463,192,228470
13.897,176487,190,228508
13.902,176528,192,228571
13.906,176562,190,228621
13.911,176597,190,228673
13.916,176657,193,228758
13.921,176689,192,228819
13.926,176752,192,228890
13.931,176765,192,228941
13.936,176812,194,228980
13.941,176859,188,229066
13.946,176908,194,229158
13.951,176957,190,229245
13.956,177015,195,229322
13.961,177044,192,229408
13.966,177110,190,229480
13.971,177148,194,229572
13.976,177204,191,229666
13.981,177271,191,229775
13.986,177309,192,229841
13.991,177360,192,229910
13.996,177390,192,229991
14.001,177447,192,230048
14.006,177472,194,230108
14.011,177509,188,230162
14.016,177527,192,230193
14.021,177559,192,230262
14.026,177587,193,230276
14.030,177620,190,230295
14.035,177629,193,230343
14.040,177659,192,230353
14.045,177689,193,230376
14.050,177689,192,230398
14.055,177725,192,230433
14.060,177732,192,230453
14.065,177775,195,230470
14.070,177787,188,230521
14.075,177802,192,230558
14.080,177841,191,230615
14.085,177877,195,230679
14.090,177907,191,230729
14.095,177975,193,230788
14.100,177988,191,230835
14.105,178020,194,230903
14.110,178058,194,230962
14.115,178087,193,231017
14.120,178149,190,231101
14.125,178200,197,231187
14.130,178233,191,231262
14.135,178262,195,231340
14.140,178309,193,231407
14.145,178358,195,231477
14.150,178412,194,231547
14.154,178442,196,231631
14.159,178474,193,231725
14.164,178511,192,231784
14.169,178556,195,231887
14.174,178615,193,231948
14.179,178649,193,232057
14.184,178665,194,232147
14.189,178699,195,232226
14.194,178742,197,232324
14.199,178771,191,232399
14.204,178788,195,232452
14.209,178806,193,232499
14.214,178814,197,232557
14.219,178833,192,232605
14.224,178854,194,232663
14.229,178867,197,232700
14.234,178885,194,232751
14.239,178925,198,232814
14.244,178943,192,232880
14.249,178955,192,232941
14.254,178982,197,233016
14.259,179001,194,233057
14.264,179026,196,233111
14.269,179046,189,233164
14.274,179041,199,233203
14.278,179068,192,233267
14.283,179088,197,233343
14.288,179135,196,233379
14.293,179125,195,233420
14.298,179154,195,233460
14.303,179175,191,233496
14.308,179203,193,233549
14.313,179212,195,233565
14.318,179216,194,233585
14.323,179248,196,233586
14.328,179260,191,233610
14.333,179267,194,233646
14.338,179286,191,233653
14.343,179306,195,233672
14.348,179322,191,233705
14.353,179319,196,233698
14.358,179344,195,233767
14.363,179353,193,233746
14.368,179353,194,233785
14.373,179376,190,233779
14.378,179376,196,233793
14.383,179387,195,233813
14.388,179383,196,233830
14.393,179388,196,233828
14.398,179410,192,233846
14.402,179406,195,233849
14.407,179442,189,233865
14.412,179436,197,233890
14.417,179437,194,233884
14.422,179443,194,233881
14.427,179435,193,233869
14.432,179434,190,233861
14.437,179440,194,233860
14.442,179435,191,233839
14.447,179443,197,233835
14.452,179417,195,233844
14.457,179413,194,233834
14.462,179393,195,233848
14.467,179374,190,233788
14.472,179368,193,233781
14.477,179353,193,233785
14.482,179340,196,233755
14.487,179325,194,233753
14.492,179324,191,233755
14.497,179320,197,233745
14.502,179310,192,233748
14.507,179313,195,233758
14.512,179308,191,233752
14.517,179316,197,233753
14.522,179324,196,233751
14.526,179322,193,233773
14.531,179330,204,233779
14.536,179338,192,233792
14.541,179332,195,233806
14.546,179328,193,233838
14.551,179352,192,233847
14.556,179344,197,233892
14.561,179338,193,233878
14.566,179356,196,233894
14.571,179357,190,233932
14.576,179367,194,233956
14.581,179397,193,233994
14.586,179385,193,234006
14.591,179404,197,234025
14.596,179389,193,234062
14.601,179415,196,234048
14.606,179413,192,234053
14.611,179431,194,234052
14.616,179440,192,234074
14.621,179439,195,234102
14.626,179443,196,234135
14.631,179446,193,234120
14.636,179448,196,234142
14.641,179469,192,234148
14.646,179463,195,234170
14.651,179463,192,234193
14.655,179477,192,234197
14.660,179471,196,234202
14.665,179484,193,234234
14.670,179487,194,234254
14.675,179499,191,234257
14.680,179493,194,234255
14.685,179482,194,234254
14.690,179475,195,234238
14.695,179465,197,234241
14.700,179459,191,234214
14.705,179459,195,234217
14.710,179468,193,234177
14.715,179442,197,234150
14.720,179423,194,234142
14.725,179415,193,234125
14.730,179418,194,234097
14.735,179414,191,234068
14.740,179402,192,234031
14.745,179386,195,234040
14.750,179369,194,234036
14.755,179351,195,234014
14.760,179347,190,233988
14.765,179343,198,233988
14.770,179324,191,233959
14.775,179330,196,233916
14.779,179311,193,233900
14.784,179296,196,233852
14.789,179272,194,233825
14.794,179273,192,233793
14.799,179263,196,233739
14.804,179247,194,233714
14.809,179233,195,233674
14.814,179238,194,233637
14.819,179203,193,233616
14.824,179156,194,233583
14.829,179153,191,233539
14.834,179132,196,233496
14.839,179119,190,233467
14.844,179092,199,233427
14.849,179057,194,233377
14.854,179027,195,233354
14.859,179002,194,233302
14.864,178971,196,233243
14.869,178937,197,233201
14.874,178905,191,233161
14.879,178874,196,233100
14.884,178826,196,233045
14.889,178791,192,232992
14.894,178751,199,232936
14.899,178717,194,232914
14.903,178689,198,232861
14.908,178659,192,232807
14.913,178618,196,232764
14.918,178587,193,232715
14.923,178553,196,232673
14.928,178518,195,232634
14.933,178507,192,232606
14.938,178466,198,232555
14.943,178440,196,232513
14.948,178412,196,232452
14.953,178388,197,232433
14.958,178340,193,232379
14.963,178296,200,232328
14.968,178268,193,232279
14.973,178250,198,232230
14.978,178189,195,232185
14.983,178132,197,232123
14.988,178109,195,232060
14.993,178070,192,232007
14.998,178027,198,231944
15.003,178002,194,231915
15.008,177950,196,231830
15.013,177925,195,231802
15.018,177873,193,231731
15.023,177820,197,231681
15.027,177788,192,231623
15.032,177768,200,231567
15.037,177734,194,231510
15.042,177670,198,231460
15.047,177645,195,231394
15.052,177601,195,231354
15.057,177594,199,231309
15.062,177563,196,231271
15.067,177517,198,231216
15.072,177504,195,231156
15.077,177493,197,231129
15.082,177458,196,231077
15.087,177443,194,231069
15.092,177416,196,231028
15.097,177406,196,231013
15.102,177397,198,230983
15.107,177385,194,230977
15.112,177380,197,230962
15.117,177355,196,230972
15.122,177341,198,230923
15.127,177328,198,230921
15.132,177318,194,230902
15.137,177300,197,230885
15.142,177290,194,230880
15.147,177279,196,230853
15.151,177253,195,230829
15.156,177245,197,230820
15.161,177229,198,230784
15.166,177217,196,230757
15.171,177210,198,230730
15.176,177162,196,230734
15.181,177166,195,230717
15.186,177161,200,230700
15.191,177128,196,230686
15.196,177138,198,230688
15.201,177124,193,230674
15.206,177107,196,230656
15.211,177103,193,230652
15.216,177128,197,230621
15.221,177075,197,230626
15.226,177078,194,230616
15.231,177077,195,230612
15.236,177057,196,230588
15.241,177061,198,230604
15.246,177032,196,230568
15.251,177048,195,230556
15.256,177014,196,230534
15.261,177009,193,230524
15.266,177022,196,230505
15.271,176992,190,230497
15.275,177009,199,230503
15.280,176988,195,230488
15.285,176990,196,230490
15.290,176981,195,230483
15.295,176984,197,230482
15.300,176986,197,230489
15.305,176980,194,230475
15.310,176973,194,230491
15.315,176968,197,230472
15.320,176970,193,230504
15.325,176965,196,230496
15.330,176954,194,230470
15.335,176961,198,230504
15.340,176965,192,230479
15.345,176970,196,230501
15.350,176963,196,230497
15.355,176985,196,230519
15.360,176981,192,230538
15.365,176974,195,230567
15.370,176992,194,230575
15.375,176983,193,230582
15.380,176986,196,230607
15.385,176995,197,230616
15.390,177005,192,230641
15.395,177001,200,230647
15.400,177030,192,230672
15.404,177008,197,230670
15.409,177033,192,230670
15.414,177036,196,230658
15.419,177015,192,230662
15.424,177020,197,230642
15.429,177008,193,230641
15.434,176975,193,230630
15.439,176981,196,230599
15.444,176976,195,230566
15.449,176952,193,230566
15.454,176925,195,230532
15.459,176907,192,230524
15.464,176895,195,230500
15.469,176867,192,230466
15.474,176856,196,230452
15.479,176821,190,230418
15.484,176790,194,230387
15.489,176749,194,230335
15.494,176748,195,230301
15.499,176710,192,230257
15.504,176707,192,230212
15.509,176680,192,230188
15.514,176640,193,230138
15.519,176636,190,230086
15.524,176621,197,230059
15.528,176588,191,230034
15.533,176559,195,230002
15.538,176560,188,229986
15.543,176545,196,229982
15.548,176531,190,229964
15.553,176523,193,229977
15.558,176510,190,229943
15.563,176502,191,229931
15.568,176480,188,229935
15.573,176474,192,229910
15.578,176478,190,229917
15.583,176467,191,229910
15.588,176447,192,229916
15.593,176443,193,229895
15.598,176434,189,229901
15.603,176417,191,229907
15.608,176405,190,229899
15.613,176378,193,229896
15.618,176388,187,229876
15.623,176361,190,229873
15.628,176355,190,229879
15.633,176339,190,229864
15.638,176322,188,229863
15.643,176330,192,229881
15.648,176314,190,229891
15.652,176325,187,229911
15.657,176316,189,229908
15.662,176322,190,229922
15.667,176300,186,229939
15.672,176327,192,229978
15.677,176329,188,229994
15.682,176341,191,230003
15.687,176344,187,230048
15.692,176341,192,230033
15.697,176350,189,230086
15.702,176361,191,230115
15.707,176374,189,230125
15.712,176380,188,230126
15.717,176377,187,230131
15.722,176376,190,230118
15.727,176388,188,230127
15.732,176376,188,230150
15.737,176384,185,230166
15.742,176381,190,230183
15.747,176395,187,230174
15.752,176398,190,230186
15.757,176388,188,230202
15.762,176406,187,230208
15.767,176409,187,230236
15.772,176423,189,230282
15.776,176440,189,230306
15.781,176441,186,230328
15.786,176452,186,230361
15.791,176479,189,230395
15.796,176477,188,230426
15.801,176479,185,230455
15.806,176506,188,230454
15.811,176510,188,230494
15.816,176533,186,230529
15.821,176545,184,230547
15.826,176541,189,230561
15.831,176551,185,230601
15.836,176568,186,230634
15.841,176590,188,230666
15.846,176606,188,230692
15.851,176623,183,230735
15.856,176630,188,230781
15.861,176640,186,230802
15.866,176631,185,230837
15.871,176648,187,230858
15.876,176676,185,230884
15.881,176681,183,230888
15.886,176675,189,230934
15.891,176708,185,230962
15.896,176696,186,230965
15.900,176715,183,231012
15.905,176738,184,231035
15.910,176740,185,231079
15.915,176773,187,231101
15.920,176794,183,231130
15.925,176802,184,231172
15.930,176837,185,231194
15.935,176846,185,231262
15.940,176861,182,231286
15.945,176865,185,231333
15.950,176899,185,231317
15.955,176894,185,231367
15.960,176923,181,231428
15.965,176939,188,231434
15.970,176975,184,231452
15.975,176989,186,231515
15.980,177016,180,231541
15.985,177029,187,231580
15.990,177040,183,231629
15.995,177081,188,231637
16.000,177102,180,231670
16.005,177135,186,231723
16.010,177131,181,231761
16.015,177165,183,231789
16.020,177220,184,231832
16.024,177222,186,231872
16.029,177260,180,231902
16.034,177277,188,231949
16.039,177305,182,231991
16.044,177288,185,232065
16.049,177355,183,232080
16.054,177383,186,232127
16.059,177401,181,232135
16.064,177431,183,232175
16.069,177437,183,232196
16.074,177450,184,232199
16.079,177450,180,232222
16.084,177464,186,232237
16.089,177482,182,232259
16.094,177496,186,232272
16.099,177495,181,232278
16.104,177496,184,232288
16.109,177506,183,232328
16.114,177500,185,232334
16.119,177511,180,232352
16.124,177525,187,232370
16.129,177524,182,232374
16.134,177519,183,232384
16.139,177517,179,232421
16.144,177523,183,232426
16.149,177519,184,232435
16.153,177540,185,232436
16.158,177554,180,232472
16.163,177555,183,232506
16.168,177572,182,232508
16.173,177601,184,232554
16.178,177603,179,232592
16.183,177627,186,232613
16.188,177641,184,232684
16.193,177635,185,232642
16.198,177665,181,232687
16.203,177680,182,232703
16.208,177687,179,232741
16.213,177709,184,232760
16.218,177715,180,232783
16.223,177731,182,232814
16.228,177766,183,232830
16.233,177758,185,232846
16.238,177801,183,232897
16.243,177801,184,232911
16.248,177834,178,232947
16.253,177840,184,232981
16.258,177864,180,233010
16.263,177865,186,233047
16.268,177883,182,233086
16.273,177904,181,233112
16.277,177914,183,233144
16.282,177950,182,233168
16.287,177973,183,233208
16.292,178002,184,233227
16.297,178023,181,233279
16.302,178037,182,233328
16.307,178050,183,233344
16.312,178073,182,233366
16.317,178093,179,233401
16.322,178119,184,233445
16.327,178140,181,233451
16.332,178154,180,233486
16.337,178171,179,233519
16.342,178200,182,233539
16.347,178195,180,233562
16.352,178204,183,233605
16.357,178217,181,233604
16.362,178235,181,233624
16.367,178223,184,233622
16.372,178222,183,233646
16.377,178228,180,233646
16.382,178221,181,233648
16.387,178239,181,233684
16.392,178235,185,233674
16.397,178237,184,233696
16.401,178236,181,233711
16.406,178236,181,233701
16.411,178234,179,233724
16.416,178236,184,233725
16.421,178243,182,233736
16.426,178262,182,233746
16.431,178260,180,233748
16.436,178259,181,233765
16.441,178256,185,233779
16.446,178269,183,233819
16.451,178273,181,233831
16.456,178269,185,233848
16.461,178281,183,233877
16.466,178287,183,233877
16.471,178285,181,233875
16.476,178286,182,233916
16.481,178304,184,233914
16.486,178323,184,233950
16.491,178322,181,233967
16.496,178315,182,233987
16.501,178331,181,234007
16.506,178315,186,234016
16.511,178343,184,234017
16.516,178328,184,234015
16.521,178318,182,234047
16.525,178320,183,234063
16.530,178309,182,234067
16.535,178309,184,234058
16.540,178317,180,234075
16.545,178331,183,234095
16.550,178312,179,234104
16.555,178316,187,234107
16.560,178330,183,234126
16.565,178322,185,234130
16.570,178338,182,234174
16.575,178353,183,234166
16.580,178356,184,234198
16.585,178362,185,234219
16.590,178369,183,234234
16.595,178383,185,234267
16.600,178382,182,234296
16.605,178397,184,234327
16.610,178408,180,234343
16.615,178418,183,234353
16.620,178430,179,234401
16.625,178424,187,234429
16.630,178458,182,234451
16.635,178478,185,234482
16.640,178478,182,234505
16.645,178479,184,234541
16.649,178491,181,234553
16.654,178502,183,234575
16.659,178524,184,234608
16.664,178537,187,234632
16.669,178534,182,234631
16.674,178524,185,234608
16.679,178531,183,234631
16.684,178537,187,234615
16.689,178532,183,234589
16.694,178527,185,234553
16.699,178515,182,234554
16.704,178511,185,234506
16.709,178486,182,234507
16.714,178474,184,234489
16.719,178460,180,234490
16.724,178451,184,234505
16.729,178451,183,234476
16.734,178449,186,234501
16.739,178464,182,234530
16.744,178471,185,234551
16.749,178468,181,234549
16.754,178465,184,234579
16.759,178505,181,234642
16.764,178492,183,234662
16.769,178517,184,234695
16.773,178527,184,234740
16.778,178532,183,234780
16.783,178544,186,234782
16.788,178547,181,234833
16.793,178548,185,234892
16.798,178573,180,234981
16.803,178590,184,235078
16.808,178622,185,235172
16.813,178635,187,235269
16.818,178653,182,235394
16.823,178693,188,235514
16.828,178720,182,235635
16.833,178739,184,235797
16.838,178764,181,235953
16.843,178811,189,236101
16.848,178857,184,236232
16.853,178881,188,236414
16.858,178923,183,236555
16.863,178968,187,236671
16.868,178987,182,236803
16.873,179016,188,236946
16.878,179081,184,237099
16.883,179121,187,237275
16.888,179193,184,237412
16.893,179234,185,237561
16.898,179280,183,237717
16.902,179311,185,237702
16.907,179346,187,237813
16.912,179368,188,237915
16.917,179409,184,238067
16.922,179452,189,238184
16.927,179503,185,238352
16.932,179537,187,238519
16.937,179615,184,238709
16.942,179657,186,238908
16.947,179715,183,239110
16.952,179783,189,239292
16.957,179830,186,239485
16.962,179880,187,239671
16.967,179940,185,239869
16.972,179987,186,240073
16.977,180018,183,240280
16.982,180094,190,240493
16.987,180131,186,240739
16.992,180182,189,240946
16.997,180243,186,241216
17.002,180326,187,241471
17.007,180388,185,241748
17.012,180454,185,242010
17.017,180534,185,242276
17.022,180614,186,242597
17.026,180702,185,242845
17.031,180767,186,243165
17.036,180883,189,243532
17.041,180942,190,243788
17.046,181015,187,243999
17.051,181080,188,244222
17.056,181114,186,244411
17.061,181185,187,244617
17.066,181219,188,244808
17.071,181280,187,244968
17.076,181327,187,245135
17.081,181393,187,245274
17.086,181412,187,245425
17.091,181477,186,245579
17.096,181517,185,245712
17.101,181554,186,245831
17.106,181593,189,245950
17.111,181615,189,246072
17.116,181640,185,246148
17.121,181663,190,246258
17.126,181706,187,246359
17.131,181715,185,246433
17.136,181717,190,246509
17.141,181745,187,246589
17.146,181772,187,246630
17.150,181771,188,246709
17.155,181768,189,246774
17.160,181799,186,246825
17.165,181817,189,246898
17.170,181832,186,246959
17.175,181840,190,247039
17.180,181867,188,247113
17.185,181864,187,247147
17.190,181878,189,247209
17.195,181904,188,247246
17.200,181925,185,247292
17.205,181943,190,247347
17.210,181980,184,247420
17.215,182008,187,247460
17.220,182012,188,247494
17.225,182054,189,247505
17.230,182069,185,247557
17.235,182052,190,247588
17.240,182094,187,247628
17.245,182110,186,247687
17.250,182128,188,247731
17.255,182156,188,247774
17.260,182174,185,247810
17.265,182197,188,247851
17.270,182185,188,247863
17.274,182200,190,247916
17.279,182175,185,247913
17.284,182191,192,247892
17.289,182162,187,247904
17.294,182157,189,247910
17.299,182135,185,247926
17.304,182145,190,247949
17.309,182138,188,247971
17.314,182131,187,247981
17.319,182132,189,248015
17.324,182146,190,248059
17.329,182160,186,248137
17.334,182167,193,248225
17.339,182192,186,248349
17.344,182247,189,248464
17.349,182250,188,248574
17.354,182290,191,248684
17.359,182308,188,248803
17.364,182340,190,248937
17.369,182384,186,249082
17.374,182443,192,249267
17.379,182476,188,249421
17.384,182531,189,249590
17.389,182585,190,249763
17.394,182656,191,249898
17.398,182684,186,250054
17.403,182715,194,250212
17.408,182757,184,250346
17.413,182800,192,250521
17.418,182841,186,250675
17.423,182903,191,250838
17.428,182967,189,250979
17.433,182998,191,251144
17.438,183053,188,251285
17.443,183082,188,251413
17.448,183102,189,251549
17.453,183161,189,251695
17.458,183194,189,251813
17.463,183223,191,251928
17.468,183262,186,252047
17.473,183293,193,252146
17.478,183316,186,252219
17.483,183353,190,252309
17.488,183384,189,252376
17.493,183405,192,252487
17.498,183435,187,252591
17.503,183488,188,252725
17.508,183533,187,252807
17.513,183565,187,252901
17.518,183564,189,252982
17.523,183602,190,253072
17.527,183657,187,253191
17.532,183674,192,253295
17.537,183734,188,253416
17.542,183775,190,253498
17.547,183810,189,253576
17.552,183823,192,253636
17.557,183831,189,253742
17.562,183835,191,253797
17.567,183853,187,253864
17.572,183867,193,253927
17.577,183866,190,254014
17.582,183892,189,253920
17.587,183884,186,253962
17.592,183895,191,254040
17.597,183894,189,254132
17.602,183939,188,254233
17.607,183968,186,254339
17.612,183990,193,254450
17.617,184038,188,254584
17.622,184068,190,254703
17.627,184096,187,254803
17.632,184153,192,254916
17.637,184174,190,255001
17.642,184204,188,255133
17.647,184244,188,255236
17.651,184321,188,255323
17.656,184331,190,255418
17.661,184348,190,255485
17.666,184413,187,255563
17.671,184418,189,255657
17.676,184427,190,255719
17.681,184444,190,255767
17.686,184434,187,255799
17.691,184467,193,255829
17.696,184467,190,255879
17.701,184467,193,255886
17.706,184472,191,255891
17.711,184478,189,255905
17.716,184478,188,255897
17.721,184465,191,255918
17.726,184503,191,255945
17.731,184476,189,255943
17.736,184469,188,255919
17.741,184474,192,255939
17.746,184474,190,255935
17.751,184461,192,255941
17.756,184487,190,255957
17.761,184469,190,255942
17.766,184470,189,255952
17.771,184490,188,255978
17.775,184496,193,255973
17.780,184484,189,255985
17.785,184500,190,255992
17.790,184504,186,255994
17.795,184503,193,255990
17.800,184504,188,256031
17.805,184509,191,256014
17.810,184507,189,256044
17.815,184544,188,256043
17.820,184532,192,256052
17.825,184554,191,256078
17.830,184536,188,256082
17.835,184538,189,256105
17.840,184562,190,256124
17.845,184571,191,256125
17.850,184562,188,256154
17.855,184563,190,256164
17.860,184554,190,256163
17.865,184557,192,256165
17.870,184512,188,256151
17.875,184499,193,256151
17.880,184480,190,256147
17.885,184464,190,256127
17.890,184434,187,256115
17.895,184429,189,256129
17.899,184389,185,256128
17.904,184365,192,256139
17.909,184352,188,256165
17.914,184334,190,256128
17.919,184292,189,256131
17.924,184285,191,256097
17.929,184264,185,256099
17.934,184251,193,256092
17.939,184230,188,256110
17.944,184234,192,256107
17.949,184232,191,256128
17.954,184208,190,256130
17.959,184207,188,256119
17.964,184186,189,256134
17.969,184183,190,256117
17.974,184148,191,256088
17.979,184130,186,256075
17.984,184110,190,256046
17.989,184065,187,256024
17.994,184051,190,255998
17.999,184019,186,255963
18.004,183988,193,255935
18.009,183968,188,255952
18.014,183969,189,255936
18.019,183946,190,255918
18.023,183926,189,255915
18.028,183912,187,255916
18.033,183915,192,255906
18.038,183915,188,255914
18.043,183896,193,255901
18.048,183880,187,255905
18.053,183858,190,255911
18.058,183847,188,255886
18.063,183859,191,255895
18.068,183829,185,255906
18.073,183828,193,255910
18.078,183823,188,255896
18.083,183794,190,255902
18.088,183767,191,255882
18.093,183753,188,255853
18.098,183774,191,255867
18.103,183737,192,255861
18.108,183723,187,255851
18.113,183693,190,255825
18.118,183677,190,255805
18.123,183672,192,255807
18.128,183659,186,255787
18.133,183631,190,255782
18.138,183642,190,255814
18.143,183627,191,255786
18.147,183627,187,255767
18.152,183604,188,255797
18.157,183607,190,255819
18.162,183620,190,255848
18.167,183618,187,255866
18.172,183626,189,255856
18.177,183613,189,255906
18.182,183620,192,255917
18.187,183596,185,255933
18.192,183628,191,255939
18.197,183612,186,255937
18.202,183606,189,255944
18.207,183606,189,255961
18.212,183606,191,255964
18.217,183617,188,255996
18.222,183598,188,255986
18.227,183611,190,256015
18.232,183619,190,256043
18.237,183607,190,256080
18.242,183639,190,256118
18.247,183634,186,256156
18.252,183640,193,256160
18.257,183657,188,256218
18.262,183647,191,256217
18.267,183659,186,256232
18.271,183672,188,256245
18.276,183668,190,256270
18.281,183665,190,256246
18.286,183661,190,256265
18.291,183642,188,256262
18.296,183658,187,256265
18.301,183665,191,256280
18.306,183659,189,256266
18.311,183670,189,256305
18.316,183681,191,256294
18.321,183660,191,256316
18.326,183675,186,256293
18.331,183665,187,256341
18.336,183693,187,256318
18.341,183680,188,256338
18.346,183696,190,256316
18.351,183688,189,256323
18.356,183692,188,256350
18.361,183683,185,256340
18.366,183683,191,256341
18.371,183691,189,256343
18.376,183698,189,256336
18.381,183689,188,256336
18.386,183702,187,256350
18.391,183690,186,256348
18.396,183720,189,256343
18.400,183720,189,256367
18.405,183712,187,256387
18.410,183744,186,256392
18.415,183753,192,256407
18.420,183748,188,256401
18.425,183747,189,256418
18.430,183738,187,256450
18.435,183719,188,256404
18.440,183713,190,256386
18.445,183703,190,256395
18.450,183690,188,256379
18.455,183659,191,256349
18.460,183653,189,256356
18.465,183652,188,256359
18.470,183654,187,256346
18.475,183645,191,256389
18.480,183678,186,256405
18.485,183680,192,256449
18.490,183664,187,256442
18.495,183666,189,256455
18.500,183674,184,256469
18.505,183696,192,256484
18.510,183682,187,256521
18.515,183692,188,256550
18.520,183710,190,256534
18.524,183724,190,256584
18.529,183719,189,256568
18.534,183734,189,256594
18.539,183723,187,256608
18.544,183733,188,256580
18.549,183750,184,256619
18.554,183734,191,256641
18.559,183752,187,256633
18.564,183755,190,256647
18.569,183752,185,256680
18.574,183761,188,256683
18.579,183768,186,256668
18.584,183770,188,256664
18.589,183763,185,256665
18.594,183776,190,256675
18.599,183765,187,256679
18.604,183779,188,256684
18.609,183768,185,256668
18.614,183800,187,256683
18.619,183792,187,256699
18.624,183814,190,256672
18.629,183810,187,256683
18.634,183813,190,256692
18.639,183826,185,256696
18.644,183817,189,256684
18.648,183825,184,256697
18.653,183850,191,256705
18.658,183841,186,256698
18.663,183867,188,256697
18.668,183867,184,256707
18.673,183874,186,256738
18.678,183897,187,256727
18.683,183903,189,256717
18.688,183886,184,256708
18.693,183896,187,256705
18.698,183892,186,256680
18.703,183899,190,256668
18.708,183872,185,256638
18.713,183901,187,256637
18.718,183913,183,256674
18.723,183898,186,256641
18.728,183884,185,256627
18.733,183900,187,256620
18.738,183895,183,256627
18.743,183899,190,256576
18.748,183886,185,256578
18.753,183901,188,256584
18.758,183898,183,256583
18.763,183920,187,256571
18.768,183902,185,256575
18.772,183902,186,256581
18.777,183939,187,256595
18.782,183938,189,256601
18.787,183947,185,256608
18.792,183970,186,256632
18.797,183984,188,256663
18.802,183992,189,256680
18.807,184016,185,256713
18.812,184037,187,256757
18.817,184038,187,256751
18.822,184067,188,256804
18.827,184091,182,256816
18.832,184103,190,256849
18.837,184127,185,256864
18.842,184136,188,256885
18.847,184150,184,256944
18.852,184171,186,256979
18.857,184183,183,257013
18.862,184219,189,257018
18.867,184231,186,257064
18.872,184250,190,257095
18.877,184274,186,257130
18.882,184288,188,257136
18.887,184300,184,257180
18.892,184321,186,257193
18.896,184326,187,257193
18.901,184344,188,257227
18.906,184368,184,257205
18.911,184364,186,257227
18.916,184369,188,257245
18.921,184388,185,257263
18.926,184393,188,257282
18.931,184403,187,257294
18.936,184414,186,257322
18.941,184461,186,257312
18.946,184460,185,257359
18.951,184496,186,257380
18.956,184498,183,257401
18.961,184516,190,257435
18.966,184540,187,257433
18.971,184553,186,257463
18.976,184550,185,257456
18.981,184570,185,257482
18.986,184559,185,257469
18.991,184578,184,257471
18.996,184590,189,257475
19.001,184596,188,257479
19.006,184605,188,257505
19.011,184608,188,257488
19.016,184610,179,257523
19.021,184613,186,257541
19.025,184599,184,257529
19.030,184607,189,257520
19.035,184601,188,257523
19.040,184603,187,257532
19.045,184593,187,257497
19.050,184593,187,257525
19.055,184603,187,257540
19.060,184602,186,257531
19.065,184626,189,257513
19.070,184618,186,257532
19.075,184627,186,257543
19.080,184623,186,257549
19.085,184620,185,257562
19.090,184649,185,257578
19.095,184640,184,257568
19.100,184672,184,257602
19.105,184680,190,257605
19.110,184685,187,257626
19.115,184699,186,257624
19.120,184688,183,257651
19.125,184712,185,257660
19.130,184702,188,257660
19.135,184707,189,257661
19.140,184701,187,257675
19.145,184696,188,257661
19.149,184706,187,257639
19.154,184692,187,257671
19.159,184704,186,257672
19.164,184694,189,257644
19.169,184700,186,257626
19.174,184694,188,257612
19.179,184713,184,257631
19.184,184707,186,257630
19.189,184719,182,257634
19.194,184730,189,257660
19.199,184760,186,257679
19.204,184772,188,257683
19.209,184786,184,257713
19.214,184797,188,257734
19.219,184810,185,257755
19.224,184834,186,257784
19.229,184830,183,257786
19.234,184847,186,257782
19.239,184861,188,257820
19.244,184863,190,257811
19.249,184882,186,257832
19.254,184902,189,257835
19.259,184885,186,257827
19.264,184894,186,257835
19.269,184888,187,257843
19.273,184900,189,257830
19.278,184885,186,257838
19.283,184886,187,257798
19.288,184878,185,257813
19.293,184884,186,257816
19.298,184867,183,257782
19.303,184870,186,257790
19.308,184857,183,257753
19.313,184849,187,257760
19.318,184858,181,257766
19.323,184855,186,257769
19.328,184865,186,257766
19.333,184853,190,257756
19.338,184852,187,257749
19.343,184843,189,257741
19.348,184856,185,257729
19.353,184862,187,257720
19.358,184854,187,257742
19.363,184862,187,257706
19.368,184851,182,257726
19.373,184816,186,257701
19.378,184818,182,257682
19.383,184821,192,257681
19.388,184809,186,257664
19.393,184811,190,257653
19.397,184802,186,257645
19.402,184796,189,257632
19.407,184786,185,257612
19.412,184772,187,257592
19.417,184769,185,257596
19.422,184751,187,257550
19.427,184750,183,257542
19.432,184743,187,257512
19.437,184724,187,257495
19.442,184730,190,257467
19.447,184728,185,257424
19.452,184707,189,257381
19.457,184705,186,257329
19.462,184685,191,257275
19.467,184660,187,257235
19.472,184653,190,257215
19.477,184634,187,257173
19.482,184637,189,257136
19.487,184637,186,257115
19.492,184651,190,257091
19.497,184611,186,257059
19.502,184607,190,257059
19.507,184635,187,257050
19.512,184634,191,257036
19.517,184627,186,257019
19.521,184623,190,256997
19.526,184628,185,256984
19.531,184635,188,256987
19.536,184640,185,257016
19.541,184669,187,257017
19.546,184681,185,257027
19.551,184715,185,257011
19.556,184697,185,257005
19.561,184681,188,257009
19.566,184697,189,256998
19.571,184710,192,257012
19.576,184718,188,257028
19.581,184723,190,257040
19.586,184727,185,257052
19.591,184720,189,257069
19.596,184711,185,257044
19.601,184721,189,257066
19.606,184729,189,257090
19.611,184746,189,257124
19.616,184764,188,257135
19.621,184751,188,257158
19.626,184765,186,257203
19.631,184792,188,257245
19.636,184821,190,257293
19.641,184836,192,257346
19.645,184858,187,257386
19.650,184889,189,257478
19.655,184940,189,257530
19.660,184992,191,257628
19.665,185026,187,257706
19.670,185066,187,257766
19.675,185077,191,257813
19.680,185113,191,257881
19.685,185127,189,257935
19.690,185152,189,257993
19.695,185179,187,258043
19.700,185216,190,258123
19.705,185224,188,258155
19.710,185244,189,258213
19.715,185269,186,258280
19.720,185287,189,258346
19.725,185325,187,258441
19.730,185386,187,258535
19.735,185436,190,258630
19.740,185472,190,258693
19.745,185516,189,258800
19.750,185586,188,258893
19.755,185623,188,258997
19.760,185683,188,259120
19.765,185722,187,259225
19.770,185782,187,259371
19.774,185834,185,259480
19.779,185869,191,259601
19.784,185892,189,259674
19.789,185956,190,259795
19.794,185996,191,259902
19.799,186064,188,260051
19.804,186120,188,260165
19.809,186162,186,260268
19.814,186199,188,260384
19.819,186250,186,260497
19.824,186295,187,260569
19.829,186307,185,260662
19.834,186340,190,260729
19.839,186352,189,260836
19.844,186421,190,260922
19.849,186437,189,261000
19.854,186434,189,261088
19.859,186462,188,261165
19.864,186487,189,261272
19.869,186491,186,261362
19.874,186490,188,261428
19.879,186508,185,261517
19.884,186510,188,261615
19.889,186510,184,261679
19.894,186503,188,261725
19.898,186502,187,261790
19.903,186503,186,261865
19.908,186506,185,261908
19.913,186520,190,261960
19.918,186535,189,262005
19.923,186532,191,262059
19.928,186543,188,262126
19.933,186544,190,262170
19.938,186541,187,262181
19.943,186545,192,262200
19.948,186547,187,262252
19.953,186537,191,262248
19.958,186531,188,262279
19.963,186502,190,262270
19.968,186472,188,262235
19.973,186456,189,262228
19.978,186455,187,262215
19.983,186411,189,262175
19.988,186368,186,262157
19.993,186369,191,262127
19.998,186349,186,262092
20.003,186314,190,262054
20.008,186306,185,262029
20.013,186298,189,262034
20.018,186274,185,262004
20.022,186283,189,261978
20.027,186259,185,261996
20.032,186262,192,261979
20.037,186249,189,261963
20.042,186239,187,261962
20.047,186251,185,261925
20.052,186236,192,261899
20.057,186218,188,261925
20.062,186230,191,261901
20.067,186215,186,261891
20.072,186202,190,261875
20.077,186187,185,261858
20.082,186193,189,261873
20.087,186207,182,261854
20.092,186217,190,261866
20.097,186219,186,261889
20.102,186219,189,261916
20.107,186233,186,261914
20.112,186242,188,261926
20.117,186214,185,261937
20.122,186223,189,261945
20.127,186228,184,261967
20.132,186241,189,261956
20.137,186235,185,261996
20.142,186236,189,261985
20.146,186229,185,262023
20.151,186218,188,262034
20.156,186215,185,262058
20.161,186197,187,262053
20.166,186191,189,262045
20.171,186175,190,262079
20.176,186161,187,262106
20.181,186158,189,262107
20.186,186177,184,262177
20.191,186175,189,262159
20.196,186152,184,262193
20.201,186163,188,262197
20.206,186150,187,262199
20.211,186156,191,262208
20.216,186148,187,262247
20.221,186179,190,262285
20.226,186184,186,262301
20.231,186162,187,262301
20.236,186162,189,262317
20.241,186182,189,262355
20.246,186172,185,262372
20.251,186202,189,262416
20.256,186191,183,262448
20.261,186222,192,262508
20.266,186236,186,262556
20.270,186265,190,262638
20.275,186276,185,262694
20.280,186293,189,262743
20.285,186304,187,262812
20.290,186319,187,262901
20.295,186331,185,262918
20.300,186359,187,262999
20.305,186386,189,263058
20.310,186395,191,263132
20.315,186428,187,263189
20.320,186429,190,263249
20.325,186450,185,263315
20.330,186465,192,263354
20.335,186473,185,263421
20.340,186468,188,263433
20.345,186466,189,263497
20.350,186480,189,263539
20.355,186496,188,263565
20.360,186503,188,263613
20.365,186519,186,263643
20.370,186521,187,263712
20.375,186547,191,263743
20.380,186583,189,263834
20.385,186601,185,263925
20.390,186625,192,263995
20.394,186656,188,264061
20.399,186674,191,264093
20.404,186688,188,264178
20.409,186708,190,264270
20.414,186715,188,264323
20.419,186755,188,264376
20.424,186785,187,264494
20.429,186809,189,264561
20.434,186830,188,264615
20.439,186882,189,264714
20.444,186897,187,264788
20.449,186930,189,264858
20.454,186963,186,264935
20.459,186971,188,265016
20.464,187000,186,265064
20.469,187024,193,265140
20.474,187041,192,265215
20.479,187099,190,265319
20.484,187130,190,265407
20.489,187151,189,265470
20.494,187186,189,265543
20.499,187237,190,265623
20.504,187260,189,265694
20.509,187288,190,265779
20.514,187316,188,265853
20.519,187347,189,265943
20.523,187395,191,266016
20.528,187428,189,266101
20.533,187472,189,266208
20.538,187504,189,266277
20.543,187545,190,266368
20.548,187562,187,266479
20.553,187632,189,266562
20.558,187650,191,266652
20.563,187673,193,266749
20.568,187739,191,266833
20.573,187765,192,266906
20.578,187803,189,266998
20.583,187858,188,267097
20.588,187883,189,267171
20.593,187907,193,267258
20.598,187934,192,267316
20.603,187949,193,267378
20.608,187999,189,267468
20.613,188038,192,267535
20.618,188088,188,267626
20.623,188152,188,267722
20.628,188172,191,267808
20.633,188199,192,267872
20.638,188233,190,267944
20.643,188284,191,268059
20.647,188320,190,268140
20.652,188428,191,268385
20.657,188498,189,268480
20.662,188535,192,268588
20.667,188575,189,268681
20.672,188634,194,268770
20.677,188637,191,268842
20.682,188664,194,268943
20.687,188701,191,269075
20.692,188720,193,269129
20.697,188740,190,269187
20.702,188735,192,269271
20.707,188775,189,269327
20.712,188767,191,269360
20.717,188781,190,269391
20.722,188777,194,269439
20.727,188760,190,269468
20.732,188756,193,269470
20.737,188744,189,269490
20.742,188734,193,269493
20.747,188722,189,269505
20.752,188709,193,269522
20.757,188697,189,269556
20.762,188687,191,269547
20.767,188696,188,269551
20.771,188672,192,269567
20.776,188673,190,269562
20.781,188647,193,269569
20.786,188663,188,269599
20.791,188669,192,269591
20.796,188657,187,269590
20.801,188661,191,269600
20.806,188659,187,269624
20.811,188650,191,269623
20.816,188656,187,269641
20.821,188663,192,269659
20.826,188651,189,269638
20.831,188640,190,269622
20.836,188628,188,269599
20.841,188602,191,269590
20.846,188599,186,269581
20.851,188580,191,269545
20.856,188586,185,269514
20.861,188546,195,269506
20.866,188550,191,269460
20.871,188516,193,269445
20.876,188487,188,269414
20.881,188468,192,269390
20.886,188457,188,269350
20.891,188438,190,269330
20.895,188455,187,269329
20.900,188433,190,269309
20.905,188436,186,269308
20.910,188425,190,269279
20.915,188409,186,269236
20.920,188402,191,269210
20.925,188389,184,269177
20.930,188376,194,269136
20.935,188350,189,269087
20.940,188331,193,269036
20.945,188292,188,268961
20.950,188267,191,268889
20.955,188225,187,268832
20.960,188230,189,268808
20.965,188197,189,268797
20.970,188207,189,268744
20.975,188181,184,268707
20.980,188174,194,268716
20.985,188179,187,268687
20.990,188159,192,268668
20.995,188138,187,268663
21.000,188127,191,268652
21.005,188155,187,268656
21.010,188152,189,268644
21.015,188161,188,268670
21.019,188169,189,268696
21.024,188202,186,268741
21.029,188206,188,268794
21.034,188229,190,268818
21.039,188266,192,268837
21.044,188285,187,268883
21.049,188324,190,268918
21.054,188334,185,268970
21.059,188368,190,269038
21.064,188379,187,269038
21.069,188398,189,269055
21.074,188416,186,269107
21.079,188469,188,269152
21.084,188489,185,269201
21.089,188544,187,269225
21.094,188573,190,269280
21.099,188592,192,269332
21.104,188614,189,269343
21.109,188637,192,269390
21.114,188697,187,269406
21.119,188718,190,269460
21.124,188740,185,269521
21.129,188795,189,269553
21.134,188829,186,269636
21.139,188870,192,269700
21.143,188923,190,269787
21.148,188980,189,269856
21.153,189011,189,269929
21.158,189050,189,269993
21.163,189097,190,270052
21.168,189138,192,270125
21.173,189153,189,270174
21.178,189198,192,270229
21.183,189239,189,270282
21.188,189265,192,270328
21.193,189291,190,270375
21.198,189326,191,270434
21.203,189344,189,270463
21.208,189361,191,270482
21.213,189376,191,270513
21.218,189405,190,270492
21.223,189395,190,270502
21.228,189401,190,270484
21.233,189401,189,270469
21.238,189405,190,270472
21.243,189404,187,270439
21.248,189397,189,270412
21.253,189413,187,270396
21.258,189384,190,270369
21.263,189371,189,270344
21.268,189366,188,270294
21.272,189345,188,270268
21.277,189321,186,270224
21.282,189316,192,270167
21.287,189297,190,270143
21.292,189279,190,270104
21.297,189242,190,270051
21.302,189208,189,269994
21.307,189179,187,269932
21.312,189136,187,269898
21.317,189132,189,269864
21.322,189087,188,269818
21.327,189088,186,269747
21.332,189044,187,269695
21.337,189018,190,269651
21.342,188993,191,269617
21.347,188972,188,269590
21.352,188982,190,269571
21.357,188963,191,269565
21.362,188966,190,269530
21.367,188952,190,269506
21.372,188931,189,269464
21.377,188922,189,269416
21.382,188919,188,269389
21.387,188928,187,269376
21.392,188915,188,269397
21.396,188930,190,269365
21.401,188935,189,269384
21.406,188929,184,269355
21.411,188936,192,269337
21.416,188942,188,269331
21.421,188967,189,269309
21.426,188975,187,269363
21.431,189000,187,269397
21.436,189019,186,269389
21.441,189023,187,269371
21.446,189031,190,269369
21.451,189031,187,269378
21.456,189026,185,269358
21.461,189041,192,269343
21.466,189037,187,269333
21.471,189033,191,269308
21.476,189039,186,269307
21.481,189013,189,269225
21.486,188995,185,269191
21.491,188979,187,269130
21.496,188951,189,269082
21.501,188953,187,269069
21.506,188939,186,269006
21.511,188928,187,268987
21.516,188920,189,268979
21.520,188901,191,268917
21.525,188905,187,268917
21.530,188889,190,268910
21.535,188883,185,268888
21.540,188870,188,268864
21.545,188865,184,268861
21.550,188863,191,268795
21.555,188844,188,268772
21.560,188804,190,268745
21.565,188812,187,268709
21.570,188786,189,268667
21.575,188773,187,268638
21.580,188770,190,268622
21.585,188766,186,268615
21.590,188743,189,268589
21.595,188731,184,268595
21.600,188739,191,268561
21.605,188725,186,268553
21.610,188722,190,268530
21.615,188699,187,268511
21.620,188716,190,268497
21.625,188700,187,268522
21.630,188698,188,268483
21.635,188708,187,268491
21.640,188720,189,268520
21.644,188728,186,268518
21.649,188722,192,268537
21.654,188730,187,268529
21.659,188738,191,268558
21.664,188732,185,268544
21.669,188735,190,268531
21.674,188745,185,268563
21.679,188760,188,268583
21.684,188758,184,268568
21.689,188779,191,268562
21.694,188769,185,268575
21.699,188783,190,268591
21.704,188778,187,268575
21.709,188788,189,268614
21.714,188815,185,268627
21.719,188833,188,268635
21.724,188853,188,268651
21.729,188830,192,268652
21.734,188844,186,268640
21.739,188837,190,268623
21.744,188860,188,268607
21.749,188859,191,268639
21.754,188863,188,268606
21.759,188850,189,268587
21.764,188863,186,268580
21.768,188869,188,268560
21.773,188877,185,268545
21.778,188884,188,268540
21.783,188887,183,268499
21.788,188886,192,268502
21.793,188895,184,268479
21.798,188900,189,268464
21.803,188908,183,268433
21.808,188898,191,268391
21.813,188898,188,268381
21.818,188920,189,268348
21.823,188902,187,268304
21.828,188908,187,268262
21.833,188914,184,268235
21.838,188904,190,268190
21.843,188896,188,268151
21.848,188882,189,268138
21.853,188879,184,268078
21.858,188867,191,268037
21.863,188856,186,267983
21.868,188847,188,267950
21.873,188821,188,267896
21.878,188782,189,267826
21.883,188763,186,267772
21.888,188744,186,267715
21.892,188724,186,267682
21.897,188704,185,267636
21.902,188692,188,267578
21.907,188670,187,267558
21.912,188651,186,267514
21.917,188644,190,267494
21.922,188628,186,267444
21.927,188612,187,267398
21.932,188612,188,267375
21.937,188631,192,267406
21.942,188604,188,267355
21.947,188602,188,267326
21.952,188592,186,267316
21.957,188601,191,267262
21.962,188612,188,267251
21.967,188593,186,267250
21.972,188579,186,267235
21.977,188600,189,267206
21.982,188599,188,267206
21.987,188637,191,267205
21.992,188602,185,267169
21.997,188612,191,267148
22.002,188599,187,267166
22.007,188614,187,267125
22.012,188634,185,267125
22.017,188640,189,267117
22.021,188644,188,267100
22.026,188637,185,267109
22.031,188646,191,267089
22.036,188645,184,267084
22.041,188665,189,267053
22.046,188653,186,267065
22.051,188672,187,267055
22.056,188673,185,267041
22.061,188694,189,267025
22.066,188685,187,267006
22.071,188700,185,267012
22.076,188694,189,267007
22.081,188711,188,267021
22.086,188718,189,266990
22.091,188718,189,267006
22.096,188720,185,267005
22.101,188725,186,266987
22.106,188738,186,266974
22.111,188755,188,266967
22.116,188754,184,266960
22.121,188755,191,266971
22.126,188764,186,266941
22.131,188783,188,266945
22.136,188758,186,266953
22.141,188773,189,266907
22.145,188754,187,266920
22.150,188766,186,266937
22.155,188758,188,266887
22.160,188763,189,266863
22.165,188773,184,266850
22.170,188786,191,266870
22.175,188787,185,266848
22.180,188790,188,266811
22.185,188779,184,266818
22.190,188800,192,266790
22.195,188795,186,266783
22.200,188790,188,266777
22.205,188819,189,266771
22.210,188824,188,266760
22.215,188836,185,266752
22.220,188853,190,266740
22.225,188850,186,266740
22.230,188851,189,266699
22.235,188866,184,266739
22.240,188870,187,266738
22.245,188894,185,266722
22.250,188886,188,266719
22.255,188909,187,266722
22.260,188900,189,266700
22.265,188922,184,266706
22.269,188921,191,266679
22.274,188922,186,266678
22.279,188949,190,266673
22.284,188962,184,266672
22.289,188962,189,266674
22.294,188971,185,266656
22.299,188997,187,266642
22.304,189017,186,266629
22.309,189020,189,266621
22.314,189019,182,266612
22.319,189051,190,266609
22.324,189039,183,266603
22.329,189088,188,266597
22.334,189119,183,266594
22.339,189151,190,266610
22.344,189131,184,266587
22.349,189163,190,266597
22.354,189192,186,266554
22.359,189199,187,266564
22.364,189231,188,266567
22.369,189255,189,266560
22.374,189259,183,266596
22.379,189307,188,266591
22.384,189321,182,266572
22.389,189342,189,266583
22.393,189373,183,266616
22.398,189423,191,266623
22.403,189441,185,266634
22.408,189462,187,266635
22.413,189490,187,266669
22.418,189510,188,266643
22.423,189524,186,266662
22.428,189560,187,266653
22.433,189595,188,266673
22.438,189611,188,266695
22.443,189622,184,266700
22.448,189628,190,266717
22.453,189658,185,266739
22.458,189690,187,266753
22.463,189690,186,266766
22.468,189724,187,266802
22.473,189774,188,266838
22.478,189799,186,266866
22.483,189829,187,266897
22.488,189860,187,266921
22.493,189899,189,266961
22.498,189930,187,267012
22.503,189974,185,267036
22.508,189996,188,267054
22.513,190042,185,267068
22.517,190059,191,267083
22.522,190073,187,267077
22.527,190133,189,267130
22.532,190170,184,267168
22.537,190177,190,267190
22.542,190215,186,267215
22.547,190257,186,267256
22.552,190283,188,267240
22.557,190301,187,267271
22.562,190321,185,267309
22.567,190356,188,267338
22.572,190413,189,267381
22.577,190430,189,267399
22.582,190468,187,267460
22.587,190497,186,267507
22.592,190534,188,267520
22.597,190583,188,267581
22.602,190602,184,267597
22.607,190628,188,267628
22.612,190656,185,267662
22.617,190680,191,267718
22.622,190722,190,267730
22.627,190732,187,267732
22.632,190746,187,267757
22.637,190772,189,267770
22.641,190782,189,267781
22.646,190811,186,267785
22.651,190815,186,267789
22.656,190817,190,267817
22.661,190831,189,267834
22.666,190862,187,267846
22.671,190876,182,267835
22.676,190884,190,267853
22.681,190904,189,267845
22.686,190912,187,267848
22.691,190908,187,267870
22.696,190933,187,267863
22.701,190951,188,267892
22.706,190979,183,267902
22.711,190980,189,267920
22.716,190996,188,267925
22.721,191004,188,267945
22.726,191038,184,267956
22.731,191061,189,267985
22.736,191054,186,268015
22.741,191075,190,267999
22.746,191093,186,268012
22.751,191095,186,268009
22.756,191110,187,268013
22.761,191111,187,268048
22.766,191119,187,268054
22.770,191143,187,268030
22.775,191153,186,268047
22.780,191170,188,268068
22.785,191184,188,268095
22.790,191201,189,268094
22.795,191203,185,268080
22.800,191204,190,268120
22.805,191234,185,268121
22.810,191227,190,268138
22.815,191238,188,268076
22.820,191244,188,268131
22.825,191262,184,268110
22.830,191260,190,268113
22.835,191280,184,268126
22.840,191258,192,268122
22.845,191280,185,268118
22.850,191289,187,268129
22.855,191292,186,268140
22.860,191326,189,268144
22.865,191323,183,268153
22.870,191328,186,268191
22.875,191333,187,268176
22.880,191348,187,268170
22.885,191364,187,268166
22.890,191369,187,268213
22.894,191373,188,268163
22.899,191370,190,268178
22.904,191359,184,268167
22.909,191364,190,268159
22.914,191375,187,268161
22.919,191365,190,268139
22.924,191390,183,268152
22.929,191378,191,268144
22.934,191381,185,268143
22.939,191380,187,268126
22.944,191375,188,268128
22.949,191393,188,268147
22.954,191390,184,268124
22.959,191391,189,268087
22.964,191374,188,268110
22.969,191384,189,268063
22.974,191372,185,268089
22.979,191381,188,268049
22.984,191383,187,268048
22.989,191381,189,268039
22.994,191375,184,268023
22.999,191366,187,268008
23.004,191347,187,267968
23.009,191343,189,267979
23.014,191322,188,267987
23.018,191315,187,267949
23.023,191295,185,267931
23.028,191289,189,267917
23.033,191258,186,267906
23.038,191241,186,267895
23.043,191226,186,267880
23.048,191204,188,267869
23.053,191209,186,267855
23.058,191194,188,267840
23.063,191186,185,267823
23.068,191158,185,267845
23.073,191159,187,267830
23.078,191154,187,267843
23.083,191123,188,267809
23.088,191123,187,267794
23.093,191123,185,267794
23.098,191120,188,267801
23.103,191132,186,267800
23.108,191119,188,267811
23.113,191117,187,267829
23.118,191116,188,267814
23.123,191119,183,267811
23.128,191114,189,267822
23.133,191119,184,267814
23.138,191121,191,267816
23.142,191125,186,267808
23.147,191129,186,267832
23.152,191134,189,267797
23.157,191132,189,267796
23.162,191116,186,267813
23.167,191133,188,267823
23.172,191132,187,267847
23.177,191148,190,267811
23.182,191151,188,267817
23.187,191136,187,267835
23.192,191162,188,267857
23.197,191152,188,267849
23.202,191183,185,267864
23.207,191181,188,267868
23.212,191170,185,267873
23.217,191202,188,267888
23.222,191210,187,267881
23.227,191218,189,267918
23.232,191218,189,267889
23.237,191223,185,267933
23.242,191242,186,267905
23.247,191238,188,267914
23.252,191231,187,267917
23.257,191223,188,267916
23.262,191238,186,267906
23.266,191240,189,267923
23.271,191234,186,267886
23.276,191245,186,267908
23.281,191242,190,267883
23.286,191234,187,267894
23.291,191232,187,267884
23.296,191234,188,267898
23.301,191255,191,267881
23.306,191238,186,267879
23.311,191224,188,267882
23.316,191241,184,267879
23.321,191231,190,267876
23.326,191225,186,267877
23.331,191234,185,267877
23.336,191233,188,267870
23.341,191229,187,267840
23.346,191218,184,267848
23.351,191223,189,267824
23.356,191222,187,267827
23.361,191201,188,267817
23.366,191225,183,267792
23.371,191194,191,267792
23.376,191190,185,267781
23.381,191189,187,267771
23.386,191169,187,267754
23.390,191172,188,267741
23.395,191186,185,267729
23.400,191171,194,267711
23.405,191149,188,267673
23.410,191166,188,267681
23.415,191150,185,267703
23.420,191138,191,267683
23.425,191160,187,267690
23.430,191154,188,267682
23.435,191155,187,267682
23.440,191163,190,267689
23.445,191172,183,267676
23.450,191177,189,267676
23.455,191145,184,267661
23.460,191163,191,267654
23.465,191145,185,267652
23.470,191152,186,267642
23.475,191136,187,267626
23.480,191140,188,267604
23.485,191137,183,267593
23.490,191126,190,267589
23.495,191135,185,267573
23.500,191133,190,267579
23.505,191127,184,267574
23.510,191140,187,267581
23.515,191150,185,267566
23.519,191132,189,267567
23.524,191138,184,267581
23.529,191141,191,267570
23.534,191150,186,267560
23.539,191154,187,267549
23.544,191160,188,267567
23.549,191163,186,267578
23.554,191145,187,267599
23.559,191154,188,267572
23.564,191158,189,267539
23.569,191138,190,267539
23.574,191131,184,267517
23.579,191095,188,267495
23.584,191091,186,267470
23.589,191050,189,267461
23.594,191020,185,267410
23.599,190975,188,267385
23.604,190964,188,267373
23.609,190930,189,267336
23.614,190907,185,267319
23.619,190878,190,267291
23.624,190884,186,267265
23.629,190854,188,267232
23.634,190823,188,267223
23.639,190801,190,267180
23.643,190784,183,267176
23.648,190781,188,267144
23.653,190781,188,267148
23.658,190748,190,267154
23.663,190731,185,267155
23.668,190738,191,267148
23.673,190720,188,267114
23.678,190715,187,267124
23.683,190712,184,267085
23.688,190702,189,267102
23.693,190687,190,267072
23.698,190654,189,267052
23.703,190663,185,267057
23.708,190671,187,267060
23.713,190669,187,267028
23.718,190632,188,267015
23.723,190643,188,267006
23.728,190634,190,266978
23.733,190614,186,266967
23.738,190594,186,266956
23.743,190589,185,266920
23.748,190552,189,266875
23.753,190539,187,266835
23.758,190517,186,266810
23.763,190510,188,266767
23.767,190489,188,266728
23.772,190469,185,266705
23.777,190462,189,266654
23.782,190420,185,266605
23.787,190391,186,266561
23.792,190370,186,266493
23.797,190339,188,266423
23.802,190287,186,266370
23.807,190266,189,266320
23.812,190210,187,266227
23.817,190170,190,266156
23.822,190124,189,266058
23.827,190081,187,265965
23.832,190023,186,265836
23.837,189962,190,265751
23.842,189903,186,265638
23.847,189821,190,265515
23.852,189760,187,265406
23.857,189700,188,265290
23.862,189632,186,265175
23.867,189569,190,265110
23.872,189510,189,264988
23.877,189464,186,264878
23.882,189409,191,264807
23.887,189342,185,264716
23.891,189299,190,264638
23.896,189243,187,264561
23.901,189216,191,264483
23.906,189164,188,264404
23.911,189103,187,264337
23.916,189064,190,264264
23.921,189025,189,264200
23.926,188995,186,264126
23.931,188951,186,264077
23.936,188921,189,264016
23.941,188870,187,263948
23.946,188853,188,263873
23.951,188838,189,263858
23.956,188821,184,263796
23.961,188781,191,263776
23.966,188765,186,263721
23.971,188663,187,263654
23.976,188653,188,263627
23.981,188644,189,263619
23.986,188613,187,263592
23.991,188596,188,263535
23.996,188595,186,263504
24.001,188571,191,263487
24.006,188537,187,263458
24.011,188546,189,263446
24.015,188522,184,263434
24.020,188530,192,263397
24.025,188516,185,263364
24.030,188515,188,263333
24.035,188514,186,263337
24.040,188510,188,263338
24.045,188492,188,263321
24.050,188488,189,263296
24.055,188505,187,263276
24.060,188468,187,263271
24.065,188486,189,263264
24.070,188475,190,263253
24.075,188464,187,263241
24.080,188492,189,263203
24.085,188468,186,263199
24.090,188468,191,263190
24.095,188459,186,263200
24.100,188470,190,263191
24.105,188476,185,263159
24.110,188468,192,263185
24.115,188482,188,263165
24.120,188475,189,263152
24.125,188462,186,263151
24.130,188471,187,263135
24.135,188484,186,263128
24.139,188488,188,263114
24.144,188473,188,263105
24.149,188469,191,263100
24.154,188468,185,263056
24.159,188445,189,263047
24.164,188439,187,263029
24.169,188416,190,263000
24.174,188392,185,262977
24.179,188371,187,262946
24.184,188340,185,262917
24.189,188321,191,262877
24.194,188306,187,262867
24.199,188272,189,262839
24.204,188263,185,262798
24.209,188216,191,262764
24.214,188221,186,262767
24.219,188202,189,262728
24.224,188201,187,262706
24.229,188162,189,262697
24.234,188170,184,262670
24.239,188149,192,262652
24.244,188145,186,262662
24.249,188120,187,262625
24.254,188134,188,262655
24.259,188134,189,262634
24.264,188119,185,262653
24.268,188121,191,262640
24.273,188133,187,262628
24.278,188130,195,262637
24.283,188126,186,262638
24.288,188126,188,262640
24.293,188116,187,262631
24.298,188109,190,262623
24.303,188100,184,262622
24.308,188101,191,262591
24.313,188091,187,262584
24.318,188084,188,262590
24.323,188071,189,262576
24.328,188068,186,262561
24.333,188053,188,262538
24.338,188054,188,262536
24.343,188055,186,262533
24.348,188045,190,262523
24.353,188045,187,262542
24.358,188053,188,262520
24.363,188063,187,262531
24.368,188048,189,262517
24.373,188057,185,262501
24.378,188044,188,262483
24.383,188037,190,262506
24.388,188061,189,262489
24.392,188025,187,262456
24.397,188036,186,262473
24.402,188025,189,262436
24.407,188037,188,262410
24.412,188010,187,262411
24.417,188029,190,262419
24.422,188016,187,262376
24.427,188005,190,262411
24.432,187985,186,262381
24.437,187990,191,262357
24.442,187997,188,262358
24.447,187971,187,262357
24.452,187978,191,262357
24.457,187984,188,262362
24.462,187978,189,262329
24.467,187968,185,262337
24.472,187947,190,262300
24.477,187939,187,262288
24.482,187936,187,262276
24.487,187924,190,262234
24.492,187908,188,262241
24.497,187905,188,262236
24.502,187906,186,262207
24.507,187890,191,262183
24.512,187896,190,262197
24.516,187895,189,262174
24.521,187878,189,262171
24.526,187873,188,262157
24.531,187873,188,262129
24.536,187885,190,262134
24.541,187882,191,262119
24.546,187880,186,262133
24.551,187867,187,262135
24.556,187883,189,262117
24.561,187872,189,262118
24.566,187850,188,262125
24.571,187838,189,262069
24.576,187842,187,262071
24.581,187847,191,262062
24.586,187836,189,262046
24.591,187840,190,262036
24.596,187820,186,262026
24.601,187835,193,262014
24.606,187836,188,262000
24.611,187813,190,261992
24.616,187823,185,262005
24.621,187831,189,261997
24.626,187830,186,261979
24.631,187848,191,262006
24.636,187839,188,261991
24.640,187840,188,261997
24.645,187842,190,262005
24.650,187836,190,261997
24.655,187849,186,262015
24.660,187852,192,261998
24.665,187850,187,262009
24.670,187851,192,261996
24.675,187864,186,262012
24.680,187851,189,261988
24.685,187857,188,261984
24.690,187874,190,261991
24.695,187866,185,261991
24.700,187875,192,261999
24.705,187894,187,261992
24.710,187902,188,261995
24.715,187908,189,261985
24.720,187892,188,261978
24.725,187895,187,261968
24.730,187889,189,261969
24.735,187910,187,261970
24.740,187883,191,261964
24.745,187897,188,261927
24.750,187866,192,261928
24.755,187851,186,261889
24.760,187839,189,261853
24.764,187817,189,261801
24.769,187786,192,261794
24.774,187757,187,261756
24.779,187723,188,261716
24.784,187690,189,261691
24.789,187666,190,261646
24.794,187659,186,261645
24.799,187634,194,261620
24.804,187608,187,261585
24.809,187588,189,261575
24.814,187575,183,261564
24.819,187550,189,261556
24.824,187543,188,261515
24.829,187524,190,261487
24.834,187496,186,261474
24.839,187507,192,261468
24.844,187489,187,261469
24.849,187470,187,261460
24.854,187478,189,261449
24.859,187477,189,261466
24.864,187478,187,261405
24.869,187450,190,261421
24.874,187458,184,261451
24.879,187445,192,261412
24.884,187443,186,261415
24.888,187426,189,261399
24.893,187418,189,261395
24.898,187416,191,261380
24.903,187418,187,261375
24.908,187393,187,261363
24.913,187396,187,261353
24.918,187379,189,261363
24.923,187364,186,261342
24.928,187379,187,261332
24.933,187380,189,261312
24.938,187359,190,261311
24.943,187374,185,261313
24.948,187369,192,261337
24.953,187368,186,261315
24.958,187382,189,261330
24.963,187362,187,261298
24.968,187378,187,261312
24.973,187402,189,261333
24.978,187396,189,261348
24.983,187384,186,261326
24.988,187413,190,261344
24.993,187395,189,261328
24.998,187392,188,261335
25.003,187386,186,261323
25.008,187383,192,261323
25.013,187390,186,261308
25.017,187380,192,261324
25.022,187374,187,261308
25.027,187395,188,261310
25.032,187370,190,261303
25.037,187373,190,261294
25.042,187379,188,261281
25.047,187362,186,261283
25.052,187371,190,261275
25.057,187346,188,261268
25.062,187346,191,261257
25.067,187359,189,261264
25.072,187348,188,261243
25.077,187324,188,261245
25.082,187339,191,261237
25.087,187329,191,261245
25.092,187338,187,261222
25.097,187319,188,261245
25.102,187338,191,261237
25.107,187329,190,261228
25.112,187336,192,261224
25.117,187332,189,261258
25.122,187331,189,261219
25.127,187345,186,261227
25.132,187336,192,261229
25.137,187339,189,261244
25.141,187337,189,261216
25.146,187344,188,261217
25.151,187351,186,261221
25.156,187332,188,261223
25.161,187337,188,261226
25.166,187343,187,261231
25.171,187345,187,261228
25.176,187364,191,261253
25.181,187367,192,261247
25.186,187348,188,261252
25.191,187373,190,261249
25.196,187379,187,261269
25.201,187386,190,261275
25.206,187391,189,261292
25.211,187386,189,261268
25.216,187406,187,261272
25.221,187409,187,261269
25.226,187398,190,261285
25.231,187421,190,261291
25.236,187407,189,261284
25.241,187406,190,261304
25.246,187407,186,261289
25.251,187421,188,261272
25.256,187413,186,261305
25.261,187446,189,261309
25.265,187452,189,261313
25.270,187458,192,261315
25.275,187466,187,261323
25.280,187467,188,261356
25.285,187482,190,261372
25.290,187495,190,261354
25.295,187489,187,261379
25.300,187484,189,261383
25.305,187530,188,261414
25.310,187515,192,261430
25.315,187533,187,261435
25.320,187544,191,261465
25.325,187543,185,261470
25.330,187552,189,261473
25.335,187558,188,261449
25.340,187553,191,261467
25.345,187568,187,261469
25.350,187560,188,261480
25.355,187553,190,261477
25.360,187560,191,261460
25.365,187543,187,261475
25.370,187529,189,261454
25.375,187534,190,261440
25.380,187534,192,261410
25.385,187517,186,261399
25.389,187475,190,261374
25.394,187467,184,261352
25.399,187438,194,261296
25.404,187408,185,261272
25.409,187381,192,261254
25.414,187347,188,261207
25.419,187340,189,261207
25.424,187329,186,261171
25.429,187297,191,261167
25.434,187289,188,261146
25.439,187278,190,261136
25.444,187265,190,261124
25.449,187225,190,261121
25.454,187255,189,261122
25.459,187230,192,261077
25.464,187234,186,261077
25.469,187231,190,261090
25.474,187227,189,261092
25.479,187220,191,261095
25.484,187215,186,261099
25.489,187250,193,261106
25.494,187253,189,261139
25.499,187275,192,261148
25.504,187284,188,261177
25.509,187278,190,261169
25.513,187281,190,261198
25.518,187308,193,261215
25.523,187301,186,261223
25.528,187312,190,261243
25.533,187323,189,261269
25.538,187347,192,261285
25.543,187350,187,261281
25.548,187373,190,261298
25.553,187373,189,261330
25.558,187403,190,261364
25.563,187413,187,261375
25.568,187442,192,261395
25.573,187443,190,261429
25.578,187467,192,261454
25.583,187488,188,261491
25.588,187511,191,261513
25.593,187541,185,261550
25.598,187552,194,261596
25.603,187574,189,261625
25.608,187611,192,261667
25.613,187626,189,261696
25.618,187645,189,261767
25.623,187692,187,261818
25.628,187728,191,261891
25.633,187770,189,261951
25.637,187815,190,261978
25.642,187847,187,262059
25.647,187872,193,262120
25.652,187919,189,262170
25.657,187956,191,262268
25.662,188005,186,262326
25.667,188036,189,262406
25.672,188066,191,262443
25.677,188097,190,262481
25.682,188113,188,262559
25.687,188147,188,262585
25.692,188161,186,262629
25.697,188200,188,262672
25.702,188234,191,262709
25.707,188263,190,262822
25.712,188300,188,262871
25.717,188341,189,262942
25.722,188349,185,262978
25.727,188383,191,263037
25.732,188412,188,263099
25.737,188446,189,263142
25.742,188477,189,263189
25.747,188505,187,263248
25.752,188515,187,263278
25.757,188560,190,263333
25.762,188592,190,263391
25.766,188598,188,263446
25.771,188614,188,263471
25.776,188636,187,263508
25.781,188664,191,263552
25.786,188690,190,263592
25.791,188711,190,263665
25.796,188730,189,263694
25.801,188749,187,263712
25.806,188760,186,263750
25.811,188786,191,263783
25.816,188819,187,263814
25.821,188842,188,263864
25.826,188875,189,263921
25.831,188895,190,263955
25.836,188919,187,263992
25.841,188951,190,264054
25.846,188970,188,264080
25.851,188987,187,264101
25.856,189002,190,264156
25.861,189027,188,264166
25.866,189054,187,264194
25.871,189069,186,264249
25.876,189100,188,264293
25.881,189105,189,264311
25.886,189126,184,264334
25.890,189137,188,264383
25.895,189159,183,264429
25.900,189170,191,264451
25.905,189202,186,264460
25.910,189232,188,264549
25.915,189267,185,264570
25.920,189298,191,264597
25.925,189311,187,264630
25.930,189311,187,264658
25.935,189319,185,264649
25.940,189371,189,264681
25.945,189367,185,264720
25.950,189377,187,264738
25.955,189394,187,264748
25.960,189406,190,264766
25.965,189419,184,264794
25.970,189431,187,264803
25.975,189456,186,264842
25.980,189473,188,264879
25.985,189503,179,264880
25.990,189510,187,264949
25.995,189538,184,264986
26.000,189562,190,265029
26.005,189586,186,265084
26.010,189629,188,265107
26.014,189647,183,265178
26.019,189689,187,265228
26.024,189735,186,265312
26.029,189760,189,265380
26.034,189789,186,265403
26.039,189772,187,265404
26.044,189772,187,265434
26.049,189780,189,265423
26.054,189793,185,265459
26.059,189787,186,265468
26.064,189783,187,265460
26.069,189767,188,265456
26.074,189753,184,265415
26.079,189727,187,265396
26.084,189694,183,265373
26.089,189691,186,265338
26.094,189667,185,265331
26.099,189644,188,265270
26.104,189621,183,265214
26.109,189582,185,265159
26.114,189560,185,265116
26.119,189519,187,265072
26.124,189482,181,265037
26.129,189478,189,264984
26.134,189435,182,264957
26.138,189446,190,264940
26.143,189439,184,264916
26.148,189432,186,264898
26.153,189436,181,264954
26.158,189433,189,264945
26.163,189438,183,264964
26.168,189401,186,264875
26.173,189360,186,264833
26.178,189328,188,264797
26.183,189339,184,264776
26.188,189323,185,264742
26.193,189310,182,264713
26.198,189277,189,264679
26.203,189258,184,264635
26.208,189241,187,264601
26.213,189221,182,264571
26.218,189217,185,264569
26.223,189205,184,264528
26.228,189181,187,264477
26.233,189182,184,264478
26.238,189189,186,264467
26.243,189195,182,264469
26.248,189195,188,264477
26.253,189200,184,264475
26.258,189198,186,264486
26.262,189195,182,264489
26.267,189214,188,264502
26.272,189223,185,264506
26.277,189208,186,264521
26.282,189234,184,264546
26.287,189232,186,264512
26.292,189240,183,264533
26.297,189252,185,264529
26.302,189236,182,264524
26.307,189247,188,264534
26.312,189262,186,264540
26.317,189272,186,264556
26.322,189270,184,264587
26.327,189282,186,264602
26.332,189295,184,264644
26.337,189304,185,264619
26.342,189311,187,264646
26.347,189310,187,264644
26.352,189327,184,264657
26.357,189331,184,264641
26.362,189334,182,264633
26.367,189329,187,264627
26.372,189316,184,264650
26.377,189318,187,264663
26.382,189342,185,264682
26.386,189340,183,264697
26.391,189355,182,264713
26.396,189343,187,264744
26.401,189386,185,264743
26.406,189382,185,264766
26.411,189394,183,264795
26.416,189406,183,264794
26.421,189399,186,264816
26.426,189416,186,264808
26.431,189422,184,264817
26.436,189416,183,264817
26.441,189417,187,264796
26.446,189422,185,264791
26.451,189413,185,264788
26.456,189398,183,264797
26.461,189423,188,264791
26.466,189420,185,264803
26.471,189428,184,264795
26.476,189423,185,264813
26.481,189444,184,264813
26.486,189442,186,264862
26.491,189452,185,264853
26.496,189489,183,264884
26.501,189489,188,264928
26.506,189518,184,264939
26.511,189551,185,264990
26.515,189549,182,265008
26.520,189560,191,265066
26.525,189554,187,265053
26.530,189587,187,265014
26.535,189604,184,265037
26.540,189586,184,265037
26.545,189578,187,265049
26.550,189599,187,265051
26.555,189604,184,265060
26.560,189613,184,265076
26.565,189631,186,265097
26.570,189626,187,265113
26.575,189648,186,265122
26.580,189661,188,265148
26.585,189684,183,265193
26.590,189701,185,265208
26.595,189708,185,265231
26.600,189734,188,265233
26.605,189757,183,265247
26.610,189769,185,265247
26.615,189758,187,265253
26.620,189779,185,265296
26.625,189791,186,265283
26.630,189791,187,265309
26.635,189796,183,265281
26.639,189795,190,265296
26.644,189793,185,265328
26.649,189812,187,265308
26.654,189818,182,265311
26.659,189809,191,265327
26.664,189837,185,265349
26.669,189838,190,265328
26.674,189827,184,265339
26.679,189835,186,265328
26.684,189818,183,265298
26.689,189800,189,265259
26.694,189789,185,265231
26.699,189739,187,265172
26.704,189722,183,265093
26.709,189683,190,265050
26.714,189628,186,264971
26.719,189592,187,264906
26.724,189551,187,264862
26.729,189523,189,264800
26.734,189500,183,264766
26.739,189472,186,264749
26.744,189428,186,264719
26.749,189416,187,264676
26.754,189380,183,264597
26.759,189341,189,264593
26.763,189330,185,264542
26.768,189321,189,264539
26.773,189303,185,264508
26.778,189286,187,264504
26.783,189259,186,264466
26.788,189250,189,264444
26.793,189230,183,264436
26.798,189222,188,264421
26.803,189247,187,264471
26.808,189243,189,264474
26.813,189270,187,264486
26.818,189270,188,264514
26.823,189270,184,264535
26.828,189290,190,264561
26.833,189301,186,264556
26.838,189281,187,264515
26.843,189257,184,264461
26.848,189244,190,264410
26.853,189196,185,264375
26.858,189182,188,264324
26.863,189177,184,264283
26.868,189119,187,264253
26.873,189122,186,264210
26.878,189092,190,264126
26.883,189074,185,264097
26.887,189064,187,264071
26.892,189043,188,264036
26.897,189035,189,264004
26.902,189024,185,264016
26.907,189034,191,263975
26.912,189014,185,263975
26.917,189021,191,263986
26.922,189037,186,263994
26.927,189051,189,263992
26.932,189040,183,264006
26.937,189058,190,263988
26.942,189040,185,263994
26.947,189040,192,263978
26.952,189021,187,263952
26.957,189028,186,263961
26.962,189021,187,263971
26.967,189049,186,264001
26.972,189056,188,264003
26.977,189059,187,264017
26.982,189066,186,264029
26.987,189079,189,264051
26.992,189097,186,264072
26.997,189141,191,264117
27.002,189130,188,264131
27.007,189120,186,264129
27.011,189125,187,264150
27.016,189158,188,264180
27.021,189152,191,264150
27.026,189164,190,264159
27.031,189150,188,264144
27.036,189133,187,264145
27.041,189138,191,264124
27.046,189151,188,264118
27.051,189134,188,264115
27.056,189120,187,264124
27.061,189125,190,264135
27.066,189150,189,264130
27.071,189134,187,264150
27.076,189135,188,264179
27.081,189149,190,264207
27.086,189176,189,264215
27.091,189191,188,264291
27.096,189182,191,264310
27.101,189202,191,264348
27.106,189217,186,264365
27.111,189249,190,264415
27.116,189238,186,264446
27.121,189254,192,264441
27.126,189267,189,264469
27.131,189295,188,264477
27.135,189268,192,264499
27.140,189278,190,264512
27.145,189292,189,264501
27.150,189291,188,264531
27.155,189288,188,264590
27.160,189308,193,264584
27.165,189330,189,264641
27.170,189333,190,264636
27.175,189359,191,264649
27.180,189369,193,264702
27.185,189397,188,264740
27.190,189406,190,264780
27.195,189447,191,264807
27.200,189476,192,264841
27.205,189481,192,264869
27.210,189476,191,264869
27.215,189482,189,264912
27.220,189497,189,264914
27.225,189529,192,264938
27.230,189524,192,264946
27.235,189544,187,264977
27.240,189542,195,264960
27.245,189523,188,264961
27.250,189533,191,264966
27.255,189536,188,264982
27.260,189556,192,264999
27.264,189566,191,265045
27.269,189584,192,265056
27.274,189601,190,265085
27.279,189605,190,265098
27.284,189626,192,265115
27.289,189644,191,265155
27.294,189673,189,265196
27.299,189682,195,265217
27.304,189705,188,265230
27.309,189700,197,265222
27.314,189702,190,265218
27.319,189709,194,265223
27.324,189713,188,265233
27.329,189701,192,265271
27.334,189699,192,265265
27.339,189704,194,265263
27.344,189714,190,265294
27.349,189715,190,265295
27.354,189727,191,265313
27.359,189720,191,265346
27.364,189721,193,265335
27.369,189735,194,265362
27.374,189737,189,265376
27.379,189750,197,265385
27.384,189732,189,265383
27.388,189747,193,265398
27.393,189734,192,265401
27.398,189736,201,265374
27.403,189710,192,265398
27.408,189722,194,265372
27.413,189729,190,265399
27.418,189724,194,265404
27.423,189735,192,265423
27.428,189732,192,265423
27.433,189750,194,265444
27.438,189743,195,265418
27.443,189752,191,265453
27.448,189749,195,265445
27.453,189757,189,265475
27.458,189743,193,265460
27.463,189764,191,265457
27.468,189743,195,265442
27.473,189755,190,265454
27.478,189743,196,265428
27.483,189725,193,265447
27.488,189711,193,265418
27.493,189715,191,265389
27.498,189716,192,265382
27.503,189674,190,265362
27.508,189687,196,265353
27.512,189659,191,265357
27.517,189684,195,265366
27.522,189675,189,265366
27.527,189680,197,265370
27.532,189698,192,265350
27.537,189673,196,265339
27.542,189674,191,265337
27.547,189661,194,265291
27.552,189657,192,265270
27.557,189641,191,265282
27.562,189636,196,265243
27.567,189609,194,265242
27.572,189616,194,265199
27.577,189615,194,265190
27.582,189591,191,265208
27.587,189581,197,265167
27.592,189588,193,265139
27.597,189546,193,265134
27.602,189559,193,265128
27.607,189541,196,265103
27.612,189525,193,265082
27.617,189511,193,265074
27.622,189516,196,265038
27.627,189488,194,265028
27.632,189484,195,265015
27.636,189474,193,264995
27.641,189460,193,264996
27.646,189442,197,264954
27.651,189432,193,264937
27.656,189421,196,264944
27.661,189440,190,264942
27.666,189435,194,264944
27.671,189430,195,264957
27.676,189432,196,264973
27.681,189426,194,264981
27.686,189447,192,264982
27.691,189437,191,264994
27.696,189458,192,264976
27.701,189451,197,264986
27.706,189458,195,264977
27.711,189455,194,264975
27.716,189438,193,264960
27.721,189444,195,264974
27.726,189427,195,264955
27.731,189440,191,264970
27.736,189426,193,264944
27.741,189442,193,264964
27.746,189439,193,264938
27.751,189415,197,264949
27.756,189425,194,264959
27.760,189409,195,264966
27.765,189435,191,264966
27.770,189422,193,264963
27.775,189399,196,264939
27.780,189406,197,264962
27.785,189389,195,264949
27.790,189389,195,264922
27.795,189399,195,264937
27.800,189417,192,264955
27.805,189396,192,264931
27.810,189398,196,264921
27.815,189390,193,264907
27.820,189382,195,264914
27.825,189385,190,264899
27.830,189391,197,264875
27.835,189372,192,264870
27.840,189388,195,264887
27.845,189374,191,264859
27.850,189390,196,264856
27.855,189395,194,264882
27.860,189398,193,264848
27.865,189389,192,264863
27.870,189385,194,264865
27.875,189388,194,264826
27.880,189368,195,264810
27.884,189381,192,264817
27.889,189366,196,264830
27.894,189351,190,264786
27.899,189326,195,264747
27.904,189312,193,264696
27.909,189296,196,264675
27.914,189275,193,264650
27.919,189251,194,264639
27.924,189220,192,264624
27.929,189245,191,264631
27.934,189222,192,264663
27.939,189224,193,264598
27.944,189208,194,264579
27.949,189190,196,264597
27.954,189173,191,264598
27.959,189170,195,264545
27.964,189133,193,264560
27.969,189118,197,264536
27.974,189096,191,264497
27.979,189080,195,264487
27.984,189108,192,264490
27.989,189089,193,264464
27.994,189054,191,264463
27.999,189062,195,264464
28.004,189043,193,264437
28.009,189045,193,264447
28.013,189025,191,264438
28.018,189044,198,264431
28.023,189033,192,264451
28.028,189026,195,264419
28.033,189009,190,264446
28.038,189022,196,264457
28.043,189024,190,264433
28.048,189031,193,264429
28.053,189010,193,264434
28.058,189019,194,264445
28.063,189019,191,264466
28.068,189017,191,264466
28.073,189027,193,264475
28.078,189028,194,264473
28.083,189033,193,264492
28.088,189037,195,264472
28.093,189043,189,264470
28.098,189022,197,264479
28.103,189042,190,264470
28.108,189047,194,264484
28.113,189051,189,264514
28.118,189088,196,264556
28.123,189104,192,264538
28.128,189107,194,264568
28.133,189133,192,264577
28.137,189151,192,264596
28.142,189154,190,264628
28.147,189173,196,264620
28.152,189197,193,264634
28.157,189202,195,264673
28.162,189246,189,264723
28.167,189226,193,264720
28.172,189224,192,264721
28.177,189199,196,264667
28.182,189204,193,264659
28.187,189213,195,264662
28.192,189216,192,264676
28.197,189217,192,264671
28.202,189216,194,264671
28.207,189222,192,264667
28.212,189222,191,264699
28.217,189209,192,264690
28.222,189228,193,264697
28.227,189234,199,264716
28.232,189270,190,264752
28.237,189304,194,264764
28.242,189295,188,264770
28.247,189306,195,264779
28.252,189316,191,264798
28.257,189318,192,264799
28.261,189347,190,264808
28.266,189357,193,264825
28.271,189361,193,264839
28.276,189376,193,264839
28.281,189373,192,264837
28.286,189381,192,264854
28.291,189384,190,264870
28.296,189385,196,264887
28.301,189403,191,264866
28.306,189399,192,264879
28.311,189427,192,264907
28.316,189424,194,264895
28.321,189422,191,264900
28.326,189443,193,264898
28.331,189457,192,264926
28.336,189439,189,264947
28.341,189443,194,264925
28.346,189465,191,264948
28.351,189455,191,264925
28.356,189464,194,264941
28.361,189467,192,264945
28.366,189492,191,264968
28.371,189492,192,264978
28.376,189510,195,264984
28.381,189510,191,264998
28.385,189527,190,265011
28.390,189523,192,265007
28.395,189563,191,265032
28.400,189539,195,265026
28.405,189564,191,265038
28.410,189561,191,265027
28.415,189590,191,265046
28.420,189611,191,265086
28.425,189635,192,265104
28.430,189657,192,265122
28.435,189674,195,265148
28.440,189707,192,265186
28.445,189713,191,265215
28.450,189774,193,265253
28.455,189790,193,265287
28.460,189848,192,265340
28.465,189906,189,265386
28.470,189922,195,265426
28.475,189954,193,265497
28.480,190006,194,265533
28.485,190040,188,265564
28.490,190064,196,265585
28.495,190073,191,265606
28.500,190107,192,265625
28.505,190118,193,265672
28.509,190124,192,265703
28.514,190138,190,265708
28.519,190150,189,265719
28.524,190148,191,265723
28.529,190152,191,265721
28.534,190147,192,265719
28.539,190152,195,265733
28.544,190155,189,265762
28.549,190150,193,265766
28.554,190165,191,265790
28.559,190152,195,265779
28.564,190159,191,265772
28.569,190151,194,265788
28.574,190158,191,265784
28.579,190164,191,265785
28.584,190140,189,265788
28.589,190152,193,265785
28.594,190137,192,265770
28.599,190131,194,265790
28.604,190131,189,265750
28.609,190118,192,265741
28.614,190128,191,265773
28.619,190134,193,265757
28.624,190148,191,265774
28.629,190137,195,265802
28.633,190150,191,265797
28.638,190143,191,265810
28.643,190151,189,265825
28.648,190172,193,265810
28.653,190162,191,265836
28.658,190156,191,265796
28.663,190145,188,265824
28.668,190147,192,265796
28.673,190156,187,265803
28.678,190145,195,265784
28.683,190129,188,265768
28.688,190138,192,265790
28.693,190156,186,265791
28.698,190128,195,265777
28.703,190151,190,265805
28.708,190156,191,265816
28.713,190147,193,265803
28.718,190171,189,265828
28.723,190165,192,265829
28.728,190159,192,265786
28.733,190167,189,265820
28.738,190149,192,265775
28.743,190137,191,265777
28.748,190152,193,265757
28.753,190130,187,265737
28.758,190145,191,265748
28.762,190135,190,265758
28.767,190138,191,265751
28.772,190145,191,265749
28.777,190138,192,265749
28.782,190146,189,265731
28.787,190173,189,265756
28.792,190152,191,265762
28.797,190152,191,265736
28.802,190160,188,265764
28.807,190146,191,265769
28.812,190152,194,265755
28.817,190158,191,265770
28.822,190176,189,265783
28.827,190182,193,265790
28.832,190219,187,265833
28.837,190232,191,265841
28.842,190252,188,265863
28.847,190287,193,265888
28.852,190297,190,265911
28.857,190336,191,265962
28.862,190366,191,265991
28.867,190417,192,266034
28.872,190453,189,266097
28.877,190484,191,266138
28.882,190479,186,266129
28.886,190472,193,266079
28.891,190458,188,266050
28.896,190458,191,266007
28.901,190471,187,265996
28.906,190456,193,265978
28.911,190469,189,265952
28.916,190460,190,265946
28.921,190451,189,265922
28.926,190469,187,265911
28.931,190461,192,265892
28.936,190439,191,265876
28.941,190449,188,265855
28.946,190449,190,265810
28.951,190430,191,265771
28.956,190426,192,265738
28.961,190416,191,265692
28.966,190413,192,265648
28.971,190380,190,265614
28.976,190367,189,265585
28.981,190375,193,265536
28.986,190346,191,265482
28.991,190324,190,265429
28.996,190307,189,265396
29.001,190305,188,265369
29.006,190295,192,265348
29.010,190298,187,265331
29.015,190279,193,265308
29.020,190260,189,265269
29.025,190258,190,265248
29.030,190263,187,265253
29.035,190243,193,265170
29.040,190220,191,265172
29.045,190228,190,265154
29.050,190210,189,265130
29.055,190195,187,265069
29.060,190162,190,265057
29.065,190144,188,264999
29.070,190106,193,264966
29.075,190101,192,264957
29.080,190070,190,264924
29.085,190030,190,264903
29.090,190029,187,264875
29.095,190008,193,264838
29.100,189997,191,264834
29.105,189940,191,264801
29.110,189949,189,264814
29.115,189932,191,264802
29.120,189919,192,264798
29.125,189911,188,264783
29.130,189905,189,264797
29.134,189896,191,264781
29.139,189896,192,264792
29.144,189848,189,264809
29.149,189838,188,264765
29.154,189833,189,264775
29.159,189851,188,264817
29.164,189863,192,264834
29.169,189831,191,264836
29.174,189846,189,264813
29.179,189817,191,264816
29.184,189811,186,264849
29.189,189832,193,264846
29.194,189830,188,264906
29.199,189836,192,264930
29.204,189860,191,264997
29.209,189864,192,264990
29.214,189849,189,265009
29.219,189844,188,265007
29.224,189843,191,264996
29.229,189840,191,265011
29.234,189837,188,265037
29.239,189827,190,265038
29.244,189843,189,265043
29.249,189834,191,265031
29.254,189804,187,265026
29.258,189783,191,265012
29.263,189779,185,265038
29.268,189797,193,265083
29.273,189790,188,265092
29.278,189795,190,265081
29.283,189749,187,265030
29.288,189740,192,265024
29.293,189720,189,264989
29.298,189724,190,264990
29.303,189737,189,265012
29.308,189735,190,265059
29.313,189778,186,265079
29.318,189760,193,265107
29.323,189769,187,265122
29.328,189757,190,265095
29.333,189777,185,265121
29.338,189756,193,265138
29.343,189780,188,265138
29.348,189782,192,265141
29.353,189779,190,265158
29.358,189786,189,265116
29.363,189776,186,265114
29.368,189761,192,265123
29.373,189765,189,265101
29.378,189734,191,265070
29.382,189726,185,265020
29.387,189723,193,265016
29.392,189710,187,265014
29.397,189702,193,264995
29.402,189723,188,265035
29.407,189728,191,265049
29.412,189734,187,265041
29.417,189735,188,265042
29.422,189743,190,265047
29.427,189764,190,265062
29.432,189770,187,265097
29.437,189801,189,265092
29.442,189812,185,265123
29.447,189829,189,265150
29.452,189866,184,265216
29.457,189894,192,265284
29.462,189918,186,265325
29.467,189955,189,265350
29.472,189999,184,265408
29.477,190045,192,265493
29.482,190113,187,265578
29.487,190130,190,265625
29.492,190173,187,265686
29.497,190176,189,265697
29.502,190202,187,265701
29.507,190203,187,265676
29.511,190218,189,265698
29.516,190244,191,265723
29.521,190253,186,265724
29.526,190273,188,265728
29.531,190281,187,265723
29.536,190293,190,265704
29.541,190296,187,265691
29.546,190305,189,265730
29.551,190317,190,265741
29.556,190362,189,265785
29.561,190397,186,265811
29.566,190403,190,265851
29.571,190424,187,265813
29.576,190438,187,265847
29.581,190461,189,265819
29.586,190454,189,265830
29.591,190487,186,265849
29.596,190493,190,265836
29.601,190520,184,265844
29.606,190525,191,265875
29.611,190568,187,265925
29.616,190576,188,265929
29.621,190587,190,265929
29.626,190606,190,265941
29.631,190605,188,265924
29.635,190644,186,265932
29.640,190657,193,265938
29.645,190667,189,265929
29.650,190674,188,265953
29.655,190684,188,265935
29.660,190679,189,265900
29.665,190680,189,265920
29.670,190691,190,265916
29.675,190685,190,265902
29.680,190686,187,265894
29.685,190684,192,265899
29.690,190712,187,265917
29.695,190723,190,265904
29.700,190731,189,265947
29.705,190725,190,265920
29.710,190759,190,265920
29.715,190755,186,265908
29.720,190761,192,265949
29.725,190783,189,265943
29.730,190803,187,265944
29.735,190823,191,265962
29.740,190860,186,266039
29.745,190932,190,266115
29.750,190977,188,266219
29.755,191015,187,266223
29.759,191064,191,266255
29.764,191102,188,266275
29.769,191116,188,266300
29.774,191182,189,266344
29.779,191223,190,266423
29.784,191290,185,266518
29.789,191318,189,266559
29.794,191373,186,266622
29.799,191410,190,266678
29.804,191458,187,266760
29.809,191509,186,266812
29.814,191528,190,266843
29.819,191553,189,266871
29.824,191585,186,266886
29.829,191597,191,266913
29.834,191622,191,266916
29.839,191610,191,266925
29.844,191606,187,266876
29.849,191626,188,266854
29.854,191606,188,266817
29.859,191600,190,266780
29.864,191583,185,266755
29.869,191593,192,266742
29.874,191600,187,266740
